version,3.0
numOfCh,1
type,point
parent_name,dirty_1dot0-0dot01
ch_type,1_1
kcount,1
numberNandB,1
brightnessNandB,1
carpet pos,0
pc,0
Time (ms),CH1 Auto-Correlation
1.0,0.038431357592344284
2.0,0.03515525907278061
3.0,0.03252444788813591
4.0,0.03021899051964283
5.0,0.028147786855697632
6.0,0.026297209784388542
7.0,0.024658624082803726
8.0,0.023216016590595245
9.0,0.021978575736284256
10.0,0.020926719531416893
11.0,0.020027870312333107
12.0,0.01919112540781498
13.0,0.01844542659819126
14.0,0.01769735850393772
15.0,0.01707468368113041
16.0,0.01649986393749714
18.0,0.015479226596653461
20.0,0.014639104716479778
22.0,0.013644455000758171
24.0,0.012720141559839249
26.0,0.01207938976585865
28.0,0.011604872532188892
30.0,0.011281603015959263
32.0,0.01087861880660057
36.0,0.009819811210036278
40.0,0.008937610313296318
44.0,0.007960885763168335
48.0,0.006898785475641489
52.0,0.006334969308227301
56.0,0.005990004166960716
60.0,0.005292441230267286
64.0,0.004634465556591749
72.0,0.0038703554309904575
80.0,0.00363402278162539
88.0,0.0036230534315109253
96.0,0.0036404086276888847
104.0,0.0023887210991233587
112.0,0.001795342774130404
120.0,0.0013709565391764045
128.0,0.0013260326813906431
144.0,0.0008415627526119351
160.0,0.0006234960746951401
176.0,0.0006366365705616772
192.0,0.0009668460115790367
208.0,0.0010932242730632424
224.0,0.0011995446402579546
240.0,0.0011853245086967945
256.0,0.0017817419720813632
288.0,0.001405301969498396
320.0,0.0013411820400506258
352.0,0.0006844457238912582
384.0,0.00036569556687027216
416.0,0.0013507307739928365
448.0,0.0018702253000810742
480.0,0.0012007816694676876
512.0,0.0007895478629507124
576.0,-0.0005486859590746462
640.0,-0.001670445199124515
704.0,-0.002921005245298147
768.0,-0.0025104295928031206
832.0,-0.0010830734390765429
896.0,-0.000497171888127923
960.0,-0.0004261000140104443
1024.0,-0.002914098557084799
1152.0,-0.0014002108946442604
1280.0,0.0009859151905402541
1408.0,-0.00014052673941478133
1536.0,0.0007351626409217715
1664.0,-0.0010633826022967696
1792.0,-9.424119343748316e-05
1920.0,0.0013543384848162532
2048.0,-0.0021218310575932264
2304.0,0.0014572158688679338
2560.0,0.0006281703826971352
2816.0,0.0006624069646932185
3072.0,1.3807486539008096e-05
3328.0,-0.0010151795577257872
3584.0,-0.00014215392002370209
3840.0,0.0005341755459085107
4096.0,0.0008280504262074828
4608.0,-0.0006652731681242585
5120.0,-0.0008574954699724913
5632.0,0.0005577575066126883
6144.0,-0.0002797702618408948
6656.0,-0.0006788056925870478
7168.0,-0.0010272444924339652
7680.0,-0.0015675823669880629
8192.0,0.0013117940397933125
9216.0,0.0005942997522652149
10240.0,-0.0022434345446527004
11264.0,0.0011192366946488619
12288.0,0.0007980850641615689
13312.0,-9.660197974881157e-05
14336.0,0.00016586732817813754
end
