version,3.0
numOfCh,1
type,point
parent_name,dirty_1dot0-0dot01
ch_type,1_1
kcount,1
numberNandB,1
brightnessNandB,1
carpet pos,0
pc,0
Time (ms),CH1 Auto-Correlation
1.0,0.5652341246604919
2.0,0.5640600323677063
3.0,0.5629271864891052
4.0,0.5618013739585876
5.0,0.560712993144989
6.0,0.5597007274627686
7.0,0.5586492419242859
8.0,0.5576479434967041
9.0,0.5566355586051941
10.0,0.5556104183197021
11.0,0.5546519160270691
12.0,0.5537106394767761
13.0,0.5527867674827576
14.0,0.551880419254303
15.0,0.5509511828422546
16.0,0.5500508546829224
18.0,0.5482668280601501
20.0,0.5465517640113831
22.0,0.5448395609855652
24.0,0.5431070923805237
26.0,0.5413991212844849
28.0,0.5397505164146423
30.0,0.5381096601486206
32.0,0.5364242196083069
36.0,0.5331777930259705
40.0,0.5302895903587341
44.0,0.5276499390602112
48.0,0.5249390006065369
52.0,0.5220562815666199
56.0,0.5189887881278992
60.0,0.5159750580787659
64.0,0.5131291747093201
72.0,0.507615327835083
80.0,0.5022398233413696
88.0,0.49675214290618896
96.0,0.4918094277381897
104.0,0.4871506989002228
112.0,0.48260682821273804
120.0,0.478037029504776
128.0,0.47360214591026306
144.0,0.4643126428127289
160.0,0.4555792212486267
176.0,0.4467286169528961
192.0,0.4371245503425598
208.0,0.42812469601631165
224.0,0.41924890875816345
240.0,0.410722941160202
256.0,0.4042757749557495
288.0,0.39689013361930847
320.0,0.3898785412311554
352.0,0.38265424966812134
384.0,0.3763149380683899
416.0,0.36929625272750854
448.0,0.3639484643936157
480.0,0.35625898838043213
512.0,0.3507159650325775
576.0,0.33694708347320557
640.0,0.31929025053977966
704.0,0.30904722213745117
768.0,0.302127480506897
832.0,0.2977694571018219
896.0,0.30163678526878357
960.0,0.30429670214653015
1024.0,0.3072054982185364
1152.0,0.29913216829299927
1280.0,0.28718629479408264
1408.0,0.2580934762954712
1536.0,0.23551902174949646
1664.0,0.2064286172389984
1792.0,0.16150830686092377
1920.0,0.12989594042301178
2048.0,0.12894076108932495
2304.0,0.1373758316040039
2560.0,0.12252022325992584
2816.0,0.111849844455719
3072.0,0.07468900084495544
3328.0,0.026716133579611778
3584.0,-0.0021311361342668533
3840.0,-0.015861256048083305
4096.0,-0.04117390885949135
4608.0,-0.06764693558216095
5120.0,-0.130392923951149
5632.0,-0.17007090151309967
6144.0,-0.21995791792869568
6656.0,-0.23573464155197144
7168.0,-0.22055916488170624
7680.0,-0.18272845447063446
8192.0,-0.196614608168602
9216.0,-0.19929052889347076
10240.0,-0.1265726089477539
11264.0,-0.07510009407997131
12288.0,-0.11437545716762543
13312.0,-0.2135494351387024
14336.0,-0.08350670337677002
end
