version,3.0
numOfCh,1
type,point
parent_name,dirty_1dot0-0dot01
ch_type,1_1
kcount,1
numberNandB,1
brightnessNandB,1
carpet pos,0
pc,0
Time (ms),CH1 Auto-Correlation
1.0,0.27100640535354614
2.0,0.2681506276130676
3.0,0.26567620038986206
4.0,0.26341143250465393
5.0,0.26135653257369995
6.0,0.259488046169281
7.0,0.2579103112220764
8.0,0.2564482092857361
9.0,0.2550002336502075
10.0,0.25363820791244507
11.0,0.2522932291030884
12.0,0.25102585554122925
13.0,0.24986176192760468
14.0,0.2488079071044922
15.0,0.24784258008003235
16.0,0.24681104719638824
18.0,0.24483135342597961
20.0,0.2430906444787979
22.0,0.24145722389221191
24.0,0.2398523986339569
26.0,0.23844847083091736
28.0,0.23700697720050812
30.0,0.23570474982261658
32.0,0.23434887826442719
36.0,0.23179487884044647
40.0,0.22903506457805634
44.0,0.22616086900234222
48.0,0.22307243943214417
52.0,0.22057285904884338
56.0,0.21817415952682495
60.0,0.21625399589538574
64.0,0.2144450694322586
72.0,0.21087278425693512
80.0,0.20744895935058594
88.0,0.20378166437149048
96.0,0.19929441809654236
104.0,0.19493897259235382
112.0,0.19061899185180664
120.0,0.18569184839725494
128.0,0.18063956499099731
144.0,0.17264209687709808
160.0,0.1662016659975052
176.0,0.16003485023975372
192.0,0.15339718759059906
208.0,0.145737424492836
224.0,0.13912910223007202
240.0,0.13494214415550232
256.0,0.13393838703632355
288.0,0.13523685932159424
320.0,0.13652820885181427
352.0,0.13968752324581146
384.0,0.14627987146377563
416.0,0.15129809081554413
448.0,0.15830564498901367
480.0,0.1630900800228119
512.0,0.15801848471164703
576.0,0.13690483570098877
640.0,0.11520247161388397
704.0,0.09807319939136505
768.0,0.09013887494802475
832.0,0.09376662969589233
896.0,0.09782473742961884
960.0,0.09625453501939774
1024.0,0.08265041559934616
1152.0,0.048150233924388885
1280.0,0.035576432943344116
1408.0,0.045147377997636795
1536.0,0.03585965186357498
1664.0,0.018154244869947433
1792.0,-5.549126217374578e-05
1920.0,-0.0020860431250184774
2048.0,-0.0018693245947360992
2304.0,-0.011384442448616028
2560.0,-0.023516930639743805
2816.0,-0.026223672553896904
3072.0,-0.03439650684595108
3328.0,-0.03519263491034508
3584.0,-0.029730893671512604
3840.0,-0.032527338713407516
4096.0,-0.02610655687749386
4608.0,-0.010180971585214138
5120.0,-0.013809469528496265
5632.0,-0.014386792667210102
6144.0,-0.01713435910642147
6656.0,-0.01451624184846878
7168.0,-0.017399365082383156
7680.0,-0.01411630492657423
8192.0,-0.02271338738501072
9216.0,-0.03719538077712059
10240.0,-0.049410879611968994
11264.0,-0.05731933191418648
12288.0,-0.09021847695112228
13312.0,-0.02011716552078724
14336.0,0.03256584703922272
end
