version,3.0
numOfCh,1
type,point
parent_name,dirty_1dot0-0dot01
ch_type,1_1
kcount,1
numberNandB,1
brightnessNandB,1
carpet pos,0
pc,0
Time (ms),CH1 Auto-Correlation
1.0,0.7299242615699768
2.0,0.7266257405281067
3.0,0.7235067486763
4.0,0.7207019329071045
5.0,0.7180313467979431
6.0,0.715545117855072
7.0,0.7131052017211914
8.0,0.7107929587364197
9.0,0.7085497975349426
10.0,0.7064189314842224
11.0,0.704367458820343
12.0,0.7024383544921875
13.0,0.7005731463432312
14.0,0.6986322999000549
15.0,0.6967867016792297
16.0,0.6949671506881714
18.0,0.6913987994194031
20.0,0.6880605816841125
22.0,0.6851363778114319
24.0,0.682336688041687
26.0,0.6797087788581848
28.0,0.6771905422210693
30.0,0.6748466491699219
32.0,0.6723820567131042
36.0,0.6679619550704956
40.0,0.6624631285667419
44.0,0.6569278836250305
48.0,0.6516320705413818
52.0,0.6464289426803589
56.0,0.6416420936584473
60.0,0.6371052861213684
64.0,0.6323091387748718
72.0,0.622272789478302
80.0,0.6115742921829224
88.0,0.6000829339027405
96.0,0.5887883305549622
104.0,0.5773940086364746
112.0,0.5655270218849182
120.0,0.55411297082901
128.0,0.5427853465080261
144.0,0.5182912349700928
160.0,0.4940197765827179
176.0,0.47010335326194763
192.0,0.4474216401576996
208.0,0.4272599220275879
224.0,0.4079262912273407
240.0,0.3882197439670563
256.0,0.37571296095848083
288.0,0.35902076959609985
320.0,0.3399410843849182
352.0,0.3230290710926056
384.0,0.30707594752311707
416.0,0.3052474558353424
448.0,0.302496075630188
480.0,0.29041042923927307
512.0,0.27648407220840454
576.0,0.25941702723503113
640.0,0.23997855186462402
704.0,0.22124026715755463
768.0,0.22842563688755035
832.0,0.22049781680107117
896.0,0.2156250774860382
960.0,0.20470021665096283
1024.0,0.1924738585948944
1152.0,0.17296753823757172
1280.0,0.14275138080120087
1408.0,0.05014297738671303
1536.0,-0.001095362938940525
1664.0,-0.015265578404068947
1792.0,-0.01688845269382
1920.0,-0.013680679723620415
2048.0,-0.008918190374970436
2304.0,-0.00980288814753294
2560.0,-0.009245691820979118
2816.0,-0.011583372950553894
3072.0,-0.011094965972006321
3328.0,-0.004716822411864996
3584.0,-0.0028637766372412443
3840.0,0.0024064932949841022
4096.0,0.000125214020954445
4608.0,-0.009810674004256725
5120.0,-0.01473922934383154
5632.0,-0.041480861604213715
6144.0,-0.03972846642136574
6656.0,-0.05322664976119995
7168.0,-0.05357781797647476
7680.0,-0.023043306544423103
8192.0,-0.033544912934303284
9216.0,-0.06400254368782043
10240.0,-0.09634222835302353
11264.0,-0.12743954360485077
12288.0,-0.150834858417511
13312.0,-0.20939292013645172
14336.0,-0.34040766954421997
end
