version,3.0
numOfCh,1
type,point
parent_name,dirty_1dot0-0dot01
ch_type,1_1
kcount,1
numberNandB,1
brightnessNandB,1
carpet pos,0
pc,0
Time (ms),CH1 Auto-Correlation
1.0,0.43446093797683716
2.0,0.43225786089897156
3.0,0.43032991886138916
4.0,0.42870962619781494
5.0,0.427273154258728
6.0,0.425954669713974
7.0,0.4247339963912964
8.0,0.4235664904117584
9.0,0.422494500875473
10.0,0.4214889407157898
11.0,0.42055779695510864
12.0,0.41967612504959106
13.0,0.4187704920768738
14.0,0.4179080128669739
15.0,0.4170827865600586
16.0,0.4163019359111786
18.0,0.41496407985687256
20.0,0.4136987328529358
22.0,0.4125790297985077
24.0,0.4115113914012909
26.0,0.41047048568725586
28.0,0.4094713628292084
30.0,0.4085273742675781
32.0,0.4074505865573883
36.0,0.40559157729148865
40.0,0.4044528603553772
44.0,0.4036588668823242
48.0,0.40286335349082947
52.0,0.40214329957962036
56.0,0.4013453722000122
60.0,0.400638222694397
64.0,0.4001641273498535
72.0,0.3990263044834137
80.0,0.39746370911598206
88.0,0.39567551016807556
96.0,0.39331305027008057
104.0,0.39031362533569336
112.0,0.3874363601207733
120.0,0.3843323886394501
128.0,0.3818661570549011
144.0,0.3786580264568329
160.0,0.37519603967666626
176.0,0.3709685206413269
192.0,0.36819711327552795
208.0,0.36487844586372375
224.0,0.3620107173919678
240.0,0.3595570921897888
256.0,0.3572763502597809
288.0,0.35110071301460266
320.0,0.34564208984375
352.0,0.3412471413612366
384.0,0.3357934057712555
416.0,0.32944464683532715
448.0,0.3262498378753662
480.0,0.3204735517501831
512.0,0.31330665946006775
576.0,0.3037169873714447
640.0,0.29254499077796936
704.0,0.2828037440776825
768.0,0.2724795937538147
832.0,0.263355553150177
896.0,0.24904663860797882
960.0,0.23139294981956482
1024.0,0.21213290095329285
1152.0,0.17322075366973877
1280.0,0.13714833557605743
1408.0,0.11534658074378967
1536.0,0.09788793325424194
1664.0,0.07699108868837357
1792.0,0.06146877631545067
1920.0,0.04661127179861069
2048.0,0.027750078588724136
2304.0,0.001965863397344947
2560.0,-0.013488027267158031
2816.0,-0.018115414306521416
3072.0,-0.016729246824979782
3328.0,-0.015353825874626637
3584.0,-0.012553395703434944
3840.0,-0.01005572360008955
4096.0,-0.01156134344637394
4608.0,-0.01546876784414053
5120.0,-0.0239015594124794
5632.0,-0.03461353853344917
6144.0,-0.03832509368658066
6656.0,-0.04455692321062088
7168.0,-0.05411193519830704
7680.0,-0.060945622622966766
8192.0,-0.06663243472576141
9216.0,-0.07637859135866165
10240.0,-0.1031840369105339
11264.0,-0.12767519056797028
12288.0,-0.16733263432979584
13312.0,-0.23900452256202698
14336.0,-0.4022141098976135
end
