version,3.0
numOfCh,1
type,point
parent_name,dirty_1dot0-0dot01
ch_type,1_1
kcount,1
numberNandB,1
brightnessNandB,1
carpet pos,0
pc,0
Time (ms),CH1 Auto-Correlation
1.0,0.6117696166038513
2.0,0.6106842756271362
3.0,0.6096611022949219
4.0,0.6087032556533813
5.0,0.6077855229377747
6.0,0.6068707704544067
7.0,0.6059836745262146
8.0,0.605122983455658
9.0,0.6042906641960144
10.0,0.6034728288650513
11.0,0.6026761531829834
12.0,0.6018918752670288
13.0,0.6010869145393372
14.0,0.6003142595291138
15.0,0.5995650291442871
16.0,0.5987889766693115
18.0,0.5972077250480652
20.0,0.5956092476844788
22.0,0.5940017700195312
24.0,0.5923822522163391
26.0,0.5908558368682861
28.0,0.589346170425415
30.0,0.5878486037254333
32.0,0.586422860622406
36.0,0.5834692120552063
40.0,0.5803402066230774
44.0,0.5772295594215393
48.0,0.5744004845619202
52.0,0.5716933012008667
56.0,0.5690641403198242
60.0,0.5664247870445251
64.0,0.5638226866722107
72.0,0.5588158369064331
80.0,0.5542126297950745
88.0,0.5498758554458618
96.0,0.5459777116775513
104.0,0.5421835780143738
112.0,0.5383862853050232
120.0,0.5346033573150635
128.0,0.5309156775474548
144.0,0.5228607058525085
160.0,0.5137415528297424
176.0,0.5040650367736816
192.0,0.4940561354160309
208.0,0.4837958514690399
224.0,0.4740028381347656
240.0,0.46452605724334717
256.0,0.4546412229537964
288.0,0.4373560845851898
320.0,0.42230457067489624
352.0,0.4057968556880951
384.0,0.38642558455467224
416.0,0.36663341522216797
448.0,0.3496263921260834
480.0,0.3342742621898651
512.0,0.31814417243003845
576.0,0.2836574912071228
640.0,0.24612195789813995
704.0,0.21086399257183075
768.0,0.1704268455505371
832.0,0.13858015835285187
896.0,0.11055414378643036
960.0,0.0843062475323677
1024.0,0.06534472852945328
1152.0,0.021691132336854935
1280.0,-0.019937820732593536
1408.0,-0.06365182995796204
1536.0,-0.09992809593677521
1664.0,-0.1259913444519043
1792.0,-0.13489609956741333
1920.0,-0.12196136265993118
2048.0,-0.10034976899623871
2304.0,-0.08060773462057114
2560.0,-0.07610207796096802
2816.0,-0.07352056354284286
3072.0,-0.06616411358118057
3328.0,-0.033649563789367676
3584.0,-0.006697387900203466
3840.0,0.009902892634272575
4096.0,0.04515381157398224
4608.0,0.05506889149546623
5120.0,-0.025778543204069138
5632.0,-0.05676507577300072
6144.0,-0.03533756360411644
6656.0,-0.05188500136137009
7168.0,-0.08227738738059998
7680.0,-0.11264409124851227
8192.0,-0.014227145351469517
9216.0,0.2846840023994446
10240.0,0.09411968290805817
11264.0,-0.12122350931167603
12288.0,-0.08089525997638702
13312.0,-0.3560035526752472
14336.0,-0.7009802460670471
end
