version,3.0
numOfCh,1
type,point
parent_name,dirty_1dot0-0dot01
ch_type,1_1
kcount,1
numberNandB,1
brightnessNandB,1
carpet pos,0
pc,0
Time (ms),CH1 Auto-Correlation
1.0,0.4716110825538635
2.0,0.47035980224609375
3.0,0.46922585368156433
4.0,0.46819233894348145
5.0,0.4672326445579529
6.0,0.4662974774837494
7.0,0.4654475152492523
8.0,0.46466100215911865
9.0,0.4639187455177307
10.0,0.4631861746311188
11.0,0.4624866545200348
12.0,0.4617980718612671
13.0,0.46111860871315
14.0,0.4604550302028656
15.0,0.45983561873435974
16.0,0.4592181444168091
18.0,0.4579888880252838
20.0,0.4567120373249054
22.0,0.45543527603149414
24.0,0.454145610332489
26.0,0.4528450071811676
28.0,0.45157915353775024
30.0,0.45036786794662476
32.0,0.44921281933784485
36.0,0.4471302330493927
40.0,0.445302814245224
44.0,0.44361186027526855
48.0,0.4422387480735779
52.0,0.4409368634223938
56.0,0.43961015343666077
60.0,0.43820637464523315
64.0,0.4367539584636688
72.0,0.43411239981651306
80.0,0.43115609884262085
88.0,0.42775067687034607
96.0,0.42415833473205566
104.0,0.42110753059387207
112.0,0.4181244373321533
120.0,0.4150795042514801
128.0,0.4122639000415802
144.0,0.40719249844551086
160.0,0.40349632501602173
176.0,0.4005982577800751
192.0,0.3981765806674957
208.0,0.3965775668621063
224.0,0.3959314823150635
240.0,0.39607417583465576
256.0,0.39583101868629456
288.0,0.3954770267009735
320.0,0.3952847421169281
352.0,0.3949297070503235
384.0,0.3933010995388031
416.0,0.3902491629123688
448.0,0.3848003149032593
480.0,0.3819319009780884
512.0,0.3784227967262268
576.0,0.3735749125480652
640.0,0.3692527711391449
704.0,0.364803671836853
768.0,0.35900232195854187
832.0,0.34505900740623474
896.0,0.32753920555114746
960.0,0.3142150044441223
1024.0,0.30544501543045044
1152.0,0.2970212399959564
1280.0,0.2781153619289398
1408.0,0.26184624433517456
1536.0,0.2500229775905609
1664.0,0.22333945333957672
1792.0,0.20648744702339172
1920.0,0.20123274624347687
2048.0,0.18195919692516327
2304.0,0.1509668231010437
2560.0,0.1167186051607132
2816.0,0.07314548641443253
3072.0,0.04028698056936264
3328.0,0.012376373633742332
3584.0,-0.01480739563703537
3840.0,-0.030201952904462814
4096.0,-0.05169929563999176
4608.0,-0.07916906476020813
5120.0,-0.11613607406616211
5632.0,-0.1554555892944336
6144.0,-0.19615471363067627
6656.0,-0.22344747185707092
7168.0,-0.23685523867607117
7680.0,-0.2407965064048767
8192.0,-0.2329164296388626
9216.0,-0.2112724930047989
10240.0,-0.2415940761566162
11264.0,-0.20116163790225983
12288.0,-0.09756708145141602
13312.0,0.0797344446182251
14336.0,0.22735008597373962
end
