version,3.0
numOfCh,1
type,point
parent_name,dirty_1dot0-0dot01
ch_type,1_1
kcount,1
numberNandB,1
brightnessNandB,1
carpet pos,0
pc,0
Time (ms),CH1 Auto-Correlation
1.0,0.24727509915828705
2.0,0.2464994341135025
3.0,0.24573732912540436
4.0,0.24501998722553253
5.0,0.24434056878089905
6.0,0.24366919696331024
7.0,0.24300846457481384
8.0,0.24236203730106354
9.0,0.2417338788509369
10.0,0.24109669029712677
11.0,0.24047109484672546
12.0,0.2398725152015686
13.0,0.23929977416992188
14.0,0.23870274424552917
15.0,0.2380950003862381
16.0,0.23749780654907227
18.0,0.2362900674343109
20.0,0.23509523272514343
22.0,0.23391713201999664
24.0,0.23275621235370636
26.0,0.23167675733566284
28.0,0.23061326146125793
30.0,0.22957780957221985
32.0,0.22852250933647156
36.0,0.22636674344539642
40.0,0.2241067886352539
44.0,0.22188669443130493
48.0,0.21963386237621307
52.0,0.21740159392356873
56.0,0.21522089838981628
60.0,0.21319831907749176
64.0,0.2111780345439911
72.0,0.20685063302516937
80.0,0.20252272486686707
88.0,0.19845421612262726
96.0,0.19454430043697357
104.0,0.1905752420425415
112.0,0.18661896884441376
120.0,0.18269704282283783
128.0,0.1787998229265213
144.0,0.17091667652130127
160.0,0.16372664272785187
176.0,0.15822598338127136
192.0,0.15382730960845947
208.0,0.14942991733551025
224.0,0.1451886147260666
240.0,0.14053210616111755
256.0,0.13519920408725739
288.0,0.1237201988697052
320.0,0.11080076545476913
352.0,0.09690637141466141
384.0,0.08445155620574951
416.0,0.07459548860788345
448.0,0.0668235644698143
480.0,0.0599810965359211
512.0,0.052751220762729645
576.0,0.03486567735671997
640.0,0.01743331551551819
704.0,0.006384795531630516
768.0,0.002938198624178767
832.0,0.006978050339967012
896.0,0.011716410517692566
960.0,0.012593100778758526
1024.0,0.009751194156706333
1152.0,0.005028015933930874
1280.0,-0.004896083381026983
1408.0,-0.005474120378494263
1536.0,-0.018520675599575043
1664.0,-0.019063901156187057
1792.0,-0.019560841843485832
1920.0,-0.008594181388616562
2048.0,0.0036305021494627
2304.0,0.007533730939030647
2560.0,0.005775392521172762
2816.0,0.013236284255981445
3072.0,0.02300831861793995
3328.0,0.018427452072501183
3584.0,0.004605455324053764
3840.0,0.005016162060201168
4096.0,0.01096067763864994
4608.0,-0.004550027661025524
5120.0,-0.029705846682190895
5632.0,-0.03376631438732147
6144.0,-0.05499344691634178
6656.0,-0.0361911840736866
7168.0,-0.03028498776257038
7680.0,-0.07071824371814728
8192.0,-0.04547492787241936
9216.0,-0.06432899087667465
10240.0,-0.012121845036745071
11264.0,0.06098406761884689
12288.0,-0.004136895295232534
13312.0,-0.07430464774370193
14336.0,0.10241640359163284
end
