version,3.0
numOfCh,1
type,point
parent_name,dirty_1dot0-0dot01
ch_type,1_1
kcount,1
numberNandB,1
brightnessNandB,1
carpet pos,0
pc,0
Time (ms),CH1 Auto-Correlation
1.0,0.27395182847976685
2.0,0.2715027332305908
3.0,0.2693708539009094
4.0,0.2674398124217987
5.0,0.2657385468482971
6.0,0.26419708132743835
7.0,0.2627277970314026
8.0,0.26140984892845154
9.0,0.2601770758628845
10.0,0.259081095457077
11.0,0.2580353319644928
12.0,0.25715211033821106
13.0,0.2562974691390991
14.0,0.2554117739200592
15.0,0.2545604705810547
16.0,0.2537469267845154
18.0,0.2522255778312683
20.0,0.25070488452911377
22.0,0.24928201735019684
24.0,0.24792955815792084
26.0,0.24668534100055695
28.0,0.24539878964424133
30.0,0.24409115314483643
32.0,0.2428359091281891
36.0,0.24040132761001587
40.0,0.23810672760009766
44.0,0.2357787787914276
48.0,0.23383891582489014
52.0,0.2319258451461792
56.0,0.22966836392879486
60.0,0.22737738490104675
64.0,0.22500333189964294
72.0,0.22095295786857605
80.0,0.2169998288154602
88.0,0.21287454664707184
96.0,0.20849815011024475
104.0,0.2041976898908615
112.0,0.1995370239019394
120.0,0.19458653032779694
128.0,0.19054242968559265
144.0,0.18367841839790344
160.0,0.17778140306472778
176.0,0.17290423810482025
192.0,0.16864904761314392
208.0,0.1643940806388855
224.0,0.16160891950130463
240.0,0.15893475711345673
256.0,0.1562633514404297
288.0,0.1517925262451172
320.0,0.14659683406352997
352.0,0.13983218371868134
384.0,0.12811660766601562
416.0,0.115733802318573
448.0,0.104629285633564
480.0,0.09458619356155396
512.0,0.08731596171855927
576.0,0.07694987952709198
640.0,0.06710353493690491
704.0,0.060168907046318054
768.0,0.05683017894625664
832.0,0.057424575090408325
896.0,0.057604413479566574
960.0,0.054998863488435745
1024.0,0.050922881811857224
1152.0,0.04577892646193504
1280.0,0.03136267140507698
1408.0,0.007574908901005983
1536.0,-0.006388678681105375
1664.0,-0.012580130249261856
1792.0,-0.01362248882651329
1920.0,-0.014556053094565868
2048.0,-0.015693020075559616
2304.0,-0.015034179203212261
2560.0,-0.01939154975116253
2816.0,-0.020036086440086365
3072.0,-0.01794959418475628
3328.0,-0.018568990752100945
3584.0,-0.021579362452030182
3840.0,-0.02202136628329754
4096.0,-0.019681964069604874
4608.0,-0.010006600990891457
5120.0,0.006893233396112919
5632.0,0.02755705825984478
6144.0,0.03992060199379921
6656.0,0.01367227640002966
7168.0,-0.0002862527035176754
7680.0,-0.002874563680961728
8192.0,-0.02134798653423786
9216.0,-0.0434141643345356
10240.0,-0.01817532442510128
11264.0,0.004169249441474676
12288.0,-0.07285405695438385
13312.0,-0.10742031037807465
14336.0,-0.21468737721443176
end
