version,3.0
numOfCh,1
type,point
parent_name,dirty_1dot0-0dot01
ch_type,1_1
kcount,1
numberNandB,1
brightnessNandB,1
carpet pos,0
pc,0
Time (ms),CH1 Auto-Correlation
1.0,0.12458544969558716
2.0,0.12134117633104324
3.0,0.11841640621423721
4.0,0.11580706387758255
5.0,0.11363741755485535
6.0,0.11163070052862167
7.0,0.10971112549304962
8.0,0.1079961434006691
9.0,0.10643242299556732
10.0,0.10506720095872879
11.0,0.10384879261255264
12.0,0.10257513076066971
13.0,0.10143521428108215
14.0,0.10036048293113708
15.0,0.09937308728694916
16.0,0.09849115461111069
18.0,0.096676766872406
20.0,0.09503845125436783
22.0,0.09347154200077057
24.0,0.09204288572072983
26.0,0.09082737565040588
28.0,0.0897219330072403
30.0,0.08856740593910217
32.0,0.08724064379930496
36.0,0.08482173830270767
40.0,0.08306436985731125
44.0,0.08125617355108261
48.0,0.07954072207212448
52.0,0.07789811491966248
56.0,0.07609108090400696
60.0,0.07431785017251968
64.0,0.07247519493103027
72.0,0.0697137713432312
80.0,0.06750292330980301
88.0,0.06543786823749542
96.0,0.06209547817707062
104.0,0.060130901634693146
112.0,0.05837953835725784
120.0,0.0562276728451252
128.0,0.0547124519944191
144.0,0.05352023243904114
160.0,0.05226739123463631
176.0,0.04947412759065628
192.0,0.04828890785574913
208.0,0.04604674130678177
224.0,0.04499765858054161
240.0,0.043860796838998795
256.0,0.043111223727464676
288.0,0.035534828901290894
320.0,0.029243919998407364
352.0,0.02597704529762268
384.0,0.02428068034350872
416.0,0.024977007880806923
448.0,0.022616755217313766
480.0,0.021130463108420372
512.0,0.019021382555365562
576.0,0.013803305104374886
640.0,0.01319422572851181
704.0,0.007525802124291658
768.0,0.005324080586433411
832.0,0.004558772314339876
896.0,0.004278875887393951
960.0,0.005059339106082916
1024.0,0.004284813534468412
1152.0,-0.0021128624211996794
1280.0,-0.0020207606721669436
1408.0,-0.003369507845491171
1536.0,-0.0037700894754379988
1664.0,-0.0049541485495865345
1792.0,-0.0020216505508869886
1920.0,-0.0035008552949875593
2048.0,-0.01068174559623003
2304.0,-0.00904261413961649
2560.0,-0.009168175980448723
2816.0,-0.008362841792404652
3072.0,-0.0005343488301150501
3328.0,0.0007964703254401684
3584.0,0.009571020491421223
3840.0,0.00984759721904993
4096.0,0.009172840975224972
4608.0,0.00965458620339632
5120.0,-0.0051681874319911
5632.0,-0.0014157466357573867
6144.0,2.9354672733461484e-05
6656.0,-0.0016512633301317692
7168.0,-0.004437549505382776
7680.0,-0.014945379458367825
8192.0,-0.010530367493629456
9216.0,-0.00916592963039875
10240.0,-0.0013443533098325133
11264.0,0.0007263083825819194
12288.0,-0.003173145931214094
13312.0,-0.020644383504986763
14336.0,-0.021101100370287895
end
