version,3.0
numOfCh,1
type,point
parent_name,dirty_1dot0-0dot01
ch_type,1_1
kcount,1
numberNandB,1
brightnessNandB,1
carpet pos,0
pc,0
Time (ms),CH1 Auto-Correlation
1.0,0.3153805732727051
2.0,0.3142862021923065
3.0,0.3132764399051666
4.0,0.3122868239879608
5.0,0.3113556504249573
6.0,0.3104471266269684
7.0,0.30953606963157654
8.0,0.30868300795555115
9.0,0.3078438937664032
10.0,0.30700740218162537
11.0,0.30619606375694275
12.0,0.30537140369415283
13.0,0.30456623435020447
14.0,0.3037545680999756
15.0,0.30293893814086914
16.0,0.30215153098106384
18.0,0.3006499707698822
20.0,0.2991887032985687
22.0,0.2976997196674347
24.0,0.2961719334125519
26.0,0.2946760654449463
28.0,0.29319635033607483
30.0,0.2918255031108856
32.0,0.2905229330062866
36.0,0.28808099031448364
40.0,0.28580087423324585
44.0,0.2835952043533325
48.0,0.28131502866744995
52.0,0.2790617346763611
56.0,0.2768721580505371
60.0,0.27486345171928406
64.0,0.2729197144508362
72.0,0.26861974596977234
80.0,0.26429545879364014
88.0,0.26012811064720154
96.0,0.25651535391807556
104.0,0.2529350817203522
112.0,0.24976368248462677
120.0,0.24696600437164307
128.0,0.2440444976091385
144.0,0.23802435398101807
160.0,0.23218439519405365
176.0,0.22602960467338562
192.0,0.22019781172275543
208.0,0.21526925265789032
224.0,0.21007612347602844
240.0,0.20376437902450562
256.0,0.19705693423748016
288.0,0.18377147614955902
320.0,0.17008011043071747
352.0,0.1559554785490036
384.0,0.1452910602092743
416.0,0.1352439522743225
448.0,0.12420282512903214
480.0,0.11387630552053452
512.0,0.10345420986413956
576.0,0.09119772166013718
640.0,0.07973968982696533
704.0,0.06623975932598114
768.0,0.05425041913986206
832.0,0.05253693088889122
896.0,0.04933414235711098
960.0,0.040763065218925476
1024.0,0.034706033766269684
1152.0,0.03536507859826088
1280.0,0.04257176071405411
1408.0,0.043600816279649734
1536.0,0.04358810931444168
1664.0,0.041114676743745804
1792.0,0.02609572932124138
1920.0,0.009121802635490894
2048.0,-0.005331649910658598
2304.0,-0.01661188155412674
2560.0,-0.02164936251938343
2816.0,-0.032014429569244385
3072.0,-0.05943435803055763
3328.0,-0.07232674211263657
3584.0,-0.05101130157709122
3840.0,-0.03300028294324875
4096.0,-0.04398401826620102
4608.0,-0.08374536037445068
5120.0,-0.13382142782211304
5632.0,-0.11942500621080399
6144.0,-0.07304110378026962
6656.0,-0.03960679471492767
7168.0,-0.014810075983405113
7680.0,0.04026901349425316
8192.0,0.055668894201517105
9216.0,0.0037804339081048965
10240.0,0.05290079489350319
11264.0,0.07495899498462677
12288.0,0.027804946526885033
13312.0,-0.055651914328336716
14336.0,-0.05782359838485718
end
