version,3.0
numOfCh,1
type,point
parent_name,dirty_1dot0-0dot01
ch_type,1_1
kcount,1
numberNandB,1
brightnessNandB,1
carpet pos,0
pc,0
Time (ms),CH1 Auto-Correlation
1.0,0.579404354095459
2.0,0.5779126286506653
3.0,0.5765333771705627
4.0,0.5752131342887878
5.0,0.5740280151367188
6.0,0.5729657411575317
7.0,0.5719455480575562
8.0,0.5709841847419739
9.0,0.57002854347229
10.0,0.5691155195236206
11.0,0.5682200789451599
12.0,0.5673648118972778
13.0,0.5665583610534668
14.0,0.5657428503036499
15.0,0.5649560689926147
16.0,0.5641719698905945
18.0,0.5627844929695129
20.0,0.56145179271698
22.0,0.5601781606674194
24.0,0.5589516758918762
26.0,0.5577778816223145
28.0,0.5566412806510925
30.0,0.5555187463760376
32.0,0.5543380975723267
36.0,0.552099883556366
40.0,0.549763023853302
44.0,0.5474671125411987
48.0,0.5451614260673523
52.0,0.5428345799446106
56.0,0.5406373739242554
60.0,0.5384954214096069
64.0,0.536359965801239
72.0,0.5326464772224426
80.0,0.5291476845741272
88.0,0.52549147605896
96.0,0.5218418836593628
104.0,0.5179300308227539
112.0,0.5141830444335938
120.0,0.5108034014701843
128.0,0.5077696442604065
144.0,0.5014070868492126
160.0,0.4954962730407715
176.0,0.49021297693252563
192.0,0.486181378364563
208.0,0.4837402105331421
224.0,0.4816182255744934
240.0,0.47985517978668213
256.0,0.47752517461776733
288.0,0.4718555212020874
320.0,0.46648603677749634
352.0,0.4597964584827423
384.0,0.4525105357170105
416.0,0.4449087083339691
448.0,0.43663230538368225
480.0,0.4289514422416687
512.0,0.4232574999332428
576.0,0.41622990369796753
640.0,0.4089684784412384
704.0,0.3981965482234955
768.0,0.3916071653366089
832.0,0.3868040144443512
896.0,0.3794044852256775
960.0,0.3683203458786011
1024.0,0.36756661534309387
1152.0,0.37022271752357483
1280.0,0.35688212513923645
1408.0,0.3482568860054016
1536.0,0.33550789952278137
1664.0,0.32297977805137634
1792.0,0.32230913639068604
1920.0,0.3078087866306305
2048.0,0.27452245354652405
2304.0,0.2255944460630417
2560.0,0.18122141063213348
2816.0,0.14342001080513
3072.0,0.1319749355316162
3328.0,0.10517117381095886
3584.0,0.08237324655056
3840.0,0.0523245595395565
4096.0,0.009812010452151299
4608.0,-0.01841631345450878
5120.0,-0.039833005517721176
5632.0,-0.09319750219583511
6144.0,-0.10843099653720856
6656.0,-0.11534693837165833
7168.0,-0.12926438450813293
7680.0,-0.13654009997844696
8192.0,-0.15372668206691742
9216.0,-0.19353176653385162
10240.0,-0.27644267678260803
11264.0,-0.37373778223991394
12288.0,-0.5075204968452454
13312.0,-0.6270691752433777
14336.0,-0.7194482088088989
end
