version,3.0
numOfCh,1
type,point
parent_name,dirty_1dot0-0dot01
ch_type,1_1
kcount,1
numberNandB,1
brightnessNandB,1
carpet pos,0
pc,0
Time (ms),CH1 Auto-Correlation
1.0,0.28429338335990906
2.0,0.282045841217041
3.0,0.2800723910331726
4.0,0.27825531363487244
5.0,0.2766254246234894
6.0,0.2751181125640869
7.0,0.27366903424263
8.0,0.27220702171325684
9.0,0.27077409625053406
10.0,0.2693847119808197
11.0,0.2680545747280121
12.0,0.26675042510032654
13.0,0.2654871642589569
14.0,0.2643100321292877
15.0,0.2631645202636719
16.0,0.2620280086994171
18.0,0.2599690556526184
20.0,0.25805801153182983
22.0,0.2560870349407196
24.0,0.2541889250278473
26.0,0.2523484230041504
28.0,0.25054803490638733
30.0,0.248716801404953
32.0,0.2469487488269806
36.0,0.24386198818683624
40.0,0.24088044464588165
44.0,0.2377660870552063
48.0,0.2347259372472763
52.0,0.2316664606332779
56.0,0.22861966490745544
60.0,0.22553089261054993
64.0,0.22225533425807953
72.0,0.21600988507270813
80.0,0.2106477916240692
88.0,0.20592989027500153
96.0,0.20191974937915802
104.0,0.1987006813287735
112.0,0.19519077241420746
120.0,0.19182074069976807
128.0,0.18843920528888702
144.0,0.18283921480178833
160.0,0.17856617271900177
176.0,0.17234593629837036
192.0,0.16699989140033722
208.0,0.16245140135288239
224.0,0.15658913552761078
240.0,0.15165050327777863
256.0,0.14740057289600372
288.0,0.13870300352573395
320.0,0.13126029074192047
352.0,0.12135597318410873
384.0,0.10836118459701538
416.0,0.09606955200433731
448.0,0.08595924824476242
480.0,0.07870079576969147
512.0,0.07231678068637848
576.0,0.05557979643344879
640.0,0.04967053607106209
704.0,0.049358610063791275
768.0,0.038264378905296326
832.0,0.036181747913360596
896.0,0.028619563207030296
960.0,0.016718611121177673
1024.0,0.007210082840174437
1152.0,-0.013104991056025028
1280.0,-0.028612947091460228
1408.0,-0.035424426198005676
1536.0,-0.038682859390974045
1664.0,-0.045850563794374466
1792.0,-0.05190042406320572
1920.0,-0.05850904434919357
2048.0,-0.061803173273801804
2304.0,-0.06639497727155685
2560.0,-0.06161002069711685
2816.0,-0.049239207059144974
3072.0,-0.023324953392148018
3328.0,0.02696244604885578
3584.0,0.03658884018659592
3840.0,0.007904068566858768
4096.0,0.027469873428344727
4608.0,-0.016415651887655258
5120.0,-0.03017493523657322
5632.0,-0.014450057409703732
6144.0,-0.0069279917515814304
6656.0,-0.010555380955338478
7168.0,0.0208317618817091
7680.0,0.03354542329907417
8192.0,0.04328538477420807
9216.0,-0.062307823449373245
10240.0,-0.062455061823129654
11264.0,0.046694833785295486
12288.0,0.05247073248028755
13312.0,-0.04499829187989235
14336.0,-0.057344965636730194
end
