version,3.0
numOfCh,1
type,point
parent_name,dirty_1dot0-0dot01
ch_type,1_1
kcount,1
numberNandB,1
brightnessNandB,1
carpet pos,0
pc,0
Time (ms),CH1 Auto-Correlation
1.0,0.048895880579948425
2.0,0.045878224074840546
3.0,0.04324652627110481
4.0,0.04103751853108406
5.0,0.03912792354822159
6.0,0.037367288023233414
7.0,0.03587295860052109
8.0,0.03450920805335045
9.0,0.03326898068189621
10.0,0.032227516174316406
11.0,0.03126664459705353
12.0,0.030440248548984528
13.0,0.029694773256778717
14.0,0.02893757075071335
15.0,0.02821974828839302
16.0,0.027489405125379562
18.0,0.026225348934531212
20.0,0.025143636390566826
22.0,0.02426745370030403
24.0,0.023360250517725945
26.0,0.022454023361206055
28.0,0.021719520911574364
30.0,0.021054988726973534
32.0,0.02048775553703308
36.0,0.019641496241092682
40.0,0.018507512286305428
44.0,0.017612656578421593
48.0,0.016965720802545547
52.0,0.016364645212888718
56.0,0.01584722474217415
60.0,0.015360433608293533
64.0,0.01500056590884924
72.0,0.015175580978393555
80.0,0.014453827403485775
88.0,0.013160291127860546
96.0,0.012283112853765488
104.0,0.011471258476376534
112.0,0.011123069562017918
120.0,0.010571276769042015
128.0,0.010124186053872108
144.0,0.009490234777331352
160.0,0.008423525840044022
176.0,0.0073158759623765945
192.0,0.00582128157839179
208.0,0.005471082869917154
224.0,0.0052419379353523254
240.0,0.0043523553758859634
256.0,0.003946269396692514
288.0,0.002564680762588978
320.0,0.0006254317122511566
352.0,-0.0008200967567972839
384.0,-7.067158730933443e-05
416.0,-0.0009870546637102962
448.0,-0.0012231006985530257
480.0,-0.0012061382876709104
512.0,-0.0016588919097557664
576.0,-7.298868877114728e-05
640.0,-0.0007385948556475341
704.0,8.220301242545247e-05
768.0,-0.0011988779297098517
832.0,-0.000365784129826352
896.0,-0.001374448649585247
960.0,-0.0014938281383365393
1024.0,0.0008444982813671231
1152.0,0.001486806315369904
1280.0,0.002335528377443552
1408.0,0.003061008406803012
1536.0,0.0030128145590424538
1664.0,0.00515746371820569
1792.0,0.0048386589623987675
1920.0,0.003939216025173664
2048.0,0.0015596752054989338
2304.0,-0.0011954554356634617
2560.0,0.0016665137372910976
2816.0,0.0006858793785795569
3072.0,0.0026391008868813515
3328.0,0.0018863097066059709
3584.0,0.002407978754490614
3840.0,-0.0024532105308026075
4096.0,-0.002723520155996084
4608.0,0.0008838027715682983
5120.0,-0.001304682344198227
5632.0,-0.0007979661459103227
6144.0,-0.0019682329148054123
6656.0,0.0009254965698346496
7168.0,-0.0038189543411135674
7680.0,-0.0011943638091906905
8192.0,0.0006171226850710809
9216.0,-0.0016693031648173928
10240.0,-0.001447896589525044
11264.0,-0.0015623836079612374
12288.0,-0.005278217606246471
13312.0,-0.0016214675270020962
14336.0,-0.002505454933270812
end
