version,3.0
numOfCh,1
type,point
parent_name,dirty_1dot0-0dot01
ch_type,1_1
kcount,1
numberNandB,1
brightnessNandB,1
carpet pos,0
pc,0
Time (ms),CH1 Auto-Correlation
1.0,0.7655459642410278
2.0,0.7639510631561279
3.0,0.7625201940536499
4.0,0.761229932308197
5.0,0.7600266933441162
6.0,0.7588759660720825
7.0,0.7577722668647766
8.0,0.7567489743232727
9.0,0.7557440400123596
10.0,0.7547551989555359
11.0,0.7538086175918579
12.0,0.7528986930847168
13.0,0.7520403265953064
14.0,0.7511463165283203
15.0,0.7502699494361877
16.0,0.7494192123413086
18.0,0.7478371262550354
20.0,0.7463183999061584
22.0,0.7448899149894714
24.0,0.7434073686599731
26.0,0.7418249845504761
28.0,0.7402707934379578
30.0,0.7387962937355042
32.0,0.7374051213264465
36.0,0.7349423170089722
40.0,0.7326056361198425
44.0,0.7304031848907471
48.0,0.7285547256469727
52.0,0.7269778251647949
56.0,0.7256150245666504
60.0,0.7243005037307739
64.0,0.7227368354797363
72.0,0.7191075682640076
80.0,0.7156513333320618
88.0,0.7122464776039124
96.0,0.7089599967002869
104.0,0.7058429718017578
112.0,0.7028782963752747
120.0,0.6997304558753967
128.0,0.6965854167938232
144.0,0.6909152269363403
160.0,0.6867114305496216
176.0,0.6828974485397339
192.0,0.6770226955413818
208.0,0.6700426936149597
224.0,0.6641260981559753
240.0,0.6592469811439514
256.0,0.6557427048683167
288.0,0.6497054100036621
320.0,0.6453412175178528
352.0,0.6428549289703369
384.0,0.6381264328956604
416.0,0.6317383646965027
448.0,0.6254879832267761
480.0,0.6211515665054321
512.0,0.619034469127655
576.0,0.6105598211288452
640.0,0.5992873311042786
704.0,0.5919065475463867
768.0,0.5789242386817932
832.0,0.5569093823432922
896.0,0.5304564237594604
960.0,0.49594730138778687
1024.0,0.46652737259864807
1152.0,0.42654114961624146
1280.0,0.383424311876297
1408.0,0.3423161804676056
1536.0,0.30270740389823914
1664.0,0.24966563284397125
1792.0,0.19514073431491852
1920.0,0.14975616335868835
2048.0,0.09603676199913025
2304.0,0.02274276688694954
2560.0,-0.03780559077858925
2816.0,-0.0884161964058876
3072.0,-0.1312863826751709
3328.0,-0.16418147087097168
3584.0,-0.20562879741191864
3840.0,-0.23457185924053192
4096.0,-0.2571541666984558
4608.0,-0.3000108599662781
5120.0,-0.34520313143730164
5632.0,-0.3821915090084076
6144.0,-0.41948989033699036
6656.0,-0.4408649802207947
7168.0,-0.41711148619651794
7680.0,-0.35960084199905396
8192.0,-0.22619913518428802
9216.0,0.035450998693704605
10240.0,0.1601942479610443
11264.0,0.1811041384935379
12288.0,0.20353826880455017
13312.0,0.21116456389427185
14336.0,0.22552397847175598
end
