version,3.0
numOfCh,1
type,point
parent_name,dirty_1dot0-0dot01
ch_type,1_1
kcount,1
numberNandB,1
brightnessNandB,1
carpet pos,0
pc,0
Time (ms),CH1 Auto-Correlation
1.0,0.043100740760564804
2.0,0.039902810007333755
3.0,0.03706960007548332
4.0,0.0345659963786602
5.0,0.03238759934902191
6.0,0.030513595789670944
7.0,0.028880439698696136
8.0,0.027363037690520287
9.0,0.025984100997447968
10.0,0.024806318804621696
11.0,0.023739734664559364
12.0,0.022776765748858452
13.0,0.021852852776646614
14.0,0.021029185503721237
15.0,0.020337695255875587
16.0,0.01976359449326992
18.0,0.018665147945284843
20.0,0.01745830848813057
22.0,0.01640459895133972
24.0,0.015245367772877216
26.0,0.014232875779271126
28.0,0.013431906700134277
30.0,0.012700463645160198
32.0,0.012014600448310375
36.0,0.011054735630750656
40.0,0.010406511835753918
44.0,0.010215284302830696
48.0,0.010108542628586292
52.0,0.009673792868852615
56.0,0.008800830692052841
60.0,0.007881495170295238
64.0,0.0073030791245400906
72.0,0.00647383788600564
80.0,0.005320015363395214
88.0,0.005004504695534706
96.0,0.0050606741569936275
104.0,0.004798550624400377
112.0,0.004528606776148081
120.0,0.004014913458377123
128.0,0.003122282214462757
144.0,0.0020496121142059565
160.0,0.001956433057785034
176.0,0.0013126712292432785
192.0,0.00036744377575814724
208.0,-0.0004266437026672065
224.0,-0.0003801671846304089
240.0,-0.0011122699361294508
256.0,-0.0010961571242660284
288.0,-0.00013677724928129464
320.0,-0.0007318913703784347
352.0,-0.0009252344607375562
384.0,0.0006311395554803312
416.0,0.0012042367598041892
448.0,0.0027327234856784344
480.0,0.003159274347126484
512.0,0.0033228553365916014
576.0,0.0021841602865606546
640.0,0.0005143238231539726
704.0,0.0006805199664086103
768.0,-0.0002329301933059469
832.0,-0.002131182234734297
896.0,-0.00148625741712749
960.0,-0.0011875838972628117
1024.0,-0.0010501050855964422
1152.0,-0.0013443214120343328
1280.0,-0.0013465804513543844
1408.0,-0.0005961065762676299
1536.0,-0.0020566992461681366
1664.0,-0.002032132586464286
1792.0,-0.0011348469415679574
1920.0,0.0012332303449511528
2048.0,-0.00011050064495066181
2304.0,0.0017143005970865488
2560.0,0.0008071829797700047
2816.0,-0.0005512712523341179
3072.0,-0.0018443353474140167
3328.0,0.00016729315393604338
3584.0,-0.0017968352185562253
3840.0,0.001018929178826511
4096.0,-0.00033487804466858506
4608.0,0.0021929279901087284
5120.0,-0.0020473271142691374
5632.0,-0.0016197494696825743
6144.0,-0.0005796462646685541
6656.0,0.0023298233281821012
7168.0,0.0014541384298354387
7680.0,-0.0015000959392637014
8192.0,-0.0007173741469159722
9216.0,0.00019012509437743574
10240.0,0.0012312977341935039
11264.0,0.0008984596934169531
12288.0,-0.002954449038952589
13312.0,-0.003471753792837262
14336.0,-0.00015079861623235047
end
