version,3.0
numOfCh,1
type,point
parent_name,c1204_3dot0-0dot1
ch_type,1_1
kcount,1
numberNandB,1
brightnessNandB,1
carpet pos,0
pc,0
Time (ms),CH1 Auto-Correlation
1.0,0.01596655696630478
2.0,0.013093614019453526
3.0,0.011082732118666172
4.0,0.009520037099719048
5.0,0.00838455930352211
6.0,0.0075110928155481815
7.0,0.006803798023611307
8.0,0.006172453053295612
9.0,0.005637633614242077
10.0,0.005262000486254692
11.0,0.004931231960654259
12.0,0.004687082022428513
13.0,0.004460456315428019
14.0,0.004324452951550484
15.0,0.004192924126982689
16.0,0.004025711677968502
18.0,0.003808469045907259
20.0,0.003517011646181345
22.0,0.0030039367265999317
24.0,0.002710288157686591
26.0,0.0023964561987668276
28.0,0.0022130536381155252
30.0,0.001942125498317182
32.0,0.0017361334757879376
36.0,0.0016091126017272472
40.0,0.0017342569772154093
44.0,0.001731135998852551
48.0,0.0014439558144658804
52.0,0.0012900076108053327
56.0,0.0012875068932771683
60.0,0.0011476423824205995
64.0,0.0010707068722695112
72.0,0.0010028542019426823
80.0,0.0007235344965010881
88.0,0.000651226204354316
96.0,0.0004595140053424984
104.0,0.00027946519549004734
112.0,0.00019610865274444222
120.0,5.387099736253731e-05
128.0,-6.0992017097305506e-05
144.0,0.00018881072173826396
160.0,0.0001674976374488324
176.0,-0.0006544899079017341
192.0,-0.0008481878903694451
208.0,-0.000429487437941134
224.0,-0.0001105481424019672
240.0,-0.00015775425708852708
256.0,9.965826757252216e-05
288.0,0.00040393343078903854
320.0,0.00025531643768772483
352.0,0.0003204862296115607
384.0,0.0002052963391179219
416.0,0.00012793351197615266
448.0,-0.0002882809203583747
480.0,-0.00022235093638300896
512.0,0.00039309303974732757
576.0,-0.00034878597944043577
640.0,5.6993587350007147e-05
704.0,0.00011272236588411033
768.0,0.00041373807471245527
832.0,-2.0645982658606954e-05
896.0,0.00020909085287712514
960.0,0.0001513017778052017
1024.0,0.00041535371565259993
1152.0,-0.00010903106158366427
1280.0,0.0004499096830841154
1408.0,3.530278263497166e-05
1536.0,0.0006363471038639545
1664.0,0.0007197210798040032
1792.0,0.0003938399604521692
1920.0,0.00023314866120927036
2048.0,-0.00032622486469335854
2304.0,9.765096910996363e-05
2560.0,0.00018398466636426747
2816.0,9.351743938168511e-05
3072.0,3.9774637116352096e-05
3328.0,0.0001608713937457651
3584.0,-0.00010466985986568034
3840.0,0.00011821989028248936
4096.0,0.000442611490143463
4608.0,-0.00018299031944479793
5120.0,-0.00013638290693052113
5632.0,0.0003061553288716823
6144.0,-0.0005628934013657272
6656.0,-0.0003624737437348813
7168.0,0.0002985649334732443
7680.0,-0.0007776710554026067
8192.0,-0.00011212043318664655
end
