version,3.0
numOfCh,1
type,point
parent_name,c1204_3dot0-0dot1
ch_type,1_1
kcount,1
numberNandB,1
brightnessNandB,1
carpet pos,0
pc,0
Time (ms),CH1 Auto-Correlation
1.0,0.01532724965363741
2.0,0.012402021326124668
3.0,0.010470569133758545
4.0,0.009079988114535809
5.0,0.008030790835618973
6.0,0.007122174836695194
7.0,0.006388631649315357
8.0,0.005859547294676304
9.0,0.005275749135762453
10.0,0.004671607632189989
11.0,0.004118109587579966
12.0,0.003622332587838173
13.0,0.003330121049657464
14.0,0.0031572156585752964
15.0,0.0030140148010104895
16.0,0.00295107439160347
18.0,0.0026427179109305143
20.0,0.00218768697232008
22.0,0.0019477185560390353
24.0,0.001796030206605792
26.0,0.0016595750348642468
28.0,0.0013189136516302824
30.0,0.0010924729285761714
32.0,0.0010800190502777696
36.0,0.0010910091223195195
40.0,0.0008945501758717
44.0,0.0005963603616692126
48.0,0.0005938265239819884
52.0,0.000584950263146311
56.0,0.00031949832919053733
60.0,2.8733882572851144e-05
64.0,-8.59420615597628e-05
72.0,-0.00020578109251800925
80.0,-0.0003967599186580628
88.0,-0.00012579458416439593
96.0,7.552104216301814e-05
104.0,0.00039046129677444696
112.0,0.00031361269066110253
120.0,0.00015156320296227932
128.0,-6.404503074008971e-05
144.0,-0.0004724024620372802
160.0,-0.0009301782120019197
176.0,-0.0010557055938988924
192.0,-0.0006811931962147355
208.0,-0.0009543626219965518
224.0,-0.0006631280411966145
240.0,-0.00025916434242390096
256.0,-0.00047677537077106535
288.0,2.837483407347463e-05
320.0,0.00024954022956080735
352.0,0.00010762565216282383
384.0,0.00022845188505016267
416.0,0.0004287144693080336
448.0,-0.0004296746337786317
480.0,-0.00037981680361554027
512.0,0.00033908383920788765
576.0,0.00014904822455719113
640.0,-0.0003011184453498572
704.0,-0.00023427682754117996
768.0,2.5101040591835044e-05
832.0,0.0002055204677162692
896.0,5.652795880450867e-05
960.0,0.00023973833594936877
1024.0,3.8867648981977254e-05
1152.0,-0.00018831089255400002
1280.0,0.0001758827711455524
1408.0,0.00013194841449148953
1536.0,-0.0004005224327556789
1664.0,0.0004961807862855494
1792.0,-0.0003529048408381641
1920.0,-0.00017860118532553315
2048.0,7.114475010894239e-05
2304.0,-0.00012915396655444056
2560.0,-0.00010766228660941124
2816.0,-0.00010644105350365862
3072.0,-4.168525993009098e-05
3328.0,4.587945295497775e-05
3584.0,-7.713898230576888e-05
3840.0,-0.00022039255418349057
4096.0,-6.169031985336915e-05
4608.0,0.00015703872486483306
5120.0,9.581884114595596e-06
5632.0,9.965681238099933e-05
6144.0,5.2310766477603465e-05
6656.0,-2.3737897208775394e-05
7168.0,9.901692465064116e-06
7680.0,-6.7995919380337e-05
8192.0,-0.00010350915545132011
end
