version,3.0
numOfCh,1
type,point
parent_name,c1204_3dot0-0dot1
ch_type,1_1
kcount,1
numberNandB,1
brightnessNandB,1
carpet pos,0
pc,0
Time (ms),CH1 Auto-Correlation
1.0,0.017899807542562485
2.0,0.014958485029637814
3.0,0.012898311018943787
4.0,0.011395521461963654
5.0,0.010253466665744781
6.0,0.0092961136251688
7.0,0.008423163555562496
8.0,0.007756608072668314
9.0,0.007191410753875971
10.0,0.006740183103829622
11.0,0.006382660008966923
12.0,0.005948579870164394
13.0,0.005496381316334009
14.0,0.005103055853396654
15.0,0.004779061768203974
16.0,0.004511406645178795
18.0,0.00421524653211236
20.0,0.003940068185329437
22.0,0.003727758303284645
24.0,0.003543476341292262
26.0,0.003401709720492363
28.0,0.0032036942429840565
30.0,0.0031275886576622725
32.0,0.003135899780318141
36.0,0.0028725743759423494
40.0,0.0025498017203062773
44.0,0.0026200758293271065
48.0,0.002485274337232113
52.0,0.0022712377831339836
56.0,0.0021769008599221706
60.0,0.00179289688821882
64.0,0.0015548031078651547
72.0,0.001404272741638124
80.0,0.0015296563506126404
88.0,0.001484214561060071
96.0,0.0016544997924938798
104.0,0.001745432848110795
112.0,0.0012590510305017233
120.0,0.0014176374534144998
128.0,0.001289954176172614
144.0,0.0009685893310233951
160.0,0.0010095757897943258
176.0,0.0018020359566435218
192.0,0.001613197266124189
208.0,0.0009661263320595026
224.0,0.0010774460388347507
240.0,0.0009960283059626818
256.0,0.001119617954827845
288.0,0.0011045450810343027
320.0,0.0009790625190362334
352.0,0.0012270038714632392
384.0,0.0009253564639948308
416.0,0.0004562452086247504
448.0,0.0007896943716332316
480.0,0.000636493437923491
512.0,0.00033406494185328484
576.0,0.00040122249629348516
640.0,0.0001786986249499023
704.0,-0.00041316921124234796
768.0,-0.0007408488891087472
832.0,9.73602436715737e-05
896.0,0.0002489189791958779
960.0,0.0005215281853452325
1024.0,-0.0002373250899836421
1152.0,-0.0006414746167138219
1280.0,-0.0005561613361351192
1408.0,-0.0004895085585303605
1536.0,-0.0009290904272347689
1664.0,-0.0011014558840543032
1792.0,-8.904582500690594e-05
1920.0,-0.00010520313662709668
2048.0,-0.00011741351045202464
2304.0,-4.719100252259523e-05
2560.0,-0.00014478714729193598
2816.0,6.1030332290101796e-05
3072.0,0.00013657580711878836
3328.0,-0.0001297339767916128
3584.0,-0.000256712781265378
3840.0,0.0006515406421385705
4096.0,0.00039536767872050405
4608.0,0.0002821461239363998
5120.0,0.00013549954746849835
5632.0,-0.001063583535142243
6144.0,-0.0007287802291102707
6656.0,-0.00014309374091681093
7168.0,0.0018183548236265779
7680.0,0.00034484086791053414
8192.0,-0.0027735023759305477
end
