version,3.0
numOfCh,1
type,point
parent_name,c1204_3dot0-0dot1
ch_type,1_1
kcount,1
numberNandB,1
brightnessNandB,1
carpet pos,0
pc,0
Time (ms),CH1 Auto-Correlation
1.0,0.021159643307328224
2.0,0.01823081076145172
3.0,0.01609846204519272
4.0,0.01429474726319313
5.0,0.012912604957818985
6.0,0.011787272989749908
7.0,0.010644822381436825
8.0,0.00982556864619255
9.0,0.009192739613354206
10.0,0.008654302917420864
11.0,0.00810527428984642
12.0,0.00775156868621707
13.0,0.007418027147650719
14.0,0.007142077200114727
15.0,0.006760819349437952
16.0,0.00654020207002759
18.0,0.006090994458645582
20.0,0.005870805121958256
22.0,0.005509959068149328
24.0,0.00505569064989686
26.0,0.004575731232762337
28.0,0.004018213599920273
30.0,0.0035944790579378605
32.0,0.003403512528166175
36.0,0.003066645935177803
40.0,0.002909549046307802
44.0,0.003038722090423107
48.0,0.0032289468217641115
52.0,0.0026852490846067667
56.0,0.0022752159275114536
60.0,0.0021271337755024433
64.0,0.002015487290918827
72.0,0.0014952424680814147
80.0,0.0005928314058110118
88.0,-9.95877489913255e-05
96.0,5.534015144803561e-05
104.0,2.0333156498963945e-05
112.0,5.556427640840411e-05
120.0,7.206312875496224e-05
128.0,-0.0005433798651210964
144.0,-0.0007953551248647273
160.0,-0.00044641908607445657
176.0,-0.00035164286964572966
192.0,-0.0006528024678118527
208.0,-0.00033502589212730527
224.0,0.0005237307632341981
240.0,0.000582401582505554
256.0,0.00020550060435198247
288.0,1.821154000936076e-07
320.0,0.00038378764293156564
352.0,0.0003711411845870316
384.0,7.087152334861457e-05
416.0,-0.0003675452317111194
448.0,-0.0010676473611965775
480.0,-0.0007176476065069437
512.0,-0.0007641183910891414
576.0,0.00016231347399298102
640.0,9.775608486961573e-05
704.0,-0.0001921124930959195
768.0,-0.0002177523565478623
832.0,-0.00020382598449941725
896.0,0.0006075591081753373
960.0,0.0005241190665401518
1024.0,-0.0005217709694989026
1152.0,-0.00022641767282038927
1280.0,0.0002892640186473727
1408.0,7.181736873462796e-05
1536.0,-0.00023590229102410376
1664.0,-0.00015997409354895353
1792.0,-0.0007689953199587762
1920.0,-0.0003425420436542481
2048.0,1.7206013581017032e-05
2304.0,0.00016619704547338188
2560.0,0.0005542548606172204
2816.0,0.00045694239088334143
3072.0,0.00022339870338328183
3328.0,0.00043055068817920983
3584.0,0.00033961841836571693
3840.0,-0.00030262599466368556
4096.0,-0.0002553471422288567
4608.0,-0.00048320391215384007
5120.0,-6.330679752863944e-05
5632.0,-0.0003182525106240064
6144.0,0.0008945933077484369
6656.0,-8.142216393025592e-05
7168.0,-0.0002797484921757132
7680.0,0.0002700032200664282
8192.0,-0.0015681416261941195
end
