version,3.0
numOfCh,1
type,point
parent_name,c1204_3dot0-0dot1
ch_type,1_1
kcount,1
numberNandB,1
brightnessNandB,1
carpet pos,0
pc,0
Time (ms),CH1 Auto-Correlation
1.0,0.016703667119145393
2.0,0.013864880427718163
3.0,0.011892407201230526
4.0,0.010370096191763878
5.0,0.009149601683020592
6.0,0.008311853744089603
7.0,0.007704863324761391
8.0,0.007161514367908239
9.0,0.00659426674246788
10.0,0.006128543987870216
11.0,0.005631160922348499
12.0,0.0052720895037055016
13.0,0.004935966804623604
14.0,0.004688655026257038
15.0,0.004361407365649939
16.0,0.004109330475330353
18.0,0.003597570350393653
20.0,0.003231335198506713
22.0,0.0029319680761545897
24.0,0.0025671145413070917
26.0,0.0023975346703082323
28.0,0.0021543982438743114
30.0,0.0019694650545716286
32.0,0.001871662912890315
36.0,0.0017765267984941602
40.0,0.001459845225326717
44.0,0.0014274417189881206
48.0,0.0011834661709144711
52.0,0.0008911329787224531
56.0,0.0010552519233897328
60.0,0.001259303418919444
64.0,0.0012928582727909088
72.0,0.0006115091382525861
80.0,9.316256910096854e-05
88.0,0.0002889257448259741
96.0,0.0004350927483756095
104.0,0.0003431414079386741
112.0,0.00010221521370112896
120.0,0.00012367262388579547
128.0,5.562617297982797e-05
144.0,-9.440282155992463e-05
160.0,-0.0002592394594103098
176.0,0.00022335197718348354
192.0,-0.0006008053314872086
208.0,-0.00038671318907290697
224.0,-0.00036362625542096794
240.0,-0.00037662446266040206
256.0,-0.00020752151613123715
288.0,0.000617608951870352
320.0,0.0009928292129188776
352.0,0.0010891011916100979
384.0,0.0007624463178217411
416.0,0.00047483088565059006
448.0,0.00023834971943870187
480.0,0.00036708955303765833
512.0,7.506321708206087e-05
576.0,0.00044518569484353065
640.0,0.0005839918158017099
704.0,0.0004536429769359529
768.0,0.0008495567017234862
832.0,0.00019320921273902059
896.0,0.000798107183072716
960.0,0.0006974585703574121
1024.0,0.0002371905284235254
1152.0,5.675268766935915e-05
1280.0,0.0005915587535127997
1408.0,-0.00021953096438664943
1536.0,-0.00022099674970377237
1664.0,-6.137276795925573e-05
1792.0,0.0005933631910011172
1920.0,0.0003505024069454521
2048.0,-0.00038724771002307534
2304.0,2.0246388885425404e-05
2560.0,0.00010701284190872684
2816.0,0.00043085587094537914
3072.0,-0.00011769023694796488
3328.0,0.00022173888282850385
3584.0,-0.00013255626254249364
3840.0,-0.00015444561722688377
4096.0,-0.00045702792704105377
4608.0,-0.000659742159768939
5120.0,-0.0005351190338842571
5632.0,-0.0005059153772890568
6144.0,-4.432223067851737e-05
6656.0,-0.00038199304253794253
7168.0,-0.0002148705825675279
7680.0,-0.0004982605460099876
8192.0,-8.628223440609872e-05
end
