version,3.0
numOfCh,1
type,point
parent_name,c1204_3dot0-0dot1
ch_type,1_1
kcount,1
numberNandB,1
brightnessNandB,1
carpet pos,0
pc,0
Time (ms),CH1 Auto-Correlation
1.0,0.01669512316584587
2.0,0.013818302191793919
3.0,0.011808783747255802
4.0,0.010216375812888145
5.0,0.009064989164471626
6.0,0.00816192477941513
7.0,0.007435723673552275
8.0,0.006857318338006735
9.0,0.006328802555799484
10.0,0.005931396968662739
11.0,0.005534400697797537
12.0,0.0052432832308113575
13.0,0.004974896553903818
14.0,0.00469160545617342
15.0,0.0042663440108299255
16.0,0.004005276132375002
18.0,0.003729555755853653
20.0,0.0034530647099018097
22.0,0.0031650394666939974
24.0,0.0029615445528179407
26.0,0.002825191942974925
28.0,0.002694672206416726
30.0,0.0024973724503070116
32.0,0.0023500691168010235
36.0,0.0018546156352385879
40.0,0.0016096283216029406
44.0,0.0015689681749790907
48.0,0.0016210504109039903
52.0,0.0016618011286482215
56.0,0.0017191690858453512
60.0,0.0015023007290437818
64.0,0.0009601017809472978
72.0,0.0003018756688106805
80.0,0.00033985491609200835
88.0,0.0002830276789609343
96.0,0.00011499773245304823
104.0,0.00029030098812654614
112.0,0.00045934083755128086
120.0,0.0003312507760711014
128.0,0.0004107046115677804
144.0,-0.0001316227571805939
160.0,6.421263242373243e-05
176.0,0.00022257566160988063
192.0,0.0008315295563079417
208.0,0.0011714670108631253
224.0,0.0011150406207889318
240.0,0.0008465921855531633
256.0,0.0007759324507787824
288.0,0.0003012579691130668
320.0,0.00016280122508760542
352.0,6.257652421481907e-05
384.0,-0.00015340173558797687
416.0,-0.0001325240737060085
448.0,0.00018252625886816531
480.0,1.462363525206456e-05
512.0,-0.000278721796348691
576.0,-3.794174517679494e-06
640.0,0.0004186149744782597
704.0,0.0005137046682648361
768.0,0.00043652014574036
832.0,-0.0001262666191905737
896.0,-0.00014390447176992893
960.0,-7.10049134795554e-05
1024.0,0.00024308182764798403
1152.0,-0.0001803574850782752
1280.0,0.00026341225020587444
1408.0,2.4397899323957972e-05
1536.0,-0.00013314458192326128
1664.0,-0.00017184417811222374
1792.0,-0.0004258344415575266
1920.0,5.396646520239301e-05
2048.0,-0.00045302859507501125
2304.0,0.0001725621405057609
2560.0,5.579672142630443e-05
2816.0,-0.0001391939294990152
3072.0,-6.278051296249032e-05
3328.0,-0.0003811706556007266
3584.0,-0.00041956815402954817
3840.0,-0.00019616309145931154
4096.0,-0.00030896838870830834
4608.0,-0.0004586482828017324
5120.0,4.8496833187527955e-05
5632.0,0.00033452088246122
6144.0,0.00010726496839197353
6656.0,-0.00014891954197082669
7168.0,0.0004393570125102997
7680.0,0.0004736423143185675
8192.0,0.00033869731123559177
end
