version,3.0
numOfCh,1
type,point
parent_name,c1204_3dot0-0dot1
ch_type,1_1
kcount,1
numberNandB,1
brightnessNandB,1
carpet pos,0
pc,0
Time (ms),CH1 Auto-Correlation
1.0,0.014812317676842213
2.0,0.012019863352179527
3.0,0.01006566733121872
4.0,0.008543371222913265
5.0,0.007399160414934158
6.0,0.006427722983062267
7.0,0.005731579847633839
8.0,0.005228319205343723
9.0,0.004707731306552887
10.0,0.004387895576655865
11.0,0.004075746983289719
12.0,0.00377381662838161
13.0,0.0035070127341896296
14.0,0.003308854065835476
15.0,0.0031635204795747995
16.0,0.002943451749160886
18.0,0.0023503247648477554
20.0,0.0018470869399607182
22.0,0.001628670608624816
24.0,0.0014443258987739682
26.0,0.0015110591193661094
28.0,0.001475985860452056
30.0,0.0016080342466011643
32.0,0.0016093715094029903
36.0,0.0012459061108529568
40.0,0.0010985725093632936
44.0,0.0010555502958595753
48.0,0.0010114178294315934
52.0,0.0008608036441728473
56.0,0.0006562961498275399
60.0,0.0008182746823877096
64.0,0.000653739320114255
72.0,0.0006778354872949421
80.0,0.0010133025934919715
88.0,0.0006950899842195213
96.0,9.122567280428484e-05
104.0,4.198686656309292e-05
112.0,0.00017340613703709096
120.0,0.0003364788426551968
128.0,0.00015625354717485607
144.0,0.00029539517709054053
160.0,-6.965088687138632e-05
176.0,3.2481148082297295e-05
192.0,-0.00016617128858342767
208.0,-0.00043920648749917746
224.0,-0.0002467827289365232
240.0,-0.0002801946538966149
256.0,0.00017966098675969988
288.0,0.00013377665891312063
320.0,-0.00034036498982459307
352.0,0.0006122792838141322
384.0,0.000397778901970014
416.0,-1.0847823432413861e-05
448.0,-0.0001550302404211834
480.0,-0.00018612091662362218
512.0,-0.0004395251744426787
576.0,-4.934710523230024e-05
640.0,0.00017344784282613546
704.0,0.0003514827403705567
768.0,0.00039350654697045684
832.0,9.529047383693978e-05
896.0,-0.00018884694145526737
960.0,-0.00016603159019723535
1024.0,-0.0001564924605190754
1152.0,-0.0003222507075406611
1280.0,-0.0003173507284373045
1408.0,0.00016268485342152417
1536.0,-0.00027195661095902324
1664.0,-0.00014012969040777534
1792.0,-0.00015615882875863463
1920.0,-0.00022717707906849682
2048.0,-7.617242226842791e-05
2304.0,0.00018721615197136998
2560.0,0.00020622412557713687
2816.0,-0.00037127459654584527
3072.0,0.0002387956774327904
3328.0,-3.6724843084812164e-05
3584.0,0.00017259770538657904
3840.0,0.00019881055050063878
4096.0,-0.00018153256678488106
4608.0,-0.00015062891179695725
5120.0,-0.000130292828544043
5632.0,0.00012666879047174007
6144.0,0.00015793016063980758
6656.0,0.0001541453239042312
7168.0,-0.0002907596935983747
7680.0,-5.6549193686805665e-05
8192.0,-0.0002786418772302568
end
