version,3.0
numOfCh,1
type,point
parent_name,c1204_3dot0-0dot1
ch_type,1_1
kcount,1
numberNandB,1
brightnessNandB,1
carpet pos,0
pc,0
Time (ms),CH1 Auto-Correlation
1.0,0.01694204844534397
2.0,0.014087631367146969
3.0,0.012047930620610714
4.0,0.010574801824986935
5.0,0.009449598379433155
6.0,0.0085372906178236
7.0,0.007775912992656231
8.0,0.007094035390764475
9.0,0.00659522507339716
10.0,0.006105715408921242
11.0,0.005611790809780359
12.0,0.00532063702121377
13.0,0.005014203023165464
14.0,0.0048026652075350285
15.0,0.0046873558312654495
16.0,0.004529190249741077
18.0,0.004175508860498667
20.0,0.003927774727344513
22.0,0.003720238571986556
24.0,0.0036023962311446667
26.0,0.0034605988766998053
28.0,0.0031906687654554844
30.0,0.0029925534036010504
32.0,0.0028197879437357187
36.0,0.0024517341516911983
40.0,0.002500451635569334
44.0,0.002446996048092842
48.0,0.00244735786691308
52.0,0.002269973512738943
56.0,0.0020342778880149126
60.0,0.0017456111963838339
64.0,0.001338591449894011
72.0,0.0009825726738199592
80.0,0.0008554706582799554
88.0,0.000768281752243638
96.0,0.0005560253048315644
104.0,0.0003621943760663271
112.0,0.00019900778715964407
120.0,0.00024945318000391126
128.0,0.0004196667578071356
144.0,-2.236443651781883e-05
160.0,0.00011190458462806419
176.0,-0.00010836924775503576
192.0,-0.0002733062137849629
208.0,-0.00025912359706126153
224.0,-8.315633021993563e-05
240.0,0.000479036447359249
256.0,0.000671262270770967
288.0,0.0004292181693017483
320.0,0.0005656665889546275
352.0,0.00020667878561653197
384.0,-0.00020745763322338462
416.0,-0.00020596948161255568
448.0,-0.0005885800928808749
480.0,-0.0006075864075683057
512.0,-0.0009856626857072115
576.0,-0.000637248856946826
640.0,0.0004292436351533979
704.0,0.0002150162763427943
768.0,-0.0006683444953523576
832.0,-0.0005720338667742908
896.0,-2.6138798148167552e-06
960.0,-0.00018848988111130893
1024.0,7.462815119652078e-05
1152.0,0.0001016690512187779
1280.0,0.00019011950644198805
1408.0,-0.00011349959822837263
1536.0,0.00025852202088572085
1664.0,-0.00013612276234198362
1792.0,-2.4319224394275807e-05
1920.0,3.7870053347432986e-05
2048.0,0.00011008582805516198
2304.0,-0.0006542826304212213
2560.0,-0.0001202548373839818
2816.0,0.00015185034135356545
3072.0,0.00020427924755495042
3328.0,-5.253174822428264e-05
3584.0,0.00013120441872160882
3840.0,-0.00014475903299171478
4096.0,-0.0002290122356498614
4608.0,0.00015603442443534732
5120.0,-0.0003246464184485376
5632.0,-1.8025491954176687e-05
6144.0,0.00033801599056459963
6656.0,-0.0004317609127610922
7168.0,3.053655018447898e-05
7680.0,-8.700067155587021e-07
8192.0,-0.0003943603078369051
end
