version,3.0
numOfCh,1
type,point
parent_name,c1204_3dot0-0dot1
ch_type,1_1
kcount,1
numberNandB,1
brightnessNandB,1
carpet pos,0
pc,0
Time (ms),CH1 Auto-Correlation
1.0,0.015252937562763691
2.0,0.012473952025175095
3.0,0.010461045429110527
4.0,0.008983385749161243
5.0,0.007784876506775618
6.0,0.0069550275802612305
7.0,0.006169368978589773
8.0,0.005499528720974922
9.0,0.005008175503462553
10.0,0.004390038084238768
11.0,0.00402117520570755
12.0,0.003652796847745776
13.0,0.003313155146315694
14.0,0.0029851587023586035
15.0,0.002718509640544653
16.0,0.0025444282218813896
18.0,0.002243660157546401
20.0,0.001985755981877446
22.0,0.0018248913111165166
24.0,0.001767416368238628
26.0,0.0016573569737374783
28.0,0.00155383360106498
30.0,0.0015028435736894608
32.0,0.0014976256061345339
36.0,0.0012377207167446613
40.0,0.000987927196547389
44.0,0.0006595948943868279
48.0,0.00033670957782305777
52.0,9.49309251154773e-05
56.0,9.394028893439099e-05
60.0,0.00017272568948101252
64.0,0.00025946387904696167
72.0,-0.00016188155859708786
80.0,-0.0003954973362851888
88.0,-0.0003922876203432679
96.0,-0.00012298238289076835
104.0,0.00030153224361129105
112.0,0.0006661824882030487
120.0,0.0005553872906602919
128.0,0.0003035369736608118
144.0,0.0006568627431988716
160.0,0.0005849564913660288
176.0,0.0004410328983794898
192.0,5.775228783022612e-05
208.0,-0.00013551145093515515
224.0,0.00020269592641852796
240.0,-7.64131618780084e-05
256.0,-5.377304842113517e-05
288.0,-0.0003926870122086257
320.0,4.317837010603398e-05
352.0,0.0006321914261206985
384.0,0.0003725587157532573
416.0,-6.509181548608467e-05
448.0,-1.1813210221589543e-05
480.0,6.850883073639125e-05
512.0,0.0001240992860402912
576.0,0.0002533368533477187
640.0,0.00021714932518079877
704.0,-0.0005425148410722613
768.0,-0.0003216243057977408
832.0,-0.00011222065222682431
896.0,-0.00039969731005840003
960.0,2.2485719455289654e-06
1024.0,-0.0005151060177013278
1152.0,-0.00029658322455361485
1280.0,-4.2536466935416684e-05
1408.0,0.00020987754396628588
1536.0,-0.0002864485140889883
1664.0,-0.000369382556527853
1792.0,9.13858602871187e-05
1920.0,8.78554637893103e-05
2048.0,9.276093805965502e-06
2304.0,0.00010844840289792046
2560.0,6.856396794319153e-05
2816.0,0.0002043715212494135
3072.0,-0.00012492718815337867
3328.0,-9.405480523128062e-05
3584.0,0.00012264338147360831
3840.0,4.122189056943171e-05
4096.0,0.0001767444482538849
4608.0,-0.0001569758023833856
5120.0,4.4980126403970644e-05
5632.0,-0.00026768684620037675
6144.0,-1.5458097550435923e-05
6656.0,3.146379822283052e-05
7168.0,0.0001905483368318528
7680.0,6.3428683461097535e-06
8192.0,-0.00026148997130803764
end
