version,3.0
numOfCh,1
type,point
parent_name,c1204_3dot0-0dot1
ch_type,1_1
kcount,1
numberNandB,1
brightnessNandB,1
carpet pos,0
pc,0
Time (ms),CH1 Auto-Correlation
1.0,0.01536814495921135
2.0,0.012589671649038792
3.0,0.010623276233673096
4.0,0.009153192862868309
5.0,0.007916877046227455
6.0,0.007071904372423887
7.0,0.00630605174228549
8.0,0.00566342705860734
9.0,0.00510175246745348
10.0,0.0046419380232691765
11.0,0.004253025632351637
12.0,0.003895777277648449
13.0,0.0035789452958852053
14.0,0.0031887537334114313
15.0,0.0027925041504204273
16.0,0.002504827920347452
18.0,0.001995727652683854
20.0,0.0017719417810440063
22.0,0.0016952265286818147
24.0,0.0016011138213798404
26.0,0.001627403195016086
28.0,0.0015865643508732319
30.0,0.001454189419746399
32.0,0.0014251788379624486
36.0,0.001307527651078999
40.0,0.0012661067303270102
44.0,0.0011444909032434225
48.0,0.0012127695372328162
52.0,0.0010752560338005424
56.0,0.0011847842251881957
60.0,0.0011310102418065071
64.0,0.0009304542909376323
72.0,0.00047180778346955776
80.0,-0.00020282348850741982
88.0,-0.0005122913280501962
96.0,-0.0007180838729254901
104.0,-0.0003988668613601476
112.0,0.00029952541808597744
120.0,0.00019718572730198503
128.0,-0.0004310673975851387
144.0,-0.000658861652482301
160.0,-7.269252819241956e-05
176.0,0.0005034637870267034
192.0,0.0005171185475774109
208.0,0.0006047384231351316
224.0,0.0007652687490917742
240.0,0.0004060405772179365
256.0,0.0008465954451821744
288.0,0.00027251054416410625
320.0,-0.00024406866577919573
352.0,-0.00017733356798999012
384.0,-0.00023721203615423292
416.0,3.0958177376305684e-05
448.0,-0.00021512532839551568
480.0,8.515985973645002e-05
512.0,-4.569247903418727e-05
576.0,-0.0005142185837030411
640.0,0.00011347411782480776
704.0,0.0005673932028003037
768.0,-9.371616033604369e-05
832.0,-0.0006754748756065965
896.0,-0.0002194560511270538
960.0,-0.0002205392811447382
1024.0,9.68251988524571e-05
1152.0,-1.7864274923340417e-05
1280.0,0.00014450601884163916
1408.0,0.00031478769960813224
1536.0,-3.726580325746909e-05
1664.0,1.1141677305204212e-06
1792.0,8.860094385454431e-05
1920.0,-0.00027954595861956477
2048.0,0.00016794042312540114
2304.0,0.00020270340610295534
2560.0,-7.376635039690882e-05
2816.0,8.952456846600398e-05
3072.0,-0.00013817539729643613
3328.0,-0.00031777683761902153
3584.0,-0.00033902458380907774
3840.0,-9.605296509107575e-05
4096.0,0.00019642467668745667
4608.0,-0.0001703959860606119
5120.0,0.00010606079013086855
5632.0,0.00010420410399092361
6144.0,-7.351480599027127e-05
6656.0,-3.964671486755833e-05
7168.0,0.0002157790877390653
7680.0,-0.00019943038932979107
8192.0,-0.00015548677765764296
end
