version,3.0
numOfCh,1
type,point
parent_name,c1204_3dot0-0dot1
ch_type,1_1
kcount,1
numberNandB,1
brightnessNandB,1
carpet pos,0
pc,0
Time (ms),CH1 Auto-Correlation
1.0,0.015123139135539532
2.0,0.012356426566839218
3.0,0.010368316434323788
4.0,0.008924689143896103
5.0,0.007769217249006033
6.0,0.006865988951176405
7.0,0.006081033498048782
8.0,0.005297396332025528
9.0,0.0048036398366093636
10.0,0.004407079890370369
11.0,0.004098131321370602
12.0,0.003824874060228467
13.0,0.003558895317837596
14.0,0.0031538880430161953
15.0,0.0027940520085394382
16.0,0.0024554445408284664
18.0,0.002305205911397934
20.0,0.0022486504167318344
22.0,0.0019742005970329046
24.0,0.0017323753563687205
26.0,0.001610052422620356
28.0,0.0014648569049313664
30.0,0.0012792382622137666
32.0,0.0013021829072386026
36.0,0.0014088336611166596
40.0,0.001371228601783514
44.0,0.0013843461638316512
48.0,0.0011363360099494457
52.0,0.001190822571516037
56.0,0.0008601548615843058
60.0,0.0005053493659943342
64.0,0.0004112562455702573
72.0,0.00062114920001477
80.0,0.0006456697592511773
88.0,0.000419548770878464
96.0,0.00021338513761293143
104.0,0.0002497358073014766
112.0,0.00036980313598178327
120.0,0.0004567449213936925
128.0,0.00029754231218248606
144.0,-2.3173829504230525e-06
160.0,0.0002952784125227481
176.0,-0.00043179417843930423
192.0,-0.0003122525231447071
208.0,-0.00028974763699807227
224.0,-0.0004314636462368071
240.0,-0.0005133990780450404
256.0,-2.9456198262778344e-06
288.0,-0.00031425475026480854
320.0,-8.81580199347809e-05
352.0,0.00027280973154120147
384.0,-0.0003821600694209337
416.0,8.497932140016928e-05
448.0,-0.000472323561552912
480.0,-8.140035788528621e-05
512.0,-6.489642692031339e-05
576.0,-0.00019573353347368538
640.0,-7.956039917189628e-05
704.0,-0.0003333463682793081
768.0,-0.0003332940977998078
832.0,-0.00030519600841216743
896.0,0.00017796226893551648
960.0,9.211557335220277e-05
1024.0,-0.0002762444200925529
1152.0,4.968405482941307e-05
1280.0,0.0002181840973207727
1408.0,0.0004416820011101663
1536.0,-6.591944270439853e-07
1664.0,-0.0001110225057345815
1792.0,0.0002467111044097692
1920.0,-2.0993969883420505e-05
2048.0,6.755533831892535e-05
2304.0,-6.47957313049119e-06
2560.0,2.63640504272189e-05
2816.0,-0.0005024554557166994
3072.0,0.0005430508754216135
3328.0,-5.953575237072073e-05
3584.0,-3.801409911829978e-05
3840.0,0.00013864249922335148
4096.0,-0.00022242018894758075
4608.0,8.349039126187563e-05
5120.0,5.9210109611740336e-05
5632.0,1.0357615792599972e-05
6144.0,-0.00019899808103218675
6656.0,0.00033627613447606564
7168.0,-0.0001977916108444333
7680.0,-0.00023927226720843464
8192.0,-0.00010342626046622172
end
