version,3.0
numOfCh,1
type,point
parent_name,c1204_3dot0-0dot1
ch_type,1_1
kcount,1
numberNandB,1
brightnessNandB,1
carpet pos,0
pc,0
Time (ms),CH1 Auto-Correlation
1.0,0.016470935195684433
2.0,0.013594287447631359
3.0,0.011517176404595375
4.0,0.009984365664422512
5.0,0.008721313439309597
6.0,0.007669917307794094
7.0,0.006919022183865309
8.0,0.0062529556453228
9.0,0.005914078559726477
10.0,0.005493126343935728
11.0,0.005130119621753693
12.0,0.0047044758684933186
13.0,0.004374990705400705
14.0,0.004097591619938612
15.0,0.003849624190479517
16.0,0.0035426905378699303
18.0,0.0030561313033103943
20.0,0.002664943691343069
22.0,0.0022571946028620005
24.0,0.0020979526452720165
26.0,0.002008237410336733
28.0,0.001800939324311912
30.0,0.0015693805180490017
32.0,0.0014305136865004897
36.0,0.0011452882317826152
40.0,0.0009308070293627679
44.0,0.0011371271684765816
48.0,0.0012552114203572273
52.0,0.0010659032268449664
56.0,0.0009324230486527085
60.0,0.0008154205861501396
64.0,0.0007626312435604632
72.0,0.0008605457842350006
80.0,0.0005379145732149482
88.0,0.00044828528189100325
96.0,0.0004985072300769389
104.0,0.0003464462351985276
112.0,0.00030965657788328826
120.0,1.0552449566603173e-05
128.0,2.4245106033049524e-05
144.0,-0.0001794420531950891
160.0,-0.0005011530010960996
176.0,0.0002704775251913816
192.0,0.00032009839196689427
208.0,0.0001794979179976508
224.0,5.761376451118849e-05
240.0,0.0002375324402237311
256.0,7.232048665173352e-05
288.0,0.0002506402670405805
320.0,0.0004282146110199392
352.0,0.000328178983181715
384.0,0.00044084168621338904
416.0,0.0001521028607385233
448.0,1.0821432624652516e-05
480.0,-0.00013254574150778353
512.0,1.2021127986372449e-06
576.0,0.0002705652732402086
640.0,-0.00019348876958247274
704.0,-6.87792562530376e-05
768.0,-0.0003343975986354053
832.0,0.000384925224352628
896.0,0.0006406329339370131
960.0,8.384666580241174e-05
1024.0,0.00033642316702753305
1152.0,9.023243910633028e-05
1280.0,0.0005911318003199995
1408.0,4.0069349779514596e-05
1536.0,-0.00036766097764484584
1664.0,0.00014228215150069445
1792.0,-0.00013998820213600993
1920.0,0.00032325039501301944
2048.0,-1.8658714907360263e-05
2304.0,-0.00011300564074190333
2560.0,-0.00013082001532893628
2816.0,0.00018902035662904382
3072.0,0.0004289855423849076
3328.0,9.217457409249619e-05
3584.0,-8.991837239591405e-05
3840.0,-0.00019382298341952264
4096.0,9.257659257855266e-05
4608.0,-5.986375253996812e-05
5120.0,-0.00020929465244989842
5632.0,-5.476090154843405e-05
6144.0,-0.00013420984032563865
6656.0,-0.00033607069053687155
7168.0,-0.000414444220950827
7680.0,-7.723407179582864e-05
8192.0,-0.00013780481822323054
end
