version,3.0
numOfCh,1
type,point
parent_name,c1204_3dot0-0dot1
ch_type,1_1
kcount,1
numberNandB,1
brightnessNandB,1
carpet pos,0
pc,0
Time (ms),CH1 Auto-Correlation
1.0,0.016811903566122055
2.0,0.013930399902164936
3.0,0.011841723695397377
4.0,0.010373088531196117
5.0,0.009335415437817574
6.0,0.008460837416350842
7.0,0.00788781139999628
8.0,0.007190439850091934
9.0,0.006543927360326052
10.0,0.005969521589577198
11.0,0.00551943015307188
12.0,0.005122869275510311
13.0,0.004657667130231857
14.0,0.004268360324203968
15.0,0.004021798726171255
16.0,0.0037925997748970985
18.0,0.003583861980587244
20.0,0.0033283275552093983
22.0,0.003000124590471387
24.0,0.0028145581018179655
26.0,0.0025181537494063377
28.0,0.002399860881268978
30.0,0.0021245914977043867
32.0,0.0020572375506162643
36.0,0.001834287540987134
40.0,0.001558635733090341
44.0,0.0012959613231942058
48.0,0.001165969530120492
52.0,0.0010180046083405614
56.0,0.000377583404770121
60.0,8.711015834705904e-05
64.0,9.294932533521205e-05
72.0,0.0002529063494876027
80.0,-0.0003683884860947728
88.0,-0.0009056476410478354
96.0,-0.0014404228422790766
104.0,-0.001153256162069738
112.0,-0.0014262150507420301
120.0,-0.0012792827328667045
128.0,-0.0008761059725657105
144.0,2.9661969165317714e-05
160.0,-0.00032636316609568894
176.0,-0.0005652942345477641
192.0,-0.0001074922111001797
208.0,0.00010458841279614717
224.0,0.00016765668988227844
240.0,0.0009918224532157183
256.0,0.00048465857980772853
288.0,0.0003561019548214972
320.0,8.155323303071782e-05
352.0,-0.0002127789775840938
384.0,-0.000760551483836025
416.0,-0.00019209938182029873
448.0,-0.00027253906591795385
480.0,0.0005735666491091251
512.0,0.00030148099176585674
576.0,0.00024980749003589153
640.0,1.53089076775359e-05
704.0,-0.0001492062583565712
768.0,0.00017093372298404574
832.0,-0.00031114366720430553
896.0,-0.000542696681804955
960.0,-0.0002324627130292356
1024.0,-0.00044646961032412946
1152.0,0.0001105990813812241
1280.0,-2.0305507860030048e-05
1408.0,6.697284698020667e-05
1536.0,-0.0003228620917070657
1664.0,-0.0002983231097459793
1792.0,0.00021719442156609148
1920.0,0.0002847533905878663
2048.0,0.00033086573239415884
2304.0,-4.02704936277587e-05
2560.0,-0.00013629274326376617
2816.0,0.00021392815688159317
3072.0,-0.0002023142878897488
3328.0,8.32736404845491e-05
3584.0,0.00029620458371937275
3840.0,-0.0006122984923422337
4096.0,0.0003814486553892493
4608.0,-6.981466867728159e-05
5120.0,-0.00014789986016694456
5632.0,-7.865615043556318e-05
6144.0,-2.7920095817535184e-05
6656.0,0.00022601762611884624
7168.0,-4.08961896027904e-05
7680.0,-0.0003285949060227722
8192.0,-0.00043874926632270217
end
