version,3.0
numOfCh,1
type,point
parent_name,c1204_3dot0-0dot1
ch_type,1_1
kcount,1
numberNandB,1
brightnessNandB,1
carpet pos,0
pc,0
Time (ms),CH1 Auto-Correlation
1.0,0.014789853245019913
2.0,0.01196033600717783
3.0,0.009926997125148773
4.0,0.008513222448527813
5.0,0.007524557877331972
6.0,0.006588638294488192
7.0,0.0057986946776509285
8.0,0.005248453933745623
9.0,0.00471901660785079
10.0,0.004316807258874178
11.0,0.003944460302591324
12.0,0.003552978625521064
13.0,0.0032421359792351723
14.0,0.002930432790890336
15.0,0.0026223172899335623
16.0,0.0023159359116107225
18.0,0.0020816863980144262
20.0,0.0018387131858617067
22.0,0.001648285542614758
24.0,0.0015222906367853284
26.0,0.001231933245435357
28.0,0.0010755346156656742
30.0,0.000896693964023143
32.0,0.0006938261794857681
36.0,0.0006747592706233263
40.0,0.0009767552837729454
44.0,0.0007821472827345133
48.0,0.0003361027629580349
52.0,0.0003555006696842611
56.0,0.000364187901141122
60.0,5.9326568589312956e-05
64.0,3.3047576835087966e-06
72.0,-5.61503111384809e-05
80.0,6.253348692553118e-05
88.0,-0.00011761946370825171
96.0,-0.0006991052650846541
104.0,-0.00024787758593447506
112.0,0.0005497958627529442
120.0,0.0008203333709388971
128.0,0.000350725109456107
144.0,-0.00047674839152023196
160.0,-0.00031602400122210383
176.0,0.00014347932301461697
192.0,-0.00024263681552838534
208.0,-0.0008519698749296367
224.0,-0.0007097215857356787
240.0,-0.0005441273679025471
256.0,-0.0006253694882616401
288.0,0.00041267636697739363
320.0,0.00013998206122778356
352.0,-0.00031161520746536553
384.0,-8.864712435752153e-05
416.0,-0.00024296123592648655
448.0,-0.00013654849317390472
480.0,-0.0002618914586491883
512.0,-0.000135820810100995
576.0,0.00034506103838793933
640.0,9.880880679702386e-05
704.0,-6.527698860736564e-05
768.0,-9.536516881780699e-05
832.0,-0.0003379653498996049
896.0,0.00017761276103556156
960.0,-0.00021233444567769766
1024.0,-0.00042548205237835646
1152.0,0.0002985966275446117
1280.0,-0.00013996704365126789
1408.0,-0.0001193060161313042
1536.0,1.2043811693729367e-05
1664.0,-8.026317664189264e-05
1792.0,1.9007586161023937e-05
1920.0,-0.00011547019676072523
2048.0,-0.00014029786689206958
2304.0,3.124160139122978e-05
2560.0,-4.369392627268098e-05
2816.0,-2.3890133888926357e-05
3072.0,9.451502410229295e-05
3328.0,-7.748910138616338e-05
3584.0,0.00010803069017129019
3840.0,0.00015024423191789538
4096.0,-0.0001586155267432332
4608.0,-1.9153694665874355e-05
5120.0,8.094165241345763e-05
5632.0,4.28054372605402e-05
6144.0,-0.00011689968960126862
6656.0,-0.00012025491014355794
7168.0,1.8795957657857798e-05
7680.0,-1.957590393431019e-05
8192.0,0.0001243685110239312
end
