version,3.0
numOfCh,1
type,point
parent_name,c1204_3dot0-0dot1
ch_type,1_1
kcount,1
numberNandB,1
brightnessNandB,1
carpet pos,0
pc,0
Time (ms),CH1 Auto-Correlation
1.0,0.015336494892835617
2.0,0.012570778839290142
3.0,0.010686798952519894
4.0,0.009309816174209118
5.0,0.008200522512197495
6.0,0.007344254292547703
7.0,0.006546507589519024
8.0,0.0060373893938958645
9.0,0.005580228753387928
10.0,0.005142603535205126
11.0,0.004675823263823986
12.0,0.00440472736954689
13.0,0.004193842876702547
14.0,0.004038031678646803
15.0,0.003896172624081373
16.0,0.003810533322393894
18.0,0.0036672018468379974
20.0,0.003456894773989916
22.0,0.0031692490447312593
24.0,0.002886975184082985
26.0,0.002661544131115079
28.0,0.002545598428696394
30.0,0.0022541447542607784
32.0,0.0018760123057290912
36.0,0.001648779259994626
40.0,0.001483601052314043
44.0,0.0011854041367769241
48.0,0.0010090209543704987
52.0,0.0009154178551398218
56.0,0.0008107987814582884
60.0,0.0007107111159712076
64.0,0.00048494571819901466
72.0,0.0005429309094324708
80.0,0.0005288608954288065
88.0,0.0005679939058609307
96.0,0.0004758270224556327
104.0,0.0003760606632567942
112.0,0.00023597119434271008
120.0,-2.8623149773920886e-05
128.0,5.4803047532914206e-05
144.0,-0.0003152221324853599
160.0,-0.0006561813643202186
176.0,-0.00030461561982519925
192.0,-0.0003404804156161845
208.0,-0.0006441932637244463
224.0,-0.0007065027602948248
240.0,-0.000310685281874612
256.0,0.0002525269228499383
288.0,-9.765645518200472e-05
320.0,-0.0005016404902562499
352.0,-0.00021405125153250992
384.0,-0.0004642006824724376
416.0,-0.0007243250729516149
448.0,0.000139736250275746
480.0,0.0010084073292091489
512.0,0.00017705581558402628
576.0,-9.470746590523049e-05
640.0,0.0001042531366692856
704.0,5.913624772801995e-05
768.0,0.00019197713118046522
832.0,0.00037649949081242085
896.0,-5.4242096666712314e-05
960.0,0.00035594336804933846
1024.0,0.00021833242499269545
1152.0,-1.7258262232644483e-05
1280.0,5.435381535789929e-05
1408.0,-0.00013761695299763232
1536.0,7.461297354893759e-05
1664.0,4.375459684524685e-05
1792.0,-1.1603078746702522e-05
1920.0,6.602022949664388e-06
2048.0,-0.0003127778472844511
2304.0,-0.00028371543157845736
2560.0,-0.0005301568889990449
2816.0,0.00011845133121823892
3072.0,-8.635026460979134e-05
3328.0,-0.00031218380900099874
3584.0,0.00020143171423114836
3840.0,-0.0001584515703143552
4096.0,-1.9198843801859766e-05
4608.0,-1.9822886315523647e-05
5120.0,0.00027684654924087226
5632.0,-8.459588570985943e-05
6144.0,0.00016473203140776604
6656.0,-7.365842611761764e-05
7168.0,-4.153863847022876e-05
7680.0,-0.00017776833556126803
8192.0,-4.234385414747521e-05
end
