version,3.0
numOfCh,1
type,point
parent_name,0cd20_0dot1-1dot0
ch_type,1_1
kcount,1
numberNandB,1
brightnessNandB,1
carpet pos,0
pc,0
Time (ms),CH1 Auto-Correlation
1.0,0.03806063160300255
2.0,0.03764665126800537
3.0,0.0372358113527298
4.0,0.0368664413690567
5.0,0.03650957718491554
6.0,0.036162372678518295
7.0,0.03582310676574707
8.0,0.035487763583660126
9.0,0.035152796655893326
10.0,0.03482368588447571
11.0,0.03447983041405678
12.0,0.03413892164826393
13.0,0.03381459414958954
14.0,0.03349443897604942
15.0,0.03318252041935921
16.0,0.03287972882390022
18.0,0.03225279226899147
20.0,0.03162584826350212
22.0,0.031019097194075584
24.0,0.03042992204427719
26.0,0.029859328642487526
28.0,0.029322519898414612
30.0,0.028788462281227112
32.0,0.028239546343684196
36.0,0.027178509160876274
40.0,0.026133688166737556
44.0,0.025151601061224937
48.0,0.024196935817599297
52.0,0.023326333612203598
56.0,0.02252536453306675
60.0,0.021783364936709404
64.0,0.021106615662574768
72.0,0.019829127937555313
80.0,0.018538683652877808
88.0,0.017333483323454857
96.0,0.016185157001018524
104.0,0.015354186296463013
112.0,0.014740313403308392
120.0,0.014203505590558052
128.0,0.013676238246262074
144.0,0.013040833175182343
160.0,0.012548798695206642
176.0,0.011981095187366009
192.0,0.011646931990981102
208.0,0.011656916700303555
224.0,0.0115998275578022
240.0,0.011483279056847095
256.0,0.011318405158817768
288.0,0.010446058586239815
320.0,0.00982876867055893
352.0,0.009926962666213512
384.0,0.010457086376845837
416.0,0.009737328626215458
448.0,0.009435884654521942
480.0,0.008828929625451565
512.0,0.008627881295979023
576.0,0.007696790155023336
640.0,0.006704226136207581
704.0,0.0075937905348837376
768.0,0.00790627021342516
832.0,0.005719800945371389
896.0,0.004730504937469959
960.0,0.005428930278867483
1024.0,0.005581142846494913
1152.0,0.005972319282591343
1280.0,0.0057510919868946075
1408.0,0.0031831550877541304
1536.0,0.0034408404026180506
1664.0,-0.0001721154258120805
1792.0,-0.0005997570115141571
1920.0,-0.0015631705755367875
2048.0,-0.004320549312978983
2304.0,-0.0027736928313970566
2560.0,-0.0018261048244312406
2816.0,-0.0052538602612912655
3072.0,-0.004613919649273157
3328.0,-0.006081801373511553
3584.0,-0.005648379679769278
3840.0,-0.003950183745473623
4096.0,-0.008656240068376064
4608.0,-0.006975757423788309
5120.0,-0.00506738293915987
5632.0,-0.0027105421759188175
6144.0,-0.0022105153184384108
6656.0,-0.001486554043367505
7168.0,-5.796576078864746e-05
7680.0,-0.0003750298055820167
8192.0,0.00210834969766438
end
