version,3.0
numOfCh,1
type,point
parent_name,0cd20_0dot1-1dot0
ch_type,1_1
kcount,1
numberNandB,1
brightnessNandB,1
carpet pos,0
pc,0
Time (ms),CH1 Auto-Correlation
1.0,0.052453041076660156
2.0,0.05091721564531326
3.0,0.049529511481523514
4.0,0.04844590276479721
5.0,0.04721980169415474
6.0,0.04641398787498474
7.0,0.04556805640459061
8.0,0.04488474875688553
9.0,0.04399483650922775
10.0,0.04331302270293236
11.0,0.04259302839636803
12.0,0.04204269126057625
13.0,0.04142363369464874
14.0,0.04087226837873459
15.0,0.0402991883456707
16.0,0.03989304229617119
18.0,0.03914956748485565
20.0,0.03844887763261795
22.0,0.03778369352221489
24.0,0.037111468613147736
26.0,0.03648956120014191
28.0,0.03587410971522331
30.0,0.035367269068956375
32.0,0.0348045714199543
36.0,0.03395113721489906
40.0,0.032787956297397614
44.0,0.031892694532871246
48.0,0.031050952151417732
52.0,0.030190840363502502
56.0,0.02891574800014496
60.0,0.0275623369961977
64.0,0.026716530323028564
72.0,0.025354962795972824
80.0,0.023993024602532387
88.0,0.02319437637925148
96.0,0.022390451282262802
104.0,0.022133074700832367
112.0,0.021827174350619316
120.0,0.021144522354006767
128.0,0.02009328454732895
144.0,0.019189339131116867
160.0,0.018189845606684685
176.0,0.016726644709706306
192.0,0.015964409336447716
208.0,0.015141577459871769
224.0,0.014812229201197624
240.0,0.014646734111011028
256.0,0.014848803170025349
288.0,0.01402356382459402
320.0,0.01286668423563242
352.0,0.010552376508712769
384.0,0.008612319827079773
416.0,0.00804051011800766
448.0,0.007933324202895164
480.0,0.008469244465231895
512.0,0.009463152848184109
576.0,0.009759966284036636
640.0,0.008310197852551937
704.0,0.005833322182297707
768.0,0.0040272921323776245
832.0,0.0028192605823278427
896.0,0.0005798823549412191
960.0,-0.0008813219610601664
1024.0,0.0003260531520936638
1152.0,-7.298967830138281e-05
1280.0,0.00014336354797706008
1408.0,-0.0016909955302253366
1536.0,-0.0037754212971776724
1664.0,-0.003716302802786231
1792.0,-0.0005576248513534665
1920.0,0.000701743527315557
2048.0,0.0003548072709236294
2304.0,0.0039809755980968475
2560.0,0.004134107381105423
2816.0,0.001973842503502965
3072.0,0.001225386862643063
3328.0,-0.003871764289215207
3584.0,-0.005645371042191982
3840.0,-0.009343370795249939
4096.0,-0.015296227298676968
4608.0,-0.00926743634045124
5120.0,-0.006756990682333708
5632.0,-0.0020397230982780457
6144.0,0.0006154092261567712
6656.0,-0.002537687076255679
7168.0,-0.005221581552177668
7680.0,-0.0011381077347323298
8192.0,0.009020301513373852
end
