version,3.0
numOfCh,1
type,point
parent_name,0cd20_0dot1-1dot0
ch_type,1_1
kcount,1
numberNandB,1
brightnessNandB,1
carpet pos,0
pc,0
Time (ms),CH1 Auto-Correlation
1.0,0.04515434801578522
2.0,0.04470894858241081
3.0,0.04426902160048485
4.0,0.04387831687927246
5.0,0.04349535331130028
6.0,0.04314177483320236
7.0,0.042804207652807236
8.0,0.0424654483795166
9.0,0.04215526953339577
10.0,0.041847165673971176
11.0,0.041542522609233856
12.0,0.04124700278043747
13.0,0.040969379246234894
14.0,0.0406869500875473
15.0,0.04039793089032173
16.0,0.04012439027428627
18.0,0.039623722434043884
20.0,0.039133064448833466
22.0,0.03864014148712158
24.0,0.03817887231707573
26.0,0.037722788751125336
28.0,0.03726973012089729
30.0,0.03686947748064995
32.0,0.03647929057478905
36.0,0.035675615072250366
40.0,0.03489096090197563
44.0,0.03415283188223839
48.0,0.03341972455382347
52.0,0.032685793936252594
56.0,0.03202659264206886
60.0,0.03137027472257614
64.0,0.03073904663324356
72.0,0.02946353331208229
80.0,0.02805195562541485
88.0,0.026646079495549202
96.0,0.02530859224498272
104.0,0.02402663230895996
112.0,0.022953826934099197
120.0,0.02193852700293064
128.0,0.020946824923157692
144.0,0.019072020426392555
160.0,0.01737196184694767
176.0,0.01603824831545353
192.0,0.014900579117238522
208.0,0.013798875734210014
224.0,0.012583074159920216
240.0,0.011596489697694778
256.0,0.010765272192656994
288.0,0.009254147298634052
320.0,0.00772146275267005
352.0,0.005748922470957041
384.0,0.004179678857326508
416.0,0.0029413120355457067
448.0,0.001470893737860024
480.0,-0.0001466763933422044
512.0,-0.0009764141868799925
576.0,-0.0011863739928230643
640.0,-0.0006241441587917507
704.0,0.0005733101279474795
768.0,0.0013049532426521182
832.0,0.0016185633139684796
896.0,0.0023241338785737753
960.0,0.0035063193645328283
1024.0,0.003294403664767742
1152.0,-0.0004792106046807021
1280.0,-0.0020506903529167175
1408.0,-0.0036297165788710117
1536.0,-0.0024506498593837023
1664.0,0.0005282203201204538
1792.0,-0.0005044516292400658
1920.0,-0.002324223518371582
2048.0,-0.0025438505690544844
2304.0,-0.003961330745369196
2560.0,0.0011130920611321926
2816.0,0.0009143344941549003
3072.0,0.0018102339236065745
3328.0,-0.0007936326437629759
3584.0,-0.0049738045781850815
3840.0,0.00034421871532686055
4096.0,0.003855479881167412
4608.0,0.00045832470641471446
5120.0,0.0027991433162242174
5632.0,-0.0033180122263729572
6144.0,0.00018494731921236962
6656.0,-0.007256120443344116
7168.0,-0.0026247655041515827
7680.0,-0.002553836442530155
8192.0,-0.0038977060467004776
end
