version,3.0
numOfCh,1
type,point
parent_name,0cd20_0dot1-1dot0
ch_type,1_1
kcount,1
numberNandB,1
brightnessNandB,1
carpet pos,0
pc,0
Time (ms),CH1 Auto-Correlation
1.0,0.04892579838633537
2.0,0.0484834685921669
3.0,0.04807649180293083
4.0,0.0477001778781414
5.0,0.04736306890845299
6.0,0.04703102260828018
7.0,0.046706341207027435
8.0,0.046392008662223816
9.0,0.046084921807050705
10.0,0.04578204080462456
11.0,0.045498061925172806
12.0,0.04522038251161575
13.0,0.044926274567842484
14.0,0.04463966563344002
15.0,0.044348474591970444
16.0,0.04407624900341034
18.0,0.04356075078248978
20.0,0.04307500645518303
22.0,0.04259658232331276
24.0,0.042136356234550476
26.0,0.041697531938552856
28.0,0.041248854249715805
30.0,0.04081498458981514
32.0,0.040396030992269516
36.0,0.03961455449461937
40.0,0.03883802890777588
44.0,0.03808581084012985
48.0,0.03739003837108612
52.0,0.03668815642595291
56.0,0.035967543721199036
60.0,0.03528756648302078
64.0,0.034612566232681274
72.0,0.03341568633913994
80.0,0.03239930048584938
88.0,0.031477395445108414
96.0,0.030605874955654144
104.0,0.029862886294722557
112.0,0.02924245409667492
120.0,0.028626341372728348
128.0,0.02802080474793911
144.0,0.026485439389944077
160.0,0.024904560297727585
176.0,0.023479679599404335
192.0,0.02227434143424034
208.0,0.021338175982236862
224.0,0.020478982478380203
240.0,0.019941769540309906
256.0,0.01962287351489067
288.0,0.018256790935993195
320.0,0.017274633049964905
352.0,0.016523124650120735
384.0,0.015645144507288933
416.0,0.014444003812968731
448.0,0.013097559101879597
480.0,0.012414476834237576
512.0,0.011735273525118828
576.0,0.008767143823206425
640.0,0.006401941645890474
704.0,0.005930459126830101
768.0,0.005890846252441406
832.0,0.005992979276925325
896.0,0.005078024230897427
960.0,0.005169601179659367
1024.0,0.004303871653974056
1152.0,0.004263245966285467
1280.0,0.006115504540503025
1408.0,0.005822556558996439
1536.0,0.004648939706385136
1664.0,0.0031454614363610744
1792.0,0.0045792898163199425
1920.0,0.006141302175819874
2048.0,0.008631494827568531
2304.0,0.0036289654672145844
2560.0,0.00014876022760290653
2816.0,-0.0007906572427600622
3072.0,-0.007353005465120077
3328.0,-0.0015514999395236373
3584.0,0.00032872636802494526
3840.0,-0.0014638822758570313
4096.0,-0.006946354638785124
4608.0,-0.01088110450655222
5120.0,-0.00644502229988575
5632.0,-0.002253924496471882
6144.0,-0.003305243095383048
6656.0,-0.014798298478126526
7168.0,-0.0049681332893669605
7680.0,0.006124682724475861
8192.0,0.001977212494239211
end
