version,3.0
numOfCh,1
type,point
parent_name,0cd20_0dot1-1dot0
ch_type,1_1
kcount,1
numberNandB,1
brightnessNandB,1
carpet pos,0
pc,0
Time (ms),CH1 Auto-Correlation
1.0,0.03572345897555351
2.0,0.03522809222340584
3.0,0.03479001298546791
4.0,0.0343630313873291
5.0,0.03394341096282005
6.0,0.033549964427948
7.0,0.03315458446741104
8.0,0.032786063849925995
9.0,0.03243126720190048
10.0,0.032099220901727676
11.0,0.031771205365657806
12.0,0.031452663242816925
13.0,0.031139196828007698
14.0,0.03082519769668579
15.0,0.03049890697002411
16.0,0.030175771564245224
18.0,0.029576988890767097
20.0,0.02899220399558544
22.0,0.02841510996222496
24.0,0.02787884511053562
26.0,0.02735172212123871
28.0,0.026856591925024986
30.0,0.0263903196901083
32.0,0.025908006355166435
36.0,0.024965010583400726
40.0,0.024026988074183464
44.0,0.02309797704219818
48.0,0.022218864411115646
52.0,0.021425720304250717
56.0,0.02065631002187729
60.0,0.019908737391233444
64.0,0.01917188987135887
72.0,0.0177578367292881
80.0,0.016509251669049263
88.0,0.01539751049131155
96.0,0.014277487993240356
104.0,0.013171818107366562
112.0,0.01205386035144329
120.0,0.01101620588451624
128.0,0.010019809938967228
144.0,0.008074034005403519
160.0,0.006670516449958086
176.0,0.005722437519580126
192.0,0.0047066472470760345
208.0,0.0037159956991672516
224.0,0.0030120881274342537
240.0,0.0024957386776804924
256.0,0.0019225322175770998
288.0,0.0023333525750786066
320.0,0.0029428668785840273
352.0,0.0024548249784857035
384.0,0.0012494788970798254
416.0,0.000575160316657275
448.0,0.0009317863150499761
480.0,0.0012972948607057333
512.0,0.0011983253061771393
576.0,0.0008683826890774071
640.0,0.0011248376686125994
704.0,-0.0006609405972994864
768.0,-0.002344799228012562
832.0,-0.0021572739351540804
896.0,-0.001054853550158441
960.0,-0.0011041206307709217
1024.0,-0.0032905139960348606
1152.0,-0.00514281215146184
1280.0,-0.000977249932475388
1408.0,-0.0012499075382947922
1536.0,-0.002131867688149214
1664.0,-0.00012321631947997957
1792.0,-0.0009998599998652935
1920.0,-0.0009981051553040743
2048.0,-0.0015455642715096474
2304.0,-1.3994132132211234e-05
2560.0,0.0030301867518574
2816.0,0.002269675489515066
3072.0,-0.0002351659641135484
3328.0,-0.004270291421562433
3584.0,-0.0023454090114682913
3840.0,0.0022800012957304716
4096.0,-0.0017714035930112004
4608.0,-0.002317060250788927
5120.0,0.0006679819780401886
5632.0,-0.0015186663949862123
6144.0,-0.004527195822447538
6656.0,0.002156090922653675
7168.0,-0.0009312930051237345
7680.0,0.0009460021974518895
8192.0,0.006169811822474003
end
