version,3.0
numOfCh,1
type,point
parent_name,0cd20_0dot1-1dot0
ch_type,1_1
kcount,1
numberNandB,1
brightnessNandB,1
carpet pos,0
pc,0
Time (ms),CH1 Auto-Correlation
1.0,0.04497434198856354
2.0,0.044532410800457
3.0,0.04409719631075859
4.0,0.043690942227840424
5.0,0.04329017177224159
6.0,0.04290708526968956
7.0,0.04253798723220825
8.0,0.04216209053993225
9.0,0.0418042317032814
10.0,0.04145234078168869
11.0,0.041104309260845184
12.0,0.04076071083545685
13.0,0.04042983427643776
14.0,0.040102843195199966
15.0,0.03977686166763306
16.0,0.03944604843854904
18.0,0.03879695013165474
20.0,0.038190700113773346
22.0,0.03760721907019615
24.0,0.037032779306173325
26.0,0.03647856041789055
28.0,0.03595757111907005
30.0,0.035462770611047745
32.0,0.03497835621237755
36.0,0.03408794105052948
40.0,0.03327074646949768
44.0,0.032489173114299774
48.0,0.03171737864613533
52.0,0.0309410709887743
56.0,0.030161835253238678
60.0,0.029431834816932678
64.0,0.02871987223625183
72.0,0.027481231838464737
80.0,0.026364345103502274
88.0,0.02533881925046444
96.0,0.024301594123244286
104.0,0.023280899971723557
112.0,0.022427264600992203
120.0,0.021710267290472984
128.0,0.0209951214492321
144.0,0.019740041345357895
160.0,0.01873032934963703
176.0,0.01768258586525917
192.0,0.016281556338071823
208.0,0.01505151204764843
224.0,0.01435740664601326
240.0,0.013643286190927029
256.0,0.013126766309142113
288.0,0.012678573839366436
320.0,0.011810743249952793
352.0,0.010623947717249393
384.0,0.008990826085209846
416.0,0.007533109746873379
448.0,0.006918434519320726
480.0,0.006874843034893274
512.0,0.007412776350975037
576.0,0.007819509133696556
640.0,0.007839538156986237
704.0,0.007581955753266811
768.0,0.0068352543748915195
832.0,0.005371527746319771
896.0,0.0031146772671490908
960.0,0.0022886283695697784
1024.0,0.002603367203846574
1152.0,0.00026078015798702836
1280.0,-0.0020452081225812435
1408.0,-0.0018401943380013108
1536.0,-0.004163333214819431
1664.0,-0.007236730773001909
1792.0,-0.007668255362659693
1920.0,-0.006966539658606052
2048.0,-0.004353507421910763
2304.0,-0.0027931423392146826
2560.0,-0.003943030722439289
2816.0,-0.0013968602288514376
3072.0,-0.00067057617707178
3328.0,-0.0007852222770452499
3584.0,-0.00233595073223114
3840.0,-0.002901640720665455
4096.0,-0.0026115451473742723
4608.0,-0.004726200830191374
5120.0,-0.00346023915335536
5632.0,-0.000617957441136241
6144.0,0.0008341929060406983
6656.0,0.0058203996159136295
7168.0,0.0030784064438194036
7680.0,-0.004686653148382902
8192.0,-0.003997868858277798
end
