version,3.0
numOfCh,1
type,point
parent_name,0cd20_0dot1-1dot0
ch_type,1_1
kcount,1
numberNandB,1
brightnessNandB,1
carpet pos,0
pc,0
Time (ms),CH1 Auto-Correlation
1.0,0.04428599402308464
2.0,0.0435735322535038
3.0,0.04297599196434021
4.0,0.04233705624938011
5.0,0.04179120063781738
6.0,0.04130936414003372
7.0,0.040898196399211884
8.0,0.040506791323423386
9.0,0.04017285630106926
10.0,0.0397028885781765
11.0,0.039427585899829865
12.0,0.039069727063179016
13.0,0.038669466972351074
14.0,0.038341227918863297
15.0,0.037962596863508224
16.0,0.037651222199201584
18.0,0.03697679191827774
20.0,0.03626114875078201
22.0,0.03556320071220398
24.0,0.034903015941381454
26.0,0.034317273646593094
28.0,0.03382695093750954
30.0,0.03328000754117966
32.0,0.03278246149420738
36.0,0.03180034086108208
40.0,0.03065839223563671
44.0,0.029751505702733994
48.0,0.029044711962342262
52.0,0.028345083817839622
56.0,0.0276070274412632
60.0,0.02706107869744301
64.0,0.02663193829357624
72.0,0.02563789300620556
80.0,0.02491992712020874
88.0,0.024090245366096497
96.0,0.023419201374053955
104.0,0.022725414484739304
112.0,0.021997258067131042
120.0,0.021336011588573456
128.0,0.02045455388724804
144.0,0.018738457933068275
160.0,0.017277153208851814
176.0,0.016310518607497215
192.0,0.01602957770228386
208.0,0.0157452542334795
224.0,0.015586135908961296
240.0,0.014716233126819134
256.0,0.013447917066514492
288.0,0.011728796176612377
320.0,0.010966124013066292
352.0,0.010466200299561024
384.0,0.00964097585529089
416.0,0.009769263677299023
448.0,0.010246199555695057
480.0,0.009789302945137024
512.0,0.010127628222107887
576.0,0.009548116475343704
640.0,0.008566890843212605
704.0,0.007201462984085083
768.0,0.00615385128185153
832.0,0.005523359403014183
896.0,0.00540041271597147
960.0,0.004885525908321142
1024.0,0.003792076138779521
1152.0,0.0027134264819324017
1280.0,0.004588918294757605
1408.0,0.006364911329001188
1536.0,0.005523619707673788
1664.0,0.005644585005939007
1792.0,0.005021791905164719
1920.0,0.008484707213938236
2048.0,0.00762071693316102
2304.0,0.005437637213617563
2560.0,0.005182527471333742
2816.0,0.005796189419925213
3072.0,0.0022760899737477303
3328.0,0.0055779870599508286
3584.0,0.004867863841354847
3840.0,0.0008094463846646249
4096.0,-0.004461274947971106
4608.0,-0.005600605625659227
5120.0,-0.0032144286669790745
5632.0,-0.004393153823912144
6144.0,-0.007178792264312506
6656.0,-0.005045589059591293
7168.0,-0.008151204325258732
7680.0,-0.01268438808619976
8192.0,-0.012385580688714981
end
