version,3.0
numOfCh,1
type,point
parent_name,0cd20_0dot1-1dot0
ch_type,1_1
kcount,1
numberNandB,1
brightnessNandB,1
carpet pos,0
pc,0
Time (ms),CH1 Auto-Correlation
1.0,0.044844407588243484
2.0,0.04425521939992905
3.0,0.04373400658369064
4.0,0.043249934911727905
5.0,0.04278566688299179
6.0,0.04230388253927231
7.0,0.041844941675662994
8.0,0.04139981046319008
9.0,0.040964968502521515
10.0,0.04053491726517677
11.0,0.04012903571128845
12.0,0.039730254560709
13.0,0.03933855891227722
14.0,0.038942232728004456
15.0,0.03857150301337242
16.0,0.03820571303367615
18.0,0.03751389682292938
20.0,0.03682785481214523
22.0,0.03615395724773407
24.0,0.03552985191345215
26.0,0.034918323159217834
28.0,0.034331064671278
30.0,0.0338176004588604
32.0,0.033327847719192505
36.0,0.032291628420352936
40.0,0.031291697174310684
44.0,0.030363786965608597
48.0,0.029602497816085815
52.0,0.02889551781117916
56.0,0.028199845924973488
60.0,0.027446942403912544
64.0,0.026625707745552063
72.0,0.025159845128655434
80.0,0.02392647974193096
88.0,0.022780925035476685
96.0,0.02161237969994545
104.0,0.020600467920303345
112.0,0.01961606554687023
120.0,0.018797617405653
128.0,0.01821156032383442
144.0,0.017336862161755562
160.0,0.016345873475074768
176.0,0.015427260659635067
192.0,0.01512217428535223
208.0,0.014667999930679798
224.0,0.014166340231895447
240.0,0.013892742805182934
256.0,0.013637698255479336
288.0,0.012616371735930443
320.0,0.011147609911859035
352.0,0.009039011783897877
384.0,0.006512762513011694
416.0,0.00502044940367341
448.0,0.004984788130968809
480.0,0.00501635717228055
512.0,0.004798314068466425
576.0,0.00258182967081666
640.0,0.000673410133458674
704.0,0.00026758204330690205
768.0,0.0024103778414428234
832.0,0.0021249386481940746
896.0,0.0012507253559306264
960.0,0.0015413904329761863
1024.0,0.0032633531372994184
1152.0,0.0021762987598776817
1280.0,0.000832686317153275
1408.0,-0.00042036190279759467
1536.0,-0.0019532721489667892
1664.0,-0.0011589884525164962
1792.0,-0.0025378235150128603
1920.0,-0.0027137701399624348
2048.0,-0.001563654630444944
2304.0,0.0022986498661339283
2560.0,-0.0016001940239220858
2816.0,-0.0036007792223244905
3072.0,-0.0005184795591048896
3328.0,0.0024423340801149607
3584.0,0.0034405039623379707
3840.0,0.0026896854396909475
4096.0,0.00208616117015481
4608.0,-0.00046374936937354505
5120.0,-0.00026528508169576526
5632.0,-0.0037687679287046194
6144.0,0.003960724920034409
6656.0,-0.001566611579619348
7168.0,-0.0003694365732371807
7680.0,-0.0001788189256330952
8192.0,0.009690499864518642
end
