version,3.0
numOfCh,1
type,point
parent_name,0cd20_0dot1-1dot0
ch_type,1_1
kcount,1
numberNandB,1
brightnessNandB,1
carpet pos,0
pc,0
Time (ms),CH1 Auto-Correlation
1.0,0.032245002686977386
2.0,0.03184530511498451
3.0,0.03147450089454651
4.0,0.031117970123887062
5.0,0.030766772106289864
6.0,0.03042520210146904
7.0,0.030089817941188812
8.0,0.02975037880241871
9.0,0.029424063861370087
10.0,0.029109839349985123
11.0,0.028792385011911392
12.0,0.02847643941640854
13.0,0.02815674990415573
14.0,0.027850192040205002
15.0,0.027548249810934067
16.0,0.027252912521362305
18.0,0.026688365265727043
20.0,0.0261513814330101
22.0,0.02564103715121746
24.0,0.025146495550870895
26.0,0.024662960320711136
28.0,0.024172425270080566
30.0,0.023698510602116585
32.0,0.023232130333781242
36.0,0.022272394970059395
40.0,0.02136870287358761
44.0,0.0204768106341362
48.0,0.01963387057185173
52.0,0.01890803687274456
56.0,0.01825123280286789
60.0,0.017674274742603302
64.0,0.017237085849046707
72.0,0.016526319086551666
80.0,0.015909988433122635
88.0,0.015338785946369171
96.0,0.014763252809643745
104.0,0.014145511202514172
112.0,0.013635200448334217
120.0,0.013177401386201382
128.0,0.012652363628149033
144.0,0.011559250764548779
160.0,0.010611623525619507
176.0,0.009807336144149303
192.0,0.00921454094350338
208.0,0.008555191569030285
224.0,0.007758385967463255
240.0,0.006959399674087763
256.0,0.0063613723032176495
288.0,0.005060442723333836
320.0,0.0038709607906639576
352.0,0.002219933085143566
384.0,0.0006040541338734329
416.0,-9.147235687123612e-05
448.0,-0.0002631326497066766
480.0,-0.0005435399943962693
512.0,-0.001628182246349752
576.0,-0.0007582542602904141
640.0,0.00016629415040370077
704.0,0.0005425945855677128
768.0,0.0008539005066268146
832.0,0.0026494248304516077
896.0,0.003071567276492715
960.0,0.0033192960545420647
1024.0,0.0020900950767099857
1152.0,0.0006916089332662523
1280.0,0.00021577828738372773
1408.0,-0.002008081879466772
1536.0,-0.0036575300619006157
1664.0,-0.004821085836738348
1792.0,-0.003540958743542433
1920.0,-0.0002896142250392586
2048.0,0.0009919519070535898
2304.0,0.002825935371220112
2560.0,0.00014609219215344638
2816.0,-0.002038830891251564
3072.0,-0.0034446234349161386
3328.0,-0.001955792773514986
3584.0,0.0013982688542455435
3840.0,-0.002125569386407733
4096.0,-0.0042196339927613735
4608.0,4.269671262591146e-05
5120.0,-0.004039463121443987
5632.0,-0.006224622949957848
6144.0,-0.000511059130076319
6656.0,0.0016617386136204004
7168.0,0.002557304920628667
7680.0,0.0013382151955738664
8192.0,0.0026926223654299974
end
