version,3.0
numOfCh,1
type,point
parent_name,0cd20_0dot1-1dot0
ch_type,1_1
kcount,1
numberNandB,1
brightnessNandB,1
carpet pos,0
pc,0
Time (ms),CH1 Auto-Correlation
1.0,0.037855394184589386
2.0,0.037372417747974396
3.0,0.03693133965134621
4.0,0.03652667999267578
5.0,0.0361461415886879
6.0,0.03577585890889168
7.0,0.0354468859732151
8.0,0.03509577736258507
9.0,0.03477950766682625
10.0,0.03446443751454353
11.0,0.034180350601673126
12.0,0.03388955816626549
13.0,0.03360873460769653
14.0,0.03334544226527214
15.0,0.03309394419193268
16.0,0.03282175958156586
18.0,0.03226571902632713
20.0,0.03176597133278847
22.0,0.031255245208740234
24.0,0.03071165829896927
26.0,0.030186768621206284
28.0,0.029683297500014305
30.0,0.02919793128967285
32.0,0.028747165575623512
36.0,0.027933889999985695
40.0,0.02719052881002426
44.0,0.026508117094635963
48.0,0.02585454471409321
52.0,0.025160515680909157
56.0,0.024471519514918327
60.0,0.023840749636292458
64.0,0.023229941725730896
72.0,0.022189751267433167
80.0,0.021197889000177383
88.0,0.020235300064086914
96.0,0.019236499443650246
104.0,0.018268901854753494
112.0,0.017319174483418465
120.0,0.01632528379559517
128.0,0.015545339323580265
144.0,0.014509456232190132
160.0,0.013713071122765541
176.0,0.013096497394144535
192.0,0.012576589360833168
208.0,0.012014912441372871
224.0,0.012051603756844997
240.0,0.012222500517964363
256.0,0.01227670256048441
288.0,0.011445628479123116
320.0,0.010097354650497437
352.0,0.009262919425964355
384.0,0.008148299530148506
416.0,0.0068998998031020164
448.0,0.006121498998254538
480.0,0.005739239044487476
512.0,0.005625225603580475
576.0,0.005763200111687183
640.0,0.0051573701202869415
704.0,0.004868460353463888
768.0,0.003996820189058781
832.0,0.0023784013465046883
896.0,-0.0004930595168843865
960.0,-0.0020666578784585
1024.0,-0.0016742784064263105
1152.0,-0.0014917301014065742
1280.0,-0.00341937318444252
1408.0,-0.0020652173552662134
1536.0,-0.0025124335661530495
1664.0,-0.002641951432451606
1792.0,-0.0006328547606244683
1920.0,0.001077007851563394
2048.0,-0.000834816019050777
2304.0,-0.004729703534394503
2560.0,-0.002486544894054532
2816.0,-0.0003479666484054178
3072.0,-0.0009916495764628053
3328.0,0.0042204344645142555
3584.0,0.00364481657743454
3840.0,0.0015359154203906655
4096.0,-0.001989176729694009
4608.0,-0.0030412795022130013
5120.0,-0.006224570795893669
5632.0,-0.011971312575042248
6144.0,-0.008416504599153996
6656.0,0.00018427155737299472
7168.0,0.0012147874804213643
7680.0,0.003559825709089637
8192.0,0.0051526399329304695
end
