version,3.0
numOfCh,1
type,point
parent_name,0cd20_0dot1-1dot0
ch_type,1_1
kcount,1
numberNandB,1
brightnessNandB,1
carpet pos,0
pc,0
Time (ms),CH1 Auto-Correlation
1.0,0.0439397357404232
2.0,0.04346444830298424
3.0,0.04302547127008438
4.0,0.04262283071875572
5.0,0.04222903400659561
6.0,0.04183823987841606
7.0,0.04146639257669449
8.0,0.04110795632004738
9.0,0.040760304778814316
10.0,0.04039646312594414
11.0,0.04006340354681015
12.0,0.03973958268761635
13.0,0.039423875510692596
14.0,0.039105843752622604
15.0,0.03880308195948601
16.0,0.0385110042989254
18.0,0.037914589047431946
20.0,0.03732218220829964
22.0,0.03674941882491112
24.0,0.036175668239593506
26.0,0.03563012182712555
28.0,0.03509454429149628
30.0,0.03453504294157028
32.0,0.03401700034737587
36.0,0.03307744488120079
40.0,0.03212059661746025
44.0,0.03126869723200798
48.0,0.030424442142248154
52.0,0.029658885672688484
56.0,0.028959674760699272
60.0,0.028226565569639206
64.0,0.027514629065990448
72.0,0.02628069743514061
80.0,0.02505427785217762
88.0,0.02395721711218357
96.0,0.022955898195505142
104.0,0.02208688296377659
112.0,0.021254539489746094
120.0,0.02053498476743698
128.0,0.019703561440110207
144.0,0.01805475912988186
160.0,0.016410687938332558
176.0,0.014799843542277813
192.0,0.013478521257638931
208.0,0.012201287783682346
224.0,0.011353065259754658
240.0,0.011102334596216679
256.0,0.010786249302327633
288.0,0.010712560266256332
320.0,0.01095911767333746
352.0,0.01090413611382246
384.0,0.010196969844400883
416.0,0.009825034998357296
448.0,0.009808477945625782
480.0,0.010112054646015167
512.0,0.009377689100801945
576.0,0.0072960867546498775
640.0,0.006664506625384092
704.0,0.005918227136135101
768.0,0.004593619145452976
832.0,0.0026611443608999252
896.0,8.977321704151109e-05
960.0,-0.0002487530291546136
1024.0,0.0008668644004501402
1152.0,0.003129243152216077
1280.0,0.007512383162975311
1408.0,0.0094442842528224
1536.0,0.010050487704575062
1664.0,0.010410959832370281
1792.0,0.009888337925076485
1920.0,0.00949352141469717
2048.0,0.009771349839866161
2304.0,0.0029596404638141394
2560.0,0.002501423005014658
2816.0,0.0017711728578433394
3072.0,0.0020087589509785175
3328.0,0.0053746202029287815
3584.0,0.004433590918779373
3840.0,0.0029963916167616844
4096.0,-0.00033258466282859445
4608.0,-0.003360608359798789
5120.0,6.02326872467529e-05
5632.0,-0.0028829670045524836
6144.0,-0.006807084660977125
6656.0,-0.005366502795368433
7168.0,-0.008780568838119507
7680.0,-0.011791673488914967
8192.0,-0.005773247219622135
end
