version,3.0
numOfCh,1
type,point
parent_name,0cd20_0dot1-1dot0
ch_type,1_1
kcount,1
numberNandB,1
brightnessNandB,1
carpet pos,0
pc,0
Time (ms),CH1 Auto-Correlation
1.0,0.03569944575428963
2.0,0.035255350172519684
3.0,0.034818507730960846
4.0,0.034400515258312225
5.0,0.03398216888308525
6.0,0.0335661917924881
7.0,0.0331558957695961
8.0,0.03275589644908905
9.0,0.032365139573812485
10.0,0.03198113664984703
11.0,0.03158945590257645
12.0,0.031211331486701965
13.0,0.03083961457014084
14.0,0.030481792986392975
15.0,0.030138233676552773
16.0,0.02980361133813858
18.0,0.029117228463292122
20.0,0.028421364724636078
22.0,0.02773585543036461
24.0,0.027077607810497284
26.0,0.026411551982164383
28.0,0.025759730488061905
30.0,0.025131776928901672
32.0,0.02453586459159851
36.0,0.02347002737224102
40.0,0.022509614005684853
44.0,0.021629536524415016
48.0,0.02082943171262741
52.0,0.020085006952285767
56.0,0.01937415450811386
60.0,0.018711162731051445
64.0,0.018085507676005363
72.0,0.01669413410127163
80.0,0.015261582098901272
88.0,0.013970556668937206
96.0,0.012792665511369705
104.0,0.011743787676095963
112.0,0.010687073692679405
120.0,0.009632527828216553
128.0,0.00875257421284914
144.0,0.0075909956358373165
160.0,0.0068719107657670975
176.0,0.006290013901889324
192.0,0.005792875774204731
208.0,0.005331499967724085
224.0,0.004748701583594084
240.0,0.0037539934273809195
256.0,0.003270277986302972
288.0,0.003001643344759941
320.0,0.0036644069477915764
352.0,0.0045621879398822784
384.0,0.0045128436759114265
416.0,0.004392778500914574
448.0,0.004922922700643539
480.0,0.004164873156696558
512.0,0.0030410189647227526
576.0,0.0029162317514419556
640.0,0.002859686501324177
704.0,0.002839531283825636
768.0,0.002659851685166359
832.0,0.002397926291450858
896.0,-0.0004436946182977408
960.0,-0.0017801261274144053
1024.0,-0.0015698870411142707
1152.0,-0.0011758033651858568
1280.0,7.798062870278955e-05
1408.0,2.1206111341598444e-05
1536.0,0.0003581596538424492
1664.0,-0.0001394949504174292
1792.0,0.00013215515355113894
1920.0,0.0012230995343998075
2048.0,0.0032872187439352274
2304.0,0.002548947697505355
2560.0,0.0025187565479427576
2816.0,-0.000880658917594701
3072.0,-0.003948675002902746
3328.0,-0.0055876425467431545
3584.0,-0.00603114441037178
3840.0,-0.0016924083465710282
4096.0,-0.0022075732704252005
4608.0,0.0002955373201984912
5120.0,-0.00152493582572788
5632.0,-0.003688673721626401
6144.0,-0.0053199720568954945
6656.0,-0.0026241163723170757
7168.0,-0.000938358367420733
7680.0,-0.0023438669741153717
8192.0,-0.0032775569707155228
end
