version,3.0
numOfCh,1
type,point
parent_name,0cd20_0dot1-1dot0
ch_type,1_1
kcount,1
numberNandB,1
brightnessNandB,1
carpet pos,0
pc,0
Time (ms),CH1 Auto-Correlation
1.0,0.04248186945915222
2.0,0.04189904034137726
3.0,0.041371721774339676
4.0,0.040928713977336884
5.0,0.04050546884536743
6.0,0.04009271413087845
7.0,0.039694078266620636
8.0,0.03931140899658203
9.0,0.038945961743593216
10.0,0.03859943896532059
11.0,0.038265883922576904
12.0,0.037938155233860016
13.0,0.03757506236433983
14.0,0.03722740709781647
15.0,0.03688179701566696
16.0,0.03655093535780907
18.0,0.035915669053792953
20.0,0.0353277288377285
22.0,0.03475203737616539
24.0,0.034214794635772705
26.0,0.03366105258464813
28.0,0.03311457484960556
30.0,0.03255193307995796
32.0,0.03202253580093384
36.0,0.030978679656982422
40.0,0.029981914907693863
44.0,0.028944524005055428
48.0,0.02786044031381607
52.0,0.026860196143388748
56.0,0.025967463850975037
60.0,0.025130974128842354
64.0,0.024341266602277756
72.0,0.023071568459272385
80.0,0.021844688802957535
88.0,0.020731888711452484
96.0,0.019692663103342056
104.0,0.018675290048122406
112.0,0.017740348353981972
120.0,0.016883568838238716
128.0,0.016104616224765778
144.0,0.014715907163918018
160.0,0.013232254423201084
176.0,0.012144237756729126
192.0,0.011389156803488731
208.0,0.010637526400387287
224.0,0.009476891718804836
240.0,0.008070479147136211
256.0,0.006597353611141443
288.0,0.004363886546343565
320.0,0.0035841914359480143
352.0,0.003464943030849099
384.0,0.00276878010481596
416.0,0.0030903660226613283
448.0,0.0035213609226047993
480.0,0.0030796383507549763
512.0,0.0034930261317640543
576.0,0.002768378471955657
640.0,0.00119719747453928
704.0,-0.001183471642434597
768.0,-0.0020641793962568045
832.0,-0.0007294788374565542
896.0,-0.0015775144565850496
960.0,-0.0017707600491121411
1024.0,0.0006192487780936062
1152.0,0.003233194351196289
1280.0,0.0017613406525924802
1408.0,0.0010112401796504855
1536.0,0.006429773289710283
1664.0,0.007044264115393162
1792.0,0.004294661805033684
1920.0,0.00030262337531894445
2048.0,0.00030796759529039264
2304.0,-0.002707855775952339
2560.0,-0.004110966343432665
2816.0,-0.004723697435110807
3072.0,-0.0035501073580235243
3328.0,-0.006182700861245394
3584.0,-0.0028155362233519554
3840.0,-0.003457542508840561
4096.0,-0.003952869679778814
4608.0,0.0008125410531647503
5120.0,-0.003135870210826397
5632.0,-0.00038607860915362835
6144.0,0.005852495785802603
6656.0,0.0022431183606386185
7168.0,0.004102564882487059
7680.0,0.008184042759239674
8192.0,0.00040394585812464356
end
