version,3.0
numOfCh,1
type,point
parent_name,0cd20_0dot1-1dot0
ch_type,1_1
kcount,1
numberNandB,1
brightnessNandB,1
carpet pos,0
pc,0
Time (ms),CH1 Auto-Correlation
1.0,0.05108848959207535
2.0,0.05063256248831749
3.0,0.05019235238432884
4.0,0.04978080093860626
5.0,0.049376241862773895
6.0,0.048969339579343796
7.0,0.04857396334409714
8.0,0.04819846525788307
9.0,0.047818318009376526
10.0,0.04745486378669739
11.0,0.04708337411284447
12.0,0.046706877648830414
13.0,0.04634528607130051
14.0,0.045966412872076035
15.0,0.04561571031808853
16.0,0.04526471346616745
18.0,0.0445578508079052
20.0,0.04388268664479256
22.0,0.04321831092238426
24.0,0.04254743084311485
26.0,0.04189387708902359
28.0,0.04130951687693596
30.0,0.04075511544942856
32.0,0.040226198732852936
36.0,0.039283085614442825
40.0,0.03840342536568642
44.0,0.03754351660609245
48.0,0.03672973811626434
52.0,0.03592640906572342
56.0,0.03512187302112579
60.0,0.03436914458870888
64.0,0.0336003303527832
72.0,0.03227435424923897
80.0,0.031011462211608887
88.0,0.02991466037929058
96.0,0.02891668677330017
104.0,0.027986399829387665
112.0,0.02708165906369686
120.0,0.02621564455330372
128.0,0.02542710117995739
144.0,0.023780135437846184
160.0,0.02210173010826111
176.0,0.02041172794997692
192.0,0.018516628071665764
208.0,0.01694873347878456
224.0,0.015810651704669
240.0,0.015172748826444149
256.0,0.015143205411732197
288.0,0.01599290408194065
320.0,0.01612476073205471
352.0,0.01610025390982628
384.0,0.016201931983232498
416.0,0.01627339981496334
448.0,0.01552902814000845
480.0,0.013791006989777088
512.0,0.01208934560418129
576.0,0.010685481131076813
640.0,0.010321847163140774
704.0,0.010268361307680607
768.0,0.009776018559932709
832.0,0.006719870958477259
896.0,0.003225169610232115
960.0,0.0001763703767210245
1024.0,0.0007049811538308859
1152.0,0.003959656227380037
1280.0,0.006412765476852655
1408.0,0.004882137291133404
1536.0,0.0012380956904962659
1664.0,-0.0013704971643164754
1792.0,-0.00269525870680809
1920.0,-2.5662693587946706e-05
2048.0,0.0029211770743131638
2304.0,0.003094698069617152
2560.0,0.00462369155138731
2816.0,0.002587675116956234
3072.0,-0.002439232310280204
3328.0,0.0012057420099154115
3584.0,0.0027388848830014467
3840.0,0.004328670911490917
4096.0,0.002036651596426964
4608.0,-0.0049286046996712685
5120.0,-0.005336754955351353
5632.0,-0.0006097143050283194
6144.0,0.0016675513470545411
6656.0,-0.008539092727005482
7168.0,-0.01155070774257183
7680.0,-0.007916164584457874
8192.0,-0.004930335562676191
end
