version,3.0
numOfCh,1
type,point
parent_name,0cd20_0dot1-1dot0
ch_type,1_1
kcount,1
numberNandB,1
brightnessNandB,1
carpet pos,0
pc,0
Time (ms),CH1 Auto-Correlation
1.0,0.042304571717977524
2.0,0.041896503418684006
3.0,0.04147711023688316
4.0,0.04107007384300232
5.0,0.040672607719898224
6.0,0.04028673097491264
7.0,0.039918217808008194
8.0,0.039561521261930466
9.0,0.03921451419591904
10.0,0.038877230137586594
11.0,0.03854871168732643
12.0,0.038232654333114624
13.0,0.03791866824030876
14.0,0.03760584816336632
15.0,0.03730003163218498
16.0,0.03699972480535507
18.0,0.03641855716705322
20.0,0.03584730625152588
22.0,0.0352717749774456
24.0,0.03470175340771675
26.0,0.034157149493694305
28.0,0.03364390879869461
30.0,0.03316614776849747
32.0,0.03271634131669998
36.0,0.03188756853342056
40.0,0.031087389215826988
44.0,0.030302809551358223
48.0,0.029545417055487633
52.0,0.02886027842760086
56.0,0.02820221148431301
60.0,0.027548376470804214
64.0,0.026923242956399918
72.0,0.025845279917120934
80.0,0.025010522454977036
88.0,0.024197081103920937
96.0,0.023426352068781853
104.0,0.022628773003816605
112.0,0.02180597558617592
120.0,0.021082434803247452
128.0,0.020254086703062057
144.0,0.018003957346081734
160.0,0.016211533918976784
176.0,0.014782247133553028
192.0,0.013747844845056534
208.0,0.013051541522145271
224.0,0.012473679147660732
240.0,0.011892344802618027
256.0,0.011578286066651344
288.0,0.01026412844657898
320.0,0.008899685926735401
352.0,0.007487683556973934
384.0,0.005895140115171671
416.0,0.004460898227989674
448.0,0.0034149526618421078
480.0,0.002889268798753619
512.0,0.002783426782116294
576.0,0.002543599111959338
640.0,0.0025213896296918392
704.0,0.002526615047827363
768.0,0.0009667389094829559
832.0,-0.0017099191900342703
896.0,-0.0039192745462059975
960.0,-0.002854220801964402
1024.0,-0.0010596131905913353
1152.0,0.00048030505422502756
1280.0,-0.0013422779738903046
1408.0,-0.0045819892548024654
1536.0,-0.00732197193428874
1664.0,-0.010788538493216038
1792.0,-0.01095444057136774
1920.0,-0.008509124629199505
2048.0,-0.007005441468209028
2304.0,-0.0030381118413060904
2560.0,-0.0014636904234066606
2816.0,-0.00020797790784854442
3072.0,0.0030443754512816668
3328.0,0.0016743226442486048
3584.0,0.003739055013284087
3840.0,0.0004444080113898963
4096.0,0.0006260473746806383
4608.0,-0.0007611874607391655
5120.0,-0.002651583170518279
5632.0,0.0001206047527375631
6144.0,-0.000500823836773634
6656.0,-0.0024774482008069754
7168.0,0.006026231683790684
7680.0,0.002875345526263118
8192.0,-0.0028405976481735706
end
