version,3.0
numOfCh,1
type,point
parent_name,0cd20_0dot1-1dot0
ch_type,1_1
kcount,1
numberNandB,1
brightnessNandB,1
carpet pos,0
pc,0
Time (ms),CH1 Auto-Correlation
1.0,0.04049145057797432
2.0,0.04002457857131958
3.0,0.039600636810064316
4.0,0.039138127118349075
5.0,0.03869261592626572
6.0,0.03828950226306915
7.0,0.03789236396551132
8.0,0.037499088793992996
9.0,0.03710944578051567
10.0,0.03672626242041588
11.0,0.03636310622096062
12.0,0.03601331636309624
13.0,0.03567541763186455
14.0,0.03536642715334892
15.0,0.03506207838654518
16.0,0.03475281596183777
18.0,0.03414464369416237
20.0,0.03357360512018204
22.0,0.033005498349666595
24.0,0.03247452527284622
26.0,0.03196059167385101
28.0,0.03148144856095314
30.0,0.031026575714349747
32.0,0.030592037364840508
36.0,0.029702533036470413
40.0,0.028820008039474487
44.0,0.027976378798484802
48.0,0.02716541476547718
52.0,0.026427147909998894
56.0,0.02573767490684986
60.0,0.025048229843378067
64.0,0.024423345923423767
72.0,0.023312367498874664
80.0,0.022250883281230927
88.0,0.021301837638020515
96.0,0.0204274021089077
104.0,0.01969255320727825
112.0,0.018981989473104477
120.0,0.018295545130968094
128.0,0.0175207257270813
144.0,0.016276290640234947
160.0,0.0156002938747406
176.0,0.015468709170818329
192.0,0.01516079343855381
208.0,0.014537027105689049
224.0,0.014055117033421993
240.0,0.013614087365567684
256.0,0.012894644401967525
288.0,0.011912867426872253
320.0,0.010835808701813221
352.0,0.009541992098093033
384.0,0.008798463270068169
416.0,0.0087119797244668
448.0,0.00830115843564272
480.0,0.007502723950892687
512.0,0.0070858485996723175
576.0,0.004568508360534906
640.0,0.0035834379959851503
704.0,0.003509772941470146
768.0,0.003173010190948844
832.0,0.0026988456957042217
896.0,0.0027945784386247396
960.0,0.0013745758915320039
1024.0,0.0009780855616554618
1152.0,-0.00032271890086121857
1280.0,-0.002272534416988492
1408.0,-0.001740106730721891
1536.0,-0.0032062612008303404
1664.0,-0.004985856357961893
1792.0,-0.005179468542337418
1920.0,-0.003559712553396821
2048.0,-0.0008780256030149758
2304.0,0.0010482051875442266
2560.0,0.00522730965167284
2816.0,0.0027801429387181997
3072.0,-0.0005366721306927502
3328.0,6.762498378520831e-05
3584.0,-0.0023749659303575754
3840.0,-0.003957843873649836
4096.0,-0.003657638095319271
4608.0,-0.0017498867819085717
5120.0,0.0006162835634313524
5632.0,-0.002647524932399392
6144.0,-0.002754592103883624
6656.0,0.0008927758899517357
7168.0,0.004737509414553642
7680.0,0.0038765741046518087
8192.0,-0.007821079343557358
end
