version,3.0
numOfCh,1
type,point
parent_name,0cd20_0dot1-1dot0
ch_type,1_1
kcount,1
numberNandB,1
brightnessNandB,1
carpet pos,0
pc,0
Time (ms),CH1 Auto-Correlation
1.0,0.04039381071925163
2.0,0.03988126292824745
3.0,0.03941988945007324
4.0,0.03901752829551697
5.0,0.038606662303209305
6.0,0.03824286907911301
7.0,0.03790102154016495
8.0,0.03755264729261398
9.0,0.03719969838857651
10.0,0.03686508536338806
11.0,0.03653539717197418
12.0,0.03621125966310501
13.0,0.03588830307126045
14.0,0.03557950630784035
15.0,0.035295117646455765
16.0,0.03501783683896065
18.0,0.03447534143924713
20.0,0.03398476541042328
22.0,0.033554695546627045
24.0,0.03311450406908989
26.0,0.03266404941678047
28.0,0.032244205474853516
30.0,0.031813278794288635
32.0,0.03138866648077965
36.0,0.030576910823583603
40.0,0.029796650633215904
44.0,0.028998123481869698
48.0,0.02820730023086071
52.0,0.027508774772286415
56.0,0.026820840314030647
60.0,0.02619294635951519
64.0,0.025618303567171097
72.0,0.024620510637760162
80.0,0.023678243160247803
88.0,0.022761894389986992
96.0,0.021954286843538284
104.0,0.021219784393906593
112.0,0.02042284421622753
120.0,0.019642477855086327
128.0,0.018923474475741386
144.0,0.017345117405056953
160.0,0.016134658828377724
176.0,0.014849701896309853
192.0,0.013959353789687157
208.0,0.013214278034865856
224.0,0.01259832363575697
240.0,0.012326100841164589
256.0,0.012440855614840984
288.0,0.012883261777460575
320.0,0.01315538864582777
352.0,0.013324284926056862
384.0,0.013536338694393635
416.0,0.012976540252566338
448.0,0.011664713732898235
480.0,0.010945082642138004
512.0,0.010147159919142723
576.0,0.009160409681499004
640.0,0.007890809327363968
704.0,0.007741804700344801
768.0,0.007654715329408646
832.0,0.007018336094915867
896.0,0.005805745255202055
960.0,0.0041619883850216866
1024.0,0.004284438211470842
1152.0,0.0036764079704880714
1280.0,-1.803210579964798e-05
1408.0,-0.002542633330449462
1536.0,-0.003064218908548355
1664.0,-0.0039405967108905315
1792.0,-0.006900001782923937
1920.0,-0.007800411898642778
2048.0,-0.006114906631410122
2304.0,-0.006248903926461935
2560.0,-0.006244059652090073
2816.0,-0.005746396258473396
3072.0,-0.0018944352632388473
3328.0,-0.001395971979945898
3584.0,-0.002350561786442995
3840.0,-0.0004913796437904239
4096.0,0.004908983130007982
4608.0,0.0020790230482816696
5120.0,-0.002054262673482299
5632.0,-0.003226302331313491
6144.0,-0.010221360251307487
6656.0,-0.007637782488018274
7168.0,-0.0011012584436684847
7680.0,0.0019657497759908438
8192.0,0.010050792247056961
end
