version,3.0
numOfCh,1
type,point
parent_name,0cd20_0dot1-1dot0
ch_type,1_1
kcount,1
numberNandB,1
brightnessNandB,1
carpet pos,0
pc,0
Time (ms),CH1 Auto-Correlation
1.0,0.044578198343515396
2.0,0.04408334195613861
3.0,0.04363275691866875
4.0,0.04323035478591919
5.0,0.04283962398767471
6.0,0.04246704280376434
7.0,0.04210260137915611
8.0,0.04176270216703415
9.0,0.04141298308968544
10.0,0.04105830192565918
11.0,0.04069862887263298
12.0,0.040372733026742935
13.0,0.04003140330314636
14.0,0.03967975452542305
15.0,0.0393252968788147
16.0,0.03899530693888664
18.0,0.03836015984416008
20.0,0.03773746266961098
22.0,0.03713757544755936
24.0,0.036530379205942154
26.0,0.03595466539263725
28.0,0.03536364808678627
30.0,0.03478824347257614
32.0,0.034207962453365326
36.0,0.0330791212618351
40.0,0.03197842091321945
44.0,0.030973173677921295
48.0,0.030027562752366066
52.0,0.029077572748064995
56.0,0.028159871697425842
60.0,0.027244100347161293
64.0,0.026415400207042694
72.0,0.02509238012135029
80.0,0.02367028407752514
88.0,0.022274812683463097
96.0,0.021042069420218468
104.0,0.01984449476003647
112.0,0.018693093210458755
120.0,0.01758500561118126
128.0,0.01661841571331024
144.0,0.015255333855748177
160.0,0.01475698035210371
176.0,0.01413691509515047
192.0,0.013402617536485195
208.0,0.012292347848415375
224.0,0.0112878093495965
240.0,0.010614577680826187
256.0,0.010185431689023972
288.0,0.009571989998221397
320.0,0.009278479032218456
352.0,0.009488233365118504
384.0,0.010120341554284096
416.0,0.009770140051841736
448.0,0.009081797674298286
480.0,0.008802074007689953
512.0,0.009104792959988117
576.0,0.009851591661572456
640.0,0.009613292291760445
704.0,0.01062497217208147
768.0,0.010327301919460297
832.0,0.009127995930612087
896.0,0.0076131680980324745
960.0,0.006857820320874453
1024.0,0.006695062853395939
1152.0,0.004923223052173853
1280.0,0.005738694686442614
1408.0,0.00477223563939333
1536.0,0.0037796120159327984
1664.0,0.001916615292429924
1792.0,0.0011701334733515978
1920.0,0.0004212671483401209
2048.0,0.0004551267484202981
2304.0,0.002182570518925786
2560.0,0.00139218894764781
2816.0,-0.003393211867660284
3072.0,-0.0012294488260522485
3328.0,4.3005526094930246e-05
3584.0,-0.004373493138700724
3840.0,-0.0006519095622934401
4096.0,-0.0021925626788288355
4608.0,-0.0016899032052606344
5120.0,-0.0042620026506483555
5632.0,-0.005169035401195288
6144.0,-0.010654387064278126
6656.0,-0.010594857856631279
7168.0,-0.0053970180451869965
7680.0,-0.0035456770565360785
8192.0,-0.0056722573935985565
end
