version,3.0
numOfCh,1
type,point
parent_name,0cd20_0dot1-1dot0
ch_type,1_1
kcount,1
numberNandB,1
brightnessNandB,1
carpet pos,0
pc,0
Time (ms),CH1 Auto-Correlation
1.0,0.034561868757009506
2.0,0.034104108810424805
3.0,0.0336625799536705
4.0,0.0332622267305851
5.0,0.0328616201877594
6.0,0.03248901292681694
7.0,0.03211590647697449
8.0,0.03175865858793259
9.0,0.03141831234097481
10.0,0.031099483370780945
11.0,0.030791988596320152
12.0,0.030494941398501396
13.0,0.03020414337515831
14.0,0.029917780309915543
15.0,0.029636897146701813
16.0,0.029360629618167877
18.0,0.02881579101085663
20.0,0.028313439339399338
22.0,0.02782118320465088
24.0,0.027348050847649574
26.0,0.0268828384578228
28.0,0.026441562920808792
30.0,0.026042988523840904
32.0,0.02565133571624756
36.0,0.024886496365070343
40.0,0.024170728400349617
44.0,0.023465946316719055
48.0,0.022821560502052307
52.0,0.022138768807053566
56.0,0.021493082866072655
60.0,0.02087322622537613
64.0,0.020274752750992775
72.0,0.019230494275689125
80.0,0.01833767630159855
88.0,0.017502538859844208
96.0,0.016710547730326653
104.0,0.015874503180384636
112.0,0.01496828906238079
120.0,0.01407824456691742
128.0,0.013201631605625153
144.0,0.011840257793664932
160.0,0.010703705251216888
176.0,0.009905282407999039
192.0,0.00939709972590208
208.0,0.008802118711173534
224.0,0.00810978189110756
240.0,0.00756120728328824
256.0,0.007218203041702509
288.0,0.006260881200432777
320.0,0.004824707750231028
352.0,0.0036643543280661106
384.0,0.0025978912599384785
416.0,0.0026258095167577267
448.0,0.002679822500795126
480.0,0.0032135758083313704
512.0,0.004208463244140148
576.0,0.0047445353120565414
640.0,0.0048282090574502945
704.0,0.004225097596645355
768.0,0.003930887673050165
832.0,0.0032077734358608723
896.0,0.0007953764870762825
960.0,-0.0011943918652832508
1024.0,-0.0016530421562492847
1152.0,-0.0006427961052395403
1280.0,-0.0001800928293960169
1408.0,0.0005952431820333004
1536.0,-0.000546162948012352
1664.0,8.348415576620027e-05
1792.0,-0.001347773359157145
1920.0,-0.002873559482395649
2048.0,-0.003435388905927539
2304.0,0.002364675048738718
2560.0,-0.00021043252490926534
2816.0,-0.0009096775902435184
3072.0,-0.0010715971002355218
3328.0,-0.005471793003380299
3584.0,-0.0050928243435919285
3840.0,-0.006691414397209883
4096.0,-0.009562758728861809
4608.0,-0.006197953596711159
5120.0,-0.0024684525560587645
5632.0,0.0011268360540270805
6144.0,0.0018087109783664346
6656.0,0.0009863475570455194
7168.0,0.0018014759989455342
7680.0,0.004550456069409847
8192.0,0.0077742887660861015
end
