version,3.0
numOfCh,1
type,point
parent_name,0cd20_0dot1-1dot0
ch_type,1_1
kcount,1
numberNandB,1
brightnessNandB,1
carpet pos,0
pc,0
Time (ms),CH1 Auto-Correlation
1.0,0.05232014134526253
2.0,0.051668599247932434
3.0,0.05104641616344452
4.0,0.050505127757787704
5.0,0.04997601732611656
6.0,0.04942455515265465
7.0,0.04889817163348198
8.0,0.048369310796260834
9.0,0.047902390360832214
10.0,0.04748079180717468
11.0,0.047069694846868515
12.0,0.04665188118815422
13.0,0.04624289646744728
14.0,0.04582188278436661
15.0,0.04543063044548035
16.0,0.04499311000108719
18.0,0.044157613068819046
20.0,0.043388526886701584
22.0,0.04266010597348213
24.0,0.041989173740148544
26.0,0.041391536593437195
28.0,0.040764015167951584
30.0,0.04011835902929306
32.0,0.039452988654375076
36.0,0.03825325146317482
40.0,0.03720201179385185
44.0,0.03628099709749222
48.0,0.03540363162755966
52.0,0.03467272222042084
56.0,0.034086450934410095
60.0,0.03358529135584831
64.0,0.033190157264471054
72.0,0.032379359006881714
80.0,0.03153113275766373
88.0,0.030714940279722214
96.0,0.029786815866827965
104.0,0.02875874564051628
112.0,0.02792702428996563
120.0,0.02700507454574108
128.0,0.026130326092243195
144.0,0.025156278163194656
160.0,0.024352731183171272
176.0,0.023192735388875008
192.0,0.021854359656572342
208.0,0.020851980894804
224.0,0.0204001571983099
240.0,0.01957813650369644
256.0,0.01833866536617279
288.0,0.015796711668372154
320.0,0.013346907682716846
352.0,0.012296706438064575
384.0,0.01195932924747467
416.0,0.0105292284861207
448.0,0.010164479725062847
480.0,0.01050616055727005
512.0,0.010679654777050018
576.0,0.009234114550054073
640.0,0.006766111124306917
704.0,0.004206380341202021
768.0,0.0022039294708520174
832.0,0.0010746067855507135
896.0,0.000516314641572535
960.0,-8.129540947265923e-05
1024.0,0.0005325991078279912
1152.0,-0.00036681798519566655
1280.0,-0.0019260842818766832
1408.0,-0.0029419867787510157
1536.0,-0.004235072992742062
1664.0,-0.00952904298901558
1792.0,-0.012208598665893078
1920.0,-0.010314744897186756
2048.0,-0.004765380173921585
2304.0,-0.0015728897415101528
2560.0,-0.003543065395206213
2816.0,-0.006988504435867071
3072.0,-0.010881752707064152
3328.0,-0.012508701533079147
3584.0,-0.0074243322014808655
3840.0,0.0008074315264821053
4096.0,0.0032253297977149487
4608.0,0.010835038498044014
5120.0,0.011837848462164402
5632.0,-0.001140878302976489
6144.0,-0.006780422292649746
6656.0,-0.0002907198795583099
7168.0,-0.00024124943593051285
7680.0,-0.0014121190179139376
8192.0,-0.011293226853013039
end
