version,3.0
numOfCh,1
type,point
parent_name,0cd20_0dot1-1dot0
ch_type,1_1
kcount,1
numberNandB,1
brightnessNandB,1
carpet pos,0
pc,0
Time (ms),CH1 Auto-Correlation
1.0,0.04637426882982254
2.0,0.045762799680233
3.0,0.04523191601037979
4.0,0.04471411183476448
5.0,0.04421793296933174
6.0,0.04374167323112488
7.0,0.0432821623980999
8.0,0.042863767594099045
9.0,0.04246643930673599
10.0,0.04207943007349968
11.0,0.04171319678425789
12.0,0.0413728728890419
13.0,0.04102840647101402
14.0,0.04068102687597275
15.0,0.040329501032829285
16.0,0.039965443313121796
18.0,0.03926316648721695
20.0,0.038583822548389435
22.0,0.0378773957490921
24.0,0.037126701325178146
26.0,0.03643304482102394
28.0,0.03580152615904808
30.0,0.0352308563888073
32.0,0.03467945009469986
36.0,0.03358541056513786
40.0,0.03252642601728439
44.0,0.03146980330348015
48.0,0.03042728640139103
52.0,0.029485266655683517
56.0,0.028657948598265648
60.0,0.02783486433327198
64.0,0.027047812938690186
72.0,0.025564033538103104
80.0,0.02425355277955532
88.0,0.022837402299046516
96.0,0.02166912704706192
104.0,0.02057376317679882
112.0,0.01943317987024784
120.0,0.01817243918776512
128.0,0.01717115007340908
144.0,0.015210595913231373
160.0,0.013536233454942703
176.0,0.012143226340413094
192.0,0.010481121018528938
208.0,0.009342684410512447
224.0,0.008649053983390331
240.0,0.007931091822683811
256.0,0.007139982655644417
288.0,0.0059991925954818726
320.0,0.004515109583735466
352.0,0.004149325657635927
384.0,0.0042792498134076595
416.0,0.004664461128413677
448.0,0.0040590595453977585
480.0,0.0027998858131468296
512.0,0.0008226420031860471
576.0,-0.0014576201792806387
640.0,-0.00017012967146001756
704.0,0.000996950315311551
768.0,0.0018439869163557887
832.0,0.0010682459687814116
896.0,-5.752482684329152e-05
960.0,-0.0005883973208256066
1024.0,-0.0010120075894519687
1152.0,-0.0035072641912847757
1280.0,-0.0039595868438482285
1408.0,-0.0003533695708028972
1536.0,-0.0022576539777219296
1664.0,-0.006832593586295843
1792.0,-0.005248236935585737
1920.0,-0.0022350901272147894
2048.0,0.0010554768377915025
2304.0,0.004894343204796314
2560.0,0.0008952012285590172
2816.0,0.0032458114437758923
3072.0,0.0025904045905917883
3328.0,9.034210961544886e-05
3584.0,0.003679620334878564
3840.0,-1.8867465769289993e-05
4096.0,-0.001984577625989914
4608.0,-0.002016877755522728
5120.0,0.0010893510188907385
5632.0,-0.004556293599307537
6144.0,-0.00451135216280818
6656.0,-0.0055383602157235146
7168.0,0.002417698036879301
7680.0,-0.000794309307821095
8192.0,-0.001794727286323905
end
