version,3.0
numOfCh,1
type,point
parent_name,2-cuts
ch_type,1_1
kcount,1
numberNandB,1
brightnessNandB,1
carpet pos,0
pc,0
Time (ms),CH1 Auto-Correlation
1.0,0.059576090425252914
2.0,0.058351632207632065
3.0,0.0571429580450058
4.0,0.055983006954193115
5.0,0.05485314875841141
6.0,0.05377219244837761
7.0,0.052742864936590195
8.0,0.05176757648587227
9.0,0.050799980759620667
10.0,0.04986582696437836
11.0,0.04898611083626747
12.0,0.048136547207832336
13.0,0.04731711000204086
14.0,0.046532899141311646
15.0,0.0457889623939991
16.0,0.04503998905420303
18.0,0.0435309112071991
20.0,0.04210697114467621
22.0,0.04083588719367981
24.0,0.03966972604393959
26.0,0.03855383023619652
28.0,0.03756018728017807
30.0,0.0366777628660202
32.0,0.035886820405721664
36.0,0.034339502453804016
40.0,0.03287489339709282
44.0,0.03148392587900162
48.0,0.03010629676282406
52.0,0.02872423268854618
56.0,0.027399839833378792
60.0,0.02614709362387657
64.0,0.025004910305142403
72.0,0.022662794217467308
80.0,0.020294521003961563
88.0,0.0184231735765934
96.0,0.01680881530046463
104.0,0.015407172031700611
112.0,0.014258123934268951
120.0,0.013309292495250702
128.0,0.012554772198200226
144.0,0.010793308727443218
160.0,0.009062237106263638
176.0,0.00814978126436472
192.0,0.007732886355370283
208.0,0.008600006811320782
224.0,0.00944374781101942
240.0,0.00888785906136036
256.0,0.009023822844028473
288.0,0.008573868311941624
320.0,0.006783680524677038
352.0,0.006999545730650425
384.0,0.005578283220529556
416.0,0.00650526350364089
448.0,0.008725910447537899
480.0,0.009687964804470539
512.0,0.009015900082886219
576.0,0.007816302590072155
640.0,0.009255392476916313
704.0,0.007507965434342623
768.0,0.007993469946086407
832.0,0.007061230484396219
896.0,0.009893223643302917
960.0,0.009088701568543911
1024.0,0.008592062629759312
1152.0,0.01139775849878788
1280.0,0.005969686899334192
1408.0,0.005186745896935463
1536.0,0.003958465531468391
1664.0,0.0035687696654349566
1792.0,0.008164345286786556
1920.0,0.0066589731723070145
2048.0,0.0061470381915569305
2304.0,0.007986824959516525
2560.0,0.002631107345223427
2816.0,0.001442033564671874
3072.0,-0.0011048612650483847
3328.0,0.0016313577070832253
3584.0,-0.00014171605289448053
3840.0,0.004336438607424498
4096.0,0.001857402385212481
4608.0,0.0034080566838383675
5120.0,0.003137817606329918
5632.0,0.0018910636426880956
6144.0,0.0018642350332811475
6656.0,-0.001085046911612153
7168.0,-0.005054899025708437
7680.0,-0.0033008602913469076
8192.0,-0.004012223798781633
9216.0,-0.006086294539272785
10240.0,-0.00430870708078146
11264.0,-0.007864298298954964
12288.0,-0.016023864969611168
13312.0,-0.024443194270133972
14336.0,-0.02499053068459034
end
