version,3.0
numOfCh,1
type,point
parent_name,2-cuts
ch_type,1_1
kcount,1
numberNandB,1
brightnessNandB,1
carpet pos,0
pc,0
Time (ms),CH1 Auto-Correlation
1.0,0.06839645653963089
2.0,0.06719182431697845
3.0,0.06604355573654175
4.0,0.0649351254105568
5.0,0.06386341899633408
6.0,0.06284093856811523
7.0,0.06183667108416557
8.0,0.06086196005344391
9.0,0.059935063123703
10.0,0.05903203412890434
11.0,0.058170706033706665
12.0,0.05731914937496185
13.0,0.056484658271074295
14.0,0.055656012147665024
15.0,0.05484337359666824
16.0,0.054054103791713715
18.0,0.05255508795380592
20.0,0.051134493201971054
22.0,0.04975270852446556
24.0,0.048398882150650024
26.0,0.047130778431892395
28.0,0.04596150666475296
30.0,0.04479029029607773
32.0,0.04366413876414299
36.0,0.0415886715054512
40.0,0.0397757925093174
44.0,0.03816232457756996
48.0,0.036856066435575485
52.0,0.03576568514108658
56.0,0.03493523225188255
60.0,0.03421751409769058
64.0,0.03355034440755844
72.0,0.03231344372034073
80.0,0.030659079551696777
88.0,0.02869596891105175
96.0,0.026901423931121826
104.0,0.025155145674943924
112.0,0.023370474576950073
120.0,0.021845124661922455
128.0,0.020618917420506477
144.0,0.01875542663037777
160.0,0.017840184271335602
176.0,0.017505669966340065
192.0,0.017419125884771347
208.0,0.01708380877971649
224.0,0.01676580309867859
240.0,0.016503741964697838
256.0,0.016533399000763893
288.0,0.01576807163655758
320.0,0.016442647203803062
352.0,0.017848094925284386
384.0,0.017247550189495087
416.0,0.016087988391518593
448.0,0.01564396359026432
480.0,0.01322992891073227
512.0,0.010231624357402325
576.0,0.005811123643070459
640.0,0.002885426627472043
704.0,0.004875582177191973
768.0,0.00900881178677082
832.0,0.00832644198089838
896.0,0.007351083680987358
960.0,0.005435623228549957
1024.0,0.0013369935331866145
1152.0,0.004876151215285063
1280.0,0.007372349034994841
1408.0,0.0015625017695128918
1536.0,0.003597710281610489
1664.0,0.0021767676807940006
1792.0,-0.0005654950509779155
1920.0,-0.0005790285649709404
2048.0,-0.005003443919122219
2304.0,-0.005716347135603428
2560.0,-0.010221949778497219
2816.0,-0.00928284041583538
3072.0,-0.0074844141490757465
3328.0,-0.005574341863393784
3584.0,-0.004224496893584728
3840.0,-0.0033412810880690813
4096.0,0.0011808547424152493
4608.0,0.0005670364480465651
5120.0,0.0006826315657235682
5632.0,-0.002661032136529684
6144.0,-0.006084169261157513
6656.0,-0.009882437996566296
7168.0,-0.008234321139752865
7680.0,-0.009222952648997307
8192.0,-0.005124545190483332
9216.0,0.007540362421423197
10240.0,0.009530914947390556
11264.0,0.008126738481223583
12288.0,-0.004162352532148361
13312.0,-0.013483785092830658
14336.0,-0.008462323807179928
end
