version,3.0
numOfCh,1
type,point
parent_name,2-cuts
ch_type,1_1
kcount,1
numberNandB,1
brightnessNandB,1
carpet pos,0
pc,0
Time (ms),CH1 Auto-Correlation
1.0,0.02154592052102089
2.0,0.02116774581372738
3.0,0.020799029618501663
4.0,0.020443998277187347
5.0,0.020099259912967682
6.0,0.01975572481751442
7.0,0.019422704353928566
8.0,0.01909911260008812
9.0,0.018778780475258827
10.0,0.018459782004356384
11.0,0.018147947266697884
12.0,0.01784912496805191
13.0,0.017550116404891014
14.0,0.017270861193537712
15.0,0.01699954830110073
16.0,0.016738727688789368
18.0,0.016257114708423615
20.0,0.015807732939720154
22.0,0.015384547412395477
24.0,0.014969857409596443
26.0,0.014564723707735538
28.0,0.014206605963408947
30.0,0.013880087062716484
32.0,0.013580137863755226
36.0,0.01303459145128727
40.0,0.012520895339548588
44.0,0.012005304917693138
48.0,0.01152162253856659
52.0,0.011134389787912369
56.0,0.010799515061080456
60.0,0.010484260506927967
64.0,0.010191654786467552
72.0,0.009596717543900013
80.0,0.008989935740828514
88.0,0.008329542353749275
96.0,0.007720735855400562
104.0,0.007373455446213484
112.0,0.0071533177979290485
120.0,0.006880774162709713
128.0,0.006675300188362598
144.0,0.006214234512299299
160.0,0.005754548124969006
176.0,0.005264734383672476
192.0,0.004913403652608395
208.0,0.004221710376441479
224.0,0.003630022518336773
240.0,0.003156788647174835
256.0,0.00287131336517632
288.0,0.002889226656407118
320.0,0.002907471964135766
352.0,0.0028970723506063223
384.0,0.0025397518184036016
416.0,0.0026390531565994024
448.0,0.0032793364953249693
480.0,0.0030328836292028427
512.0,0.0023172860965132713
576.0,0.0020940909162163734
640.0,0.001678641070611775
704.0,0.0007747001945972443
768.0,0.0001114881451940164
832.0,-0.00040198289207182825
896.0,-0.0006947587826289237
960.0,-0.0008521326235495508
1024.0,-0.0003028024220839143
1152.0,-0.0012718318030238152
1280.0,-0.0012044431641697884
1408.0,9.78141906671226e-05
1536.0,0.002494638552889228
1664.0,0.0027878624387085438
1792.0,0.0022892174310982227
1920.0,0.001997377024963498
2048.0,0.002626674948260188
2304.0,0.0009641265496611595
2560.0,-0.0006965067586861551
2816.0,-0.002678376855328679
3072.0,-0.003372402861714363
3328.0,-0.002141473814845085
3584.0,0.00031516223680227995
3840.0,-0.0005042864941060543
4096.0,-0.00015199572953861207
4608.0,-0.0025528992991894484
5120.0,-0.0003374182851985097
5632.0,0.0005618453724309802
6144.0,0.0018927742494270205
6656.0,-0.0020789424888789654
7168.0,-0.0023566652089357376
7680.0,0.0021543169859796762
8192.0,-0.002187523292377591
9216.0,-0.0027431598864495754
10240.0,-0.002395233605057001
11264.0,0.0004727658233605325
12288.0,0.0025619217194616795
13312.0,0.003197276499122381
14336.0,0.00154643424320966
end
