version,3.0
numOfCh,1
type,point
parent_name,2-cuts
ch_type,1_1
kcount,1
numberNandB,1
brightnessNandB,1
carpet pos,0
pc,0
Time (ms),CH1 Auto-Correlation
1.0,0.0222101379185915
2.0,0.02182599902153015
3.0,0.021459639072418213
4.0,0.021105768159031868
5.0,0.020754743367433548
6.0,0.020410319790244102
7.0,0.020074062049388885
8.0,0.019743671640753746
9.0,0.01942581497132778
10.0,0.019104737788438797
11.0,0.018787359818816185
12.0,0.018465133383870125
13.0,0.018145080655813217
14.0,0.017822865396738052
15.0,0.01751486398279667
16.0,0.01720554009079933
18.0,0.016627876088023186
20.0,0.016097242012619972
22.0,0.015590962953865528
24.0,0.01511404663324356
26.0,0.014644969254732132
28.0,0.014203362166881561
30.0,0.013776950538158417
32.0,0.013357092626392841
36.0,0.012609949335455894
40.0,0.011906219646334648
44.0,0.011279336176812649
48.0,0.010728436522185802
52.0,0.010194163769483566
56.0,0.009669818915426731
60.0,0.009189874865114689
64.0,0.008781750686466694
72.0,0.008193343877792358
80.0,0.00779443746432662
88.0,0.007461925037205219
96.0,0.007165344897657633
104.0,0.006797321606427431
112.0,0.006365991197526455
120.0,0.005943081807345152
128.0,0.005663527641445398
144.0,0.005366384517401457
160.0,0.005075195804238319
176.0,0.004911643452942371
192.0,0.004683038219809532
208.0,0.004553765058517456
224.0,0.0045456066727638245
240.0,0.004341559950262308
256.0,0.003925282508134842
288.0,0.003155678743496537
320.0,0.0024969393853098154
352.0,0.0020726406946778297
384.0,0.0014243022305890918
416.0,0.001465682638809085
448.0,0.0009680244838818908
480.0,0.00014550294145010412
512.0,-0.00011859343067044392
576.0,-0.0014263145858421922
640.0,-0.00235252408310771
704.0,-0.0017556027742102742
768.0,-0.000867752474732697
832.0,-1.330263967247447e-05
896.0,0.001163214212283492
960.0,0.0010338756255805492
1024.0,0.0001908539270516485
1152.0,0.0014595506945624948
1280.0,0.0022487379610538483
1408.0,0.0020098944660276175
1536.0,0.0011058097006753087
1664.0,0.0007139227236621082
1792.0,-0.00044982548570260406
1920.0,-0.0010470108827576041
2048.0,-0.00022219801030587405
2304.0,-0.0013020116603001952
2560.0,-0.002191332634538412
2816.0,0.0003923694312106818
3072.0,0.0015095405979081988
3328.0,-0.0009730983874760568
3584.0,-0.0014150781789794564
3840.0,-0.002455317648127675
4096.0,-0.0018693612655624747
4608.0,-0.002016020007431507
5120.0,-0.0021140514872968197
5632.0,-0.000697057694196701
6144.0,-0.0009436066029593349
6656.0,0.0002739344781730324
7168.0,-0.0003732715849764645
7680.0,0.001433379715308547
8192.0,0.00042040811968035996
9216.0,0.0021359079983085394
10240.0,0.0009735638741403818
11264.0,-0.0006444915779866278
12288.0,3.007871100635384e-06
13312.0,-0.0006210559513419867
14336.0,-0.0006020757718943059
end
