version,3.0
numOfCh,1
type,point
parent_name,2-cuts
ch_type,1_1
kcount,1
numberNandB,1
brightnessNandB,1
carpet pos,0
pc,0
Time (ms),CH1 Auto-Correlation
1.0,0.028564315289258957
2.0,0.02800046280026436
3.0,0.02746458537876606
4.0,0.02694980800151825
5.0,0.026435157284140587
6.0,0.025948910042643547
7.0,0.02546823024749756
8.0,0.025013642385601997
9.0,0.024578897282481194
10.0,0.024159617722034454
11.0,0.02376328408718109
12.0,0.023378001525998116
13.0,0.023003537207841873
14.0,0.02263116091489792
15.0,0.02227282151579857
16.0,0.021923834457993507
18.0,0.021236326545476913
20.0,0.020578822121024132
22.0,0.019934246316552162
24.0,0.019340546801686287
26.0,0.01876872219145298
28.0,0.018238775432109833
30.0,0.017713123932480812
32.0,0.017210474237799644
36.0,0.016249539330601692
40.0,0.015332040376961231
44.0,0.014455379918217659
48.0,0.01368932705372572
52.0,0.013115921057760715
56.0,0.012696362100541592
60.0,0.01235255878418684
64.0,0.012043221853673458
72.0,0.011492854915559292
80.0,0.011052064597606659
88.0,0.010588162578642368
96.0,0.010096653364598751
104.0,0.009634222835302353
112.0,0.00916654895991087
120.0,0.008714058436453342
128.0,0.008198875933885574
144.0,0.007670173887163401
160.0,0.007245252840220928
176.0,0.006953971926122904
192.0,0.006793380714952946
208.0,0.006695863790810108
224.0,0.006479841656982899
240.0,0.006053288001567125
256.0,0.005957377143204212
288.0,0.005024081561714411
320.0,0.003476227866485715
352.0,0.0026796224992722273
384.0,0.002277496736496687
416.0,0.0023354480508714914
448.0,0.0023277613800019026
480.0,0.0022559126373380423
512.0,0.002474966226145625
576.0,-0.0003016433911398053
640.0,-0.0023988489992916584
704.0,-0.00390657177194953
768.0,-0.0036488559562712908
832.0,-0.0038751312531530857
896.0,-0.0033991870004683733
960.0,-0.004520555958151817
1024.0,-0.004535738844424486
1152.0,-0.005611672531813383
1280.0,-0.0044854311272501945
1408.0,-0.002196669578552246
1536.0,-0.001681998372077942
1664.0,-0.00020412639423739165
1792.0,0.0022081087809056044
1920.0,0.0018819791730493307
2048.0,0.0019037073943763971
2304.0,0.004472330678254366
2560.0,0.005700714886188507
2816.0,0.0014763768995180726
3072.0,-0.0015782522968947887
3328.0,-0.003846068400889635
3584.0,-0.003963600844144821
3840.0,-0.001266196253709495
4096.0,0.002487430116161704
4608.0,0.0013093145098537207
5120.0,-0.003364923410117626
5632.0,-0.002732355147600174
6144.0,0.0012838426046073437
6656.0,0.0019728143233805895
7168.0,-0.002262188820168376
7680.0,-0.006152885500341654
8192.0,-0.00040697172516956925
9216.0,0.0024352569598704576
10240.0,-0.003906611818820238
11264.0,0.004348517395555973
12288.0,-0.0006765780271962285
13312.0,-0.0005946474266238511
14336.0,0.0029295848216861486
end
