version,3.0
numOfCh,1
type,point
parent_name,2-cuts
ch_type,1_1
kcount,1
numberNandB,1
brightnessNandB,1
carpet pos,0
pc,0
Time (ms),CH1 Auto-Correlation
1.0,0.07004659622907639
2.0,0.06882624328136444
3.0,0.06764073669910431
4.0,0.06654331088066101
5.0,0.06550949066877365
6.0,0.06450110673904419
7.0,0.06351993978023529
8.0,0.06258586794137955
9.0,0.061711106449365616
10.0,0.060870204120874405
11.0,0.06005515903234482
12.0,0.05924646183848381
13.0,0.05847717821598053
14.0,0.057720769196748734
15.0,0.05704696848988533
16.0,0.0564042292535305
18.0,0.055190227925777435
20.0,0.05402461066842079
22.0,0.05289517343044281
24.0,0.05176517739892006
26.0,0.05072407051920891
28.0,0.04969671741127968
30.0,0.048575274646282196
32.0,0.047423284500837326
36.0,0.04535016044974327
40.0,0.04362891614437103
44.0,0.042258623987436295
48.0,0.04091754928231239
52.0,0.03946613520383835
56.0,0.03799915313720703
60.0,0.03668605908751488
64.0,0.035567812621593475
72.0,0.03350292518734932
80.0,0.031688470393419266
88.0,0.03000648133456707
96.0,0.027857623994350433
104.0,0.02593417279422283
112.0,0.024882251396775246
120.0,0.024379178881645203
128.0,0.02345050312578678
144.0,0.020851656794548035
160.0,0.018461523577570915
176.0,0.016963310539722443
192.0,0.014890057034790516
208.0,0.013499073684215546
224.0,0.013334913179278374
240.0,0.013185692951083183
256.0,0.013242021203041077
288.0,0.012786665931344032
320.0,0.011627002619206905
352.0,0.010484416037797928
384.0,0.011108098551630974
416.0,0.010932314209640026
448.0,0.008455125615000725
480.0,0.006475814618170261
512.0,0.0065867104567587376
576.0,0.005906510166823864
640.0,0.004691556096076965
704.0,0.005378409288823605
768.0,0.003694723593071103
832.0,0.0021537314169108868
896.0,-0.000388765154639259
960.0,-0.0008335429010912776
1024.0,0.0002783710660878569
1152.0,0.0021194631699472666
1280.0,0.0063660829328000546
1408.0,-0.0008434096816927195
1536.0,-0.005630141589790583
1664.0,-0.007000775542110205
1792.0,-0.007249927613884211
1920.0,-0.00546289561316371
2048.0,-0.0028980111237615347
2304.0,-0.005698992405086756
2560.0,-0.00704323872923851
2816.0,-0.00496590556576848
3072.0,-0.009872321970760822
3328.0,0.00038855517050251365
3584.0,-0.00226330803707242
3840.0,-0.004237944260239601
4096.0,0.002567730378359556
4608.0,-0.0019701311830431223
5120.0,0.0031339027918875217
5632.0,0.0032941827084869146
6144.0,0.003166215494275093
6656.0,0.0019081743666902184
7168.0,0.003834877861663699
7680.0,-0.002910014009103179
8192.0,-0.010527461767196655
9216.0,-0.01296641118824482
10240.0,-0.0045355563051998615
11264.0,0.01485575083643198
12288.0,-0.0021592595148831606
13312.0,0.001030169427394867
14336.0,0.00780694093555212
end
