version,3.0
numOfCh,1
type,point
parent_name,2-cuts
ch_type,1_1
kcount,1
numberNandB,1
brightnessNandB,1
carpet pos,0
pc,0
Time (ms),CH1 Auto-Correlation
1.0,0.019704174250364304
2.0,0.019323155283927917
3.0,0.01896759681403637
4.0,0.018615668639540672
5.0,0.01827106811106205
6.0,0.017927363514900208
7.0,0.017604174092411995
8.0,0.01729707233607769
9.0,0.01699591800570488
10.0,0.016705011948943138
11.0,0.01642829366028309
12.0,0.016159215942025185
13.0,0.015903759747743607
14.0,0.0156524907797575
15.0,0.015410336665809155
16.0,0.015178128145635128
18.0,0.014720894396305084
20.0,0.014291558414697647
22.0,0.013886171393096447
24.0,0.013502093032002449
26.0,0.013153491541743279
28.0,0.01282776053994894
30.0,0.012514716014266014
32.0,0.012214125134050846
36.0,0.011619171127676964
40.0,0.011046074330806732
44.0,0.010517633520066738
48.0,0.010001198388636112
52.0,0.00953480415046215
56.0,0.009148414246737957
60.0,0.0088109215721488
64.0,0.008460503071546555
72.0,0.007886937819421291
80.0,0.007483749650418758
88.0,0.007050633430480957
96.0,0.006677538622170687
104.0,0.006420255638659
112.0,0.0061605703085660934
120.0,0.005886139813810587
128.0,0.005455571226775646
144.0,0.004825021140277386
160.0,0.004640862345695496
176.0,0.0046742139384150505
192.0,0.004851529840379953
208.0,0.005048013292253017
224.0,0.005450712516903877
240.0,0.005691415164619684
256.0,0.005840441212058067
288.0,0.004978102631866932
320.0,0.0039433082565665245
352.0,0.002883867360651493
384.0,0.002212357707321644
416.0,0.0014380371430888772
448.0,0.0010965247638523579
480.0,0.001244981656782329
512.0,0.0011726340744644403
576.0,-0.00013405074423644692
640.0,-0.001832474721595645
704.0,-0.002395245246589184
768.0,-0.0009190283599309623
832.0,-0.0010866884840652347
896.0,-0.0019098276970908046
960.0,-0.002545116702094674
1024.0,-0.002011250238865614
1152.0,-0.0009003898594528437
1280.0,-0.0007982908864505589
1408.0,-0.00098987459205091
1536.0,-0.0009502104367129505
1664.0,-0.0005826081032864749
1792.0,0.0003788888279814273
1920.0,0.0012131854891777039
2048.0,0.0013209196040406823
2304.0,0.000533106445800513
2560.0,-0.0009032528614625335
2816.0,-0.0016569842118769884
3072.0,-0.0019404017366468906
3328.0,-0.001856659073382616
3584.0,-0.0016410535899922252
3840.0,-0.0007229435141198337
4096.0,-0.000831449928227812
4608.0,-0.0018694376340135932
5120.0,-0.00043092298437841237
5632.0,0.001156252226792276
6144.0,0.0001069117643055506
6656.0,-0.0005147412302903831
7168.0,0.0027573450934141874
7680.0,0.0028529607225209475
8192.0,0.00015844999870751053
9216.0,0.0005353305605240166
10240.0,-0.0019428101368248463
11264.0,0.0017909741727635264
12288.0,-0.00481158634647727
13312.0,0.00237724999897182
14336.0,-0.00010823828051798046
end
