version,3.0
numOfCh,1
type,point
parent_name,2-cuts
ch_type,1_1
kcount,1
numberNandB,1
brightnessNandB,1
carpet pos,0
pc,0
Time (ms),CH1 Auto-Correlation
1.0,0.06071512773633003
2.0,0.05948397517204285
3.0,0.05828157812356949
4.0,0.05711805075407028
5.0,0.056018657982349396
6.0,0.054971519857645035
7.0,0.05397156625986099
8.0,0.05300873517990112
9.0,0.05203152447938919
10.0,0.051091909408569336
11.0,0.050202809274196625
12.0,0.049289166927337646
13.0,0.04841537028551102
14.0,0.04757598415017128
15.0,0.046762555837631226
16.0,0.04599052667617798
18.0,0.044529322534799576
20.0,0.04307401925325394
22.0,0.04171732813119888
24.0,0.040398020297288895
26.0,0.03920167312026024
28.0,0.03810422867536545
30.0,0.037084147334098816
32.0,0.036065712571144104
36.0,0.034062709659338
40.0,0.032265808433294296
44.0,0.030661635100841522
48.0,0.029237188398838043
52.0,0.0279593113809824
56.0,0.026851588860154152
60.0,0.02591714635491371
64.0,0.025058308616280556
72.0,0.02365754172205925
80.0,0.022200653329491615
88.0,0.020914174616336823
96.0,0.019509969279170036
104.0,0.01814865693449974
112.0,0.016543898731470108
120.0,0.014834458008408546
128.0,0.013604801148176193
144.0,0.012606029398739338
160.0,0.01122014969587326
176.0,0.009703841991722584
192.0,0.00836970191448927
208.0,0.008155298419296741
224.0,0.008516663685441017
240.0,0.008967965841293335
256.0,0.009212576784193516
288.0,0.008657118305563927
320.0,0.007144360337406397
352.0,0.004552085883915424
384.0,0.002126544713973999
416.0,0.0005254174466244876
448.0,-0.000400272139813751
480.0,-0.000663651037029922
512.0,-0.0013565857661888003
576.0,-0.0019261923152953386
640.0,0.0016887035453692079
704.0,0.0039536431431770325
768.0,0.006923304405063391
832.0,0.004557514097541571
896.0,0.004467155784368515
960.0,0.002803031587973237
1024.0,0.0023181086871773005
1152.0,0.0020813324954360723
1280.0,0.0008701084298081696
1408.0,0.0011540378909558058
1536.0,-0.0020818368066102266
1664.0,-0.000738690490834415
1792.0,-0.001699922839179635
1920.0,0.0018200130434706807
2048.0,0.00599625101312995
2304.0,0.0025137891061604023
2560.0,0.0007481103530153632
2816.0,0.001929961028508842
3072.0,-0.002083888277411461
3328.0,-0.0026861520018428564
3584.0,-0.004692354705184698
3840.0,-0.000860823318362236
4096.0,0.004551801364868879
4608.0,-0.008879399858415127
5120.0,-0.003248994704335928
5632.0,-0.008955930359661579
6144.0,-0.0004650161718018353
6656.0,-0.004603671375662088
7168.0,0.0005300319171510637
7680.0,-0.005777642130851746
8192.0,0.0008375248871743679
9216.0,-0.0006388389156199992
10240.0,0.000218937115278095
11264.0,0.003111522411927581
12288.0,0.0014520763652399182
13312.0,0.003702424932271242
14336.0,0.00031417564605362713
end
