version,3.0
numOfCh,1
type,point
parent_name,2-cuts
ch_type,1_1
kcount,1
numberNandB,1
brightnessNandB,1
carpet pos,0
pc,0
Time (ms),CH1 Auto-Correlation
1.0,0.03722985461354256
2.0,0.03666570782661438
3.0,0.036113373935222626
4.0,0.03557607904076576
5.0,0.03504779189825058
6.0,0.034527264535427094
7.0,0.034035228192806244
8.0,0.03355594724416733
9.0,0.03309279680252075
10.0,0.03263862058520317
11.0,0.0321958027780056
12.0,0.03175390884280205
13.0,0.03133149445056915
14.0,0.03092477284371853
15.0,0.03055371530354023
16.0,0.030202126130461693
18.0,0.029539689421653748
20.0,0.02890201285481453
22.0,0.028271418064832687
24.0,0.027680587023496628
26.0,0.02711626887321472
28.0,0.02655060589313507
30.0,0.02598998136818409
32.0,0.02544502541422844
36.0,0.024531321600079536
40.0,0.02376645989716053
44.0,0.023067506030201912
48.0,0.022381847724318504
52.0,0.02172665297985077
56.0,0.021169668063521385
60.0,0.020560137927532196
64.0,0.019915901124477386
72.0,0.018588827922940254
80.0,0.017412399873137474
88.0,0.01645597815513611
96.0,0.01573122665286064
104.0,0.01535085029900074
112.0,0.014947623945772648
120.0,0.014444086700677872
128.0,0.013726050034165382
144.0,0.012477846816182137
160.0,0.011820142157375813
176.0,0.011274919845163822
192.0,0.011238095350563526
208.0,0.011173723265528679
224.0,0.011251464486122131
240.0,0.011426909826695919
256.0,0.011267025955021381
288.0,0.01049681007862091
320.0,0.009667291305959225
352.0,0.008688529953360558
384.0,0.007464827038347721
416.0,0.007100385148078203
448.0,0.006474553141742945
480.0,0.006602050736546516
512.0,0.007354901637881994
576.0,0.00751989521086216
640.0,0.005591219291090965
704.0,0.0031515611335635185
768.0,0.00043917965376749635
832.0,0.0026499484665691853
896.0,0.003960374742746353
960.0,0.0032796969171613455
1024.0,0.0016643484123051167
1152.0,0.002673388458788395
1280.0,0.004166513215750456
1408.0,0.0040552327409386635
1536.0,0.0017556966049596667
1664.0,0.000752090651076287
1792.0,0.000931299349758774
1920.0,0.0016198685625568032
2048.0,0.0004661092534661293
2304.0,-2.5111963623203337e-05
2560.0,4.336029087426141e-05
2816.0,-0.003909898456186056
3072.0,-0.0036553272511810064
3328.0,-0.004090005997568369
3584.0,-0.0026361048221588135
3840.0,-0.0007911130087450147
4096.0,-0.003027508268132806
4608.0,-0.0036564443726092577
5120.0,-0.0025177772622555494
5632.0,0.00029975210782140493
6144.0,-0.003168530762195587
6656.0,-0.003714919090270996
7168.0,-0.005117479711771011
7680.0,-0.0053346408531069756
8192.0,-0.001747675589285791
9216.0,-0.006387991365045309
10240.0,0.00048772653099149466
11264.0,0.0047446652315557
12288.0,0.008036128245294094
13312.0,0.0035847374238073826
14336.0,-0.001130222575739026
end
