version,3.0
numOfCh,1
type,point
parent_name,2-cuts
ch_type,1_1
kcount,1
numberNandB,1
brightnessNandB,1
carpet pos,0
pc,0
Time (ms),CH1 Auto-Correlation
1.0,0.03407863527536392
2.0,0.03349706530570984
3.0,0.03294633328914642
4.0,0.0324055440723896
5.0,0.0318748764693737
6.0,0.03135475888848305
7.0,0.030848944559693336
8.0,0.030358893796801567
9.0,0.02988278679549694
10.0,0.02942230924963951
11.0,0.02896892838180065
12.0,0.0285221878439188
13.0,0.028084222227334976
14.0,0.027674825862050056
15.0,0.027280673384666443
16.0,0.02691364847123623
18.0,0.026216788217425346
20.0,0.025551345199346542
22.0,0.02489127591252327
24.0,0.02423899620771408
26.0,0.023587822914123535
28.0,0.022925054654479027
30.0,0.02226400561630726
32.0,0.021620124578475952
36.0,0.02042442560195923
40.0,0.019301792606711388
44.0,0.018293367698788643
48.0,0.017407884821295738
52.0,0.016587143763899803
56.0,0.015905244275927544
60.0,0.015231612138450146
64.0,0.014503593556582928
72.0,0.013109222985804081
80.0,0.011943248100578785
88.0,0.011008711531758308
96.0,0.010285253636538982
104.0,0.009690600447356701
112.0,0.009226861409842968
120.0,0.00874708965420723
128.0,0.008497311733663082
144.0,0.008179980330169201
160.0,0.007617982104420662
176.0,0.0071394178085029125
192.0,0.006530191749334335
208.0,0.006028289906680584
224.0,0.005468316376209259
240.0,0.0055754464119672775
256.0,0.00574445677921176
288.0,0.005942021496593952
320.0,0.005135846324265003
352.0,0.004630042240023613
384.0,0.004154094494879246
416.0,0.003870985470712185
448.0,0.004073144868016243
480.0,0.004732693079859018
512.0,0.004823929164558649
576.0,0.004344453103840351
640.0,0.004104813560843468
704.0,0.0011728617828339338
768.0,-0.0003715640923473984
832.0,0.00044040640932507813
896.0,-0.00026719889137893915
960.0,-0.0027155813295394182
1024.0,-0.003876415314152837
1152.0,-0.002635689452290535
1280.0,-0.0031517203897237778
1408.0,-0.0034227764699608088
1536.0,-0.0009850660571828485
1664.0,-0.0025412882678210735
1792.0,0.001315080444328487
1920.0,-0.00016611522005405277
2048.0,-0.00012560280447360128
2304.0,-0.001382745336741209
2560.0,-0.0006900419248268008
2816.0,-0.004629732109606266
3072.0,-0.0031094257719814777
3328.0,0.0009525225032120943
3584.0,0.0020971987396478653
3840.0,0.0035252890083938837
4096.0,0.0017817961052060127
4608.0,-0.000625331187620759
5120.0,2.6562925995676778e-05
5632.0,0.0042613293044269085
6144.0,0.0023301425389945507
6656.0,-0.005053036380559206
7168.0,-0.00521691981703043
7680.0,-0.003146206494420767
8192.0,-0.0015409057959914207
9216.0,0.0011516785016283393
10240.0,-0.002386234700679779
11264.0,0.00015046948101371527
12288.0,-0.0006364338332787156
13312.0,0.002238848013803363
14336.0,0.0022709702607244253
end
