version,3.0
numOfCh,1
type,point
parent_name,2-cuts
ch_type,1_1
kcount,1
numberNandB,1
brightnessNandB,1
carpet pos,0
pc,0
Time (ms),CH1 Auto-Correlation
1.0,0.0735301524400711
2.0,0.07225893437862396
3.0,0.07102786749601364
4.0,0.06985468417406082
5.0,0.06872694194316864
6.0,0.06760815531015396
7.0,0.06654881685972214
8.0,0.06554852426052094
9.0,0.06459803134202957
10.0,0.06368518620729446
11.0,0.06280648708343506
12.0,0.061928488314151764
13.0,0.06107208877801895
14.0,0.06020444631576538
15.0,0.059351321309804916
16.0,0.05848678946495056
18.0,0.05672704428434372
20.0,0.055051613599061966
22.0,0.0534762367606163
24.0,0.051984772086143494
26.0,0.05058886110782623
28.0,0.04918811842799187
30.0,0.04783235862851143
32.0,0.04653377830982208
36.0,0.04415320232510567
40.0,0.04186626523733139
44.0,0.03982386365532875
48.0,0.03790448606014252
52.0,0.036128461360931396
56.0,0.03448911011219025
60.0,0.03287399932742119
64.0,0.03128292039036751
72.0,0.028324758633971214
80.0,0.025705918669700623
88.0,0.0233110710978508
96.0,0.021635347977280617
104.0,0.020066311582922935
112.0,0.01898954063653946
120.0,0.018557250499725342
128.0,0.018008029088377953
144.0,0.017068391665816307
160.0,0.017899570986628532
176.0,0.01817900501191616
192.0,0.016949903219938278
208.0,0.015202376060187817
224.0,0.01387929730117321
240.0,0.013684959150850773
256.0,0.012749115005135536
288.0,0.010275943204760551
320.0,0.008031240664422512
352.0,0.005816057790070772
384.0,0.005689071025699377
416.0,0.005163109395653009
448.0,0.0034333416260778904
480.0,0.00123464351054281
512.0,0.0017811119323596358
576.0,0.002951665548607707
640.0,0.0044175065122544765
704.0,0.004228107165545225
768.0,0.0052399965934455395
832.0,0.00854601338505745
896.0,0.003417415777221322
960.0,0.0003197025216650218
1024.0,0.002921312814578414
1152.0,0.006604731548577547
1280.0,0.009823647327721119
1408.0,0.004236714448779821
1536.0,0.00112723873462528
1664.0,-0.0031699901446700096
1792.0,-0.004571085795760155
1920.0,-0.0022711711935698986
2048.0,0.0017241418827325106
2304.0,0.0007312550442293286
2560.0,-0.010891645215451717
2816.0,-0.0096963569521904
3072.0,-0.0055749500170350075
3328.0,-0.005111257545650005
3584.0,0.00095143768703565
3840.0,-0.00619580689817667
4096.0,-0.0026764292269945145
4608.0,-0.002600857289507985
5120.0,-0.006141200661659241
5632.0,-9.816527017392218e-05
6144.0,-0.004920466803014278
6656.0,-0.009930610656738281
7168.0,7.904318044893444e-05
7680.0,0.003870939137414098
8192.0,0.002082841470837593
9216.0,0.007522559724748135
10240.0,7.96610620454885e-05
11264.0,-0.0077209086157381535
12288.0,-0.005268613807857037
13312.0,0.0016755388351157308
14336.0,0.006201953627169132
end
