version,3.0
numOfCh,1
type,point
parent_name,2-cuts
ch_type,1_1
kcount,1
numberNandB,1
brightnessNandB,1
carpet pos,0
pc,0
Time (ms),CH1 Auto-Correlation
1.0,0.02722765877842903
2.0,0.026658261194825172
3.0,0.026100609451532364
4.0,0.025551941245794296
5.0,0.025018513202667236
6.0,0.024507245048880577
7.0,0.02403992787003517
8.0,0.0235894788056612
9.0,0.023157203570008278
10.0,0.02272702567279339
11.0,0.02231847681105137
12.0,0.021915389224886894
13.0,0.021527009084820747
14.0,0.02114568091928959
15.0,0.020762192085385323
16.0,0.020381897687911987
18.0,0.019673753529787064
20.0,0.019003205001354218
22.0,0.018358401954174042
24.0,0.017735853791236877
26.0,0.01714480109512806
28.0,0.01659306511282921
30.0,0.01606583222746849
32.0,0.015559470281004906
36.0,0.014608127996325493
40.0,0.013689043931663036
44.0,0.012874734587967396
48.0,0.012125012464821339
52.0,0.011442100629210472
56.0,0.010791352018713951
60.0,0.010137366130948067
64.0,0.009474416263401508
72.0,0.008215101435780525
80.0,0.007095459382981062
88.0,0.006196069065481424
96.0,0.005563476122915745
104.0,0.005072932690382004
112.0,0.004535505082458258
120.0,0.004113290924578905
128.0,0.0038504961412400007
144.0,0.003428249154239893
160.0,0.003174558049067855
176.0,0.0029843999072909355
192.0,0.0027722776867449284
208.0,0.0027063151355832815
224.0,0.0025860294699668884
240.0,0.00263293762691319
256.0,0.002911872463300824
288.0,0.003139910753816366
320.0,0.0025699373800307512
352.0,0.0022567270789295435
384.0,0.0016890306724235415
416.0,0.0009168868418782949
448.0,0.001111151883378625
480.0,0.0013523309025913477
512.0,0.0017961276462301612
576.0,0.003400412853807211
640.0,0.0028927940875291824
704.0,0.0017447529826313257
768.0,0.0013753481907770038
832.0,0.0012750752503052354
896.0,0.0010678117396309972
960.0,9.328476153314114e-05
1024.0,0.0008917677914723754
1152.0,0.0018746978603303432
1280.0,0.0014197143027558923
1408.0,0.0013216454535722733
1536.0,0.0009836985263973475
1664.0,0.0014939792454242706
1792.0,0.00036068979534320533
1920.0,-0.0015146106015890837
2048.0,-0.0010829652892425656
2304.0,-0.0009287261054851115
2560.0,-5.3021180065115914e-05
2816.0,0.0010826850775629282
3072.0,0.0008413802133873105
3328.0,-0.00029894046019762754
3584.0,0.0002461827825754881
3840.0,-0.0028128288686275482
4096.0,0.0015289928996935487
4608.0,-0.0017551906639710069
5120.0,-0.002637638011947274
5632.0,-0.0036525139585137367
6144.0,-0.002606260357424617
6656.0,-0.00264521362259984
7168.0,-0.0017330911941826344
7680.0,-0.0003977606538683176
8192.0,-0.000450608495157212
9216.0,0.0020914801862090826
10240.0,0.0020741387270390987
11264.0,0.0005834575858898461
12288.0,0.00036053668009117246
13312.0,0.0016113959718495607
14336.0,0.0003109202953055501
end
