version,3.0
numOfCh,1
type,point
parent_name,2-cuts
ch_type,1_1
kcount,1
numberNandB,1
brightnessNandB,1
carpet pos,0
pc,0
Time (ms),CH1 Auto-Correlation
1.0,0.02321353182196617
2.0,0.022832928225398064
3.0,0.022465351969003677
4.0,0.022105980664491653
5.0,0.02175326459109783
6.0,0.021405989304184914
7.0,0.021061180159449577
8.0,0.020725108683109283
9.0,0.020389214158058167
10.0,0.020074501633644104
11.0,0.01976826973259449
12.0,0.01946236379444599
13.0,0.019174424931406975
14.0,0.018884476274251938
15.0,0.0186124537140131
16.0,0.01835375465452671
18.0,0.01785707287490368
20.0,0.017364127561450005
22.0,0.016886908560991287
24.0,0.0164348017424345
26.0,0.016008218750357628
28.0,0.015615406446158886
30.0,0.015238581225275993
32.0,0.014873476698994637
36.0,0.014204801991581917
40.0,0.013620881363749504
44.0,0.013075528666377068
48.0,0.012549150735139847
52.0,0.012036420404911041
56.0,0.01155660580843687
60.0,0.01109800674021244
64.0,0.010630255565047264
72.0,0.009824308566749096
80.0,0.009059171192348003
88.0,0.008358582854270935
96.0,0.007693058345466852
104.0,0.007123437710106373
112.0,0.006705766543745995
120.0,0.006325236521661282
128.0,0.005991674959659576
144.0,0.00534764165058732
160.0,0.0043922411277890205
176.0,0.003331588814035058
192.0,0.002565413247793913
208.0,0.0018849227344617248
224.0,0.0014080606633797288
240.0,0.0011018331861123443
256.0,0.001020435243844986
288.0,0.0009950167732313275
320.0,0.0007582156104035676
352.0,-5.138987398822792e-05
384.0,-0.00046960642794147134
416.0,4.044756860821508e-05
448.0,0.0004299263237044215
480.0,0.0006430763751268387
512.0,0.0004425080551300198
576.0,0.0004329507937654853
640.0,-0.0002554829989094287
704.0,-0.00035937532084062696
768.0,-0.0003265507984906435
832.0,-0.00080464145867154
896.0,-0.001267694402486086
960.0,-0.0033333541359752417
1024.0,-0.0030711828731000423
1152.0,-0.0004770010709762573
1280.0,0.0009386870078742504
1408.0,-0.0001631742052268237
1536.0,8.298389730043709e-05
1664.0,0.0015947738429531455
1792.0,0.0010326888877898455
1920.0,0.0007614219794049859
2048.0,0.0002936628588940948
2304.0,-0.0016323145246133208
2560.0,-0.002368014305830002
2816.0,-0.0021341615356504917
3072.0,-0.00020934006897732615
3328.0,0.00018167881353292614
3584.0,0.0009926294442266226
3840.0,0.0014678573934361339
4096.0,0.0005679421010427177
4608.0,-0.0004478160699363798
5120.0,-0.00010934960300801322
5632.0,-0.0005378795322030783
6144.0,-0.0015799225075170398
6656.0,-0.0015148709062486887
7168.0,-0.0010444739600643516
7680.0,0.0007795665878802538
8192.0,0.002352680079638958
9216.0,0.0013885239604860544
10240.0,-0.0005871802568435669
11264.0,0.0004982422105967999
12288.0,0.0018924141768366098
13312.0,-0.0008257393492385745
14336.0,-0.005061485804617405
end
