version,3.0
numOfCh,1
type,point
parent_name,2-cuts
ch_type,1_1
kcount,1
numberNandB,1
brightnessNandB,1
carpet pos,0
pc,0
Time (ms),CH1 Auto-Correlation
1.0,0.0227619968354702
2.0,0.022370431572198868
3.0,0.021992826834321022
4.0,0.021627245470881462
5.0,0.021266994997859
6.0,0.02091388590633869
7.0,0.02057133987545967
8.0,0.020239699631929398
9.0,0.019924500957131386
10.0,0.01962197758257389
11.0,0.01932503841817379
12.0,0.019036835059523582
13.0,0.0187531728297472
14.0,0.018473705276846886
15.0,0.018198784440755844
16.0,0.017930177971720695
18.0,0.017434142529964447
20.0,0.016959384083747864
22.0,0.016527675092220306
24.0,0.016122780740261078
26.0,0.015738919377326965
28.0,0.015361766330897808
30.0,0.015003571286797523
32.0,0.014641585759818554
36.0,0.013909362256526947
40.0,0.013228734955191612
44.0,0.012599889189004898
48.0,0.012030567973852158
52.0,0.011479564942419529
56.0,0.010971729643642902
60.0,0.010527504608035088
64.0,0.010078446008265018
72.0,0.009132536128163338
80.0,0.008389406837522984
88.0,0.007848172448575497
96.0,0.007434498518705368
104.0,0.007063673809170723
112.0,0.006711974274367094
120.0,0.0064142257906496525
128.0,0.006207683123648167
144.0,0.006103205494582653
160.0,0.005873424466699362
176.0,0.005388994701206684
192.0,0.004789232276380062
208.0,0.004256128333508968
224.0,0.00400870107114315
240.0,0.0036124899052083492
256.0,0.0029753176495432854
288.0,0.0022359162103384733
320.0,0.0022517109755426645
352.0,0.0020741017069667578
384.0,0.002795776817947626
416.0,0.004016315098851919
448.0,0.0036187786608934402
480.0,0.0023093114141374826
512.0,0.0012238894123584032
576.0,0.0010680363047868013
640.0,0.0006938172737136483
704.0,0.0013158912770450115
768.0,0.0010572682367637753
832.0,0.0014361718203872442
896.0,0.0014594584936276078
960.0,0.0014586008619517088
1024.0,0.0010213786736130714
1152.0,0.0015335505595430732
1280.0,0.0011509396135807037
1408.0,0.00011516336962813511
1536.0,0.0002850372111424804
1664.0,0.0008530420600436628
1792.0,0.0005039556999690831
1920.0,0.001327050500549376
2048.0,0.001956715015694499
2304.0,0.00044281125883571804
2560.0,-0.0009109845268540084
2816.0,-0.0014057899825274944
3072.0,-0.0002850540622603148
3328.0,0.0013697883114218712
3584.0,0.0002725193335209042
3840.0,0.00031165414839051664
4096.0,-0.000313028518576175
4608.0,-0.001598060131072998
5120.0,-0.00103174545802176
5632.0,7.019803888397291e-05
6144.0,-0.001894813496619463
6656.0,-0.0016454887809231877
7168.0,-0.0009279322694055736
7680.0,-0.00077301129931584
8192.0,-0.0015316306380555034
9216.0,-0.0006562782800756395
10240.0,-0.002115607960149646
11264.0,-0.0035141375847160816
12288.0,-0.000878449936863035
13312.0,0.002866571769118309
14336.0,0.0009798164246603847
end
