version,3.0
numOfCh,1
type,point
parent_name,2-cuts
ch_type,1_1
kcount,1
numberNandB,1
brightnessNandB,1
carpet pos,0
pc,0
Time (ms),CH1 Auto-Correlation
1.0,0.05479390174150467
2.0,0.053643446415662766
3.0,0.05254035443067551
4.0,0.051466502249240875
5.0,0.05040784180164337
6.0,0.04938770458102226
7.0,0.048389632254838943
8.0,0.04743438959121704
9.0,0.04648461565375328
10.0,0.04555990919470787
11.0,0.04466274380683899
12.0,0.043798040598630905
13.0,0.04295697435736656
14.0,0.04215170070528984
15.0,0.041333794593811035
16.0,0.040530867874622345
18.0,0.03902618587017059
20.0,0.037563372403383255
22.0,0.036218393594026566
24.0,0.03495442122220993
26.0,0.03372162580490112
28.0,0.03255076706409454
30.0,0.03147032484412193
32.0,0.030463293194770813
36.0,0.028558094054460526
40.0,0.02676517702639103
44.0,0.025245126336812973
48.0,0.02385064586997032
52.0,0.022525697946548462
56.0,0.021317513659596443
60.0,0.020249485969543457
64.0,0.019216984510421753
72.0,0.017167016863822937
80.0,0.015620789490640163
88.0,0.014648906886577606
96.0,0.014047777280211449
104.0,0.013296248391270638
112.0,0.012315761297941208
120.0,0.011598598212003708
128.0,0.010715591721236706
144.0,0.00928670447319746
160.0,0.008615712635219097
176.0,0.007405510172247887
192.0,0.006133741699159145
208.0,0.004465769976377487
224.0,0.003699303837493062
240.0,0.0029748340602964163
256.0,0.0024989598896354437
288.0,0.004982165060937405
320.0,0.006474870722740889
352.0,0.007663290482014418
384.0,0.008332725614309311
416.0,0.006421603262424469
448.0,0.0037501638289541006
480.0,0.0011888601584360003
512.0,0.0007257247343659401
576.0,0.0007792561082169414
640.0,-0.001150266733020544
704.0,-0.0034519131295382977
768.0,-0.0024037326220422983
832.0,-0.0034507359378039837
896.0,-0.002480887807905674
960.0,-0.0016278962139040232
1024.0,-0.0030108646024018526
1152.0,-0.0027147000655531883
1280.0,-0.006039640866219997
1408.0,-0.005382474046200514
1536.0,0.0003553025599103421
1664.0,-0.004671201109886169
1792.0,-0.009846477769315243
1920.0,-0.004189189989119768
2048.0,-0.003099878551438451
2304.0,-0.003240235848352313
2560.0,-0.002678664866834879
2816.0,0.00011196941341040656
3072.0,0.004183235578238964
3328.0,0.004130079876631498
3584.0,0.0020980581175535917
3840.0,-0.0008902678382582963
4096.0,0.0035464423708617687
4608.0,0.0011399172944948077
5120.0,-0.005889991298317909
5632.0,-0.0008873739861883223
6144.0,0.002813464030623436
6656.0,0.00030919979326426983
7168.0,0.0023277513682842255
7680.0,0.0018698332132771611
8192.0,-0.0037743670400232077
9216.0,-0.0011362242512404919
10240.0,-0.00012712211173493415
11264.0,-9.580860933056101e-05
12288.0,-0.0002229562815045938
13312.0,0.0003878344432450831
14336.0,6.0531976487254724e-05
end
