version,3.0
numOfCh,1
type,point
parent_name,2-cuts
ch_type,1_1
kcount,1
numberNandB,1
brightnessNandB,1
carpet pos,0
pc,0
Time (ms),CH1 Auto-Correlation
1.0,0.03159753605723381
2.0,0.03104212135076523
3.0,0.030501941218972206
4.0,0.02996153198182583
5.0,0.029434630647301674
6.0,0.02893281914293766
7.0,0.02844392880797386
8.0,0.027977611869573593
9.0,0.027524683624505997
10.0,0.027087735012173653
11.0,0.026653550565242767
12.0,0.02622169628739357
13.0,0.02580970898270607
14.0,0.025416778400540352
15.0,0.025039689615368843
16.0,0.024678964167833328
18.0,0.02399437502026558
20.0,0.02334650419652462
22.0,0.02274460345506668
24.0,0.02212350256741047
26.0,0.02151419222354889
28.0,0.020933212712407112
30.0,0.020362308248877525
32.0,0.0198086965829134
36.0,0.018753500655293465
40.0,0.017729606479406357
44.0,0.01676923595368862
48.0,0.015875669196248055
52.0,0.015015817247331142
56.0,0.014231954701244831
60.0,0.013443772681057453
64.0,0.012686587870121002
72.0,0.011441655457019806
80.0,0.010427067056298256
88.0,0.009534782730042934
96.0,0.008715866133570671
104.0,0.007996772415935993
112.0,0.007388797588646412
120.0,0.006976129487156868
128.0,0.006611623335629702
144.0,0.006014386657625437
160.0,0.005504751577973366
176.0,0.004659472499042749
192.0,0.003741432446986437
208.0,0.0028553293086588383
224.0,0.001884744269773364
240.0,0.0011128847254440188
256.0,0.00033932572114281356
288.0,-0.0016601888928562403
320.0,-0.0022189333103597164
352.0,-0.0015116657596081495
384.0,-0.0007368222577497363
416.0,-0.00039674516301602125
448.0,-6.235594628378749e-05
480.0,0.0003703511320054531
512.0,0.0011262523476034403
576.0,0.002315404824912548
640.0,0.004486932419240475
704.0,0.005333337001502514
768.0,0.0038167706225067377
832.0,0.001788594643585384
896.0,0.0008809631108306348
960.0,-0.0008080515544861555
1024.0,-0.001610160805284977
1152.0,0.000979528296738863
1280.0,-0.0010181934339925647
1408.0,-0.0002543720183894038
1536.0,0.0012596780434250832
1664.0,0.00011647447536233813
1792.0,-0.002570860553532839
1920.0,-0.0028363598976284266
2048.0,-0.00105539511423558
2304.0,-0.0013566729612648487
2560.0,-0.0020137233659625053
2816.0,0.0003563453210517764
3072.0,-0.0001821080659283325
3328.0,5.419542139861733e-05
3584.0,0.002106211381033063
3840.0,-0.0010543758980929852
4096.0,-0.0010415645083412528
4608.0,-0.0008084754226729274
5120.0,0.00038274642429314554
5632.0,-0.0016133362660184503
6144.0,0.00021650519920513034
6656.0,-0.000997164985165
7168.0,3.387790457054507e-06
7680.0,-0.0011623302707448602
8192.0,-0.0020201641600579023
9216.0,-0.0017678713193163276
10240.0,0.0010361619060859084
11264.0,0.002552584744989872
12288.0,0.0012140899198129773
13312.0,-0.0024535192642360926
14336.0,-0.004469997249543667
end
