version,3.0
numOfCh,1
type,point
parent_name,2-cuts
ch_type,1_1
kcount,1
numberNandB,1
brightnessNandB,1
carpet pos,0
pc,0
Time (ms),CH1 Auto-Correlation
1.0,0.0294678695499897
2.0,0.02888713963329792
3.0,0.02832529880106449
4.0,0.027792159467935562
5.0,0.02726987935602665
6.0,0.026754088699817657
7.0,0.026246383786201477
8.0,0.025757670402526855
9.0,0.02530321478843689
10.0,0.02485983446240425
11.0,0.02442868985235691
12.0,0.024006454274058342
13.0,0.023590246215462685
14.0,0.023190120235085487
15.0,0.022799447178840637
16.0,0.022428734228014946
18.0,0.02169940434396267
20.0,0.021004999056458473
22.0,0.020345550030469894
24.0,0.019725976511836052
26.0,0.019148973748087883
28.0,0.018600210547447205
30.0,0.018033970147371292
32.0,0.017484605312347412
36.0,0.01643401011824608
40.0,0.015496584586799145
44.0,0.014576941728591919
48.0,0.013771230354905128
52.0,0.013036602176725864
56.0,0.012456131167709827
60.0,0.011946458369493484
64.0,0.011386808007955551
72.0,0.010325487703084946
80.0,0.009325474500656128
88.0,0.00833899900317192
96.0,0.007739085238426924
104.0,0.007253031712025404
112.0,0.006747731473296881
120.0,0.006525776349008083
128.0,0.006535275839269161
144.0,0.006955955643206835
160.0,0.006954874377697706
176.0,0.006817487068474293
192.0,0.006584174931049347
208.0,0.006536164321005344
224.0,0.006519132759422064
240.0,0.00646828580647707
256.0,0.006434945855289698
288.0,0.00640479102730751
320.0,0.00601272564381361
352.0,0.0055739847011864185
384.0,0.0050081517547369
416.0,0.0037929071113467216
448.0,0.0023033840116113424
480.0,0.0016409107483923435
512.0,0.002174524823203683
576.0,0.0024904494639486074
640.0,0.0013121134834364057
704.0,0.0010908324038609862
768.0,-0.00024586523068137467
832.0,0.0009576745214872062
896.0,0.0010028991382569075
960.0,-0.00107668642885983
1024.0,9.504336048848927e-05
1152.0,0.0009598797187209129
1280.0,0.0008938925457186997
1408.0,5.1496645028237253e-05
1536.0,-0.0023277115542441607
1664.0,-0.00202534650452435
1792.0,-0.0013068021507933736
1920.0,-0.00029832805739715695
2048.0,0.0006413136143237352
2304.0,0.0011335100280120969
2560.0,-0.0005002352991141379
2816.0,-0.0003880909935105592
3072.0,0.0008749408298172057
3328.0,0.003900127951055765
3584.0,0.003061014460399747
3840.0,0.0027526880148798227
4096.0,0.0020968641620129347
4608.0,-0.0008654794073663652
5120.0,-0.00394505774602294
5632.0,-0.004194254521280527
6144.0,-0.003293645102530718
6656.0,-0.0025165798142552376
7168.0,-0.0010096837067976594
7680.0,0.0005833371542394161
8192.0,-0.000713188317604363
9216.0,-0.005490424577146769
10240.0,0.0004852734855376184
11264.0,0.0005949472542852163
12288.0,0.0032009915448725224
13312.0,-0.0019469927065074444
14336.0,0.005296194460242987
end
