version,3.0
numOfCh,1
type,point
parent_name,2-cuts
ch_type,1_1
kcount,1
numberNandB,1
brightnessNandB,1
carpet pos,0
pc,0
Time (ms),CH1 Auto-Correlation
1.0,0.018616262823343277
2.0,0.01822981983423233
3.0,0.01784953474998474
4.0,0.017481425777077675
5.0,0.017130190506577492
6.0,0.01679006777703762
7.0,0.01645912602543831
8.0,0.016149427741765976
9.0,0.01584799960255623
10.0,0.015548499301075935
11.0,0.01525381114333868
12.0,0.014963296242058277
13.0,0.014685392379760742
14.0,0.014422144740819931
15.0,0.014163384214043617
16.0,0.013912182301282883
18.0,0.013436540961265564
20.0,0.01298311073333025
22.0,0.01254570484161377
24.0,0.01214156486093998
26.0,0.011764799244701862
28.0,0.011402541771531105
30.0,0.011049684137105942
32.0,0.01071340125054121
36.0,0.010097119957208633
40.0,0.009541929699480534
44.0,0.009037044830620289
48.0,0.008529436774551868
52.0,0.008023981936275959
56.0,0.007567693013697863
60.0,0.0071655320934951305
64.0,0.0067868344485759735
72.0,0.00595082389190793
80.0,0.005150194745510817
88.0,0.004464663099497557
96.0,0.003989014774560928
104.0,0.0037300267722457647
112.0,0.003479359205812216
120.0,0.003254036419093609
128.0,0.002970340894535184
144.0,0.002472612541168928
160.0,0.0022022759076207876
176.0,0.002166569232940674
192.0,0.0024129243101924658
208.0,0.0027843709103763103
224.0,0.0030548209324479103
240.0,0.0034045628271996975
256.0,0.0032790983095765114
288.0,0.003466867608949542
320.0,0.0033290341962128878
352.0,0.002992563880980015
384.0,0.0022314549423754215
416.0,0.002054197248071432
448.0,0.001949652680195868
480.0,0.001787023153156042
512.0,0.0018011322245001793
576.0,0.002761507174000144
640.0,0.003168397583067417
704.0,0.003133566817268729
768.0,0.0031007921788841486
832.0,0.0022083932999521494
896.0,0.0011288393288850784
960.0,0.0010188265005126595
1024.0,0.0017713055713102221
1152.0,0.0012484602630138397
1280.0,0.001443475834093988
1408.0,0.0015172670828178525
1536.0,0.0014883540570735931
1664.0,0.000791828497312963
1792.0,0.0008187784696929157
1920.0,0.000510551908519119
2048.0,0.00042090288479812443
2304.0,-0.00018390320474281907
2560.0,-8.224433986470103e-05
2816.0,-0.0004674414230976254
3072.0,-0.001333565334789455
3328.0,-0.0025439304299652576
3584.0,-0.0018509442452341318
3840.0,-0.001833682181313634
4096.0,-0.0019962957594543695
4608.0,-0.0011273499112576246
5120.0,-0.001438424806110561
5632.0,-0.0005040563992224634
6144.0,-0.0004085261025466025
6656.0,3.1696370569989085e-05
7168.0,0.0016842158511281013
7680.0,0.0019496356835588813
8192.0,0.0022098009940236807
9216.0,0.001549258828163147
10240.0,0.0006361951236613095
11264.0,-0.004400061909109354
12288.0,-0.004661467857658863
13312.0,-0.005295709706842899
14336.0,-0.001150971744209528
end
