version,3.0
numOfCh,1
type,point
parent_name,2-cuts
ch_type,1_1
kcount,1
numberNandB,1
brightnessNandB,1
carpet pos,0
pc,0
Time (ms),CH1 Auto-Correlation
1.0,0.06365343928337097
2.0,0.06249106302857399
3.0,0.06138100102543831
4.0,0.060282498598098755
5.0,0.059219539165496826
6.0,0.05817829445004463
7.0,0.05715807527303696
8.0,0.05609516426920891
9.0,0.05506978556513786
10.0,0.05406174436211586
11.0,0.05313583463430405
12.0,0.05222759768366814
13.0,0.05137846618890762
14.0,0.05059437081217766
15.0,0.049821581691503525
16.0,0.04907712712883949
18.0,0.04773547872900963
20.0,0.04645439609885216
22.0,0.04523330181837082
24.0,0.04404870420694351
26.0,0.04282388836145401
28.0,0.041649721562862396
30.0,0.04048311337828636
32.0,0.03935007378458977
36.0,0.03730415552854538
40.0,0.03559773787856102
44.0,0.034025147557258606
48.0,0.032540760934352875
52.0,0.031159961596131325
56.0,0.02983873337507248
60.0,0.028630750253796577
64.0,0.027636351063847542
72.0,0.025441080331802368
80.0,0.023513155058026314
88.0,0.02186019904911518
96.0,0.02059134468436241
104.0,0.019433166831731796
112.0,0.01835848204791546
120.0,0.017560092732310295
128.0,0.016836687922477722
144.0,0.014692275784909725
160.0,0.012735335156321526
176.0,0.010895435698330402
192.0,0.00946941040456295
208.0,0.008302896283566952
224.0,0.0069167823530733585
240.0,0.0060145314782857895
256.0,0.005330607295036316
288.0,0.0034908917732536793
320.0,0.0025206974241882563
352.0,0.004742898978292942
384.0,0.006766565144062042
416.0,0.007483859546482563
448.0,0.008910445496439934
480.0,0.009723694995045662
512.0,0.009100637398660183
576.0,0.007087721489369869
640.0,0.004509325604885817
704.0,0.005634039640426636
768.0,0.00627220468595624
832.0,0.006008728872984648
896.0,0.006077903788536787
960.0,0.007674088701605797
1024.0,0.011695164255797863
1152.0,0.007805966306477785
1280.0,0.004801919683814049
1408.0,0.0021830955520272255
1536.0,-0.001055767759680748
1664.0,-0.004349593538790941
1792.0,-0.0011849766597151756
1920.0,0.00214576069265604
2048.0,0.0011922018602490425
2304.0,0.0010177823714911938
2560.0,-0.002499920316040516
2816.0,-0.0037272614426910877
3072.0,-0.0018785089487209916
3328.0,-0.0054227872751653194
3584.0,-0.0038706681225448847
3840.0,-0.008089356124401093
4096.0,-0.006743361242115498
4608.0,-0.009368623606860638
5120.0,-0.010291611775755882
5632.0,-0.010167532600462437
6144.0,-0.0013578677317127585
6656.0,0.0017836070619523525
7168.0,0.0027480327989906073
7680.0,0.00258196284994483
8192.0,0.00591300381347537
9216.0,0.0071812584064900875
10240.0,0.0013726758770644665
11264.0,-0.0012296342756599188
12288.0,-0.000980217126198113
13312.0,-0.006838291417807341
14336.0,-0.009698274545371532
end
