version,3.0
numOfCh,1
type,point
parent_name,2-cuts
ch_type,1_1
kcount,1
numberNandB,1
brightnessNandB,1
carpet pos,0
pc,0
Time (ms),CH1 Auto-Correlation
1.0,0.03755175322294235
2.0,0.036972228437662125
3.0,0.03641751781105995
4.0,0.03587416559457779
5.0,0.03535059466958046
6.0,0.03482946753501892
7.0,0.034316811710596085
8.0,0.03379548341035843
9.0,0.033288538455963135
10.0,0.0327988862991333
11.0,0.03233962133526802
12.0,0.03189953789114952
13.0,0.03147393465042114
14.0,0.03103921376168728
15.0,0.030613204464316368
16.0,0.030193699523806572
18.0,0.029398396611213684
20.0,0.02864985167980194
22.0,0.027947140857577324
24.0,0.0272934902459383
26.0,0.026667805388569832
28.0,0.02608015015721321
30.0,0.025517234578728676
32.0,0.024972785264253616
36.0,0.02398587390780449
40.0,0.023142334073781967
44.0,0.022400131449103355
48.0,0.02175970934331417
52.0,0.021161112934350967
56.0,0.020610148087143898
60.0,0.020116809755563736
64.0,0.019633499905467033
72.0,0.01869037374854088
80.0,0.017867589369416237
88.0,0.017240023240447044
96.0,0.016794178634881973
104.0,0.016336588189005852
112.0,0.01581491529941559
120.0,0.01518490444868803
128.0,0.014512650668621063
144.0,0.013356099836528301
160.0,0.012716962024569511
176.0,0.011888721957802773
192.0,0.01053715031594038
208.0,0.00954650528728962
224.0,0.009239455685019493
240.0,0.008963539265096188
256.0,0.008664731867611408
288.0,0.008262920193374157
320.0,0.007461512926965952
352.0,0.0074310447089374065
384.0,0.006448766682296991
416.0,0.006186154205352068
448.0,0.005608598235994577
480.0,0.004783890675753355
512.0,0.005222400184720755
576.0,0.004298501648008823
640.0,0.002393935341387987
704.0,0.000500865513458848
768.0,-0.0006659426144324243
832.0,-0.0009120912873186171
896.0,0.000481101538753137
960.0,0.0018403434660285711
1024.0,0.0016245715087279677
1152.0,-0.0012436395045369864
1280.0,-0.003734263824298978
1408.0,-0.0039830016903579235
1536.0,-0.0023259809240698814
1664.0,-0.0034151349682360888
1792.0,-0.0039010567124933004
1920.0,-0.0008094901568256319
2048.0,0.0002551586367189884
2304.0,-0.000568003801163286
2560.0,0.000789414974860847
2816.0,-0.0006967575754970312
3072.0,0.001058426802046597
3328.0,0.0008748384425416589
3584.0,-0.002544200047850609
3840.0,-0.006790627259761095
4096.0,-0.00709550641477108
4608.0,-0.006224985234439373
5120.0,-0.0015144998906180263
5632.0,-0.00012670346768572927
6144.0,0.0038945693522691727
6656.0,0.004070001188665628
7168.0,0.0007838243618607521
7680.0,-0.0004235154192429036
8192.0,0.0010647386079654098
9216.0,0.004691506735980511
10240.0,-0.005770701915025711
11264.0,-0.007667636498808861
12288.0,-0.003206608584150672
13312.0,-0.0010083469096571207
14336.0,0.00678669149056077
end
