version,3.0
numOfCh,1
type,point
parent_name,2-cuts
ch_type,1_1
kcount,1
numberNandB,1
brightnessNandB,1
carpet pos,0
pc,0
Time (ms),CH1 Auto-Correlation
1.0,0.02881491370499134
2.0,0.028248799964785576
3.0,0.02770424634218216
4.0,0.027186505496501923
5.0,0.026679368689656258
6.0,0.026197316125035286
7.0,0.025739720091223717
8.0,0.02529839612543583
9.0,0.024857735261321068
10.0,0.02443862147629261
11.0,0.02404818870127201
12.0,0.023658111691474915
13.0,0.023283982649445534
14.0,0.022917861118912697
15.0,0.022562285885214806
16.0,0.022214870899915695
18.0,0.021538373082876205
20.0,0.020902182906866074
22.0,0.02027082070708275
24.0,0.019677026197314262
26.0,0.01910760998725891
28.0,0.018575699999928474
30.0,0.01809416525065899
32.0,0.017643781378865242
36.0,0.01690913550555706
40.0,0.01628692075610161
44.0,0.01568898744881153
48.0,0.015053016133606434
52.0,0.014392581768333912
56.0,0.01376202143728733
60.0,0.013148581609129906
64.0,0.012562301941215992
72.0,0.011381075717508793
80.0,0.010444756597280502
88.0,0.009666058234870434
96.0,0.008866434916853905
104.0,0.008047509007155895
112.0,0.007309668697416782
120.0,0.006517508998513222
128.0,0.005818481557071209
144.0,0.004902147687971592
160.0,0.004107741639018059
176.0,0.0034652601461857557
192.0,0.0030442446004599333
208.0,0.0023751023691147566
224.0,0.0016097029438242316
240.0,0.0006582040223293006
256.0,-6.435305112972856e-05
288.0,-0.0005011930479668081
320.0,-0.0011657002614811063
352.0,-0.001645078998990357
384.0,-0.0024522023741155863
416.0,-0.002948185196146369
448.0,-0.0028065615333616734
480.0,-0.0017594514647498727
512.0,-0.0003924041520804167
576.0,0.0003602825745474547
640.0,0.0013411885593086481
704.0,0.0010670453775674105
768.0,-0.000711325032170862
832.0,-0.0014562964206561446
896.0,-0.0016660353867337108
960.0,-0.0013716439716517925
1024.0,-0.0018799785757437348
1152.0,-0.0008489505853503942
1280.0,-0.002201702678576112
1408.0,-0.0027282119262963533
1536.0,-0.002522067166864872
1664.0,-0.0004170248284935951
1792.0,0.0007282078149728477
1920.0,0.0003945185453630984
2048.0,-0.0006334586651064456
2304.0,-8.159304343280382e-06
2560.0,0.0008717458695173264
2816.0,0.0019198944792151451
3072.0,-0.0006965348147787154
3328.0,-0.0008019668166525662
3584.0,-0.0007471875287592411
3840.0,-7.232282223412767e-05
4096.0,-0.002488178201019764
4608.0,3.384597584954463e-05
5120.0,0.002935250988230109
5632.0,-0.0006854598759673536
6144.0,-0.0009385134908370674
6656.0,-0.0004943097592331469
7168.0,-0.0013409833190962672
7680.0,-0.0012509515509009361
8192.0,0.002180347451940179
9216.0,0.0003660215006675571
10240.0,-0.0010075129102915525
11264.0,0.001010095002129674
12288.0,-0.0014286990044638515
13312.0,0.0004004743823315948
14336.0,0.0018597309244796634
end
