version,3.0
numOfCh,1
type,point
parent_name,2-cuts
ch_type,1_1
kcount,1
numberNandB,1
brightnessNandB,1
carpet pos,0
pc,0
Time (ms),CH1 Auto-Correlation
1.0,0.018424928188323975
2.0,0.01802739128470421
3.0,0.017639609053730965
4.0,0.017271243035793304
5.0,0.016909554600715637
6.0,0.016563350334763527
7.0,0.016229981556534767
8.0,0.015912367030978203
9.0,0.015602911822497845
10.0,0.015318521298468113
11.0,0.015028140507638454
12.0,0.014740793034434319
13.0,0.01446189358830452
14.0,0.014195602387189865
15.0,0.013930235989391804
16.0,0.013675477355718613
18.0,0.013210215605795383
20.0,0.012770007364451885
22.0,0.0123595604673028
24.0,0.011977428570389748
26.0,0.011607624590396881
28.0,0.011269797571003437
30.0,0.010951005853712559
32.0,0.010626665316522121
36.0,0.00999724306166172
40.0,0.009397147223353386
44.0,0.008871892467141151
48.0,0.00841415487229824
52.0,0.007998809218406677
56.0,0.007627709768712521
60.0,0.00726468488574028
64.0,0.006951001472771168
72.0,0.0064270575530827045
80.0,0.0059160529635846615
88.0,0.0054465653374791145
96.0,0.004985176492482424
104.0,0.004410671070218086
112.0,0.0037609548307955265
120.0,0.003279757685959339
128.0,0.0028746630996465683
144.0,0.0024594643618911505
160.0,0.002114436589181423
176.0,0.0018957224674522877
192.0,0.0014416053891181946
208.0,0.0012185993837192655
224.0,0.0007267141481861472
240.0,0.00017792594735510647
256.0,-0.0004714684037026018
288.0,-0.0010452450951561332
320.0,-0.0009232008014805615
352.0,-0.0009307019063271582
384.0,-0.0005795350298285484
416.0,-0.0005078689428046346
448.0,-0.00042670531547628343
480.0,-3.8870593925821595e-06
512.0,-8.454624912701547e-05
576.0,-0.0010056757600978017
640.0,-0.0016414276324212551
704.0,-0.0010468035470694304
768.0,-0.0004785205819644034
832.0,0.0001628261961741373
896.0,0.0015039643039926887
960.0,0.0012659283820539713
1024.0,0.00038861093344166875
1152.0,-0.00034998523187823594
1280.0,0.0013291124487295747
1408.0,0.0014646047493442893
1536.0,-0.0003727058065123856
1664.0,-0.0006319925305433571
1792.0,-0.0009214819292537868
1920.0,-0.000620864040683955
2048.0,0.0003662659437395632
2304.0,0.0004838053719140589
2560.0,-2.3377739125862718e-05
2816.0,0.00036292982986196876
3072.0,0.0018764579435810447
3328.0,-0.0012429351918399334
3584.0,-0.0012754133203998208
3840.0,-0.001290051033720374
4096.0,-0.0002539855777285993
4608.0,-0.0002773816813714802
5120.0,-0.000964789476711303
5632.0,-0.00019651454931590706
6144.0,-0.0017455383203923702
6656.0,-0.0003282884426880628
7168.0,0.0009808545000851154
7680.0,-0.0003227599081583321
8192.0,-0.0009920006850734353
9216.0,-6.703555845888332e-05
10240.0,0.0009632671717554331
11264.0,-0.0004913353477604687
12288.0,0.00022478619939647615
13312.0,0.0005493582575581968
14336.0,-0.0008439536322839558
end
