version,3.0
numOfCh,1
type,point
parent_name,2-cuts
ch_type,1_1
kcount,1
numberNandB,1
brightnessNandB,1
carpet pos,0
pc,0
Time (ms),CH1 Auto-Correlation
1.0,0.0667290911078453
2.0,0.06561458855867386
3.0,0.06456805020570755
4.0,0.06354673206806183
5.0,0.06253935396671295
6.0,0.06156458705663681
7.0,0.06059115007519722
8.0,0.05965348705649376
9.0,0.058777131140232086
10.0,0.05790318176150322
11.0,0.057086408138275146
12.0,0.056297846138477325
13.0,0.055561553686857224
14.0,0.05479811131954193
15.0,0.054013147950172424
16.0,0.05325530469417572
18.0,0.05189233645796776
20.0,0.050615593791007996
22.0,0.04937675595283508
24.0,0.048173654824495316
26.0,0.04703875258564949
28.0,0.04592933878302574
30.0,0.04493076354265213
32.0,0.04401066526770592
36.0,0.04224466159939766
40.0,0.04060623422265053
44.0,0.03914182260632515
48.0,0.0378369577229023
52.0,0.03668389469385147
56.0,0.03554177284240723
60.0,0.034451182931661606
64.0,0.03362277150154114
72.0,0.03256619721651077
80.0,0.0313093438744545
88.0,0.029703138396143913
96.0,0.028035903349518776
104.0,0.026418257504701614
112.0,0.024500012397766113
120.0,0.02246483974158764
128.0,0.020260153338313103
144.0,0.016964104026556015
160.0,0.01421069260686636
176.0,0.011644288897514343
192.0,0.0099946279078722
208.0,0.009139846079051495
224.0,0.008394768461585045
240.0,0.006885543465614319
256.0,0.0058393883518874645
288.0,0.0056702555157244205
320.0,0.0057869902811944485
352.0,0.005106670316308737
384.0,0.0061340900138020515
416.0,0.009222157299518585
448.0,0.012612825259566307
480.0,0.0136029701679945
512.0,0.014586057513952255
576.0,0.008495721034705639
640.0,0.0032800149638205767
704.0,0.0020256624557077885
768.0,4.315443220548332e-05
832.0,-0.00033022245042957366
896.0,0.0011614271206781268
960.0,0.003336317604407668
1024.0,0.004039999097585678
1152.0,-0.0022008491214364767
1280.0,-0.0014635338447988033
1408.0,-0.0018183436477556825
1536.0,-0.002498460467904806
1664.0,0.0013723877491429448
1792.0,0.004328460898250341
1920.0,-0.0046788956969976425
2048.0,-0.008109680376946926
2304.0,-0.00819902028888464
2560.0,-0.005352365784347057
2816.0,-0.00278812856413424
3072.0,0.0007575386553071439
3328.0,-0.005359936505556107
3584.0,-0.0015214838786050677
3840.0,-0.004579485394060612
4096.0,-0.006354241166263819
4608.0,0.00014601707516703755
5120.0,0.006297705229371786
5632.0,0.007858943194150925
6144.0,-0.0033625054638832808
6656.0,-0.004610892850905657
7168.0,-0.009151156060397625
7680.0,-0.012037754990160465
8192.0,-0.004063200205564499
9216.0,0.0009284013649448752
10240.0,0.00666689733043313
11264.0,-0.0011870304588228464
12288.0,0.0022650950122624636
13312.0,-0.006457875017076731
14336.0,0.004189587663859129
end
