version,3.0
numOfCh,1
type,point
parent_name,2-cuts
ch_type,1_1
kcount,1
numberNandB,1
brightnessNandB,1
carpet pos,0
pc,0
Time (ms),CH1 Auto-Correlation
1.0,0.07270228117704391
2.0,0.07147106528282166
3.0,0.07025624811649323
4.0,0.069112129509449
5.0,0.06801070272922516
6.0,0.06693947315216064
7.0,0.06587783992290497
8.0,0.06483344733715057
9.0,0.06383468210697174
10.0,0.0628867819905281
11.0,0.06200117617845535
12.0,0.06115587800741196
13.0,0.060306478291749954
14.0,0.05948696285486221
15.0,0.058661963790655136
16.0,0.05784939229488373
18.0,0.056287117302417755
20.0,0.05475679785013199
22.0,0.05331520736217499
24.0,0.05193573236465454
26.0,0.05059588700532913
28.0,0.04939379170536995
30.0,0.048305660486221313
32.0,0.047204695641994476
36.0,0.045046012848615646
40.0,0.04313977062702179
44.0,0.04139905050396919
48.0,0.03966907784342766
52.0,0.03794677555561066
56.0,0.03656352311372757
60.0,0.03560139983892441
64.0,0.03473285585641861
72.0,0.03326800838112831
80.0,0.031871065497398376
88.0,0.030152086168527603
96.0,0.028937935829162598
104.0,0.02809528447687626
112.0,0.026883509010076523
120.0,0.02554013580083847
128.0,0.024421578273177147
144.0,0.02397012896835804
160.0,0.02394152618944645
176.0,0.02303231693804264
192.0,0.021338503807783127
208.0,0.019156688824295998
224.0,0.016786864027380943
240.0,0.014834520407021046
256.0,0.013170291669666767
288.0,0.010732987895607948
320.0,0.0085856718942523
352.0,0.005996178835630417
384.0,0.0038895122706890106
416.0,0.001751042902469635
448.0,0.0005832364549860358
480.0,0.00041828519897535443
512.0,-0.00022967776749283075
576.0,-0.004577229265123606
640.0,-0.005956519860774279
704.0,-0.006157291121780872
768.0,-0.007176602724939585
832.0,-0.0050298008136451244
896.0,-0.004395917057991028
960.0,-0.006408918648958206
1024.0,-0.0032711944077163935
1152.0,0.0009512364049442112
1280.0,0.00012106544454582036
1408.0,-0.0005197880091145635
1536.0,-0.0006312882760539651
1664.0,-0.001334337517619133
1792.0,-0.0009946080390363932
1920.0,-0.0028877214062958956
2048.0,-0.00442397128790617
2304.0,-0.009883511811494827
2560.0,-0.005452598910778761
2816.0,0.00462348572909832
3072.0,0.004477586597204208
3328.0,-0.0034652170725166798
3584.0,-0.004180436488240957
3840.0,-2.537084583309479e-05
4096.0,0.0007227928726933897
4608.0,-0.0029812054708600044
5120.0,-0.00035689238575287163
5632.0,0.0020468614529818296
6144.0,-0.0019295241218060255
6656.0,-0.0037288896273821592
7168.0,0.005296558607369661
7680.0,0.008932075463235378
8192.0,0.004234243184328079
9216.0,-0.011181480251252651
10240.0,0.0006528889061883092
11264.0,0.004149742424488068
12288.0,-0.011988825164735317
13312.0,0.006422699429094791
14336.0,0.0077524082735180855
end
