version,3.0
numOfCh,1
type,point
parent_name,2-cuts
ch_type,1_1
kcount,1
numberNandB,1
brightnessNandB,1
carpet pos,0
pc,0
Time (ms),CH1 Auto-Correlation
1.0,0.02310662902891636
2.0,0.02270997315645218
3.0,0.022321967408061028
4.0,0.02194654569029808
5.0,0.021588847041130066
6.0,0.02123665250837803
7.0,0.020892983302474022
8.0,0.020562034100294113
9.0,0.020243924111127853
10.0,0.019927192479372025
11.0,0.019615190103650093
12.0,0.019315648823976517
13.0,0.01901480369269848
14.0,0.018723199144005775
15.0,0.018426327034831047
16.0,0.018140412867069244
18.0,0.017613720148801804
20.0,0.017109187319874763
22.0,0.01661691442131996
24.0,0.01614132896065712
26.0,0.01569918543100357
28.0,0.015261858701705933
30.0,0.014845109544694424
32.0,0.014429537579417229
36.0,0.013635153882205486
40.0,0.012896311469376087
44.0,0.01222290564328432
48.0,0.011571039445698261
52.0,0.010934816673398018
56.0,0.010291959159076214
60.0,0.009705410338938236
64.0,0.009242957457900047
72.0,0.0084499791264534
80.0,0.007670052349567413
88.0,0.007076882291585207
96.0,0.006637990940362215
104.0,0.006515830755233765
112.0,0.006421186961233616
120.0,0.006201273296028376
128.0,0.005814210511744022
144.0,0.005091913975775242
160.0,0.004481576848775148
176.0,0.004062799271196127
192.0,0.0034471747931092978
208.0,0.00281170173548162
224.0,0.0024766610004007816
240.0,0.0024485643953084946
256.0,0.002326623536646366
288.0,0.001623334945179522
320.0,0.0010826797224581242
352.0,0.0007473329897038639
384.0,0.000639463949482888
416.0,0.0007560699013993144
448.0,0.001602879841811955
480.0,0.0019430380780249834
512.0,0.001449630013667047
576.0,0.0008244549972005188
640.0,0.0009353324421681464
704.0,0.0012153862044215202
768.0,0.000274318183073774
832.0,0.0001664559094933793
896.0,-0.0002683941856957972
960.0,-0.001278707874007523
1024.0,-0.0016527697443962097
1152.0,-0.0007002660422585905
1280.0,-0.00045340711949393153
1408.0,-0.0023937090300023556
1536.0,-0.0010254962835460901
1664.0,-0.0011175211984664202
1792.0,-0.0016819777665659785
1920.0,-0.0011709954123944044
2048.0,-0.001700862660072744
2304.0,-0.0020989838521927595
2560.0,-0.000884286011569202
2816.0,-0.0010194892529398203
3072.0,0.0014196042902767658
3328.0,0.002236707601696253
3584.0,0.0012162663042545319
3840.0,0.0027686343528330326
4096.0,0.0009733616607263684
4608.0,4.01264478568919e-05
5120.0,-0.0019412540132179856
5632.0,-0.002854070859029889
6144.0,-0.0020222484599798918
6656.0,0.0008172122179530561
7168.0,0.0028918690513819456
7680.0,0.002760909032076597
8192.0,-0.0015212548896670341
9216.0,-0.001119547407142818
10240.0,-0.0008448996231891215
11264.0,0.0005904430290684104
12288.0,0.00019058118050452322
13312.0,-0.0017595728859305382
14336.0,0.0014987208414822817
end
