version,3.0
numOfCh,1
type,point
parent_name,2-cuts
ch_type,1_1
kcount,1
numberNandB,1
brightnessNandB,1
carpet pos,0
pc,0
Time (ms),CH1 Auto-Correlation
1.0,0.07293408364057541
2.0,0.07181712985038757
3.0,0.07071562111377716
4.0,0.06961255520582199
5.0,0.0685449168086052
6.0,0.06758546084165573
7.0,0.06666664779186249
8.0,0.06580710411071777
9.0,0.06497174501419067
10.0,0.06411738693714142
11.0,0.06331504136323929
12.0,0.06253909319639206
13.0,0.061780888587236404
14.0,0.061012934893369675
15.0,0.0602567084133625
16.0,0.059528812766075134
18.0,0.05819609388709068
20.0,0.05689330771565437
22.0,0.055613160133361816
24.0,0.0544072762131691
26.0,0.05324815586209297
28.0,0.052125412970781326
30.0,0.05108628049492836
32.0,0.05015040934085846
36.0,0.04838738963007927
40.0,0.04662187024950981
44.0,0.04500920698046684
48.0,0.043737150728702545
52.0,0.04258565232157707
56.0,0.04139462858438492
60.0,0.040238846093416214
64.0,0.03892293944954872
72.0,0.03637438639998436
80.0,0.03438825160264969
88.0,0.03256211802363396
96.0,0.030523229390382767
104.0,0.02873741090297699
112.0,0.027257706969976425
120.0,0.02597491443157196
128.0,0.025349335744976997
144.0,0.02442549727857113
160.0,0.023867612704634666
176.0,0.023075252771377563
192.0,0.021765515208244324
208.0,0.019896086305379868
224.0,0.01793762482702732
240.0,0.016206273809075356
256.0,0.015125435777008533
288.0,0.012060511857271194
320.0,0.010584337636828423
352.0,0.008592058904469013
384.0,0.005349502433091402
416.0,0.003985768649727106
448.0,0.0031761403661221266
480.0,0.002821090631186962
512.0,0.00440904451534152
576.0,0.006579411216080189
640.0,0.008377003483474255
704.0,0.004858185537159443
768.0,0.002137579722329974
832.0,0.0025979008059948683
896.0,0.0031428562942892313
960.0,0.0023775326553732157
1024.0,0.0022243664134293795
1152.0,0.003730089869350195
1280.0,0.005281073972582817
1408.0,0.0019789955113083124
1536.0,-0.0031073945574462414
1664.0,-0.009026913903653622
1792.0,-0.007026598788797855
1920.0,-0.0004915593890473247
2048.0,-0.002005690708756447
2304.0,-0.006832522340118885
2560.0,-0.008249850012362003
2816.0,-0.006848060060292482
3072.0,0.0023769792169332504
3328.0,0.0038250568322837353
3584.0,0.0014992685755714774
3840.0,-0.0038346382789313793
4096.0,-0.007563182618469
4608.0,-0.0031552158761769533
5120.0,-0.0025517866015434265
5632.0,-0.003529176115989685
6144.0,0.0019628575537353754
6656.0,0.006151227746158838
7168.0,0.0010264139855280519
7680.0,0.0035672509111464024
8192.0,-0.00021872179058846086
9216.0,0.001710852375254035
10240.0,-0.013294062577188015
11264.0,-0.013143378309905529
12288.0,0.0006981903570704162
13312.0,0.016196174547076225
14336.0,0.0066194189712405205
end
