version,3.0
numOfCh,1
type,point
parent_name,2-cuts
ch_type,1_1
kcount,1
numberNandB,1
brightnessNandB,1
carpet pos,0
pc,0
Time (ms),CH1 Auto-Correlation
1.0,0.06863874942064285
2.0,0.06745043396949768
3.0,0.06631176918745041
4.0,0.06520889699459076
5.0,0.06413670629262924
6.0,0.0630926564335823
7.0,0.06204701215028763
8.0,0.06105072423815727
9.0,0.06006776541471481
10.0,0.05912140756845474
11.0,0.05816259980201721
12.0,0.0572531558573246
13.0,0.05635195970535278
14.0,0.05546693503856659
15.0,0.05462127923965454
16.0,0.05382575839757919
18.0,0.05229194834828377
20.0,0.0508480928838253
22.0,0.049502018839120865
24.0,0.04823722317814827
26.0,0.046990107744932175
28.0,0.04581309109926224
30.0,0.04466406628489494
32.0,0.04353919252753258
36.0,0.041288286447525024
40.0,0.039216652512550354
44.0,0.03738328441977501
48.0,0.035590384155511856
52.0,0.034016840159893036
56.0,0.0327766016125679
60.0,0.03175436332821846
64.0,0.030795933678746223
72.0,0.029159747064113617
80.0,0.027890320867300034
88.0,0.026818599551916122
96.0,0.025568604469299316
104.0,0.024327779188752174
112.0,0.02294103428721428
120.0,0.021802088245749474
128.0,0.020780697464942932
144.0,0.01922190561890602
160.0,0.017934197559952736
176.0,0.017511308193206787
192.0,0.01677393727004528
208.0,0.016451945528388023
224.0,0.016219811514019966
240.0,0.015897421166300774
256.0,0.014811322093009949
288.0,0.011088295839726925
320.0,0.00809144414961338
352.0,0.0077883582562208176
384.0,0.0062939804047346115
416.0,0.0043098474852740765
448.0,0.0037088117096573114
480.0,0.003973925486207008
512.0,0.0021018863189965487
576.0,-0.000836245424579829
640.0,4.916597390547395e-05
704.0,0.0009631435968913138
768.0,-0.0005374152096919715
832.0,-0.001657167449593544
896.0,-0.0006988709210418165
960.0,0.00013561395462602377
1024.0,-0.0034612780436873436
1152.0,-0.007122390437871218
1280.0,-0.011396992020308971
1408.0,-0.011417391709983349
1536.0,-0.008053241297602654
1664.0,-0.004984247498214245
1792.0,-0.003946512937545776
1920.0,-0.005600776989012957
2048.0,-0.007678438443690538
2304.0,-0.0034528321120887995
2560.0,0.0031479098834097385
2816.0,0.0015429354971274734
3072.0,0.00033637828892096877
3328.0,0.004961566999554634
3584.0,0.0025899396277964115
3840.0,-0.0018317560898140073
4096.0,0.003674032399430871
4608.0,-0.00116554438136518
5120.0,-0.0041376762092113495
5632.0,-0.00407019816339016
6144.0,-0.002490447135642171
6656.0,0.0034941222984343767
7168.0,0.001935692853294313
7680.0,-0.002535086590796709
8192.0,-0.004659709054976702
9216.0,0.0030939423013478518
10240.0,0.0027336017228662968
11264.0,0.004762464668601751
12288.0,-0.012706783600151539
13312.0,0.005568289663642645
14336.0,0.000830002361908555
end
