version,3.0
numOfCh,1
type,point
parent_name,2-cuts
ch_type,1_1
kcount,1
numberNandB,1
brightnessNandB,1
carpet pos,0
pc,0
Time (ms),CH1 Auto-Correlation
1.0,0.031108137220144272
2.0,0.030526624992489815
3.0,0.029963994398713112
4.0,0.02941029518842697
5.0,0.028876150026917458
6.0,0.028346579521894455
7.0,0.027838055044412613
8.0,0.027335602790117264
9.0,0.02684507891535759
10.0,0.026373393833637238
11.0,0.025929689407348633
12.0,0.025506604462862015
13.0,0.02511964738368988
14.0,0.024757515639066696
15.0,0.02439299039542675
16.0,0.0240476094186306
18.0,0.023401625454425812
20.0,0.022772807627916336
22.0,0.02215554378926754
24.0,0.02157744951546192
26.0,0.021032560616731644
28.0,0.020512251183390617
30.0,0.020027153193950653
32.0,0.019549177959561348
36.0,0.018618088215589523
40.0,0.0177388247102499
44.0,0.016881931573152542
48.0,0.016148889437317848
52.0,0.015470118261873722
56.0,0.014796426519751549
60.0,0.0140555240213871
64.0,0.013301107101142406
72.0,0.012367463670670986
80.0,0.011755579151213169
88.0,0.011306952685117722
96.0,0.010852647013962269
104.0,0.010325350798666477
112.0,0.009957213886082172
120.0,0.009766749106347561
128.0,0.009548485279083252
144.0,0.008838470093905926
160.0,0.008120786398649216
176.0,0.007293618284165859
192.0,0.006387371104210615
208.0,0.005741781089454889
224.0,0.005220418330281973
240.0,0.0048996880650520325
256.0,0.004744019825011492
288.0,0.004256881307810545
320.0,0.0032998542301356792
352.0,0.002270576311275363
384.0,0.0011956383241340518
416.0,0.0003129557007923722
448.0,-0.00022515672026202083
480.0,-0.00036045192973688245
512.0,-0.0011848339345306158
576.0,-0.0015503225149586797
640.0,-0.001762706902809441
704.0,-0.0033062021248042583
768.0,-0.0021005645394325256
832.0,-9.571816917741671e-06
896.0,0.0008805225370451808
960.0,0.0008119344711303711
1024.0,0.0014862488023936749
1152.0,0.00012390549818519503
1280.0,-0.0002523604198358953
1408.0,0.0002279428590554744
1536.0,0.0008223159238696098
1664.0,-9.112598490901291e-05
1792.0,-0.0003144555084872991
1920.0,-0.002251021796837449
2048.0,-0.0015557806473225355
2304.0,-0.0010086263064295053
2560.0,0.0006543991039507091
2816.0,0.0034821510780602694
3072.0,0.0030529180075973272
3328.0,-0.0024010497145354748
3584.0,-0.00360021460801363
3840.0,-0.0020145527087152004
4096.0,0.0006612080032937229
4608.0,-0.002163452561944723
5120.0,-0.005173152778297663
5632.0,0.002053064526990056
6144.0,-0.00011907021689694375
6656.0,-0.003296284470707178
7168.0,0.0025655722711235285
7680.0,-0.00021362891129683703
8192.0,-0.0013277445686981082
9216.0,0.0006058073486201465
10240.0,0.0005576005787588656
11264.0,-0.00248692836612463
12288.0,-0.0006230936269275844
13312.0,0.0006197200273163617
14336.0,0.0008191405795514584
end
