version,3.0
numOfCh,1
type,point
parent_name,2-cuts
ch_type,1_1
kcount,1
numberNandB,1
brightnessNandB,1
carpet pos,0
pc,0
Time (ms),CH1 Auto-Correlation
1.0,0.02904636226594448
2.0,0.028440002351999283
3.0,0.027859153226017952
4.0,0.027283722534775734
5.0,0.026719944551587105
6.0,0.026164034381508827
7.0,0.02562054619193077
8.0,0.02510438859462738
9.0,0.02459915354847908
10.0,0.024100838229060173
11.0,0.023619288578629494
12.0,0.023167138919234276
13.0,0.02273740991950035
14.0,0.022314513102173805
15.0,0.0219071377068758
16.0,0.021510286256670952
18.0,0.02073861099779606
20.0,0.019970141351222992
22.0,0.01922714151442051
24.0,0.01850416325032711
26.0,0.017848161980509758
28.0,0.017251431941986084
30.0,0.016689127311110497
32.0,0.01615102030336857
36.0,0.015090816654264927
40.0,0.014197168871760368
44.0,0.01346015278249979
48.0,0.012910054065287113
52.0,0.012512560933828354
56.0,0.01208859495818615
60.0,0.011631147004663944
64.0,0.011181121692061424
72.0,0.010307520627975464
80.0,0.009502558037638664
88.0,0.008716241456568241
96.0,0.007880830205976963
104.0,0.00742311542853713
112.0,0.007106274366378784
120.0,0.006877063773572445
128.0,0.006626100279390812
144.0,0.006163949146866798
160.0,0.0060688829980790615
176.0,0.006190692074596882
192.0,0.005928404629230499
208.0,0.005251199938356876
224.0,0.004502040334045887
240.0,0.004300571978092194
256.0,0.004304226487874985
288.0,0.004064998589456081
320.0,0.0037314812652766705
352.0,0.003420064225792885
384.0,0.0031583067029714584
416.0,0.0021051892545074224
448.0,0.0012643160298466682
480.0,0.0014563666190952063
512.0,0.0009753662161529064
576.0,-0.00013633612252306193
640.0,-0.001535147661343217
704.0,-0.0022928256075829268
768.0,-0.0023340145125985146
832.0,-0.0020498083904385567
896.0,-0.0017054044874385
960.0,-0.0027122723404318094
1024.0,-0.0027716089971363544
1152.0,-0.0014722802443429828
1280.0,-0.0018989871023222804
1408.0,0.0010988402646034956
1536.0,0.0001719385472824797
1664.0,0.00029788518440909684
1792.0,0.0027513408567756414
1920.0,0.0010914613958448172
2048.0,3.566165833035484e-05
2304.0,-0.001274880371056497
2560.0,-0.00034004071494564414
2816.0,-0.0013090664288029075
3072.0,-0.0009805759182199836
3328.0,-0.0004783250333275646
3584.0,-0.0012550965184345841
3840.0,-0.0023735493887215853
4096.0,-0.0008890273747965693
4608.0,0.0006670200964435935
5120.0,0.0008143862942233682
5632.0,-0.002316167578101158
6144.0,-0.0006882508751004934
6656.0,0.001050120685249567
7168.0,-0.0004966570413671434
7680.0,-0.0018782498082146049
8192.0,-0.0013835928402841091
9216.0,-0.0009116103174164891
10240.0,0.0013332501985132694
11264.0,0.0015324982814490795
12288.0,0.0029429467394948006
13312.0,-0.0005505463341251016
14336.0,-0.00537049351260066
end
