version,3.0
numOfCh,1
type,point
parent_name,2-cuts
ch_type,1_1
kcount,1
numberNandB,1
brightnessNandB,1
carpet pos,0
pc,0
Time (ms),CH1 Auto-Correlation
1.0,0.06138262897729874
2.0,0.060267373919487
3.0,0.059207089245319366
4.0,0.05818471685051918
5.0,0.057204216718673706
6.0,0.05625462532043457
7.0,0.055311962962150574
8.0,0.05441492050886154
9.0,0.05356742814183235
10.0,0.05275832116603851
11.0,0.05195899307727814
12.0,0.051154546439647675
13.0,0.05038297921419144
14.0,0.0496533177793026
15.0,0.048964180052280426
16.0,0.04828357696533203
18.0,0.046960655599832535
20.0,0.04574458673596382
22.0,0.04464602470397949
24.0,0.043639831244945526
26.0,0.04270599037408829
28.0,0.04182663932442665
30.0,0.04101245105266571
32.0,0.0402383878827095
36.0,0.03871317580342293
40.0,0.03720351308584213
44.0,0.03584131598472595
48.0,0.03459014371037483
52.0,0.03339369595050812
56.0,0.03227153420448303
60.0,0.031227828934788704
64.0,0.03021468222141266
72.0,0.028394868597388268
80.0,0.02673608809709549
88.0,0.02530398964881897
96.0,0.024154407903552055
104.0,0.022957662120461464
112.0,0.021557539701461792
120.0,0.02037797123193741
128.0,0.019374078139662743
144.0,0.017723478376865387
160.0,0.01665201224386692
176.0,0.016583247110247612
192.0,0.016051901504397392
208.0,0.014314387924969196
224.0,0.01302405260503292
240.0,0.012484569102525711
256.0,0.012573313899338245
288.0,0.01206591073423624
320.0,0.01083099190145731
352.0,0.010695993900299072
384.0,0.011515116319060326
416.0,0.011160592548549175
448.0,0.012002679519355297
480.0,0.012086835689842701
512.0,0.010794100351631641
576.0,0.009315155446529388
640.0,0.009460711851716042
704.0,0.009962995536625385
768.0,0.009406791999936104
832.0,0.008326676674187183
896.0,0.007191723678261042
960.0,0.0050984276458621025
1024.0,0.002282819477841258
1152.0,0.001072786981239915
1280.0,-0.0009659617207944393
1408.0,-0.002848668023943901
1536.0,-0.0006958392332307994
1664.0,-0.002803383395075798
1792.0,-0.006957519333809614
1920.0,-0.005258878692984581
2048.0,-0.00704542500898242
2304.0,-0.010524374432861805
2560.0,-0.0064795780926942825
2816.0,-0.0055707478895783424
3072.0,-0.0025091113056987524
3328.0,-0.000526467221789062
3584.0,0.0026684862095862627
3840.0,-0.0036429769825190306
4096.0,0.0008206641650758684
4608.0,0.00017838769417721778
5120.0,-0.0006630812422372401
5632.0,-0.0035677049309015274
6144.0,-0.0015489425277337432
6656.0,0.0005286755040287971
7168.0,0.0055358740501105785
7680.0,0.0007224116707220674
8192.0,-0.00782637856900692
9216.0,-0.009277279488742352
10240.0,-0.0023337462916970253
11264.0,0.007474599406123161
12288.0,0.005112096201628447
13312.0,0.002203886630013585
14336.0,0.001607235404662788
end
