version,3.0
numOfCh,1
type,point
parent_name,2-cuts
ch_type,1_1
kcount,1
numberNandB,1
brightnessNandB,1
carpet pos,0
pc,0
Time (ms),CH1 Auto-Correlation
1.0,0.03184992074966431
2.0,0.031268611550331116
3.0,0.030705571174621582
4.0,0.030150555074214935
5.0,0.029602112248539925
6.0,0.02906624972820282
7.0,0.028536681085824966
8.0,0.028028219938278198
9.0,0.027538929134607315
10.0,0.02706041932106018
11.0,0.026606688275933266
12.0,0.02618333324790001
13.0,0.025790084153413773
14.0,0.025406397879123688
15.0,0.025023141875863075
16.0,0.024654153734445572
18.0,0.023936744779348373
20.0,0.023251786828041077
22.0,0.0225955992937088
24.0,0.021961916238069534
26.0,0.021346159279346466
28.0,0.020775077864527702
30.0,0.02026580646634102
32.0,0.019777528941631317
36.0,0.018933523446321487
40.0,0.018117079511284828
44.0,0.01727108284831047
48.0,0.01645088382065296
52.0,0.01575482450425625
56.0,0.01523462776094675
60.0,0.014777329750359058
64.0,0.014344317838549614
72.0,0.013598276302218437
80.0,0.012784278020262718
88.0,0.012043507769703865
96.0,0.011353712528944016
104.0,0.010497710667550564
112.0,0.009867479093372822
120.0,0.009081833995878696
128.0,0.008427660912275314
144.0,0.007686879485845566
160.0,0.007091918960213661
176.0,0.0064530582167208195
192.0,0.005884738638997078
208.0,0.005302477162331343
224.0,0.00478568859398365
240.0,0.004563265945762396
256.0,0.004530581180006266
288.0,0.0043695950880646706
320.0,0.003736429149284959
352.0,0.003301618853583932
384.0,0.002995683578774333
416.0,0.0028746845200657845
448.0,0.002543538110330701
480.0,0.0024413305800408125
512.0,0.0033798275981098413
576.0,0.002376656513661146
640.0,0.0025814149994403124
704.0,0.0034642501268535852
768.0,0.005224348045885563
832.0,0.006559195928275585
896.0,0.006347090471535921
960.0,0.0062749856151640415
1024.0,0.0044180480763316154
1152.0,0.0027762160170823336
1280.0,0.0025367983616888523
1408.0,0.0019969234708696604
1536.0,0.0013401380274444818
1664.0,0.00335036707110703
1792.0,0.004824868403375149
1920.0,0.0021931196097284555
2048.0,-0.0005095538799650967
2304.0,0.0031302825082093477
2560.0,0.004700860008597374
2816.0,0.0035823271609842777
3072.0,-0.0002646664797794074
3328.0,0.002649874659255147
3584.0,0.0020507972221821547
3840.0,-0.0011106221936643124
4096.0,-0.0008580353460274637
4608.0,-0.0007280860445462167
5120.0,-0.001221394632011652
5632.0,-0.0026265173219144344
6144.0,-0.003791634924709797
6656.0,-0.00304878456518054
7168.0,-0.00454299058765173
7680.0,-0.004086614586412907
8192.0,-0.00437087332829833
9216.0,-0.002519394503906369
10240.0,-0.0034127177204936743
11264.0,-0.0007758178981021047
12288.0,-0.001799029647372663
13312.0,-0.0029148587491363287
14336.0,-0.0008826525299809873
end
