version,3.0
numOfCh,1
type,point
parent_name,2-cuts
ch_type,1_1
kcount,1
numberNandB,1
brightnessNandB,1
carpet pos,0
pc,0
Time (ms),CH1 Auto-Correlation
1.0,0.022177010774612427
2.0,0.021803369745612144
3.0,0.02144615352153778
4.0,0.021100210025906563
5.0,0.02076808176934719
6.0,0.020451989024877548
7.0,0.020146558061242104
8.0,0.019850976765155792
9.0,0.019563550129532814
10.0,0.019288107752799988
11.0,0.01901714690029621
12.0,0.01875302381813526
13.0,0.018491581082344055
14.0,0.01823415234684944
15.0,0.017978932708501816
16.0,0.01773097552359104
18.0,0.01725800149142742
20.0,0.016818640753626823
22.0,0.0164071936160326
24.0,0.016022823750972748
26.0,0.0156279094517231
28.0,0.01526636816561222
30.0,0.014913548715412617
32.0,0.014547696337103844
36.0,0.013870416209101677
40.0,0.013274192810058594
44.0,0.012740153819322586
48.0,0.012259221635758877
52.0,0.011854617856442928
56.0,0.011465715244412422
60.0,0.011095170862972736
64.0,0.01067417860031128
72.0,0.009877833537757397
80.0,0.009058698080480099
88.0,0.008385906927287579
96.0,0.0077692074701189995
104.0,0.00723660085350275
112.0,0.006804006639868021
120.0,0.006334544625133276
128.0,0.005783306434750557
144.0,0.004929691553115845
160.0,0.004317217972129583
176.0,0.0038525674026459455
192.0,0.003566086757928133
208.0,0.0034153165761381388
224.0,0.003237067721784115
240.0,0.0031299972906708717
256.0,0.003130064345896244
288.0,0.0033398582600057125
320.0,0.0037146115209907293
352.0,0.004017528612166643
384.0,0.003477673511952162
416.0,0.003239978803321719
448.0,0.0025871158577501774
480.0,0.00203842855989933
512.0,0.0017470502061769366
576.0,4.371647082734853e-05
640.0,-0.0004716681723948568
704.0,-0.0008917154627852142
768.0,-0.002399781020358205
832.0,-0.0024223909713327885
896.0,-0.0020251572132110596
960.0,-0.0016733615193516016
1024.0,-0.0008389110444113612
1152.0,0.00029577279929071665
1280.0,-1.329696624452481e-05
1408.0,-0.0006094358977861702
1536.0,5.384328233049018e-06
1664.0,0.0006762464763596654
1792.0,-0.0010357819264754653
1920.0,-0.0030458751134574413
2048.0,-0.0031525972299277782
2304.0,-0.005293680354952812
2560.0,-0.0031824205070734024
2816.0,-0.0009795575169846416
3072.0,0.0006422620499506593
3328.0,0.0016545531107112765
3584.0,0.0008181996527127922
3840.0,-0.0005505112931132317
4096.0,2.1723411919083446e-05
4608.0,0.00351047795265913
5120.0,0.0012630841229110956
5632.0,-0.0010913456790149212
6144.0,-0.00043124548392370343
6656.0,-0.0013590389862656593
7168.0,-0.001446578186005354
7680.0,-0.0002815107873175293
8192.0,0.00039426624425686896
9216.0,0.0014753133291378617
10240.0,0.0006531563121825457
11264.0,-0.00164688378572464
12288.0,-0.001192985917441547
13312.0,0.0006943908520042896
14336.0,9.293646871810779e-05
end
