version,3.0
numOfCh,1
type,point
parent_name,2-cuts
ch_type,1_1
kcount,1
numberNandB,1
brightnessNandB,1
carpet pos,0
pc,0
Time (ms),CH1 Auto-Correlation
1.0,0.020342368632555008
2.0,0.01995505765080452
3.0,0.019583793357014656
4.0,0.019231393933296204
5.0,0.018897220492362976
6.0,0.018574297428131104
7.0,0.018259253352880478
8.0,0.017965063452720642
9.0,0.017676960676908493
10.0,0.01739657111465931
11.0,0.01712401956319809
12.0,0.01686355285346508
13.0,0.01659947633743286
14.0,0.016340995207428932
15.0,0.016093507409095764
16.0,0.01585787534713745
18.0,0.015406160615384579
20.0,0.014991826377809048
22.0,0.014593108557164669
24.0,0.01420640479773283
26.0,0.013837120495736599
28.0,0.013506602495908737
30.0,0.01319853961467743
32.0,0.012880941852927208
36.0,0.012257087044417858
40.0,0.011703320778906345
44.0,0.01117473840713501
48.0,0.010668274015188217
52.0,0.0101607171818614
56.0,0.009688464924693108
60.0,0.00926715787500143
64.0,0.008898654021322727
72.0,0.008171354420483112
80.0,0.007445260416716337
88.0,0.00690181739628315
96.0,0.006472109351307154
104.0,0.006085830274969339
112.0,0.005712288897484541
120.0,0.005417838227003813
128.0,0.0051317373290658
144.0,0.004671903792768717
160.0,0.004263856448233128
176.0,0.0037931599654257298
192.0,0.003613589331507683
208.0,0.0032735292334109545
224.0,0.0028054965659976006
240.0,0.002278535859659314
256.0,0.0016458231257274747
288.0,0.0005187090137042105
320.0,-7.666889723623171e-05
352.0,0.00018860561249312013
384.0,0.0009440261055715382
416.0,0.001473387237638235
448.0,0.0013876617886126041
480.0,0.0016016752924770117
512.0,0.0020289954263716936
576.0,0.0018878472037613392
640.0,0.00037364367744885385
704.0,-0.0002778361376840621
768.0,-0.0009733709739521146
832.0,-0.0017240580637007952
896.0,-0.0012451671063899994
960.0,-0.001045364304445684
1024.0,-0.0016913744620978832
1152.0,-0.0007360443705692887
1280.0,0.0008975904202088714
1408.0,-0.00010477675823494792
1536.0,7.452911631844472e-06
1664.0,-0.0008439416415058076
1792.0,-0.0007732452941127121
1920.0,-0.0012247092090547085
2048.0,-0.0006075884448364377
2304.0,-0.000883685250300914
2560.0,-0.001653741579502821
2816.0,-0.0011561508290469646
3072.0,-0.001400879817083478
3328.0,0.0003263033286202699
3584.0,0.0013968838611617684
3840.0,0.0014459574595093727
4096.0,0.0004103804240003228
4608.0,0.0007528192945756018
5120.0,0.001970611046999693
5632.0,-0.0007064160890877247
6144.0,-0.00042155967094004154
6656.0,-0.0016108140116557479
7168.0,-0.0012676311889663339
7680.0,-4.758090290124528e-05
8192.0,-0.0004363223852124065
9216.0,-0.002603772794827819
10240.0,0.0014710510149598122
11264.0,-0.00040866900235414505
12288.0,0.0012607251992449164
13312.0,-0.0016410831594839692
14336.0,-0.005903054028749466
end
