version,3.0
numOfCh,1
type,point
parent_name,2-cuts
ch_type,1_1
kcount,1
numberNandB,1
brightnessNandB,1
carpet pos,0
pc,0
Time (ms),CH1 Auto-Correlation
1.0,0.023461589589715004
2.0,0.023073449730873108
3.0,0.022705841809511185
4.0,0.02234623022377491
5.0,0.021997801959514618
6.0,0.021662332117557526
7.0,0.02133060432970524
8.0,0.021007591858506203
9.0,0.02070368267595768
10.0,0.02039935253560543
11.0,0.020100463181734085
12.0,0.019811078906059265
13.0,0.01953067071735859
14.0,0.01926206238567829
15.0,0.019000930711627007
16.0,0.01874474436044693
18.0,0.018263906240463257
20.0,0.01782941073179245
22.0,0.017418649047613144
24.0,0.01701989397406578
26.0,0.01661265455186367
28.0,0.016210826113820076
30.0,0.015826454386115074
32.0,0.015468173660337925
36.0,0.014836677350103855
40.0,0.014267693273723125
44.0,0.013764812611043453
48.0,0.013275222852826118
52.0,0.012802744284272194
56.0,0.012347839772701263
60.0,0.01190260425209999
64.0,0.011488134041428566
72.0,0.010924969799816608
80.0,0.010425688698887825
88.0,0.009921973571181297
96.0,0.00937213096767664
104.0,0.00884766224771738
112.0,0.00838476698845625
120.0,0.007955987006425858
128.0,0.007580045610666275
144.0,0.007133136503398418
160.0,0.006967268884181976
176.0,0.006727670785039663
192.0,0.006194240879267454
208.0,0.005669704172760248
224.0,0.005297482013702393
240.0,0.004775406792759895
256.0,0.004202845506370068
288.0,0.002806881908327341
320.0,0.0024232284631580114
352.0,0.002467600628733635
384.0,0.0023423510137945414
416.0,0.002407841617241502
448.0,0.0027448050677776337
480.0,0.002696191193535924
512.0,0.0024636925663799047
576.0,0.0023322487249970436
640.0,0.000858347280882299
704.0,-0.000356448523234576
768.0,-0.0006307332077994943
832.0,-0.0005964924930594862
896.0,-0.001164267654530704
960.0,-0.0009867780609056354
1024.0,-0.000248326628934592
1152.0,-0.0009693601168692112
1280.0,0.0007622153498232365
1408.0,0.0011127033503726125
1536.0,0.0022094801533967257
1664.0,0.0016024280339479446
1792.0,0.0023181766737252474
1920.0,0.000618588412180543
2048.0,0.000811401754617691
2304.0,0.0021881600841879845
2560.0,-0.0016130442963913083
2816.0,-0.001960260095074773
3072.0,-0.0013257722603157163
3328.0,-0.003706881310790777
3584.0,-0.0006341695552691817
3840.0,-0.0017222266178578138
4096.0,-0.0014174167299643159
4608.0,-0.002057592151686549
5120.0,-0.002611248753964901
5632.0,-0.0032329517416656017
6144.0,-0.0022651515901088715
6656.0,0.0016755838878452778
7168.0,-0.0006210149731487036
7680.0,-0.0011306722881272435
8192.0,0.0036840983666479588
9216.0,0.0025782196316868067
10240.0,0.0003423501329962164
11264.0,0.00040032045217230916
12288.0,0.0001228520122822374
13312.0,-0.0010450163390487432
14336.0,-0.0006423252052627504
end
