version,3.0
numOfCh,1
type,point
parent_name,2-cuts
ch_type,1_1
kcount,1
numberNandB,1
brightnessNandB,1
carpet pos,0
pc,0
Time (ms),CH1 Auto-Correlation
1.0,0.0821225568652153
2.0,0.08088993281126022
3.0,0.07969816029071808
4.0,0.0785357654094696
5.0,0.07739043235778809
6.0,0.0763159766793251
7.0,0.07527587562799454
8.0,0.07431378215551376
9.0,0.07337358593940735
10.0,0.07246532291173935
11.0,0.07157107442617416
12.0,0.07066977769136429
13.0,0.06978443264961243
14.0,0.06891043484210968
15.0,0.06808114796876907
16.0,0.06726912409067154
18.0,0.06563700735569
20.0,0.06412690877914429
22.0,0.06274586170911789
24.0,0.06138307601213455
26.0,0.06016156077384949
28.0,0.059041090309619904
30.0,0.05793731287121773
32.0,0.05676569044589996
36.0,0.0543447770178318
40.0,0.051910992711782455
44.0,0.049537498503923416
48.0,0.0473356693983078
52.0,0.04542107507586479
56.0,0.04359550029039383
60.0,0.04183558002114296
64.0,0.0400579497218132
72.0,0.037232931703329086
80.0,0.03504854068160057
88.0,0.03336520493030548
96.0,0.03204624727368355
104.0,0.03078616037964821
112.0,0.029680103063583374
120.0,0.02887759916484356
128.0,0.02840905450284481
144.0,0.02768092043697834
160.0,0.026914263144135475
176.0,0.027158567681908607
192.0,0.02623857371509075
208.0,0.025270219892263412
224.0,0.024785203859210014
240.0,0.0238431915640831
256.0,0.0226259995251894
288.0,0.018598375841975212
320.0,0.015339032746851444
352.0,0.012440632097423077
384.0,0.010997080244123936
416.0,0.010434743016958237
448.0,0.009707223623991013
480.0,0.008256321772933006
512.0,0.0070761567912995815
576.0,0.002265235874801874
640.0,0.0009223344386555254
704.0,-0.00027214354486204684
768.0,-0.005665471311658621
832.0,-0.006556021049618721
896.0,-0.004469934850931168
960.0,-0.006875998340547085
1024.0,-0.008655297569930553
1152.0,-0.00560267549008131
1280.0,-0.004141571000218391
1408.0,0.0018157963640987873
1536.0,0.004640807863324881
1664.0,-0.00022625995916314423
1792.0,-0.0016870464896783233
1920.0,-0.003005885984748602
2048.0,-0.0071999984793365
2304.0,-0.003870192915201187
2560.0,-0.004219341557472944
2816.0,0.005083526950329542
3072.0,0.0115624675527215
3328.0,0.01415330357849598
3584.0,0.007430287543684244
3840.0,0.0017985730664804578
4096.0,-0.0023888321593403816
4608.0,-0.00140070216730237
5120.0,-0.00811776239424944
5632.0,-0.011448062025010586
6144.0,-0.0013625678839161992
6656.0,0.009389414452016354
7168.0,0.004353165160864592
7680.0,-0.006952571216970682
8192.0,-0.004677023272961378
9216.0,-0.002693909453228116
10240.0,-0.005092379171401262
11264.0,-0.0019263934809714556
12288.0,-0.0013255648082122207
13312.0,0.001051667146384716
14336.0,-0.0005507156602106988
end
