version,3.0
numOfCh,1
type,point
parent_name,2-cuts
ch_type,1_1
kcount,1
numberNandB,1
brightnessNandB,1
carpet pos,0
pc,0
Time (ms),CH1 Auto-Correlation
1.0,0.020897570997476578
2.0,0.020497797057032585
3.0,0.020122181624174118
4.0,0.019744355231523514
5.0,0.019372358918190002
6.0,0.019010357558727264
7.0,0.018656766042113304
8.0,0.01831917092204094
9.0,0.01800483837723732
10.0,0.017702994868159294
11.0,0.017408428713679314
12.0,0.017118973657488823
13.0,0.01683696359395981
14.0,0.01656004972755909
15.0,0.01629837229847908
16.0,0.016059644520282745
18.0,0.015589031390845776
20.0,0.01513392012566328
22.0,0.014711439609527588
24.0,0.01433766633272171
26.0,0.01396862417459488
28.0,0.013621226884424686
30.0,0.013286621309816837
32.0,0.012952123768627644
36.0,0.012378208339214325
40.0,0.011814004741609097
44.0,0.011277935467660427
48.0,0.010785301215946674
52.0,0.010299076326191425
56.0,0.009830334223806858
60.0,0.009363576769828796
64.0,0.00896742008626461
72.0,0.008268242701888084
80.0,0.007759165950119495
88.0,0.0073427604511380196
96.0,0.006936952471733093
104.0,0.00658958638086915
112.0,0.006282758433371782
120.0,0.00582762761041522
128.0,0.00549975223839283
144.0,0.004914069082587957
160.0,0.004395291209220886
176.0,0.003697511740028858
192.0,0.0028640138916671276
208.0,0.00231736246496439
224.0,0.001968556083738804
240.0,0.0014961088309064507
256.0,0.0009229156421497464
288.0,0.00019374788098502904
320.0,-0.0002737930044531822
352.0,-0.000974115973804146
384.0,-0.0010446957312524319
416.0,-0.00025514012668281794
448.0,0.0005182832828722894
480.0,0.0009803001303225756
512.0,0.0008796557085588574
576.0,0.001557059120386839
640.0,0.0019730732310563326
704.0,0.002505895681679249
768.0,0.0027032908983528614
832.0,0.0024973538238555193
896.0,0.0018122748006135225
960.0,0.0003579010663088411
1024.0,-0.00047421760973520577
1152.0,-0.00031895999563857913
1280.0,-0.0005942852585576475
1408.0,0.00037499802419915795
1536.0,0.0018416184466332197
1664.0,0.0018347360892221332
1792.0,0.00020988810865674168
1920.0,-0.000629883783403784
2048.0,-0.0013682333519682288
2304.0,-0.002913697622716427
2560.0,-0.0019221639959141612
2816.0,-0.0023561157286167145
3072.0,-0.0030436546076089144
3328.0,-0.00148438208270818
3584.0,-0.0018504430772736669
3840.0,-0.0027302876114845276
4096.0,-0.0019882991909980774
4608.0,0.0005611240630969405
5120.0,0.0022687611635774374
5632.0,0.00175652711186558
6144.0,0.0027529706712812185
6656.0,0.0009014897514134645
7168.0,0.0012820923002436757
7680.0,-0.0001647896133363247
8192.0,-0.002830520272254944
9216.0,-0.002488447353243828
10240.0,-4.240362250129692e-05
11264.0,0.0017284282948821783
12288.0,0.003312696237117052
13312.0,-0.0006852424121461809
14336.0,-0.004584152717143297
end
