version,3.0
numOfCh,1
type,point
parent_name,2-cuts
ch_type,1_1
kcount,1
numberNandB,1
brightnessNandB,1
carpet pos,0
pc,0
Time (ms),CH1 Auto-Correlation
1.0,0.019877782091498375
2.0,0.019518958404660225
3.0,0.019164877012372017
4.0,0.018823156133294106
5.0,0.018494563177227974
6.0,0.018180737271904945
7.0,0.017879338935017586
8.0,0.01758507639169693
9.0,0.017305323854088783
10.0,0.0170432198792696
11.0,0.01679600588977337
12.0,0.016554806381464005
13.0,0.016310783103108406
14.0,0.016059761866927147
15.0,0.015818368643522263
16.0,0.015581986866891384
18.0,0.015138890594244003
20.0,0.014712820760905743
22.0,0.014299087226390839
24.0,0.013883974403142929
26.0,0.013492275029420853
28.0,0.013129821978509426
30.0,0.012785064987838268
32.0,0.012456116266548634
36.0,0.011834116652607918
40.0,0.011255014687776566
44.0,0.01074204407632351
48.0,0.010306569747626781
52.0,0.00985606387257576
56.0,0.009437271393835545
60.0,0.009059647098183632
64.0,0.008730093948543072
72.0,0.008162204176187515
80.0,0.007750439923256636
88.0,0.007373619358986616
96.0,0.007014187052845955
104.0,0.006611056625843048
112.0,0.006213821936398745
120.0,0.0059042805805802345
128.0,0.005567518062889576
144.0,0.004986007232218981
160.0,0.004277757368981838
176.0,0.003697109641507268
192.0,0.0033076689578592777
208.0,0.0029520175885409117
224.0,0.0026147409807890654
240.0,0.0023920924868434668
256.0,0.0023049379233270884
288.0,0.002219569869339466
320.0,0.0018023576121777296
352.0,0.0012359172105789185
384.0,0.0008952222415246069
416.0,9.125038195634261e-05
448.0,0.00014983593428041786
480.0,0.00035404996015131474
512.0,-8.879415690898895e-05
576.0,-0.00027014987426809967
640.0,0.0003878938441630453
704.0,0.0018918788991868496
768.0,0.0019309596391394734
832.0,0.00042875061626546085
896.0,0.00015534333942923695
960.0,-0.0008245232165791094
1024.0,6.785312871215865e-05
1152.0,0.0010982935782521963
1280.0,0.001655292697250843
1408.0,0.0015063390601426363
1536.0,-0.0006115666474215686
1664.0,0.0001015317757264711
1792.0,-0.0006752342451363802
1920.0,0.0007425103685818613
2048.0,0.001025812583975494
2304.0,-0.0011083767749369144
2560.0,0.0009546283399686217
2816.0,0.0005473443306982517
3072.0,-0.0015536723658442497
3328.0,-0.00019690814951900393
3584.0,0.0004964437102898955
3840.0,0.0005964402225799859
4096.0,0.0011663216864690185
4608.0,-5.994493039906956e-05
5120.0,-0.0010224230354651809
5632.0,-0.001282852957956493
6144.0,0.0004174303321633488
6656.0,0.0007809540838934481
7168.0,-0.0010009929537773132
7680.0,0.0007589804590679705
8192.0,0.0013336020056158304
9216.0,-0.0009138347813859582
10240.0,-0.0008279606699943542
11264.0,-0.003611756954342127
12288.0,-0.0015465130563825369
13312.0,-0.0028429501689970493
14336.0,-0.0016000978648662567
end
