version,3.0
numOfCh,1
type,point
parent_name,2-cuts
ch_type,1_1
kcount,1
numberNandB,1
brightnessNandB,1
carpet pos,0
pc,0
Time (ms),CH1 Auto-Correlation
1.0,0.018457815051078796
2.0,0.01804555580019951
3.0,0.017645010724663734
4.0,0.0172706451267004
5.0,0.01690618507564068
6.0,0.016559097915887833
7.0,0.016231434419751167
8.0,0.01590873673558235
9.0,0.015595263801515102
10.0,0.015292566269636154
11.0,0.014994168654084206
12.0,0.014700671657919884
13.0,0.014403052628040314
14.0,0.01412627287209034
15.0,0.013868914917111397
16.0,0.013608664274215698
18.0,0.013127830810844898
20.0,0.012685748748481274
22.0,0.012258636765182018
24.0,0.011846277862787247
26.0,0.011447008699178696
28.0,0.01105992216616869
30.0,0.010700197890400887
32.0,0.01036654319614172
36.0,0.009749998338520527
40.0,0.00923065934330225
44.0,0.008778765797615051
48.0,0.008392023853957653
52.0,0.008064428344368935
56.0,0.007766788825392723
60.0,0.007510775234550238
64.0,0.007258331403136253
72.0,0.0067021227441728115
80.0,0.0060491194017231464
88.0,0.005340456962585449
96.0,0.004786276258528233
104.0,0.004298744257539511
112.0,0.0037844779435545206
120.0,0.0034155857283622026
128.0,0.0032411860302090645
144.0,0.0026841408107429743
160.0,0.002019630977883935
176.0,0.0014647974167019129
192.0,0.001166429603472352
208.0,0.0008172699017450213
224.0,0.00041730384691618383
240.0,0.00041494666947983205
256.0,0.0005825627013109624
288.0,0.0009902904275804758
320.0,0.0012582167983055115
352.0,0.0009268660796806216
384.0,0.0007952029118314385
416.0,0.0007821288891136646
448.0,0.0009906566701829433
480.0,0.001394213642925024
512.0,0.0015856235986575484
576.0,0.001448551774956286
640.0,0.0003037470451090485
704.0,-0.0005442035035230219
768.0,-6.071941606933251e-05
832.0,0.0005202686879783869
896.0,0.0011030103778466582
960.0,0.0009765013819560409
1024.0,0.00026693756808526814
1152.0,0.00023449254513252527
1280.0,-0.000332214665831998
1408.0,-3.468624345259741e-05
1536.0,-0.0002366782136959955
1664.0,-8.214225817937404e-05
1792.0,0.0001701262517599389
1920.0,9.750590834300965e-05
2048.0,0.0004859823384322226
2304.0,-0.00036815201747231185
2560.0,-0.0012070783413946629
2816.0,-0.0018366883741691709
3072.0,-0.002334831515327096
3328.0,-0.0012357357190921903
3584.0,-0.001318497583270073
3840.0,-0.0010480957571417093
4096.0,-0.0008265955257229507
4608.0,0.0004725277831312269
5120.0,-0.0006086055655032396
5632.0,0.00011230757081648335
6144.0,0.0004990739398635924
6656.0,0.0016946798423305154
7168.0,0.0005564187304116786
7680.0,0.0007774014957249165
8192.0,-0.0005475770449265838
9216.0,-0.0005253045819699764
10240.0,-0.0002217806613771245
11264.0,-0.0006041757296770811
12288.0,-0.0006571292178705335
13312.0,0.0002735215821303427
14336.0,0.0001513296301709488
end
