version,3.0
numOfCh,1
type,point
parent_name,2-cuts
ch_type,1_1
kcount,1
numberNandB,1
brightnessNandB,1
carpet pos,0
pc,0
Time (ms),CH1 Auto-Correlation
1.0,0.028022443875670433
2.0,0.027470549568533897
3.0,0.02694612555205822
4.0,0.02645094320178032
5.0,0.025975313037633896
6.0,0.0255223847925663
7.0,0.025102464482188225
8.0,0.024690665304660797
9.0,0.02429979108273983
10.0,0.02390294522047043
11.0,0.023531876504421234
12.0,0.023181147873401642
13.0,0.02284240908920765
14.0,0.022518962621688843
15.0,0.022204600274562836
16.0,0.021897977218031883
18.0,0.021325835958123207
20.0,0.02079358510673046
22.0,0.020303551107645035
24.0,0.0198587067425251
26.0,0.019452430307865143
28.0,0.019045550376176834
30.0,0.01864803209900856
32.0,0.018273497000336647
36.0,0.01756175234913826
40.0,0.01688270829617977
44.0,0.016232196241617203
48.0,0.015490598045289516
52.0,0.014677959494292736
56.0,0.013873497024178505
60.0,0.013163913041353226
64.0,0.012512571178376675
72.0,0.011329843662679195
80.0,0.010295580141246319
88.0,0.009555459022521973
96.0,0.008825447410345078
104.0,0.008209196850657463
112.0,0.007826398126780987
120.0,0.007602333556860685
128.0,0.007460464257746935
144.0,0.0068989098072052
160.0,0.005969505291432142
176.0,0.005136827472597361
192.0,0.004380625206977129
208.0,0.003643406555056572
224.0,0.0033590332604944706
240.0,0.0032170042395591736
256.0,0.003007513005286455
288.0,0.0027838810347020626
320.0,0.0029194478411227465
352.0,0.0028071515262126923
384.0,0.0027657903265208006
416.0,0.002642292296513915
448.0,0.002067642519250512
480.0,0.0022835852578282356
512.0,0.0018175306031480432
576.0,-0.00033508153865113854
640.0,-7.245138840517029e-05
704.0,0.0014307707315310836
768.0,0.001137062325142324
832.0,-0.00025530735729262233
896.0,-0.0012633687583729625
960.0,-0.0012465999461710453
1024.0,-0.0019022347405552864
1152.0,-0.001800677040591836
1280.0,-0.0017819864442571998
1408.0,0.0010951757431030273
1536.0,0.002781251911073923
1664.0,0.0024577504955232143
1792.0,0.000919609097763896
1920.0,-0.00030270093702711165
2048.0,0.0016502620419487357
2304.0,0.0007552028400823474
2560.0,0.0006005578907206655
2816.0,0.0015336161013692617
3072.0,0.0012462049489840865
3328.0,0.0015216524479910731
3584.0,-5.776478428742848e-05
3840.0,0.0019531804136931896
4096.0,0.0004891072167083621
4608.0,-0.001520443009212613
5120.0,0.0008320151828229427
5632.0,0.0020162127912044525
6144.0,-0.001859696814790368
6656.0,-0.001168903079815209
7168.0,-0.0002981472935061902
7680.0,-0.001993889454752207
8192.0,-0.0040397047996521
9216.0,-0.002510280581191182
10240.0,0.00047321501187980175
11264.0,-0.0032379841431975365
12288.0,0.00021847549942322075
13312.0,-0.0030235801823437214
14336.0,0.001317664049565792
end
