version,3.0
numOfCh,1
type,point
parent_name,2-cuts
ch_type,1_1
kcount,1
numberNandB,1
brightnessNandB,1
carpet pos,0
pc,0
Time (ms),CH1 Auto-Correlation
1.0,0.021827634423971176
2.0,0.021422987803816795
3.0,0.021031690761446953
4.0,0.020649729296565056
5.0,0.020274151116609573
6.0,0.019906315952539444
7.0,0.0195457860827446
8.0,0.019199803471565247
9.0,0.018854781985282898
10.0,0.018511205911636353
11.0,0.01817810907959938
12.0,0.017859064042568207
13.0,0.017544154077768326
14.0,0.01723564602434635
15.0,0.016943160444498062
16.0,0.01664760522544384
18.0,0.01609666831791401
20.0,0.0155902449041605
22.0,0.015128010883927345
24.0,0.014691193588078022
26.0,0.014273377135396004
28.0,0.013876872137188911
30.0,0.013497437350451946
32.0,0.013114893808960915
36.0,0.012373623438179493
40.0,0.011708313599228859
44.0,0.01108652725815773
48.0,0.010521698743104935
52.0,0.0100163659080863
56.0,0.009612985886633396
60.0,0.009311269968748093
64.0,0.009083420969545841
72.0,0.00859698187559843
80.0,0.00816057063639164
88.0,0.00782712921500206
96.0,0.007493920624256134
104.0,0.007181066554039717
112.0,0.006819214206188917
120.0,0.0064842477440834045
128.0,0.006206010468304157
144.0,0.005719135981053114
160.0,0.005317645613104105
176.0,0.0047230650670826435
192.0,0.004346927162259817
208.0,0.004291904624551535
224.0,0.004034074023365974
240.0,0.003474817145615816
256.0,0.003094474319368601
288.0,0.0024576336145401
320.0,0.0021829293109476566
352.0,0.0018371950136497617
384.0,0.001016502152197063
416.0,0.0006049285875633359
448.0,0.0005097784451209009
480.0,9.599037730367854e-05
512.0,-0.00046214889152906835
576.0,-0.0016369418008252978
640.0,-0.0023381144274026155
704.0,-0.0025201793760061264
768.0,-0.0031665137503296137
832.0,-0.003751286305487156
896.0,-0.0020589474588632584
960.0,-0.0026883757673203945
1024.0,-0.0029927624855190516
1152.0,-0.003291283966973424
1280.0,-0.001233257818967104
1408.0,-0.0010177178774029016
1536.0,0.00034617356141097844
1664.0,-0.0012730032904073596
1792.0,-0.0014018622459843755
1920.0,-0.0013308132765814662
2048.0,-0.0006015304825268686
2304.0,8.084725413937122e-05
2560.0,0.0008705290383659303
2816.0,0.002995381597429514
3072.0,0.0022654321510344744
3328.0,0.0005636365967802703
3584.0,1.492595038143918e-05
3840.0,-0.0027738462667912245
4096.0,-0.0020076909568160772
4608.0,0.0002462084230501205
5120.0,0.0011075438233092427
5632.0,0.0023969956673681736
6144.0,-0.0012866697506979108
6656.0,-0.00420793192461133
7168.0,0.0006584684597328305
7680.0,0.0031300256960093975
8192.0,-0.0013599038356915116
9216.0,-0.0009533662814646959
10240.0,0.0009366442682221532
11264.0,-0.001640818896703422
12288.0,2.4721301087993197e-05
13312.0,0.00035363095230422914
14336.0,-0.0009471562225371599
end
