version,3.0
numOfCh,1
type,point
parent_name,2-cuts
ch_type,1_1
kcount,1
numberNandB,1
brightnessNandB,1
carpet pos,0
pc,0
Time (ms),CH1 Auto-Correlation
1.0,0.0661408007144928
2.0,0.0649777501821518
3.0,0.06387627124786377
4.0,0.06280503422021866
5.0,0.061753977090120316
6.0,0.06075840815901756
7.0,0.05976076051592827
8.0,0.05880109965801239
9.0,0.057856686413288116
10.0,0.05694178491830826
11.0,0.05605018138885498
12.0,0.05517001450061798
13.0,0.0542999766767025
14.0,0.05342966318130493
15.0,0.05256659910082817
16.0,0.05170875042676926
18.0,0.0500912219285965
20.0,0.048536960035562515
22.0,0.04699647054076195
24.0,0.0454978309571743
26.0,0.04408274590969086
28.0,0.042727746069431305
30.0,0.04133905470371246
32.0,0.03997811675071716
36.0,0.03733331710100174
40.0,0.0347428098320961
44.0,0.032427601516246796
48.0,0.03051675483584404
52.0,0.028927896171808243
56.0,0.027589047327637672
60.0,0.02636432647705078
64.0,0.02517145872116089
72.0,0.023274900391697884
80.0,0.022007187828421593
88.0,0.02102035842835903
96.0,0.020167166367173195
104.0,0.019498761743307114
112.0,0.018603401258587837
120.0,0.017596781253814697
128.0,0.016723670065402985
144.0,0.01591932214796543
160.0,0.015773674473166466
176.0,0.015588955953717232
192.0,0.014733388088643551
208.0,0.013677808456122875
224.0,0.012140131555497646
240.0,0.010705138556659222
256.0,0.008743529208004475
288.0,0.00642986549064517
320.0,0.005673586390912533
352.0,0.004541901405900717
384.0,0.0023740448523312807
416.0,-0.0012590327532961965
448.0,-0.002201690571382642
480.0,-0.0011402163654565811
512.0,0.00042287897667847574
576.0,0.0020976553205400705
640.0,0.0011085685109719634
704.0,-0.0011472117621451616
768.0,-0.0003352403291501105
832.0,-0.0002688753593247384
896.0,-0.0011538818944245577
960.0,-0.0025640029925853014
1024.0,-0.0011834135511890054
1152.0,-0.000634705473203212
1280.0,0.0004875329614151269
1408.0,0.0020257066935300827
1536.0,-0.0005498211830854416
1664.0,0.003071262501180172
1792.0,0.006502997595816851
1920.0,0.007482688874006271
2048.0,0.0025952381547540426
2304.0,-0.0002008215815294534
2560.0,-0.0033811023458838463
2816.0,-0.008071612566709518
3072.0,-0.0014852272579446435
3328.0,0.003620607778429985
3584.0,0.004277143627405167
3840.0,-0.0011509195901453495
4096.0,-0.003509646048769355
4608.0,-0.0008597321575507522
5120.0,0.003771659219637513
5632.0,-0.0005918184178881347
6144.0,-0.012090343981981277
6656.0,-0.0070005119778215885
7168.0,0.0010785517515614629
7680.0,2.804415998980403e-05
8192.0,-0.0027579371817409992
9216.0,0.003695109626278281
10240.0,0.0009566492517478764
11264.0,-0.0029015974141657352
12288.0,0.0025576772168278694
13312.0,-0.0073243058286607265
14336.0,0.003117296611890197
end
