version,3.0
numOfCh,1
type,point
parent_name,2-cuts
ch_type,1_1
kcount,1
numberNandB,1
brightnessNandB,1
carpet pos,0
pc,0
Time (ms),CH1 Auto-Correlation
1.0,0.018515773117542267
2.0,0.018125547096133232
3.0,0.017757542431354523
4.0,0.017381247133016586
5.0,0.01701015792787075
6.0,0.0166471004486084
7.0,0.01629830151796341
8.0,0.01595691777765751
9.0,0.01563168875873089
10.0,0.015313426032662392
11.0,0.015015557408332825
12.0,0.014731161296367645
13.0,0.014451934024691582
14.0,0.01417361106723547
15.0,0.013899082317948341
16.0,0.013638333417475224
18.0,0.013147963210940361
20.0,0.012684463523328304
22.0,0.012253575026988983
24.0,0.0118569852784276
26.0,0.011483338661491871
28.0,0.011134778149425983
30.0,0.010807455517351627
32.0,0.010490628890693188
36.0,0.009960256516933441
40.0,0.009524330496788025
44.0,0.00912258867174387
48.0,0.008780323900282383
52.0,0.008462583646178246
56.0,0.008165680803358555
60.0,0.007809537462890148
64.0,0.007407050579786301
72.0,0.006640705280005932
80.0,0.0059659951366484165
88.0,0.00539226783439517
96.0,0.0048463656567037106
104.0,0.004378724377602339
112.0,0.004061613231897354
120.0,0.003918633330613375
128.0,0.003671907354146242
144.0,0.003005278529599309
160.0,0.002390958135947585
176.0,0.002125041326507926
192.0,0.0018449804047122598
208.0,0.0015240558423101902
224.0,0.001096518011763692
240.0,0.0010435208678245544
256.0,0.0008576757973060012
288.0,0.0003912106913048774
320.0,0.0002930911723524332
352.0,-0.0004767597420141101
384.0,-0.00042797467904165387
416.0,-0.000202934184926562
448.0,-0.0002925617736764252
480.0,-1.1838246791739948e-05
512.0,0.00045319792116060853
576.0,-0.00029713273397646844
640.0,-0.0002965887833852321
704.0,-0.0006350340554490685
768.0,-0.0009396341047249734
832.0,-0.0010601456742733717
896.0,-0.0019002760527655482
960.0,-0.0015689847059547901
1024.0,-0.001630093320272863
1152.0,-0.0011446649441495538
1280.0,-0.0016647878801450133
1408.0,6.83223843225278e-05
1536.0,-0.0002595771220512688
1664.0,0.0006779266404919326
1792.0,-0.0011450160527601838
1920.0,-0.0007779297302477062
2048.0,0.0006445455946959555
2304.0,2.891691474360414e-05
2560.0,-0.0013439288595691323
2816.0,-0.0016171283787116408
3072.0,0.0003543843049556017
3328.0,0.00024322074023075402
3584.0,0.001217940472997725
3840.0,0.0007143383845686913
4096.0,0.0015861939173191786
4608.0,0.0006237330962903798
5120.0,-0.0009735604398883879
5632.0,-0.0005684008938260376
6144.0,0.0010014824802055955
6656.0,0.0004623401036951691
7168.0,-0.0011495003709569573
7680.0,-0.0014106370508670807
8192.0,-8.345460810232908e-05
9216.0,0.0006933352560736239
10240.0,0.001209711073897779
11264.0,-0.0018336904468014836
12288.0,-0.0015300882514566183
13312.0,0.0019053384894505143
14336.0,0.0007236492820084095
end
