version,3.0
numOfCh,1
type,point
parent_name,2-cuts
ch_type,1_1
kcount,1
numberNandB,1
brightnessNandB,1
carpet pos,0
pc,0
Time (ms),CH1 Auto-Correlation
1.0,0.07765704393386841
2.0,0.07650236040353775
3.0,0.07539114356040955
4.0,0.07434230297803879
5.0,0.07330215722322464
6.0,0.07227684557437897
7.0,0.07129480689764023
8.0,0.07033611834049225
9.0,0.06939693540334702
10.0,0.06848075240850449
11.0,0.06758525222539902
12.0,0.06672497093677521
13.0,0.06590446084737778
14.0,0.06512734293937683
15.0,0.06437970697879791
16.0,0.06365231424570084
18.0,0.062216617166996
20.0,0.060846325010061264
22.0,0.05952110514044762
24.0,0.05822550505399704
26.0,0.056948449462652206
28.0,0.05582209303975105
30.0,0.05476570129394531
32.0,0.0536932572722435
36.0,0.051608383655548096
40.0,0.04975137859582901
44.0,0.047985587269067764
48.0,0.04631071165204048
52.0,0.04468463733792305
56.0,0.04310449957847595
60.0,0.041463445872068405
64.0,0.04001247137784958
72.0,0.03756117448210716
80.0,0.0358007550239563
88.0,0.034463103860616684
96.0,0.03297770768404007
104.0,0.03141682222485542
112.0,0.029771631583571434
120.0,0.028647836297750473
128.0,0.028055936098098755
144.0,0.027127383276820183
160.0,0.02519807405769825
176.0,0.0233706496655941
192.0,0.021879905834794044
208.0,0.020040642470121384
224.0,0.01936652883887291
240.0,0.020181825384497643
256.0,0.021008659154176712
288.0,0.02016817405819893
320.0,0.018009085208177567
352.0,0.014006348326802254
384.0,0.01165101584047079
416.0,0.011699732393026352
448.0,0.011168948374688625
480.0,0.011358835734426975
512.0,0.012123510241508484
576.0,0.014488368295133114
640.0,0.013285684399306774
704.0,0.009935974143445492
768.0,0.00841346476227045
832.0,0.008560756221413612
896.0,0.007829895243048668
960.0,0.004872255492955446
1024.0,0.00106880534440279
1152.0,0.0006106372456997633
1280.0,-0.0016742200823500752
1408.0,-0.002400094410404563
1536.0,-0.0051634241826832294
1664.0,-0.005679470952600241
1792.0,-0.0023644533939659595
1920.0,-0.003998788073658943
2048.0,-0.004060783889144659
2304.0,-0.0023598051629960537
2560.0,-0.0026900661177933216
2816.0,0.0025480547919869423
3072.0,0.0008636853890493512
3328.0,0.001478036749176681
3584.0,0.002344992943108082
3840.0,0.0043196482583880424
4096.0,-0.00574895553290844
4608.0,-0.004662214778363705
5120.0,-0.004956274759024382
5632.0,-0.001954335719347
6144.0,-0.008446273393929005
6656.0,-0.010837837122380733
7168.0,-0.008498831652104855
7680.0,-0.00868936162441969
8192.0,-0.0016170237213373184
9216.0,-0.0014426267007365823
10240.0,-0.00427192822098732
11264.0,0.01328149251639843
12288.0,0.0012909001670777798
13312.0,-0.007404251955449581
14336.0,0.0001448724215151742
end
