version,3.0
numOfCh,1
type,point
parent_name,2-cuts
ch_type,1_1
kcount,1
numberNandB,1
brightnessNandB,1
carpet pos,0
pc,0
Time (ms),CH1 Auto-Correlation
1.0,0.05406506732106209
2.0,0.05291460454463959
3.0,0.05179794505238533
4.0,0.0507102832198143
5.0,0.04966512322425842
6.0,0.04865479841828346
7.0,0.047696005553007126
8.0,0.046749457716941833
9.0,0.04586164653301239
10.0,0.04501136392354965
11.0,0.044142983853816986
12.0,0.0432949960231781
13.0,0.04246649891138077
14.0,0.0416739284992218
15.0,0.040907688438892365
16.0,0.040188200771808624
18.0,0.03885815665125847
20.0,0.03759663552045822
22.0,0.03636496141552925
24.0,0.035180337727069855
26.0,0.03402888774871826
28.0,0.032921817153692245
30.0,0.03186972439289093
32.0,0.03088393062353134
36.0,0.0290837362408638
40.0,0.027422068640589714
44.0,0.025982338935136795
48.0,0.024628132581710815
52.0,0.023283591493964195
56.0,0.021964551880955696
60.0,0.02065020240843296
64.0,0.019456755369901657
72.0,0.017685962840914726
80.0,0.016013724729418755
88.0,0.014156769029796124
96.0,0.012770040892064571
104.0,0.01151038333773613
112.0,0.010458732955157757
120.0,0.009637736715376377
128.0,0.008787322789430618
144.0,0.006978155113756657
160.0,0.0052132136188447475
176.0,0.003872025292366743
192.0,0.0030957325361669064
208.0,0.0031834172550588846
224.0,0.003906589467078447
240.0,0.004042940679937601
256.0,0.004349632654339075
288.0,0.004635321442037821
320.0,0.0046736798249185085
352.0,0.0045272670686244965
384.0,0.005021961871534586
416.0,0.0049372646026313305
448.0,0.003537108190357685
480.0,0.0008687995723448694
512.0,-0.0009141799528151751
576.0,-0.0014761590864509344
640.0,-0.0010267730103805661
704.0,-6.615011807298288e-05
768.0,-0.00095958705060184
832.0,-0.00018323888070881367
896.0,-0.0009435230167582631
960.0,-0.0026934787165373564
1024.0,-0.0033324137330055237
1152.0,-0.003449828363955021
1280.0,-0.0011764575028792024
1408.0,-0.002080197911709547
1536.0,0.0008097471436485648
1664.0,0.0030959411524236202
1792.0,0.0033006342127919197
1920.0,0.001130192424170673
2048.0,0.0010973175521939993
2304.0,-0.0036968153435736895
2560.0,0.0009018707787618041
2816.0,-0.004370103590190411
3072.0,-0.0035796859301626682
3328.0,-0.004882959183305502
3584.0,-0.0023665649350732565
3840.0,0.00201208284124732
4096.0,0.0006067808135412633
4608.0,-0.0016963385278359056
5120.0,-0.0028162056114524603
5632.0,0.004392718430608511
6144.0,-7.95241940068081e-05
6656.0,0.000395131588447839
7168.0,0.0011733355931937695
7680.0,-0.002966530155390501
8192.0,-0.0009501088643446565
9216.0,0.0006576057057827711
10240.0,0.0011403643293306231
11264.0,0.002090125810354948
12288.0,0.004558680113404989
13312.0,-0.004896700847893953
14336.0,-0.014583623968064785
end
