version,3.0
numOfCh,1
type,point
parent_name,2-cuts
ch_type,1_1
kcount,1
numberNandB,1
brightnessNandB,1
carpet pos,0
pc,0
Time (ms),CH1 Auto-Correlation
1.0,0.022775528952479362
2.0,0.022373266518115997
3.0,0.021991398185491562
4.0,0.021621404215693474
5.0,0.02126827836036682
6.0,0.020919304341077805
7.0,0.02058042772114277
8.0,0.02025582827627659
9.0,0.019936254248023033
10.0,0.019627297297120094
11.0,0.0193326398730278
12.0,0.019054530188441277
13.0,0.01879013516008854
14.0,0.018532367423176765
15.0,0.018276069313287735
16.0,0.01801956072449684
18.0,0.017501424998044968
20.0,0.017010793089866638
22.0,0.016533279791474342
24.0,0.016065923497080803
26.0,0.0156296007335186
28.0,0.015218213200569153
30.0,0.014810680411756039
32.0,0.014421714469790459
36.0,0.013733274303376675
40.0,0.01312717143446207
44.0,0.012582989409565926
48.0,0.012063488364219666
52.0,0.011586933396756649
56.0,0.011121842078864574
60.0,0.010702989995479584
64.0,0.010274650529026985
72.0,0.00957315880805254
80.0,0.008817421272397041
88.0,0.008003482595086098
96.0,0.0073118130676448345
104.0,0.006647734437137842
112.0,0.0061138165183365345
120.0,0.005639036651700735
128.0,0.005150127224624157
144.0,0.004434546455740929
160.0,0.004082558676600456
176.0,0.0038142704870551825
192.0,0.0037650426384061575
208.0,0.0038825185038149357
224.0,0.003902169642969966
240.0,0.0036606923677027225
256.0,0.003675605170428753
288.0,0.0038343670312315226
320.0,0.003392174607142806
352.0,0.0027148700319230556
384.0,0.0018481083679944277
416.0,0.0012290992308408022
448.0,0.0013080169446766376
480.0,0.0017280369065701962
512.0,0.0019138912903144956
576.0,0.0016057811444625258
640.0,0.0002563846646808088
704.0,-9.548477828502655e-05
768.0,-0.000885636021848768
832.0,-0.001160452258773148
896.0,-0.0013764072209596634
960.0,-0.0013472387799993157
1024.0,-0.0014468306908383965
1152.0,-0.0030478970147669315
1280.0,-0.0023188136983662844
1408.0,-0.0008697782759554684
1536.0,-0.001036319648846984
1664.0,-0.0005928580649197102
1792.0,2.845597919076681e-05
1920.0,-0.0006600780179724097
2048.0,-0.000787547614891082
2304.0,0.0007772481767460704
2560.0,0.0010909741977229714
2816.0,0.001927019446156919
3072.0,0.0032253828831017017
3328.0,0.00018386229930911213
3584.0,-0.00040871716919355094
3840.0,-0.002091416623443365
4096.0,-0.004125113133341074
4608.0,-0.0014010978629812598
5120.0,0.00014874667976982892
5632.0,-0.0012368495808914304
6144.0,-0.0024817329831421375
6656.0,-0.0021581717301160097
7168.0,0.00046368318726308644
7680.0,0.0013263080036267638
8192.0,3.6340676160762087e-05
9216.0,0.0012496154522523284
10240.0,0.001825767452828586
11264.0,0.00010828520316863433
12288.0,3.5121211112709716e-05
13312.0,0.0012246627593412995
14336.0,-0.0009851132053881884
end
