version,3.0
numOfCh,1
type,point
parent_name,2-cuts
ch_type,1_1
kcount,1
numberNandB,1
brightnessNandB,1
carpet pos,0
pc,0
Time (ms),CH1 Auto-Correlation
1.0,0.07314002513885498
2.0,0.07194547355175018
3.0,0.07079992443323135
4.0,0.06968453526496887
5.0,0.0685945525765419
6.0,0.06753309071063995
7.0,0.06648668646812439
8.0,0.06547660380601883
9.0,0.06451255083084106
10.0,0.063574880361557
11.0,0.06268345564603806
12.0,0.06181216612458229
13.0,0.06094849482178688
14.0,0.06012367084622383
15.0,0.05933649092912674
16.0,0.058585915714502335
18.0,0.05713324621319771
20.0,0.05574873462319374
22.0,0.054443731904029846
24.0,0.053191643208265305
26.0,0.052038148045539856
28.0,0.051027365028858185
30.0,0.05010433867573738
32.0,0.04916618391871452
36.0,0.04741782695055008
40.0,0.045900702476501465
44.0,0.044664833694696426
48.0,0.043565962463617325
52.0,0.04232652112841606
56.0,0.04116608947515488
60.0,0.04011918604373932
64.0,0.03919629007577896
72.0,0.03689037635922432
80.0,0.0345870666205883
88.0,0.03281259909272194
96.0,0.031995661556720734
104.0,0.031501490622758865
112.0,0.0310103390365839
120.0,0.030703503638505936
128.0,0.030612701550126076
144.0,0.029575934633612633
160.0,0.028487125411629677
176.0,0.02667039819061756
192.0,0.024577312171459198
208.0,0.02307038940489292
224.0,0.021946676075458527
240.0,0.02046472765505314
256.0,0.019166409969329834
288.0,0.017808305099606514
320.0,0.01598728820681572
352.0,0.015780944377183914
384.0,0.015936799347400665
416.0,0.016609027981758118
448.0,0.016690772026777267
480.0,0.017135528847575188
512.0,0.016930660232901573
576.0,0.013539719395339489
640.0,0.009799695573747158
704.0,0.008454094640910625
768.0,0.006416484247893095
832.0,0.006423890590667725
896.0,0.008970608934760094
960.0,0.0066219596192240715
1024.0,0.008500950410962105
1152.0,0.006785123609006405
1280.0,0.0026773144491016865
1408.0,0.002366594737395644
1536.0,0.0014376445906236768
1664.0,0.003028745297342539
1792.0,0.002031058771535754
1920.0,5.869349843123928e-05
2048.0,-0.004043909255415201
2304.0,-0.001086407108232379
2560.0,-0.0021319594234228134
2816.0,-0.007428784854710102
3072.0,-0.009874634444713593
3328.0,-0.01140444353222847
3584.0,-0.006855390500277281
3840.0,-0.00796783808618784
4096.0,-0.009874795563519001
4608.0,-0.008420183323323727
5120.0,-0.011520334519445896
5632.0,-0.002990123350173235
6144.0,0.006803326774388552
6656.0,0.006369755603373051
7168.0,0.0018152687698602676
7680.0,0.002376931719481945
8192.0,0.008490833453834057
9216.0,-0.0007526077097281814
10240.0,-0.008963532745838165
11264.0,-0.015531805343925953
12288.0,-0.0029455916956067085
13312.0,0.00949382595717907
14336.0,0.008272940292954445
end
