version,3.0
numOfCh,1
type,point
parent_name,2-cuts
ch_type,1_1
kcount,1
numberNandB,1
brightnessNandB,1
carpet pos,0
pc,0
Time (ms),CH1 Auto-Correlation
1.0,0.06491798907518387
2.0,0.06370504945516586
3.0,0.06251613050699234
4.0,0.06139780580997467
5.0,0.06032146140933037
6.0,0.05929526314139366
7.0,0.05830483138561249
8.0,0.0573723278939724
9.0,0.056468620896339417
10.0,0.055565983057022095
11.0,0.05468243360519409
12.0,0.053800202906131744
13.0,0.05295896157622337
14.0,0.05214248597621918
15.0,0.05135289579629898
16.0,0.05059603974223137
18.0,0.04913591966032982
20.0,0.04772741347551346
22.0,0.04646866023540497
24.0,0.04524531960487366
26.0,0.04408020153641701
28.0,0.042971618473529816
30.0,0.04186652600765228
32.0,0.04084639996290207
36.0,0.0388827919960022
40.0,0.037073347717523575
44.0,0.03540189564228058
48.0,0.03398837149143219
52.0,0.03289901092648506
56.0,0.03176410496234894
60.0,0.030525047332048416
64.0,0.029422340914607048
72.0,0.027643892914056778
80.0,0.026061130687594414
88.0,0.02439253032207489
96.0,0.022671932354569435
104.0,0.020645901560783386
112.0,0.01894351653754711
120.0,0.017462264746427536
128.0,0.016539128497242928
144.0,0.016367971897125244
160.0,0.016781697049736977
176.0,0.016447007656097412
192.0,0.01573304273188114
208.0,0.01430842000991106
224.0,0.012735055759549141
240.0,0.012065710499882698
256.0,0.01148356031626463
288.0,0.009404139593243599
320.0,0.008353369310498238
352.0,0.0071459668688476086
384.0,0.004944527056068182
416.0,0.004443460609763861
448.0,0.0054177045822143555
480.0,0.003748237155377865
512.0,0.003150076838210225
576.0,0.0033834408968687057
640.0,0.004258159082382917
704.0,0.0018695131875574589
768.0,0.0017209413927048445
832.0,0.0020245839841663837
896.0,0.0009817302925512195
960.0,0.002662229584529996
1024.0,0.005561902653425932
1152.0,0.0035446842666715384
1280.0,0.001959234941750765
1408.0,-0.0034960582852363586
1536.0,-0.007607209030538797
1664.0,-0.0016083002556115389
1792.0,-0.0012082058237865567
1920.0,0.0006923892651684582
2048.0,0.001328401267528534
2304.0,-0.0012042898451909423
2560.0,-0.003031328786164522
2816.0,-0.004396975971758366
3072.0,-0.004287356976419687
3328.0,-0.008455174043774605
3584.0,-0.008505456149578094
3840.0,-0.010057920590043068
4096.0,-0.0015001975698396564
4608.0,-0.0037116804160177708
5120.0,-0.0004767386126331985
5632.0,-0.00019377892022021115
6144.0,0.001165470341220498
6656.0,0.0023046175483614206
7168.0,0.00924456026405096
7680.0,0.0018444773741066456
8192.0,-0.005280409473925829
9216.0,-0.004283023066818714
10240.0,-0.0004935645265504718
11264.0,-0.0014055039500817657
12288.0,0.0035823695361614227
13312.0,0.00416538305580616
14336.0,-0.0014127712929621339
end
