version,3.0
numOfCh,1
type,point
parent_name,2-cuts
ch_type,1_1
kcount,1
numberNandB,1
brightnessNandB,1
carpet pos,0
pc,0
Time (ms),CH1 Auto-Correlation
1.0,0.04182368144392967
2.0,0.04125010594725609
3.0,0.04069588705897331
4.0,0.040151555091142654
5.0,0.039623748511075974
6.0,0.03910993039608002
7.0,0.038609493523836136
8.0,0.038117218762636185
9.0,0.03763824328780174
10.0,0.03716352581977844
11.0,0.03669358044862747
12.0,0.03622626140713692
13.0,0.03577525541186333
14.0,0.03533137962222099
15.0,0.034897949546575546
16.0,0.03447312116622925
18.0,0.033652544021606445
20.0,0.03287534415721893
22.0,0.032127127051353455
24.0,0.03140154108405113
26.0,0.03073662705719471
28.0,0.03008476458489895
30.0,0.02944747358560562
32.0,0.028843920677900314
36.0,0.027800964191555977
40.0,0.026881927624344826
44.0,0.026065528392791748
48.0,0.025328366085886955
52.0,0.0247118528932333
56.0,0.024176444858312607
60.0,0.023676082491874695
64.0,0.02329319715499878
72.0,0.02264796756207943
80.0,0.021893605589866638
88.0,0.021250251680612564
96.0,0.02086622081696987
104.0,0.02048802748322487
112.0,0.02012425661087036
120.0,0.019812222570180893
128.0,0.019641276448965073
144.0,0.018779907375574112
160.0,0.0179920457303524
176.0,0.01757553033530712
192.0,0.01708693616092205
208.0,0.016208920627832413
224.0,0.015159007161855698
240.0,0.014330309815704823
256.0,0.013942113146185875
288.0,0.013797922991216183
320.0,0.012406459078192711
352.0,0.011431070975959301
384.0,0.010771727189421654
416.0,0.010294490493834019
448.0,0.009786532260477543
480.0,0.008855925872921944
512.0,0.0071373614482581615
576.0,0.005646501202136278
640.0,0.004757960792630911
704.0,0.0038509333971887827
768.0,0.0018646022072061896
832.0,-8.467613042739686e-06
896.0,-0.0005401901435106993
960.0,0.0010276137618348002
1024.0,0.0014235684648156166
1152.0,0.00015582380001433194
1280.0,-0.0007812564726918936
1408.0,-0.00018103291222359985
1536.0,0.0011574944946914911
1664.0,0.002068965695798397
1792.0,0.0001655235537327826
1920.0,-0.0007078810594975948
2048.0,-0.0011123294243589044
2304.0,0.0009233360178768635
2560.0,0.0019324594177305698
2816.0,0.0010987131390720606
3072.0,-0.0007778202416375279
3328.0,-0.001935451291501522
3584.0,0.0005256985314190388
3840.0,0.0037626083940267563
4096.0,0.00473965285345912
4608.0,0.004782564006745815
5120.0,0.0014275055145844817
5632.0,-0.00843097735196352
6144.0,-0.005940820090472698
6656.0,-0.002885648515075445
7168.0,-0.004501639399677515
7680.0,-0.0016448755050078034
8192.0,-0.003118133172392845
9216.0,-0.0011046890867874026
10240.0,-0.009960434399545193
11264.0,0.0012413375079631805
12288.0,-0.005007151048630476
13312.0,0.003793229814618826
14336.0,-0.012593680061399937
end
