version,3.0
numOfCh,1
type,point
parent_name,2-cuts
ch_type,1_1
kcount,1
numberNandB,1
brightnessNandB,1
carpet pos,0
pc,0
Time (ms),CH1 Auto-Correlation
1.0,0.02083575166761875
2.0,0.020452866330742836
3.0,0.02008621022105217
4.0,0.019733073189854622
5.0,0.019393926486372948
6.0,0.019065268337726593
7.0,0.018750013783574104
8.0,0.018455184996128082
9.0,0.01817232556641102
10.0,0.017896743491292
11.0,0.01763649471104145
12.0,0.017381196841597557
13.0,0.017117207869887352
14.0,0.016860496252775192
15.0,0.016608109697699547
16.0,0.01636584661900997
18.0,0.015887536108493805
20.0,0.015426400117576122
22.0,0.01499102357774973
24.0,0.014561419375240803
26.0,0.014161992818117142
28.0,0.013787464238703251
30.0,0.013464199379086494
32.0,0.013167180120944977
36.0,0.012583049014210701
40.0,0.011989290826022625
44.0,0.01147112064063549
48.0,0.011030931957066059
52.0,0.01062406599521637
56.0,0.010201415978372097
60.0,0.009808819741010666
64.0,0.009419242851436138
72.0,0.008667047135531902
80.0,0.007894584909081459
88.0,0.007088977377861738
96.0,0.006401365622878075
104.0,0.0058521488681435585
112.0,0.005367089528590441
120.0,0.00498815905302763
128.0,0.004765409044921398
144.0,0.004256389569491148
160.0,0.003495896467939019
176.0,0.0028621212113648653
192.0,0.002532137790694833
208.0,0.0020598655100911856
224.0,0.0017323099309578538
240.0,0.0016592752654105425
256.0,0.0015930146910250187
288.0,0.0006903121247887611
320.0,-0.0008726054220460355
352.0,-0.0016665563452988863
384.0,-0.0018751032184809446
416.0,-0.0016706837341189384
448.0,-0.001544907339848578
480.0,-0.001833342481404543
512.0,-0.0012646549148485065
576.0,-0.00014548470790032297
640.0,-0.00022085219097789377
704.0,-0.0002815484767779708
768.0,0.00039964824100025
832.0,0.001142518944106996
896.0,0.0009553523850627244
960.0,0.0008181707817129791
1024.0,0.0009064446203410625
1152.0,-0.0012647617841139436
1280.0,-8.45549875521101e-05
1408.0,3.856594776152633e-05
1536.0,0.00042883530841208994
1664.0,0.0005636399728246033
1792.0,-0.0010604563867673278
1920.0,-0.0010352861136198044
2048.0,-0.0018030561041086912
2304.0,-0.0004182000702712685
2560.0,-0.00048627317300997674
2816.0,-0.001419267849996686
3072.0,0.00037083489587530494
3328.0,0.0019745752215385437
3584.0,0.0005687096854671836
3840.0,-0.0009879509452730417
4096.0,-0.0003201660292688757
4608.0,0.0009662994416430593
5120.0,0.0004504065145738423
5632.0,-0.0008713838178664446
6144.0,0.00040317841921932995
6656.0,-0.00017896016652230173
7168.0,-0.0004261763533577323
7680.0,0.0019288714975118637
8192.0,-0.00030260352650657296
9216.0,-0.0023069381713867188
10240.0,-0.0010658294195309281
11264.0,9.927286009769887e-05
12288.0,-0.00040048841037787497
13312.0,0.000359764089807868
14336.0,8.766785322222859e-05
end
