version,3.0
numOfCh,1
type,point
parent_name,2-cuts
ch_type,1_1
kcount,1
numberNandB,1
brightnessNandB,1
carpet pos,0
pc,0
Time (ms),CH1 Auto-Correlation
1.0,0.02692081406712532
2.0,0.026500210165977478
3.0,0.026094915345311165
4.0,0.025712434202432632
5.0,0.025337906554341316
6.0,0.02498723939061165
7.0,0.024655429646372795
8.0,0.02433948777616024
9.0,0.02402523159980774
10.0,0.023716416209936142
11.0,0.023413043469190598
12.0,0.023117557168006897
13.0,0.022829433903098106
14.0,0.022550230845808983
15.0,0.02227974124252796
16.0,0.022008229047060013
18.0,0.021517610177397728
20.0,0.02104421891272068
22.0,0.0205940343439579
24.0,0.020166607573628426
26.0,0.01976078189909458
28.0,0.019388483837246895
30.0,0.01904476247727871
32.0,0.018726728856563568
36.0,0.018136223778128624
40.0,0.017542243003845215
44.0,0.0169345885515213
48.0,0.016324838623404503
52.0,0.01571466214954853
56.0,0.015180614776909351
60.0,0.014673784375190735
64.0,0.014231341890990734
72.0,0.013367106206715107
80.0,0.012421508319675922
88.0,0.011339854449033737
96.0,0.010448621585965157
104.0,0.009681872092187405
112.0,0.009013091214001179
120.0,0.008482685312628746
128.0,0.008047006092965603
144.0,0.007579847238957882
160.0,0.007305228151381016
176.0,0.007135998457670212
192.0,0.007192068733274937
208.0,0.007134631276130676
224.0,0.007273461204022169
240.0,0.007390447426587343
256.0,0.0073896595276892185
288.0,0.006493879482150078
320.0,0.004949089139699936
352.0,0.0032150414772331715
384.0,0.001993033802136779
416.0,0.0012506170896813273
448.0,0.001093145925551653
480.0,0.0015507085481658578
512.0,0.0018854023655876517
576.0,0.0021263991948217154
640.0,0.0011599607532843947
704.0,0.0012830536579713225
768.0,0.001082603121176362
832.0,0.0003363664436619729
896.0,-0.001097751664929092
960.0,-0.0010884676594287157
1024.0,-0.0007119409274309874
1152.0,-0.000930667738430202
1280.0,-0.0021153301931917667
1408.0,-0.0020882096141576767
1536.0,-0.0011346369283273816
1664.0,-0.0010614254279062152
1792.0,-0.0010874368017539382
1920.0,-0.0011818234343081713
2048.0,-0.002447234932333231
2304.0,-0.0012344003189355135
2560.0,1.718963517305383e-06
2816.0,0.0007489402778446674
3072.0,0.0003480858285911381
3328.0,0.0015532581601291895
3584.0,0.000927302404306829
3840.0,-0.0010261543793603778
4096.0,-0.0010449859546497464
4608.0,-0.0007853893330320716
5120.0,-0.00011132708459626883
5632.0,-0.0015839887782931328
6144.0,-0.000846987240947783
6656.0,0.001149737392552197
7168.0,-0.0005540702259168029
7680.0,0.00048774402239359915
8192.0,0.005911988206207752
9216.0,-0.00017749863036442548
10240.0,-0.002722092904150486
11264.0,-0.00015020764840301126
12288.0,-0.004292622674256563
13312.0,-0.001728304079733789
14336.0,-0.0012586343800649047
end
