version,3.0
numOfCh,1
type,point
parent_name,2-cuts
ch_type,1_1
kcount,1
numberNandB,1
brightnessNandB,1
carpet pos,0
pc,0
Time (ms),CH1 Auto-Correlation
1.0,0.019698111340403557
2.0,0.019306495785713196
3.0,0.018924221396446228
4.0,0.018565908074378967
5.0,0.0182334054261446
6.0,0.01791961118578911
7.0,0.01761806197464466
8.0,0.017324840649962425
9.0,0.017030460759997368
10.0,0.016735807061195374
11.0,0.016450243070721626
12.0,0.016162605956196785
13.0,0.01588871143758297
14.0,0.015623711980879307
15.0,0.015360320918262005
16.0,0.015095308423042297
18.0,0.014599551446735859
20.0,0.014134136028587818
22.0,0.013711586594581604
24.0,0.01331094466149807
26.0,0.012949515134096146
28.0,0.012595303356647491
30.0,0.012250575236976147
32.0,0.011925742030143738
36.0,0.011320693418383598
40.0,0.010716615244746208
44.0,0.010084838606417179
48.0,0.009470200166106224
52.0,0.0088600292801857
56.0,0.008289387449622154
60.0,0.007809525355696678
64.0,0.007396049797534943
72.0,0.006709253415465355
80.0,0.006171155255287886
88.0,0.005632247310131788
96.0,0.005268875975161791
104.0,0.0049378578551113605
112.0,0.004698343575000763
120.0,0.0044154939241707325
128.0,0.00408864626660943
144.0,0.0038475184701383114
160.0,0.004042306914925575
176.0,0.003984776791185141
192.0,0.003738745581358671
208.0,0.003246970707550645
224.0,0.002657928504049778
240.0,0.0024457136169075966
256.0,0.002223171293735504
288.0,0.0017495868960395455
320.0,0.001580032054334879
352.0,0.0014573062071576715
384.0,0.0016184477135539055
416.0,0.002010949421674013
448.0,0.001737144310027361
480.0,0.001175698940642178
512.0,0.0011807234259322286
576.0,0.0011445513227954507
640.0,0.0006040068110451102
704.0,-0.0005492725758813322
768.0,-0.0017554683145135641
832.0,-0.0017042591935023665
896.0,-0.002018367638811469
960.0,-0.003158353501930833
1024.0,-0.0020152705255895853
1152.0,-0.0010498510673642159
1280.0,0.00021135069255251437
1408.0,0.00047570024617016315
1536.0,0.0003227134293410927
1664.0,-0.00010281051800120622
1792.0,0.003089054487645626
1920.0,0.002925081644207239
2048.0,0.001107380143366754
2304.0,0.0007113589090295136
2560.0,-0.000706984312273562
2816.0,-0.0017360326601192355
3072.0,-0.0016034962609410286
3328.0,-0.0015007200418040156
3584.0,0.00022601445380132645
3840.0,0.0005594445974566042
4096.0,0.0010064380476251245
4608.0,-0.0011681768810376525
5120.0,0.00014973703946452588
5632.0,0.0012104526394978166
6144.0,0.0002621313324198127
6656.0,-0.0013644011924043298
7168.0,0.0002555089595261961
7680.0,-0.0008829747093841434
8192.0,-0.0006926239002496004
9216.0,-0.0003606351383496076
10240.0,-0.0003322618722449988
11264.0,-0.0011752848513424397
12288.0,0.0011612274684011936
13312.0,-0.0016762780724093318
14336.0,0.0006782393902540207
end
