version,3.0
numOfCh,1
type,point
parent_name,2-cuts
ch_type,1_1
kcount,1
numberNandB,1
brightnessNandB,1
carpet pos,0
pc,0
Time (ms),CH1 Auto-Correlation
1.0,0.04870755597949028
2.0,0.047637272626161575
3.0,0.04657391458749771
4.0,0.04554983600974083
5.0,0.04453817382454872
6.0,0.043577756732702255
7.0,0.04263883829116821
8.0,0.04175971448421478
9.0,0.040893055498600006
10.0,0.04009425267577171
11.0,0.03932538628578186
12.0,0.03861187398433685
13.0,0.037919409573078156
14.0,0.037243764847517014
15.0,0.03659294545650482
16.0,0.03594323247671127
18.0,0.034731462597846985
20.0,0.03354739397764206
22.0,0.03237684443593025
24.0,0.03125113993883133
26.0,0.030170967802405357
28.0,0.029174817726016045
30.0,0.028222348541021347
32.0,0.027253443375229836
36.0,0.025316843762993813
40.0,0.02341260015964508
44.0,0.02151585929095745
48.0,0.019872216507792473
52.0,0.01840917021036148
56.0,0.01726399175822735
60.0,0.016311923041939735
64.0,0.015269128605723381
72.0,0.013484667986631393
80.0,0.011915219016373158
88.0,0.010297602973878384
96.0,0.008912627585232258
104.0,0.00795237347483635
112.0,0.0073165143840014935
120.0,0.006815616507083178
128.0,0.0066604469902813435
144.0,0.005942974705249071
160.0,0.005182267632335424
176.0,0.0036744819954037666
192.0,0.0019056223100051284
208.0,0.0013812679098919034
224.0,0.0022896321024745703
240.0,0.003245916683226824
256.0,0.0038122618570923805
288.0,0.004686572588980198
320.0,0.004410749766975641
352.0,0.0018867690814659
384.0,0.00048174435505643487
416.0,0.0014500597026199102
448.0,0.0028675440698862076
480.0,0.002356746466830373
512.0,0.001894970191642642
576.0,-8.161127334460616e-05
640.0,0.00012045510811731219
704.0,0.004261848982423544
768.0,0.006021249573677778
832.0,0.003125343471765518
896.0,0.001459710649214685
960.0,-0.00051710574189201
1024.0,-0.0015560290776193142
1152.0,-0.001785468659363687
1280.0,-0.0038744364865124226
1408.0,-0.004036355298012495
1536.0,-0.0047521465457975864
1664.0,-0.002173533197492361
1792.0,-0.0007139781955629587
1920.0,0.0006514957640320063
2048.0,0.0010955804027616978
2304.0,-0.0014905290445312858
2560.0,0.00032879479113034904
2816.0,0.0033160902094095945
3072.0,0.003476131707429886
3328.0,-0.002228288445621729
3584.0,0.0005051461630500853
3840.0,-0.0004790330131072551
4096.0,0.0025924784131348133
4608.0,0.001476528006605804
5120.0,-0.0010040940251201391
5632.0,0.001087710028514266
6144.0,-0.002040802501142025
6656.0,-0.00017660055891610682
7168.0,0.00021538858709391207
7680.0,-0.0017600477440282702
8192.0,-0.005110630299896002
9216.0,0.00106377515476197
10240.0,-0.0015927564818412066
11264.0,-0.0014294604770839214
12288.0,-0.0019825908821076155
13312.0,0.0016668513417243958
14336.0,-0.0027177075389772654
end
