version,3.0
numOfCh,1
type,point
parent_name,2-cuts
ch_type,1_1
kcount,1
numberNandB,1
brightnessNandB,1
carpet pos,0
pc,0
Time (ms),CH1 Auto-Correlation
1.0,0.022512348368763924
2.0,0.02212233655154705
3.0,0.02174077183008194
4.0,0.021370498463511467
5.0,0.02101578563451767
6.0,0.020675206556916237
7.0,0.020341921597719193
8.0,0.020009400323033333
9.0,0.019693301990628242
10.0,0.01940097287297249
11.0,0.01912582479417324
12.0,0.01886732131242752
13.0,0.018617676571011543
14.0,0.018372436985373497
15.0,0.018123894929885864
16.0,0.017887815833091736
18.0,0.017439059913158417
20.0,0.017004698514938354
22.0,0.016593199223279953
24.0,0.01620633713901043
26.0,0.015827784314751625
28.0,0.015473231673240662
30.0,0.01512963604182005
32.0,0.01480199210345745
36.0,0.01423465646803379
40.0,0.013727173209190369
44.0,0.013272288255393505
48.0,0.012909079901874065
52.0,0.012576556764543056
56.0,0.012248224578797817
60.0,0.011914961040019989
64.0,0.011595777235925198
72.0,0.011056984774768353
80.0,0.010545287281274796
88.0,0.009987235069274902
96.0,0.009462659247219563
104.0,0.009091016836464405
112.0,0.008758514188230038
120.0,0.008445736952126026
128.0,0.007930800318717957
144.0,0.0071312738582491875
160.0,0.006568536628037691
176.0,0.006039723288267851
192.0,0.005608411505818367
208.0,0.005116512533277273
224.0,0.004501474555581808
240.0,0.004508779849857092
256.0,0.004903663415461779
288.0,0.004955863580107689
320.0,0.004189695231616497
352.0,0.0035645896568894386
384.0,0.0037491493858397007
416.0,0.004544122610241175
448.0,0.004844559356570244
480.0,0.0049839988350868225
512.0,0.005429724231362343
576.0,0.006048737559467554
640.0,0.004863212816417217
704.0,0.004698580596596003
768.0,0.004065804183483124
832.0,0.00320589542388916
896.0,0.0018273888854309916
960.0,0.001483893021941185
1024.0,0.0009468997013755143
1152.0,0.002322676358744502
1280.0,0.0031100104097276926
1408.0,0.0015072490787133574
1536.0,-0.0004212035273667425
1664.0,-0.0007778799626976252
1792.0,-0.00026052724570035934
1920.0,0.0006528923404403031
2048.0,-0.0010417115408927202
2304.0,-0.00038750082603655756
2560.0,-0.0004670840862672776
2816.0,1.6710972658984247e-06
3072.0,-0.000186605189810507
3328.0,0.0002991897636093199
3584.0,0.0010264532174915075
3840.0,-0.0001471275754738599
4096.0,0.00106170738581568
4608.0,0.00015831565542612225
5120.0,-0.00038540526293218136
5632.0,-0.0006716222269460559
6144.0,-0.001187752466648817
6656.0,-0.002400157740339637
7168.0,-0.0024167457595467567
7680.0,-0.0019145408878102899
8192.0,-0.0012915530242025852
9216.0,-0.0014759283512830734
10240.0,-0.0020346008241176605
11264.0,-0.004520907998085022
12288.0,-0.0045404271222651005
13312.0,0.0006661888328380883
14336.0,0.0041177840903401375
end
