version,3.0
numOfCh,1
type,point
parent_name,2-cuts
ch_type,1_1
kcount,1
numberNandB,1
brightnessNandB,1
carpet pos,0
pc,0
Time (ms),CH1 Auto-Correlation
1.0,0.06709657609462738
2.0,0.0659094825387001
3.0,0.06476517021656036
4.0,0.06365330517292023
5.0,0.062580406665802
6.0,0.061543989926576614
7.0,0.060512613505125046
8.0,0.05951971188187599
9.0,0.05856518819928169
10.0,0.0576375275850296
11.0,0.056717682629823685
12.0,0.05583943426609039
13.0,0.05502348020672798
14.0,0.05424823611974716
15.0,0.05347169190645218
16.0,0.05269914120435715
18.0,0.05115092918276787
20.0,0.04966346547007561
22.0,0.048260580748319626
24.0,0.04696063697338104
26.0,0.04575399309396744
28.0,0.04456930235028267
30.0,0.04345734417438507
32.0,0.04243047907948494
36.0,0.04058123379945755
40.0,0.03905903920531273
44.0,0.03766070306301117
48.0,0.03630292788147926
52.0,0.03486655652523041
56.0,0.03346018120646477
60.0,0.032188259065151215
64.0,0.03089490719139576
72.0,0.028423035517334938
80.0,0.02613474801182747
88.0,0.024708764627575874
96.0,0.023559214547276497
104.0,0.022269319742918015
112.0,0.020733987912535667
120.0,0.019438188523054123
128.0,0.01867484115064144
144.0,0.01790619269013405
160.0,0.017571518197655678
176.0,0.01665489934384823
192.0,0.015253167599439621
208.0,0.013067034073174
224.0,0.011151416227221489
240.0,0.009916725568473339
256.0,0.009239258244633675
288.0,0.008584704250097275
320.0,0.008112474344670773
352.0,0.007235856726765633
384.0,0.005094022490084171
416.0,0.005369456950575113
448.0,0.0058614471927285194
480.0,0.005695631727576256
512.0,0.005224848166108131
576.0,0.0037078417371958494
640.0,0.0009410704369656742
704.0,0.0011766919633373618
768.0,0.0025179346557706594
832.0,0.00044019005144946277
896.0,-0.0007782349130138755
960.0,-0.0049447244964540005
1024.0,-0.007706552743911743
1152.0,-0.004773056134581566
1280.0,-0.0035811166744679213
1408.0,-0.0047919307835400105
1536.0,-0.008307740092277527
1664.0,-0.012376050464808941
1792.0,-0.016025908291339874
1920.0,-0.017402345314621925
2048.0,-0.008304012008011341
2304.0,-0.004144309554249048
2560.0,0.002085069427266717
2816.0,0.007190465461462736
3072.0,0.007798964157700539
3328.0,0.012486816383898258
3584.0,0.009684105403721333
3840.0,0.003061251249164343
4096.0,-0.003629670711234212
4608.0,-0.009483089670538902
5120.0,-0.010998744517564774
5632.0,0.0007755659753456712
6144.0,0.010192967019975185
6656.0,0.009309294633567333
7168.0,0.011374251917004585
7680.0,-0.007723530754446983
8192.0,-0.014183997176587582
9216.0,0.0002385782718192786
10240.0,-0.0005468303570523858
11264.0,-0.007803376764059067
12288.0,0.0026205943431705236
13312.0,0.008600998669862747
14336.0,-0.0029859754722565413
end
