version,3.0
numOfCh,1
type,point
parent_name,2-cuts
ch_type,1_1
kcount,1
numberNandB,1
brightnessNandB,1
carpet pos,0
pc,0
Time (ms),CH1 Auto-Correlation
1.0,0.019728248938918114
2.0,0.01934579387307167
3.0,0.01898145116865635
4.0,0.018635902553796768
5.0,0.018298005685210228
6.0,0.017962805926799774
7.0,0.0176392812281847
8.0,0.01732500083744526
9.0,0.017017126083374023
10.0,0.016718726605176926
11.0,0.016431715339422226
12.0,0.01615764945745468
13.0,0.015892930328845978
14.0,0.01563575118780136
15.0,0.015390307642519474
16.0,0.015143994241952896
18.0,0.014664980582892895
20.0,0.014214800670742989
22.0,0.013808857649564743
24.0,0.013444645330309868
26.0,0.013112233020365238
28.0,0.012786796316504478
30.0,0.012452488765120506
32.0,0.012106277048587799
36.0,0.011470799334347248
40.0,0.010847685858607292
44.0,0.010317744687199593
48.0,0.00983432400971651
52.0,0.009345396421849728
56.0,0.008854961954057217
60.0,0.00837481115013361
64.0,0.007887291721999645
72.0,0.006964143365621567
80.0,0.0062094745226204395
88.0,0.00559645751491189
96.0,0.0051096719689667225
104.0,0.004807457327842712
112.0,0.0046624052338302135
120.0,0.004521513823419809
128.0,0.004358981270343065
144.0,0.003724880050867796
160.0,0.003024714533239603
176.0,0.002342488616704941
192.0,0.002289361320436001
208.0,0.0022367071360349655
224.0,0.0019140151562169194
240.0,0.0020016280468553305
256.0,0.002085625659674406
288.0,0.0014451975002884865
320.0,0.0011561793508008122
352.0,0.00084556924412027
384.0,0.0006680693477392197
416.0,0.0007405949290841818
448.0,0.00045023096026852727
480.0,0.0003703540423884988
512.0,0.00021173800632823259
576.0,0.00043760694097727537
640.0,0.0008349121198989451
704.0,0.0009270320879295468
768.0,0.0007439591572619975
832.0,-5.511482595466077e-05
896.0,-0.000391296052839607
960.0,0.0004211102204862982
1024.0,0.00151060929056257
1152.0,0.0011772227007895708
1280.0,-0.00028632854809984565
1408.0,-0.000899862265214324
1536.0,-0.0004992624744772911
1664.0,-0.0010693471413105726
1792.0,-0.0010650272015482187
1920.0,-0.00024515000404790044
2048.0,-0.0009013327653519809
2304.0,0.0003331775951664895
2560.0,0.0014507162850350142
2816.0,0.001520802266895771
3072.0,0.0002619049628265202
3328.0,-0.001331449719145894
3584.0,3.8383899664040655e-05
3840.0,-0.000595443940255791
4096.0,-0.0004938489873893559
4608.0,-0.000595838122535497
5120.0,-0.0008285329677164555
5632.0,-0.0008999124402180314
6144.0,-0.0015894710086286068
6656.0,-0.0008308735559694469
7168.0,-0.0014579343842342496
7680.0,0.0005152162630110979
8192.0,-0.001278317766264081
9216.0,-0.0005099302507005632
10240.0,0.001749739982187748
11264.0,0.0009428155608475208
12288.0,-0.0004465821257326752
13312.0,0.0009772368939593434
14336.0,-0.0005784767563454807
end
