version,3.0
numOfCh,1
type,point
parent_name,2-cuts
ch_type,1_1
kcount,1
numberNandB,1
brightnessNandB,1
carpet pos,0
pc,0
Time (ms),CH1 Auto-Correlation
1.0,0.04254559427499771
2.0,0.04196230322122574
3.0,0.041399020701646805
4.0,0.04085910692811012
5.0,0.04035051539540291
6.0,0.03984573483467102
7.0,0.03935188800096512
8.0,0.03885950520634651
9.0,0.038384322077035904
10.0,0.03792627155780792
11.0,0.037501346319913864
12.0,0.037094566971063614
13.0,0.03669101372361183
14.0,0.03629917651414871
15.0,0.03591592609882355
16.0,0.03554094210267067
18.0,0.034836545586586
20.0,0.034165482968091965
22.0,0.03354213759303093
24.0,0.032938189804553986
26.0,0.03237353265285492
28.0,0.03184815123677254
30.0,0.03137834370136261
32.0,0.030944986268877983
36.0,0.03010435774922371
40.0,0.029276017099618912
44.0,0.028452597558498383
48.0,0.027578607201576233
52.0,0.026784297078847885
56.0,0.026119332760572433
60.0,0.025509823113679886
64.0,0.024893159046769142
72.0,0.02375767007470131
80.0,0.02270629070699215
88.0,0.02175578474998474
96.0,0.021010227501392365
104.0,0.02041635848581791
112.0,0.01983446627855301
120.0,0.01930193603038788
128.0,0.0187783632427454
144.0,0.017615536227822304
160.0,0.016560351476073265
176.0,0.01563514769077301
192.0,0.015529459342360497
208.0,0.015256740152835846
224.0,0.014701897278428078
240.0,0.014503230340778828
256.0,0.014279612340033054
288.0,0.014016848057508469
320.0,0.013611447997391224
352.0,0.013437447138130665
384.0,0.013475652784109116
416.0,0.012916908599436283
448.0,0.011991940438747406
480.0,0.011558878235518932
512.0,0.011819524690508842
576.0,0.010650184005498886
640.0,0.009119478054344654
704.0,0.007977640256285667
768.0,0.007938395254313946
832.0,0.007890475913882256
896.0,0.007204955909401178
960.0,0.005905535537749529
1024.0,0.0031927807722240686
1152.0,-0.0005243835039436817
1280.0,-0.0011830417206510901
1408.0,-0.0009882762096822262
1536.0,-0.0021326395217329264
1664.0,-0.005104544572532177
1792.0,-0.00483110174536705
1920.0,-0.0038536067586392164
2048.0,-0.0023414718452841043
2304.0,-0.0013469478581100702
2560.0,-0.002381877740845084
2816.0,-0.003288908861577511
3072.0,-0.0022350954823195934
3328.0,-0.002535114297643304
3584.0,-0.00531041668727994
3840.0,-0.003940604627132416
4096.0,-0.004573585465550423
4608.0,-0.0046653361059725285
5120.0,-0.0038812162820249796
5632.0,-0.004184943623840809
6144.0,-0.003961285576224327
6656.0,-0.004238408524543047
7168.0,-0.004051449242979288
7680.0,-0.005285122897475958
8192.0,-0.004930149298161268
9216.0,0.0036166179925203323
10240.0,0.013927844353020191
11264.0,0.0054464153945446014
12288.0,-0.006879572290927172
13312.0,0.006892374251037836
14336.0,0.004728076979517937
end
