version,3.0
numOfCh,1
type,point
parent_name,2-cuts
ch_type,1_1
kcount,1
numberNandB,1
brightnessNandB,1
carpet pos,0
pc,0
Time (ms),CH1 Auto-Correlation
1.0,0.022001992911100388
2.0,0.02161548286676407
3.0,0.021224981173872948
4.0,0.0208568274974823
5.0,0.020513903349637985
6.0,0.020177241414785385
7.0,0.01985875517129898
8.0,0.01955663040280342
9.0,0.019261708483099937
10.0,0.01895897276699543
11.0,0.01867680810391903
12.0,0.01840677484869957
13.0,0.018147991970181465
14.0,0.017905622720718384
15.0,0.01766730658710003
16.0,0.01743156835436821
18.0,0.01698046736419201
20.0,0.01655910536646843
22.0,0.016158435493707657
24.0,0.01577017270028591
26.0,0.015387265011668205
28.0,0.015008640475571156
30.0,0.014642485417425632
32.0,0.014297036454081535
36.0,0.01373295672237873
40.0,0.013211633078753948
44.0,0.012706516310572624
48.0,0.012247861362993717
52.0,0.01181432418525219
56.0,0.011405297555029392
60.0,0.011049862951040268
64.0,0.010709448717534542
72.0,0.010045677423477173
80.0,0.009482457302510738
88.0,0.008850635029375553
96.0,0.008239909075200558
104.0,0.007763314992189407
112.0,0.007401245180517435
120.0,0.0069771865382790565
128.0,0.006639988161623478
144.0,0.006042301654815674
160.0,0.005567318294197321
176.0,0.005384164396673441
192.0,0.005223297514021397
208.0,0.005078635178506374
224.0,0.0050481888465583324
240.0,0.004567672964185476
256.0,0.003907932434231043
288.0,0.0024987291544675827
320.0,0.0016053725266829133
352.0,0.0012738897930830717
384.0,0.0013526794500648975
416.0,0.0009335431386716664
448.0,0.0004221768758725375
480.0,0.00021964496409054846
512.0,0.0005882432451471686
576.0,0.00214827386662364
640.0,0.0025475665461272
704.0,0.001568332314491272
768.0,0.0017283943016082048
832.0,0.002064125146716833
896.0,0.001922539551742375
960.0,0.0016070989659056067
1024.0,0.0012701682280749083
1152.0,0.0014925808645784855
1280.0,0.0024220861960202456
1408.0,0.0030935255344957113
1536.0,0.0032459134235978127
1664.0,0.0029023652896285057
1792.0,0.0021834494546055794
1920.0,0.0017120324773713946
2048.0,0.0005250994581729174
2304.0,-0.0003263625258114189
2560.0,8.528175385436043e-05
2816.0,0.002826627343893051
3072.0,0.00012454681564122438
3328.0,-0.002521667629480362
3584.0,-0.0015688667772337794
3840.0,-0.0016457255696877837
4096.0,-0.0010370491072535515
4608.0,0.0008724161889404058
5120.0,6.93899200996384e-05
5632.0,-0.0007314300164580345
6144.0,0.0001961719972314313
6656.0,0.001915491302497685
7168.0,-0.0005474663921631873
7680.0,0.0012588422978296876
8192.0,-0.0003530325775500387
9216.0,-0.0011052784975618124
10240.0,-0.00473241088911891
11264.0,-0.004035373218357563
12288.0,-0.003700957167893648
13312.0,-0.003381511429324746
14336.0,-0.0005575139075517654
end
