version,3.0
numOfCh,1
type,point
parent_name,2-cuts
ch_type,1_1
kcount,1
numberNandB,1
brightnessNandB,1
carpet pos,0
pc,0
Time (ms),CH1 Auto-Correlation
1.0,0.0591653548181057
2.0,0.05784177407622337
3.0,0.05654444918036461
4.0,0.05530930683016777
5.0,0.05410298705101013
6.0,0.05294324830174446
7.0,0.05184226483106613
8.0,0.0507870577275753
9.0,0.0497715137898922
10.0,0.04881095141172409
11.0,0.04789428785443306
12.0,0.046984970569610596
13.0,0.046126484870910645
14.0,0.04530950263142586
15.0,0.044493526220321655
16.0,0.04368452727794647
18.0,0.042121920734643936
20.0,0.04061998054385185
22.0,0.039155855774879456
24.0,0.037718866020441055
26.0,0.03632083535194397
28.0,0.034996043890714645
30.0,0.03374294564127922
32.0,0.03258483484387398
36.0,0.030476538464426994
40.0,0.028606044128537178
44.0,0.027026521041989326
48.0,0.025783061981201172
52.0,0.024762295186519623
56.0,0.023732740432024002
60.0,0.02257661335170269
64.0,0.02157496102154255
72.0,0.020265009254217148
80.0,0.019190335646271706
88.0,0.018081795424222946
96.0,0.016902199015021324
104.0,0.01565459929406643
112.0,0.0148129528388381
120.0,0.014021364971995354
128.0,0.013298066332936287
144.0,0.011123403906822205
160.0,0.008771754801273346
176.0,0.007512093987315893
192.0,0.0067463223822414875
208.0,0.005633889231830835
224.0,0.0046704779379069805
240.0,0.004912614822387695
256.0,0.005135089624673128
288.0,0.006212799809873104
320.0,0.006963134743273258
352.0,0.003849536180496216
384.0,0.0024195171426981688
416.0,0.0009466913179494441
448.0,-0.0005544560845009983
480.0,-0.0017595727695152164
512.0,-0.0038883164525032043
576.0,-0.006567403208464384
640.0,-0.003041147720068693
704.0,-0.0018841676646843553
768.0,0.0011860220693051815
832.0,0.00029026210540905595
896.0,-0.003524130443111062
960.0,-0.004914112389087677
1024.0,-0.008135363459587097
1152.0,-0.0022470883559435606
1280.0,0.00010265088349115103
1408.0,0.0016083278460428119
1536.0,0.004116728901863098
1664.0,0.0034074357245117426
1792.0,0.001950919977389276
1920.0,0.004028655588626862
2048.0,0.006466527469456196
2304.0,-0.001357611152343452
2560.0,-0.004976867698132992
2816.0,-0.004812736064195633
3072.0,-0.003890071529895067
3328.0,-0.0013580501545220613
3584.0,0.003301074029877782
3840.0,0.0051962039433419704
4096.0,-0.001704920781776309
4608.0,-0.006591439247131348
5120.0,2.5444631319260225e-05
5632.0,0.003469929564744234
6144.0,-0.0004498123307712376
6656.0,-0.002286088652908802
7168.0,0.005335519090294838
7680.0,0.004161518532782793
8192.0,-0.004485021345317364
9216.0,-0.0009662218508310616
10240.0,-0.004359351471066475
11264.0,0.0011301435297355056
12288.0,-0.0031597912311553955
13312.0,0.0006126947118900716
14336.0,0.012911922298371792
end
