version,3.0
numOfCh,1
type,point
parent_name,2-cuts
ch_type,1_1
kcount,1
numberNandB,1
brightnessNandB,1
carpet pos,0
pc,0
Time (ms),CH1 Auto-Correlation
1.0,0.024455709382891655
2.0,0.024075498804450035
3.0,0.02372017502784729
4.0,0.02337508089840412
5.0,0.023040754720568657
6.0,0.022712532430887222
7.0,0.022391583770513535
8.0,0.022065389901399612
9.0,0.02176031842827797
10.0,0.021473240107297897
11.0,0.021194932982325554
12.0,0.020907724276185036
13.0,0.020634951069951057
14.0,0.020372405648231506
15.0,0.02011607587337494
16.0,0.019857225939631462
18.0,0.019348328933119774
20.0,0.018860112875699997
22.0,0.018356533721089363
24.0,0.01788262091577053
26.0,0.017444094642996788
28.0,0.017004888504743576
30.0,0.0165704395622015
32.0,0.016164397820830345
36.0,0.015433048829436302
40.0,0.01482114102691412
44.0,0.014245256781578064
48.0,0.013692835345864296
52.0,0.013164921663701534
56.0,0.012659776955842972
60.0,0.012198920361697674
64.0,0.011759850196540356
72.0,0.010998588986694813
80.0,0.010320897214114666
88.0,0.009743242524564266
96.0,0.009183592163026333
104.0,0.008658599108457565
112.0,0.008260741829872131
120.0,0.00799613632261753
128.0,0.007745187729597092
144.0,0.007279933895915747
160.0,0.007007888052612543
176.0,0.006844650022685528
192.0,0.006632440257817507
208.0,0.005784346256405115
224.0,0.005140238907188177
240.0,0.004973790608346462
256.0,0.004973959643393755
288.0,0.004710574168711901
320.0,0.004019903019070625
352.0,0.0026507277507334948
384.0,0.0016679471591487527
416.0,0.0009844359010457993
448.0,0.0008528303587809205
480.0,0.0005986090400256217
512.0,0.0006336861988529563
576.0,0.0009333871421404183
640.0,0.0006006006733514369
704.0,-0.0007934460882097483
768.0,-0.000997598166577518
832.0,-0.0014337680768221617
896.0,-0.0022411635145545006
960.0,-0.002148689702153206
1024.0,-0.00037697170046158135
1152.0,-0.0015757358632981777
1280.0,-0.001249041990377009
1408.0,-0.0013108272105455399
1536.0,-0.0008936319500207901
1664.0,-0.0007825204520486295
1792.0,-0.0014501488767564297
1920.0,-0.0024785541463643312
2048.0,-0.0023603863082826138
2304.0,-0.0027863066643476486
2560.0,-0.0026694252155721188
2816.0,0.0005131098441779613
3072.0,0.002428750041872263
3328.0,0.00013532851880881935
3584.0,-0.0024943361058831215
3840.0,-0.0016390098026022315
4096.0,-0.0004716206749435514
4608.0,-0.0016433774726465344
5120.0,-0.002917614998295903
5632.0,0.0007396875298582017
6144.0,0.00647322041913867
6656.0,0.0006876179249957204
7168.0,0.0012555206194519997
7680.0,0.0011812467128038406
8192.0,-0.0020918194204568863
9216.0,-0.0010837767040356994
10240.0,0.00031001746538095176
11264.0,-0.00037046769284643233
12288.0,-9.145554213318974e-05
13312.0,0.0014020235976204276
14336.0,-0.0011749762343242764
end
