version,3.0
numOfCh,1
type,point
parent_name,2-cuts
ch_type,1_1
kcount,1
numberNandB,1
brightnessNandB,1
carpet pos,0
pc,0
Time (ms),CH1 Auto-Correlation
1.0,0.03431004285812378
2.0,0.03372856602072716
3.0,0.033171750605106354
4.0,0.03264734521508217
5.0,0.03212359547615051
6.0,0.031604573130607605
7.0,0.031086577102541924
8.0,0.030577583238482475
9.0,0.030085239559412003
10.0,0.029601339250802994
11.0,0.029134858399629593
12.0,0.028687894344329834
13.0,0.02823660336434841
14.0,0.027807990089058876
15.0,0.02739085629582405
16.0,0.026986872777342796
18.0,0.026177342981100082
20.0,0.025409171357750893
22.0,0.024669727310538292
24.0,0.023955337703227997
26.0,0.023318065330386162
28.0,0.022729117423295975
30.0,0.02218150533735752
32.0,0.02169818803668022
36.0,0.0207448061555624
40.0,0.01987549662590027
44.0,0.019061585888266563
48.0,0.018350567668676376
52.0,0.017718592658638954
56.0,0.017117388546466827
60.0,0.016538850963115692
64.0,0.01602877303957939
72.0,0.0151156485080719
80.0,0.014432556927204132
88.0,0.013805032707750797
96.0,0.013118078000843525
104.0,0.012497731484472752
112.0,0.01187127735465765
120.0,0.01130324974656105
128.0,0.010720568709075451
144.0,0.009586190804839134
160.0,0.008477500639855862
176.0,0.007567396853119135
192.0,0.006794628221541643
208.0,0.006005346309393644
224.0,0.005116541404277086
240.0,0.0038593446370214224
256.0,0.0025464054197072983
288.0,0.0009228744311258197
320.0,0.0005460160318762064
352.0,-0.0002525527961552143
384.0,-0.0011711081024259329
416.0,-0.0011790890712291002
448.0,-0.0010066254762932658
480.0,-0.0004846029041800648
512.0,-4.442560748429969e-05
576.0,-0.0009768244344741106
640.0,-0.0003475686826277524
704.0,-0.0005073006614111364
768.0,-0.0005624271580018103
832.0,0.00020783202489838004
896.0,0.0016214072238653898
960.0,0.0016892732819542289
1024.0,0.0035129240714013577
1152.0,0.003006099257618189
1280.0,0.0012474500108510256
1408.0,-0.0034234588965773582
1536.0,-0.004593579098582268
1664.0,-0.002495391294360161
1792.0,-0.0008668550290167332
1920.0,-0.0011215603444725275
2048.0,-0.0003041541203856468
2304.0,-0.0009929373627528548
2560.0,-0.0008384122047573328
2816.0,-0.0010259243426844478
3072.0,-0.0014362233923748136
3328.0,0.00041693553794175386
3584.0,-0.001160555169917643
3840.0,-0.002740489784628153
4096.0,0.002354541327804327
4608.0,-0.0011419164948165417
5120.0,0.0007428288226947188
5632.0,-0.0008905568975023925
6144.0,0.004803826101124287
6656.0,0.003040942130610347
7168.0,0.0013550895964726806
7680.0,7.33219349058345e-05
8192.0,-0.0018864681478589773
9216.0,-0.002991352928802371
10240.0,-0.001448006951250136
11264.0,-0.0033686317037791014
12288.0,0.0011229185620322824
13312.0,0.004829405806958675
14336.0,-0.005237078294157982
end
