version,3.0
numOfCh,1
type,point
parent_name,2-cuts
ch_type,1_1
kcount,1
numberNandB,1
brightnessNandB,1
carpet pos,0
pc,0
Time (ms),CH1 Auto-Correlation
1.0,0.06571852415800095
2.0,0.06458525359630585
3.0,0.06351672857999802
4.0,0.062459319829940796
5.0,0.06144962087273598
6.0,0.0604635626077652
7.0,0.05946747213602066
8.0,0.058517374098300934
9.0,0.057573746889829636
10.0,0.05663884058594704
11.0,0.05574660375714302
12.0,0.05490053817629814
13.0,0.054073516279459
14.0,0.05330704152584076
15.0,0.05258559808135033
16.0,0.05184782296419144
18.0,0.05050281062722206
20.0,0.04924870282411575
22.0,0.04803071543574333
24.0,0.046885814517736435
26.0,0.04573168605566025
28.0,0.044602252542972565
30.0,0.04352465271949768
32.0,0.042505089193582535
36.0,0.040588438510894775
40.0,0.03894660621881485
44.0,0.03739314153790474
48.0,0.035835251212120056
52.0,0.03454224392771721
56.0,0.033499229699373245
60.0,0.03257891908288002
64.0,0.031663764268159866
72.0,0.029614709317684174
80.0,0.02735903486609459
88.0,0.025545449927449226
96.0,0.024257780984044075
104.0,0.023118527606129646
112.0,0.02160649560391903
120.0,0.019623322412371635
128.0,0.017955664545297623
144.0,0.01637340523302555
160.0,0.014865460805594921
176.0,0.013300127349793911
192.0,0.012715895660221577
208.0,0.01294510718435049
224.0,0.01310799177736044
240.0,0.012126502580940723
256.0,0.01176948007196188
288.0,0.010664028115570545
320.0,0.008033914491534233
352.0,0.007603044155985117
384.0,0.008521842770278454
416.0,0.009478352963924408
448.0,0.010315618477761745
480.0,0.010401381179690361
512.0,0.010996688157320023
576.0,0.009519197978079319
640.0,0.009745406918227673
704.0,0.007115756161510944
768.0,0.004432851914316416
832.0,0.0021840950939804316
896.0,0.001142477267421782
960.0,0.002988464431837201
1024.0,0.0033675560262054205
1152.0,0.001890764688141644
1280.0,0.004016604740172625
1408.0,0.0006214356399141252
1536.0,0.0004082248779013753
1664.0,-0.0009664769750088453
1792.0,-0.002205569064244628
1920.0,-0.0035468749701976776
2048.0,-0.002395844319835305
2304.0,-0.0009887219639495015
2560.0,-0.0033858376555144787
2816.0,0.0018183679785579443
3072.0,0.005692831240594387
3328.0,0.007429766468703747
3584.0,0.00803828239440918
3840.0,0.003514854470267892
4096.0,-0.0004129200824536383
4608.0,-0.006256630178540945
5120.0,-0.009306712076067924
5632.0,-0.01336496602743864
6144.0,-0.007448852527886629
6656.0,-0.002088134875521064
7168.0,-0.004003874026238918
7680.0,-0.005749610252678394
8192.0,-0.002802032046020031
9216.0,-0.011306540109217167
10240.0,0.006356493104249239
11264.0,0.010487280786037445
12288.0,0.0033117185812443495
13312.0,0.00768418051302433
14336.0,0.002116686198860407
end
