version,3.0
numOfCh,1
type,point
parent_name,2-cuts
ch_type,1_1
kcount,1
numberNandB,1
brightnessNandB,1
carpet pos,0
pc,0
Time (ms),CH1 Auto-Correlation
1.0,0.03196442499756813
2.0,0.0313665047287941
3.0,0.030781753361225128
4.0,0.03021201677620411
5.0,0.029633281752467155
6.0,0.029074115678668022
7.0,0.028526820242404938
8.0,0.027988241985440254
9.0,0.027453329414129257
10.0,0.026950016617774963
11.0,0.026475679129362106
12.0,0.02601201832294464
13.0,0.02556261047720909
14.0,0.025147154927253723
15.0,0.024733934551477432
16.0,0.02433592639863491
18.0,0.02357487753033638
20.0,0.022832201793789864
22.0,0.022108806297183037
24.0,0.021404994651675224
26.0,0.02076091431081295
28.0,0.020164866000413895
30.0,0.01964452490210533
32.0,0.01918945461511612
36.0,0.018365155905485153
40.0,0.017526045441627502
44.0,0.016772689297795296
48.0,0.016109729185700417
52.0,0.015538313426077366
56.0,0.015057853423058987
60.0,0.014568294398486614
64.0,0.014021775685250759
72.0,0.012820606119930744
80.0,0.011627267114818096
88.0,0.010533121414482594
96.0,0.009417476132512093
104.0,0.008566232398152351
112.0,0.008070146664977074
120.0,0.007640474010258913
128.0,0.007285255007445812
144.0,0.0071658967062830925
160.0,0.0069202217273414135
176.0,0.006662094034254551
192.0,0.00624836003407836
208.0,0.0060442290268838406
224.0,0.005984112154692411
240.0,0.005832525435835123
256.0,0.005425126291811466
288.0,0.0051488326862454414
320.0,0.00495845777913928
352.0,0.0051747583784163
384.0,0.0045454842038452625
416.0,0.00475343456491828
448.0,0.004153672140091658
480.0,0.003672258462756872
512.0,0.0021291873417794704
576.0,0.001304212142713368
640.0,0.0018924546893686056
704.0,0.002441847464069724
768.0,0.0017096643568947911
832.0,-0.0006660250946879387
896.0,-0.001366297248750925
960.0,4.91993450850714e-05
1024.0,-0.00025161239318549633
1152.0,-0.0005607593921013176
1280.0,-0.0038127524312585592
1408.0,-0.004641843494027853
1536.0,-0.0048673441633582115
1664.0,-0.0035497290082275867
1792.0,-0.001972340513020754
1920.0,-0.003573423018679023
2048.0,-0.0035349770914763212
2304.0,0.000288489944068715
2560.0,0.0019387854263186455
2816.0,0.0028467634692788124
3072.0,0.0016524398233741522
3328.0,0.0025547088589519262
3584.0,0.0035336026921868324
3840.0,-0.00039281314820982516
4096.0,-0.0018189718248322606
4608.0,-0.00399633776396513
5120.0,-0.0041000149212777615
5632.0,0.0003354196378495544
6144.0,0.0006082062027417123
6656.0,0.001746094785630703
7168.0,-0.0029400759376585484
7680.0,-0.003652381943538785
8192.0,-0.002662042388692498
9216.0,0.004529452417045832
10240.0,2.047126145043876e-06
11264.0,-0.004796516615897417
12288.0,0.006900060921907425
13312.0,-0.0004097899072803557
14336.0,-0.008502050302922726
end
