version,3.0
numOfCh,1
type,point
parent_name,2-cuts
ch_type,1_1
kcount,1
numberNandB,1
brightnessNandB,1
carpet pos,0
pc,0
Time (ms),CH1 Auto-Correlation
1.0,0.020036742091178894
2.0,0.019664529711008072
3.0,0.019310835748910904
4.0,0.018973050639033318
5.0,0.01864110305905342
6.0,0.01830517314374447
7.0,0.01798711158335209
8.0,0.017683299258351326
9.0,0.01738610491156578
10.0,0.017100907862186432
11.0,0.0168166421353817
12.0,0.01653406396508217
13.0,0.016246847808361053
14.0,0.015963006764650345
15.0,0.015689339488744736
16.0,0.015409250743687153
18.0,0.014875240623950958
20.0,0.014353048987686634
22.0,0.013852872885763645
24.0,0.013380240648984909
26.0,0.012919382192194462
28.0,0.012472803704440594
30.0,0.012079441919922829
32.0,0.011733311228454113
36.0,0.011102879419922829
40.0,0.010527357459068298
44.0,0.010042822919785976
48.0,0.009581655263900757
52.0,0.009085580706596375
56.0,0.008600791916251183
60.0,0.00817659217864275
64.0,0.007788483053445816
72.0,0.007012727204710245
80.0,0.006244846619665623
88.0,0.00558150140568614
96.0,0.004974042531102896
104.0,0.004534839652478695
112.0,0.004146950785070658
120.0,0.003784640459343791
128.0,0.0035414097364991903
144.0,0.002946946071460843
160.0,0.002192617626860738
176.0,0.0015912242233753204
192.0,0.000980678596533835
208.0,0.0003063340554945171
224.0,3.2774998544482514e-05
240.0,-0.00017834975733421743
256.0,-0.00012580007023643702
288.0,0.00043370513594709337
320.0,0.0005503167049027979
352.0,0.00033845132566057146
384.0,0.0007336718845181167
416.0,0.0015344140119850636
448.0,0.001657853601500392
480.0,0.0008993949159048498
512.0,2.3700367819401436e-05
576.0,-0.0005721826455555856
640.0,-0.001000829041004181
704.0,-0.0006139280158095062
768.0,0.0011826904956251383
832.0,0.0015437222318723798
896.0,0.0013821976026520133
960.0,9.453744860365987e-05
1024.0,-0.0017259297892451286
1152.0,-0.0022787326015532017
1280.0,-0.0010244662407785654
1408.0,-0.00041312043322250247
1536.0,0.0007169313612394035
1664.0,8.76904305187054e-05
1792.0,-0.002394723705947399
1920.0,-0.0023166837636381388
2048.0,-0.0019086695974692702
2304.0,-0.0003532797272782773
2560.0,-0.0006248948629945517
2816.0,-0.0013691866770386696
3072.0,0.00038670856156386435
3328.0,-0.00027559397858567536
3584.0,0.0015456968685612082
3840.0,0.0014430981827899814
4096.0,0.0005041405675001442
4608.0,0.0002619195729494095
5120.0,0.0022422547917813063
5632.0,-0.0007142173708416522
6144.0,-0.0027082664892077446
6656.0,-0.0009002526057884097
7168.0,-0.0008223465993069112
7680.0,0.002209020545706153
8192.0,0.0006243051611818373
9216.0,-0.00035660743014886975
10240.0,-0.0013107017148286104
11264.0,-0.0001552723697386682
12288.0,0.0012071235105395317
13312.0,0.0003802807186730206
14336.0,-0.001637915032915771
end
