version,3.0
numOfCh,1
type,point
parent_name,2-cuts
ch_type,1_1
kcount,1
numberNandB,1
brightnessNandB,1
carpet pos,0
pc,0
Time (ms),CH1 Auto-Correlation
1.0,0.030325766652822495
2.0,0.02972225286066532
3.0,0.029148899018764496
4.0,0.028569843620061874
5.0,0.02800820954144001
6.0,0.027485361322760582
7.0,0.026988035067915916
8.0,0.026516143232584
9.0,0.026064326986670494
10.0,0.025622224435210228
11.0,0.02518843114376068
12.0,0.024779269471764565
13.0,0.02438003569841385
14.0,0.02397996000945568
15.0,0.023588204756379128
16.0,0.023214826360344887
18.0,0.022485975176095963
20.0,0.02181325852870941
22.0,0.021157655864953995
24.0,0.020520102232694626
26.0,0.019920341670513153
28.0,0.019330278038978577
30.0,0.01875617541372776
32.0,0.018205415457487106
36.0,0.017235632985830307
40.0,0.016297046095132828
44.0,0.015337278135120869
48.0,0.014477893710136414
52.0,0.013736285269260406
56.0,0.013042488135397434
60.0,0.012374171055853367
64.0,0.01169932633638382
72.0,0.010612781159579754
80.0,0.009753471240401268
88.0,0.008983857929706573
96.0,0.008354103192687035
104.0,0.007681277114897966
112.0,0.006947995163500309
120.0,0.00649624690413475
128.0,0.006356320343911648
144.0,0.005737387575209141
160.0,0.0050497460179030895
176.0,0.004526684992015362
192.0,0.003977639600634575
208.0,0.003281590063124895
224.0,0.0027727328706532717
240.0,0.0025696945376694202
256.0,0.002549426630139351
288.0,0.0031515720766037703
320.0,0.003359618131071329
352.0,0.0029749679379165173
384.0,0.0020410397555679083
416.0,0.0008433966431766748
448.0,-0.00011410764273023233
480.0,-0.0008513552020303905
512.0,-0.0010394509881734848
576.0,-0.001989303855225444
640.0,-0.002104294952005148
704.0,-0.00017067822045646608
768.0,0.0005071277846582234
832.0,0.0012459605932235718
896.0,0.0016307187033817172
960.0,0.001292984583415091
1024.0,0.0014817335177212954
1152.0,0.001286796061322093
1280.0,0.0021095615811645985
1408.0,0.0020658783614635468
1536.0,0.003180283820256591
1664.0,0.003053197870030999
1792.0,0.002974917646497488
1920.0,0.0015539635205641389
2048.0,0.0009333778289146721
2304.0,0.0012515720445662737
2560.0,0.0037605492398142815
2816.0,0.0033590574748814106
3072.0,0.0005321340868249536
3328.0,-0.002021586988121271
3584.0,-0.0017893594922497869
3840.0,-0.001039093709550798
4096.0,0.0011371906148269773
4608.0,-0.001120743341743946
5120.0,-0.000779236142989248
5632.0,-0.00172339694108814
6144.0,-0.005558593198657036
6656.0,0.00030801023240201175
7168.0,-0.001608205260708928
7680.0,-0.0047282506711781025
8192.0,-0.001668289303779602
9216.0,-0.00043757917592301965
10240.0,-0.0022364570759236813
11264.0,0.0015425168676301837
12288.0,0.002289016265422106
13312.0,-0.001542530837468803
14336.0,0.004312837030738592
end
