version,3.0
numOfCh,1
type,point
parent_name,2-cuts
ch_type,1_1
kcount,1
numberNandB,1
brightnessNandB,1
carpet pos,0
pc,0
Time (ms),CH1 Auto-Correlation
1.0,0.023251010105013847
2.0,0.02286677435040474
3.0,0.02249758131802082
4.0,0.0221512820571661
5.0,0.02181505598127842
6.0,0.021484194323420525
7.0,0.021173546090722084
8.0,0.02087780088186264
9.0,0.020590338855981827
10.0,0.02030530571937561
11.0,0.020022844895720482
12.0,0.019732486456632614
13.0,0.01944354921579361
14.0,0.019169997423887253
15.0,0.018918553367257118
16.0,0.01867697387933731
18.0,0.018222268670797348
20.0,0.01776784099638462
22.0,0.017321694642305374
24.0,0.01690051332116127
26.0,0.016489684581756592
28.0,0.01610323041677475
30.0,0.015756355598568916
32.0,0.015439633280038834
36.0,0.014857711270451546
40.0,0.014330578036606312
44.0,0.013894250616431236
48.0,0.013469677418470383
52.0,0.013066957704722881
56.0,0.01268819160759449
60.0,0.01235839631408453
64.0,0.01208635326474905
72.0,0.011419299058616161
80.0,0.010725977830588818
88.0,0.010108228772878647
96.0,0.009636292234063148
104.0,0.009348968043923378
112.0,0.0091332346200943
120.0,0.00897146388888359
128.0,0.00878158863633871
144.0,0.008311765268445015
160.0,0.007837229408323765
176.0,0.0075257825665175915
192.0,0.0072485292330384254
208.0,0.007033262401819229
224.0,0.006922529079020023
240.0,0.006722067017108202
256.0,0.00650829216465354
288.0,0.006636662874370813
320.0,0.005919481627643108
352.0,0.005124660674482584
384.0,0.004770112689584494
416.0,0.005490584298968315
448.0,0.005803303327411413
480.0,0.0060686636716127396
512.0,0.006274254992604256
576.0,0.00629347562789917
640.0,0.005966657772660255
704.0,0.006154356058686972
768.0,0.005763796623796225
832.0,0.004996967036277056
896.0,0.005132667720317841
960.0,0.004365198779851198
1024.0,0.003138143103569746
1152.0,0.003136050421744585
1280.0,0.0037396412808448076
1408.0,0.004742594435811043
1536.0,0.003889738116413355
1664.0,0.00326279504224658
1792.0,0.0028521032072603703
1920.0,0.0036116470582783222
2048.0,0.0023977612145245075
2304.0,0.0009728465811349452
2560.0,5.403305476647802e-05
2816.0,0.00013134449545759708
3072.0,-0.0008753709262236953
3328.0,-0.0016368329524993896
3584.0,-0.001035112771205604
3840.0,-0.0037415397819131613
4096.0,-0.004441702738404274
4608.0,-0.006959079299122095
5120.0,-0.005778349470347166
5632.0,-0.0025626802816987038
6144.0,-0.0035175904631614685
6656.0,-0.003851150395348668
7168.0,-0.0011834988836199045
7680.0,-0.00031287531601265073
8192.0,-0.0012389632174745202
9216.0,0.0056451186537742615
10240.0,0.0018303244141861796
11264.0,0.0009808765025809407
12288.0,-0.0010980425868183374
13312.0,-0.007820796221494675
14336.0,-0.00918368250131607
end
