version,3.0
numOfCh,1
type,point
parent_name,2-cuts
ch_type,1_1
kcount,1
numberNandB,1
brightnessNandB,1
carpet pos,0
pc,0
Time (ms),CH1 Auto-Correlation
1.0,0.032351814210414886
2.0,0.03177603706717491
3.0,0.03122023306787014
4.0,0.030695978552103043
5.0,0.030208755284547806
6.0,0.029734380543231964
7.0,0.02928255870938301
8.0,0.02883860655128956
9.0,0.02841450460255146
10.0,0.027989665046334267
11.0,0.027570808306336403
12.0,0.027162453159689903
13.0,0.026743082329630852
14.0,0.026345467194914818
15.0,0.02596428245306015
16.0,0.025583697482943535
18.0,0.024885058403015137
20.0,0.024230921640992165
22.0,0.023631129413843155
24.0,0.023054368793964386
26.0,0.02247987501323223
28.0,0.021914605051279068
30.0,0.02137354388833046
32.0,0.020875651389360428
36.0,0.01995033025741577
40.0,0.019128063693642616
44.0,0.018313582986593246
48.0,0.01754395291209221
52.0,0.016808081418275833
56.0,0.01615002378821373
60.0,0.015613832511007786
64.0,0.015052786096930504
72.0,0.013993440195918083
80.0,0.013060652650892735
88.0,0.01219378411769867
96.0,0.011449017561972141
104.0,0.010882899165153503
112.0,0.01021378394216299
120.0,0.00955447368323803
128.0,0.009009587578475475
144.0,0.007964923977851868
160.0,0.00666127959266305
176.0,0.005122694652527571
192.0,0.003972931299358606
208.0,0.0033391513861715794
224.0,0.0027912789955735207
240.0,0.0023680799640715122
256.0,0.0015376629307866096
288.0,0.0004409958200994879
320.0,-0.00028403563192114234
352.0,-0.001295534078963101
384.0,-0.0020189641509205103
416.0,-0.0017482569674029946
448.0,-0.0005481478874571621
480.0,0.000812981859780848
512.0,0.0010495793540030718
576.0,8.537260146113113e-05
640.0,-0.0028066292870789766
704.0,-0.003611489664763212
768.0,-0.0028856717981398106
832.0,-0.0010087040718644857
896.0,0.0005202878382988274
960.0,0.0017171157523989677
1024.0,0.00308864563703537
1152.0,0.0010379698360338807
1280.0,-0.0004506419936660677
1408.0,-0.0024359419476240873
1536.0,-0.002616584300994873
1664.0,-0.004293851554393768
1792.0,-0.0023953099735081196
1920.0,-0.0025637533981353045
2048.0,0.0010608009761199355
2304.0,0.001299773110076785
2560.0,-0.0030648938845843077
2816.0,-0.0022108950652182102
3072.0,0.0005601156153716147
3328.0,0.0009660156210884452
3584.0,-0.0045225778594613075
3840.0,-0.002296408638358116
4096.0,0.0013539204373955727
4608.0,0.002614166121929884
5120.0,-0.00016173043695744127
5632.0,-0.000471283943625167
6144.0,-0.0020084662828594446
6656.0,-0.0009166041854768991
7168.0,-0.0002410539600532502
7680.0,-0.0004932155134156346
8192.0,-0.0009215172613039613
9216.0,0.0016739253187552094
10240.0,-0.002900043036788702
11264.0,0.0018004160374403
12288.0,0.0016374440165236592
13312.0,-0.002347085392102599
14336.0,0.0021256301552057266
end
