version,3.0
numOfCh,1
type,point
parent_name,2-cuts
ch_type,1_1
kcount,1
numberNandB,1
brightnessNandB,1
carpet pos,0
pc,0
Time (ms),CH1 Auto-Correlation
1.0,0.0582321472465992
2.0,0.05710359662771225
3.0,0.05603302642703056
4.0,0.05498438701033592
5.0,0.053964175283908844
6.0,0.05301525816321373
7.0,0.0520876906812191
8.0,0.051181547343730927
9.0,0.050316594541072845
10.0,0.049493055790662766
11.0,0.048689596354961395
12.0,0.04789238050580025
13.0,0.04714317247271538
14.0,0.04641048237681389
15.0,0.04568983241915703
16.0,0.045014843344688416
18.0,0.043712444603443146
20.0,0.04242917522788048
22.0,0.041192676872015
24.0,0.040029339492321014
26.0,0.03897034376859665
28.0,0.03795440495014191
30.0,0.03696678951382637
32.0,0.03601444512605667
36.0,0.03427552804350853
40.0,0.032640378922224045
44.0,0.031057333573698997
48.0,0.029546348378062248
52.0,0.028216052800416946
56.0,0.02702726423740387
60.0,0.02575943060219288
64.0,0.024648332968354225
72.0,0.02286476269364357
80.0,0.021309994161128998
88.0,0.01973194256424904
96.0,0.018357014283537865
104.0,0.017198482528328896
112.0,0.016091322526335716
120.0,0.01503432635217905
128.0,0.013858802616596222
144.0,0.011811381205916405
160.0,0.010166534222662449
176.0,0.009591154754161835
192.0,0.009595241397619247
208.0,0.01049252413213253
224.0,0.011023174040019512
240.0,0.010310664772987366
256.0,0.008967704139649868
288.0,0.006985412910580635
320.0,0.007992412894964218
352.0,0.009695934131741524
384.0,0.009650547988712788
416.0,0.007996643893420696
448.0,0.005839650519192219
480.0,0.0033047497272491455
512.0,0.0017426260747015476
576.0,0.000742869102396071
640.0,-0.0010141449747607112
704.0,-0.0025879971217364073
768.0,-0.00032802767236717045
832.0,0.0019860549364238977
896.0,-0.0034912654664367437
960.0,-0.006431407295167446
1024.0,-0.005929014645516872
1152.0,-0.0019543026573956013
1280.0,0.0019500914495438337
1408.0,-0.0001905618264572695
1536.0,-0.0018639919580891728
1664.0,-0.002896165242418647
1792.0,-0.004833105951547623
1920.0,-0.002321685431525111
2048.0,-0.0013043659273535013
2304.0,0.0006750348256900907
2560.0,0.004754945170134306
2816.0,0.0005264183855615556
3072.0,-0.0006486790953204036
3328.0,-0.0006257209461182356
3584.0,-0.0007380424067378044
3840.0,0.0020336031448096037
4096.0,0.0021866466850042343
4608.0,0.0023395302705466747
5120.0,0.0031790100038051605
5632.0,-0.0011699094902724028
6144.0,-0.004921482410281897
6656.0,-0.0073612225241959095
7168.0,-0.003114568768069148
7680.0,0.0002455970970913768
8192.0,0.0016876795561984181
9216.0,-0.004655074793845415
10240.0,0.0007045790553092957
11264.0,-0.0037088135723024607
12288.0,-0.002242494374513626
13312.0,-0.0008424014085903764
14336.0,-0.0005940873525105417
end
