version,3.0
numOfCh,1
type,point
parent_name,2-cuts
ch_type,1_1
kcount,1
numberNandB,1
brightnessNandB,1
carpet pos,0
pc,0
Time (ms),CH1 Auto-Correlation
1.0,0.027805685997009277
2.0,0.027209583669900894
3.0,0.026632171124219894
4.0,0.02607991173863411
5.0,0.02555595338344574
6.0,0.02504393644630909
7.0,0.02455444633960724
8.0,0.02408580482006073
9.0,0.023635128512978554
10.0,0.023227466270327568
11.0,0.022845659404993057
12.0,0.022477127611637115
13.0,0.02213129773736
14.0,0.021789994090795517
15.0,0.02147207036614418
16.0,0.02116572856903076
18.0,0.020587584003806114
20.0,0.020019689574837685
22.0,0.019482407718896866
24.0,0.018954165279865265
26.0,0.018411358818411827
28.0,0.017890240997076035
30.0,0.01739184930920601
32.0,0.01691371016204357
36.0,0.016025103628635406
40.0,0.015245998278260231
44.0,0.014593909494578838
48.0,0.01394687034189701
52.0,0.013296401128172874
56.0,0.012737439014017582
60.0,0.012235008180141449
64.0,0.011764618568122387
72.0,0.010938914492726326
80.0,0.01027363445609808
88.0,0.009501459077000618
96.0,0.008799795061349869
104.0,0.008037337101995945
112.0,0.007405145559459925
120.0,0.0069460272789001465
128.0,0.006528629455715418
144.0,0.006065794732421637
160.0,0.005725877359509468
176.0,0.004796614404767752
192.0,0.003968261647969484
208.0,0.003279096446931362
224.0,0.0023622247390449047
240.0,0.001669379067607224
256.0,0.0012615704908967018
288.0,0.0008277946035377681
320.0,3.2426371035398915e-05
352.0,-0.0005005741259083152
384.0,-0.0012721691746264696
416.0,-0.001542966696433723
448.0,-0.0017573481891304255
480.0,-0.001869493629783392
512.0,-0.0014839076902717352
576.0,-0.0014177272096276283
640.0,-0.0011087602470070124
704.0,-0.0010598890949040651
768.0,-0.002132737310603261
832.0,-0.0017405071994289756
896.0,-0.0025436491705477238
960.0,-0.0034160963259637356
1024.0,-0.002635706216096878
1152.0,-0.0028191094752401114
1280.0,0.0001014661174849607
1408.0,0.001870143343694508
1536.0,0.0011159642599523067
1664.0,0.0025213363114744425
1792.0,0.0013567028800025582
1920.0,0.00020313062123022974
2048.0,0.0005345006939023733
2304.0,0.0005700592300854623
2560.0,0.00018773050396703184
2816.0,0.0011731944978237152
3072.0,0.0015116730937734246
3328.0,-0.0009072221000678837
3584.0,-0.00033801590325310826
3840.0,0.0003222347586415708
4096.0,0.0005732180434279144
4608.0,5.186167618376203e-05
5120.0,-0.0030218884348869324
5632.0,0.0009041214361786842
6144.0,0.0026082221884280443
6656.0,-0.0011646312195807695
7168.0,-0.00033200939651578665
7680.0,-0.000167320147738792
8192.0,-0.0007303478196263313
9216.0,0.0016153391916304827
10240.0,-0.0012119757011532784
11264.0,-0.003588808234781027
12288.0,0.001640966860577464
13312.0,-0.002233465202152729
14336.0,-0.002945154206827283
end
