version,3.0
numOfCh,1
type,point
parent_name,2-cuts
ch_type,1_1
kcount,1
numberNandB,1
brightnessNandB,1
carpet pos,0
pc,0
Time (ms),CH1 Auto-Correlation
1.0,0.019494352862238884
2.0,0.019122092053294182
3.0,0.018751908093690872
4.0,0.018394624814391136
5.0,0.018048087134957314
6.0,0.017712945118546486
7.0,0.017390942201018333
8.0,0.017080876976251602
9.0,0.016779184341430664
10.0,0.016476592049002647
11.0,0.01617412082850933
12.0,0.015880491584539413
13.0,0.01560206152498722
14.0,0.0153269711881876
15.0,0.015062807127833366
16.0,0.014806244522333145
18.0,0.01432285737246275
20.0,0.01386507973074913
22.0,0.013430275022983551
24.0,0.013020130805671215
26.0,0.012628745287656784
28.0,0.012263201177120209
30.0,0.011896848678588867
32.0,0.01154506765305996
36.0,0.010931591503322124
40.0,0.010353276506066322
44.0,0.009827547706663609
48.0,0.009353541769087315
52.0,0.008937979117035866
56.0,0.008546160534024239
60.0,0.00820978358387947
64.0,0.007914505898952484
72.0,0.00726474029943347
80.0,0.00660500256344676
88.0,0.006158806849271059
96.0,0.005864877253770828
104.0,0.005720533896237612
112.0,0.005559904035180807
120.0,0.005300961900502443
128.0,0.0051157716661691666
144.0,0.004714835900813341
160.0,0.004234172869473696
176.0,0.003761559957638383
192.0,0.003147941315546632
208.0,0.0023808113764971495
224.0,0.0017981803975999355
240.0,0.0012024652678519487
256.0,0.0008351862779818475
288.0,0.0006827787146903574
320.0,0.0009318296797573566
352.0,0.0005392536986619234
384.0,0.00012150772818131372
416.0,0.00016297027468681335
448.0,-1.2295308806642424e-05
480.0,0.00044567009899765253
512.0,0.00024871801724657416
576.0,0.00028353751986287534
640.0,0.0006555374711751938
704.0,0.0003353350912220776
768.0,0.0004450276610441506
832.0,0.0008070851908996701
896.0,0.0008330274722538888
960.0,0.00015311059542000294
1024.0,3.91176508856006e-05
1152.0,-0.0004919464117847383
1280.0,-0.0018615188309922814
1408.0,-0.0023482905235141516
1536.0,-0.002018665662035346
1664.0,-0.0019086343236267567
1792.0,0.00021329907758627087
1920.0,-3.8013920857338235e-05
2048.0,-0.00037179497303441167
2304.0,-0.0004509407444857061
2560.0,-0.0016659791581332684
2816.0,0.0014764086809009314
3072.0,0.0013328305212780833
3328.0,0.0009954872075468302
3584.0,-0.0006477845599874854
3840.0,-0.0008072842028923333
4096.0,-0.0001308106875512749
4608.0,-0.0020673456601798534
5120.0,-0.00022954742598813027
5632.0,-0.0020641942974179983
6144.0,0.001727985218167305
6656.0,-0.0009062918252311647
7168.0,-0.00015157985035330057
7680.0,-0.001645262585952878
8192.0,0.001784466439858079
9216.0,0.0018717912025749683
10240.0,0.0006922998582012951
11264.0,-0.00167857576161623
12288.0,0.0015392127679660916
13312.0,0.0019988559652119875
14336.0,-0.002415555529296398
end
