version,3.0
numOfCh,1
type,point
parent_name,40-cuts
ch_type,1_1
kcount,1
numberNandB,1
brightnessNandB,1
carpet pos,0
pc,0
Time (ms),CH1 Auto-Correlation
1.0,0.02841169945895672
2.0,0.02359509840607643
3.0,0.020209822803735733
4.0,0.01779717206954956
5.0,0.015868622809648514
6.0,0.014375627040863037
7.0,0.013245983049273491
8.0,0.012199892662465572
9.0,0.011106140911579132
10.0,0.010009987279772758
11.0,0.00923873484134674
12.0,0.008586173877120018
13.0,0.008164430037140846
14.0,0.007785058580338955
15.0,0.007456153631210327
16.0,0.007266590371727943
18.0,0.006327757611870766
20.0,0.005564421880990267
22.0,0.004716977942734957
24.0,0.004144449718296528
26.0,0.004058451857417822
28.0,0.0036603682674467564
30.0,0.0033291075378656387
32.0,0.0030696114990860224
36.0,0.0026322079356759787
40.0,0.0027352829929441214
44.0,0.0024782726541161537
48.0,0.0021814010106027126
52.0,0.0017146511236205697
56.0,0.0014866433339193463
60.0,0.0012483581667765975
64.0,0.0010541973169893026
72.0,0.0011289854301139712
80.0,0.0012450645444914699
88.0,0.0013951091095805168
96.0,0.001304888864979148
104.0,0.0008660333114676178
112.0,0.0009607068495824933
120.0,0.0017481562681496143
128.0,0.0015072354581207037
144.0,0.000838247942738235
160.0,0.0009301068494096398
176.0,0.0005478962557390332
192.0,0.00012501791934482753
208.0,-0.00010598864173516631
224.0,0.00018474028911441565
240.0,-0.0004962195525877178
256.0,-8.003949915291741e-05
288.0,-7.66050216043368e-05
320.0,-0.0006929085357114673
352.0,0.0001249595225090161
384.0,0.00040344224544242024
416.0,0.0005663108313456178
448.0,0.00015335888019762933
480.0,-0.0004227962635923177
512.0,2.5678025849629194e-05
576.0,-1.0969661161652766e-05
640.0,-0.00041402113856747746
704.0,0.0001382739719701931
768.0,-0.00048640224849805236
832.0,0.00026535827782936394
896.0,-0.0005962370196357369
960.0,-0.00048821515520103276
1024.0,-0.0010265973396599293
1152.0,-0.0004993684706278145
1280.0,-0.0006492521497420967
1408.0,-0.0006471910746768117
1536.0,-0.0002649582747835666
1664.0,-0.0003769695176742971
1792.0,0.00042160676093772054
1920.0,-1.7269774616579525e-05
2048.0,-0.0001893459411803633
2304.0,0.00022192571486812085
2560.0,1.946424708876293e-05
2816.0,-0.0007033926085568964
3072.0,0.0003930173406843096
3328.0,-4.133927359362133e-05
3584.0,0.00013000702892895788
3840.0,-8.602077286923304e-05
4096.0,-0.00015279378567356616
4608.0,0.00029024339164607227
5120.0,0.000430102925747633
5632.0,4.221376730129123e-05
6144.0,-0.0003707068390212953
6656.0,-0.0006883744499646127
7168.0,9.606014646124095e-05
7680.0,-0.00010120858496520668
8192.0,3.3087153497035615e-06
9216.0,-0.0001568219013279304
10240.0,0.000612518226262182
11264.0,-0.0011454421328380704
12288.0,0.0006508271326310933
13312.0,0.00013486025272868574
14336.0,-0.0009343366255052388
end
