version,3.0
numOfCh,1
type,point
parent_name,40-cuts
ch_type,1_1
kcount,1
numberNandB,1
brightnessNandB,1
carpet pos,0
pc,0
Time (ms),CH1 Auto-Correlation
1.0,0.026686500757932663
2.0,0.02172480896115303
3.0,0.01823047176003456
4.0,0.015774568542838097
5.0,0.013939091004431248
6.0,0.01242253091186285
7.0,0.011120756156742573
8.0,0.010273353196680546
9.0,0.00951400026679039
10.0,0.008774648420512676
11.0,0.007943721488118172
12.0,0.00711595406755805
13.0,0.006361361127346754
14.0,0.006039218511432409
15.0,0.005666370037943125
16.0,0.0053422641940414906
18.0,0.004944990389049053
20.0,0.004272047430276871
22.0,0.003819362260401249
24.0,0.00371776451356709
26.0,0.0033481628634035587
28.0,0.0028353342786431313
30.0,0.002392785158008337
32.0,0.0022841724567115307
36.0,0.0018649756675586104
40.0,0.001693063066340983
44.0,0.0011810080613940954
48.0,0.00040913731209002435
52.0,0.00011739136971300468
56.0,0.00018430600175634027
60.0,-7.103196548996493e-05
64.0,-0.0004367373767308891
72.0,-0.0004268547345418483
80.0,-0.0008066650480031967
88.0,-0.0006973266135901213
96.0,-0.00036384936538524926
104.0,0.0003567261737771332
112.0,0.0011623486643657088
120.0,0.0016756337136030197
128.0,0.0014808470150455832
144.0,0.00042321893852204084
160.0,7.912467117421329e-05
176.0,0.00012092007818864658
192.0,6.935427518328652e-05
208.0,-0.00019116357725579292
224.0,2.403743110335199e-06
240.0,0.0006705726264044642
256.0,0.0004982304526492953
288.0,0.00037147855618968606
320.0,0.00039388719596900046
352.0,-0.0006445078179240227
384.0,-0.00026793155120685697
416.0,5.692895865649916e-05
448.0,-3.382462455192581e-05
480.0,0.0004084173997398466
512.0,0.0005051869666203856
576.0,-0.000309021765133366
640.0,-0.00019206562137696892
704.0,1.67685193446232e-05
768.0,0.0010885302908718586
832.0,-0.00033856689697131515
896.0,-0.00020621006842702627
960.0,-0.0009687517886050045
1024.0,7.092182204360142e-05
1152.0,0.0008382737287320197
1280.0,0.00028141168877482414
1408.0,-0.00016590187442488968
1536.0,0.0002313436707481742
1664.0,-0.00010562282841419801
1792.0,-0.00031491499976255
1920.0,-0.00033491282374598086
2048.0,-0.0002713961875997484
2304.0,0.0002636241551954299
2560.0,-0.0002275642764288932
2816.0,0.00018170214025303721
3072.0,-0.00013130340084899217
3328.0,-0.00020639729336835444
3584.0,-3.355098669999279e-05
3840.0,-0.00015994629939086735
4096.0,-0.0006388038164004683
4608.0,-0.0003794388903770596
5120.0,-0.00023336734739132226
5632.0,8.256857836386189e-05
6144.0,4.8717516619944945e-05
6656.0,-3.48318753822241e-05
7168.0,-4.711973087978549e-05
7680.0,2.828276228683535e-05
8192.0,-0.00020029014558531344
9216.0,0.0003078975423704833
10240.0,-0.00023412631708197296
11264.0,0.0006218264461494982
12288.0,1.1723602256097365e-05
13312.0,7.605415157740936e-05
14336.0,-4.108397115487605e-05
end
