version,3.0
numOfCh,1
type,point
parent_name,40-cuts
ch_type,1_1
kcount,1
numberNandB,1
brightnessNandB,1
carpet pos,0
pc,0
Time (ms),CH1 Auto-Correlation
1.0,0.02814674749970436
2.0,0.023110173642635345
3.0,0.019659360870718956
4.0,0.017203761264681816
5.0,0.01523127593100071
6.0,0.013823751360177994
7.0,0.012386364862322807
8.0,0.011055165901780128
9.0,0.009869841858744621
10.0,0.008960084989666939
11.0,0.00838293693959713
12.0,0.007783893495798111
13.0,0.007347111590206623
14.0,0.006862742360681295
15.0,0.006424854975193739
16.0,0.00619324017316103
18.0,0.00549211073666811
20.0,0.004664483480155468
22.0,0.0041425107046961784
24.0,0.0039031016640365124
26.0,0.00311611732468009
28.0,0.0027087407652288675
30.0,0.002912539755925536
32.0,0.0027123827021569014
36.0,0.0022103211376816034
40.0,0.0017396522453054786
44.0,0.0014652146492153406
48.0,0.0009912519017234445
52.0,0.0008161073201335967
56.0,0.0009512516553513706
60.0,0.0007373925182037055
64.0,0.0006420339923352003
72.0,0.0001832362759159878
80.0,-0.0002779368369374424
88.0,-0.00023357228201348335
96.0,-0.0005255282740108669
104.0,-0.0003061571333091706
112.0,0.00028353172820061445
120.0,0.000797690823674202
128.0,0.0005665507051162422
144.0,0.0008790837600827217
160.0,0.0007511848816648126
176.0,0.0003807381435763091
192.0,0.0006359003018587828
208.0,0.0005893087945878506
224.0,0.00031938389292918146
240.0,0.0007201366242952645
256.0,0.0003342606360092759
288.0,0.00015852856449782848
320.0,-0.00017240770102944225
352.0,-0.000451975385658443
384.0,0.0006035505211912096
416.0,0.0005651892279274762
448.0,-0.0001946783158928156
480.0,-0.002272743498906493
512.0,-0.0013866672525182366
576.0,0.0002833268663380295
640.0,-0.00020745847723446786
704.0,8.164710743585601e-05
768.0,0.0007549941656179726
832.0,-4.975137017027009e-06
896.0,-0.0001644943404244259
960.0,-0.000355735159246251
1024.0,-0.00018612197891343385
1152.0,0.0001364020281471312
1280.0,-0.0008722952916286886
1408.0,-0.0007372446125373244
1536.0,-0.0001279667194467038
1664.0,-0.0005399961955845356
1792.0,-1.782232357072644e-05
1920.0,-9.050698281498626e-05
2048.0,-0.0005017922958359122
2304.0,0.0003411551588214934
2560.0,0.0004606599104590714
2816.0,0.00031006280914880335
3072.0,-0.00022005644859746099
3328.0,-0.0005939972470514476
3584.0,-0.0007488939445465803
3840.0,-0.00023647007765248418
4096.0,0.0001310376828769222
4608.0,0.00013257309910841286
5120.0,0.0003536773147061467
5632.0,-5.4491862101713195e-05
6144.0,0.00014685274800285697
6656.0,0.0001353057596134022
7168.0,4.180395262665115e-05
7680.0,7.497661135857925e-05
8192.0,-5.752875586040318e-05
9216.0,0.00019061235070694238
10240.0,-0.00016735798271838576
11264.0,-0.0003223115636501461
12288.0,0.0006470663356594741
13312.0,-0.0007827283698134124
14336.0,0.0005593679379671812
end
