version,3.0
numOfCh,1
type,point
parent_name,40-cuts
ch_type,1_1
kcount,1
numberNandB,1
brightnessNandB,1
carpet pos,0
pc,0
Time (ms),CH1 Auto-Correlation
1.0,0.016652002930641174
2.0,0.013797433115541935
3.0,0.011625892482697964
4.0,0.0101137300953269
5.0,0.008910397067666054
6.0,0.007956982590258121
7.0,0.0070973592810332775
8.0,0.006389355752617121
9.0,0.005826020613312721
10.0,0.005414121318608522
11.0,0.005074473097920418
12.0,0.0047913808375597
13.0,0.004457102157175541
14.0,0.0041771819815039635
15.0,0.00381847214885056
16.0,0.003563311882317066
18.0,0.0029978409875184298
20.0,0.002609637100249529
22.0,0.0024393151979893446
24.0,0.0021123255137354136
26.0,0.001751135103404522
28.0,0.001617130939848721
30.0,0.0015024663880467415
32.0,0.0014897980727255344
36.0,0.0012681287480518222
40.0,0.0008352316217496991
44.0,0.000686060928273946
48.0,0.0004997761570848525
52.0,0.0006167389219626784
56.0,0.0006941250176168978
60.0,0.0004410401452332735
64.0,0.0001362925540888682
72.0,0.00032606328022666276
80.0,0.00027304518152959645
88.0,0.0005489974282681942
96.0,0.0007176538929343224
104.0,0.0005530608468689024
112.0,0.00045918559771962464
120.0,0.00025183515390381217
128.0,0.00022988449200056493
144.0,0.0004040173371322453
160.0,0.00035716500133275986
176.0,0.0006837161490693688
192.0,0.0005215564742684364
208.0,0.0004318148421589285
224.0,0.0005112781655043364
240.0,0.000624108943156898
256.0,1.767883077263832e-05
288.0,9.305625280831009e-05
320.0,0.0003763932909350842
352.0,0.00040182474185712636
384.0,0.00040196700138039887
416.0,0.00043710137833841145
448.0,-0.00013958188355900347
480.0,0.0002845756243914366
512.0,0.0001820187026169151
576.0,0.00038011721335351467
640.0,0.00036365518462844193
704.0,-8.704999345354736e-05
768.0,0.00044356772559694946
832.0,0.0004891816060990095
896.0,0.00012226199032738805
960.0,0.0006548014935106039
1024.0,0.0005835412885062397
1152.0,0.00019675379735417664
1280.0,-0.0002913625503424555
1408.0,-0.00020603898155968636
1536.0,-7.639465911779553e-05
1664.0,0.00012855688692070544
1792.0,-0.00014528377505484968
1920.0,0.00024124610354192555
2048.0,0.0001531410525785759
2304.0,-2.3062950731400633e-06
2560.0,0.0002356797776883468
2816.0,0.00041592924389988184
3072.0,0.00028108552214689553
3328.0,0.00033296598121523857
3584.0,-2.1376377844717354e-05
3840.0,0.00016459172184113413
4096.0,3.8392681744880974e-05
4608.0,-0.00034532518475316465
5120.0,0.00010967379785142839
5632.0,-4.268300472176634e-05
6144.0,0.0001539732766104862
6656.0,-0.0001697398693067953
7168.0,0.00021102986647747457
7680.0,-0.00024004868464544415
8192.0,-0.00012433840311132371
9216.0,-0.00045876848162151873
10240.0,-0.00029657650156877935
11264.0,-0.00024890925851650536
12288.0,-0.00040799364796839654
13312.0,-0.00035471157752908766
14336.0,-0.0007823578780516982
end
