version,3.0
numOfCh,1
type,point
parent_name,40-cuts
ch_type,1_1
kcount,1
numberNandB,1
brightnessNandB,1
carpet pos,0
pc,0
Time (ms),CH1 Auto-Correlation
1.0,0.028000470250844955
2.0,0.023310793563723564
3.0,0.019947679713368416
4.0,0.017489109188318253
5.0,0.015566032379865646
6.0,0.013969399966299534
7.0,0.01261833868920803
8.0,0.011305890046060085
9.0,0.010119489394128323
10.0,0.00929135363548994
11.0,0.008668712340295315
12.0,0.008196836337447166
13.0,0.007751240860670805
14.0,0.007220980245620012
15.0,0.0068127792328596115
16.0,0.0064138006418943405
18.0,0.0059258523397147655
20.0,0.005527013912796974
22.0,0.0051618353463709354
24.0,0.004744460340589285
26.0,0.004174860194325447
28.0,0.0039097960107028484
30.0,0.003536396659910679
32.0,0.003525718115270138
36.0,0.0036014763172715902
40.0,0.0036718801129609346
44.0,0.003375806612893939
48.0,0.0027275467291474342
52.0,0.0020386779215186834
56.0,0.0016922666691243649
60.0,0.0013581330422312021
64.0,0.0019816714338958263
72.0,0.0022186751011759043
80.0,0.0014900704845786095
88.0,0.0012041114969179034
96.0,0.0014598495326936245
104.0,0.0016746734036132693
112.0,0.0016360506415367126
120.0,0.001975700492039323
128.0,0.001959222834557295
144.0,0.0016495385207235813
160.0,0.0008490985492244363
176.0,0.0003346349985804409
192.0,0.0005038123345002532
208.0,0.0006184770027175546
224.0,0.00048531778156757355
240.0,-0.00011284798529231921
256.0,0.00037622731178998947
288.0,-0.0005343079101294279
320.0,-5.990954377921298e-05
352.0,0.00010693757940316573
384.0,-0.00037335892557166517
416.0,-8.97849167813547e-05
448.0,-0.00016862807387951761
480.0,-0.0003836262912955135
512.0,0.0003506284556351602
576.0,0.00026371763669885695
640.0,-0.0003078616573475301
704.0,0.000271372206043452
768.0,0.0001212386559927836
832.0,0.000234688981436193
896.0,-0.00046586315147578716
960.0,-0.00037370447535067797
1024.0,-0.0009620664059184492
1152.0,6.320586544461548e-05
1280.0,0.00024188797397073358
1408.0,0.0008001717505976558
1536.0,0.00026042762328870595
1664.0,0.000667859916575253
1792.0,0.00019570539006963372
1920.0,-0.0003121079644188285
2048.0,-0.0002995098475366831
2304.0,-0.0007275535026565194
2560.0,-0.00027771110762842
2816.0,-0.00014072291378397495
3072.0,0.00029035296756774187
3328.0,-0.00016438330931123346
3584.0,-0.0007812086259946227
3840.0,2.0075434804311953e-05
4096.0,2.3935013814480044e-05
4608.0,0.0003714456397574395
5120.0,-0.0005430761375464499
5632.0,-7.706685573793948e-05
6144.0,0.0012474789982661605
6656.0,0.00018088414799422026
7168.0,-0.0003781788982450962
7680.0,6.105928332544863e-05
8192.0,-0.00022265579900704324
9216.0,-7.3215902375523e-05
10240.0,-5.4195061238715425e-05
11264.0,-0.0002247944357804954
12288.0,0.0005314756999723613
13312.0,-0.00020930933533236384
14336.0,-0.001446046051569283
end
