version,3.0
numOfCh,1
type,point
parent_name,40-cuts
ch_type,1_1
kcount,1
numberNandB,1
brightnessNandB,1
carpet pos,0
pc,0
Time (ms),CH1 Auto-Correlation
1.0,0.016024459153413773
2.0,0.012988676317036152
3.0,0.010987430810928345
4.0,0.009445545263588428
5.0,0.008356312289834023
6.0,0.0075453100726008415
7.0,0.006792169064283371
8.0,0.006143152713775635
9.0,0.005630442872643471
10.0,0.005142597481608391
11.0,0.004583832807838917
12.0,0.004245706833899021
13.0,0.0038968706503510475
14.0,0.003620068309828639
15.0,0.0034068606328219175
16.0,0.003165260422974825
18.0,0.002829714445397258
20.0,0.0025686819572001696
22.0,0.002333070384338498
24.0,0.002187559613958001
26.0,0.0020403678063303232
28.0,0.0018901467556133866
30.0,0.0017722476040944457
32.0,0.0015658230986446142
36.0,0.0013284427113831043
40.0,0.0012580759357661009
44.0,0.0009230744908563793
48.0,0.00048729919944889843
52.0,0.00022662470291834325
56.0,0.00034238112857565284
60.0,0.0004071336006745696
64.0,0.00047866819659247994
72.0,0.0001870345586212352
80.0,0.00014899973757565022
88.0,7.613577326992527e-05
96.0,6.661951920250431e-05
104.0,0.00018814561190083623
112.0,-3.501734317978844e-05
120.0,-0.00019376618729438633
128.0,-0.0006622813525609672
144.0,-0.0006400003330782056
160.0,-0.0006080906605347991
176.0,-0.0006826905300840735
192.0,-0.00029208179330453277
208.0,-0.0004987060092389584
224.0,-0.00012231057917233557
240.0,-0.00025216463836841285
256.0,-0.0007069397252053022
288.0,-0.0004475808818824589
320.0,0.0001338136353297159
352.0,0.0004526001575868577
384.0,0.0004664667067117989
416.0,0.00028165747062303126
448.0,0.00027890302590094507
480.0,0.00025588396238163114
512.0,0.00023458662326447666
576.0,8.34632373880595e-06
640.0,0.0002060449041891843
704.0,0.0005936094676144421
768.0,0.00015377586532849818
832.0,-0.00040042915497906506
896.0,-0.0006612248253077269
960.0,0.00012648801202885807
1024.0,7.017788448138162e-05
1152.0,-2.0484079868765548e-05
1280.0,-8.750688721193e-05
1408.0,4.8625183808326256e-06
1536.0,-0.00033870438346639276
1664.0,-7.526260014856234e-05
1792.0,0.00017288884555455297
1920.0,-0.0001428454415872693
2048.0,-0.00017495485371910036
2304.0,0.00014410761650651693
2560.0,-0.0001917051267810166
2816.0,2.195484512412804e-06
3072.0,1.4261494470702019e-05
3328.0,-7.062687654979527e-05
3584.0,-9.4938059191918e-06
3840.0,6.385364395100623e-05
4096.0,0.00013342787860892713
4608.0,-9.844446140050422e-06
5120.0,-1.2560722097987309e-05
5632.0,-5.101724309497513e-05
6144.0,4.466633981792256e-06
6656.0,0.00013068488624412566
7168.0,5.5369255278492346e-05
7680.0,3.171623757225461e-05
8192.0,-0.00012425809109117836
9216.0,-0.00013162566756363958
10240.0,5.5548211093991995e-05
11264.0,-0.00015413069922942668
12288.0,2.159747964469716e-06
13312.0,9.97762253973633e-05
14336.0,-0.00013125941040925682
end
