version,3.0
numOfCh,1
type,point
parent_name,40-cuts
ch_type,1_1
kcount,1
numberNandB,1
brightnessNandB,1
carpet pos,0
pc,0
Time (ms),CH1 Auto-Correlation
1.0,0.01632291078567505
2.0,0.013315735384821892
3.0,0.011099399998784065
4.0,0.009480221197009087
5.0,0.008271798491477966
6.0,0.007396520581096411
7.0,0.006777307018637657
8.0,0.006215786561369896
9.0,0.00572297815233469
10.0,0.005254046060144901
11.0,0.0048529780469834805
12.0,0.004488701466470957
13.0,0.004090476781129837
14.0,0.003769263159483671
15.0,0.0034794930834323168
16.0,0.003187649417668581
18.0,0.002718379022553563
20.0,0.002504398813471198
22.0,0.0022264281287789345
24.0,0.0020447566639631987
26.0,0.002147291088476777
28.0,0.0021858469117432833
30.0,0.0019326540641486645
32.0,0.0017743168864399195
36.0,0.0014506139559671283
40.0,0.001258819131180644
44.0,0.001099361921660602
48.0,0.0010689222253859043
52.0,0.0010115442564710975
56.0,0.0005854811170138419
60.0,0.0003065195051021874
64.0,0.0002141976437997073
72.0,-0.00025640346575528383
80.0,-0.00023181570577435195
88.0,8.778372284723446e-05
96.0,-7.132678001653403e-05
104.0,-0.0003421447763685137
112.0,-0.0002622810716275126
120.0,-0.0004023645306006074
128.0,-0.0005033047636970878
144.0,-1.5573612472508103e-05
160.0,9.019014396471903e-05
176.0,0.00029623336740769446
192.0,0.0002781599760055542
208.0,8.909220196073875e-05
224.0,0.0002382533421041444
240.0,0.0003257080679759383
256.0,0.0004523292009253055
288.0,-4.338612416177057e-05
320.0,-0.00010635807120706886
352.0,-0.0002518019755370915
384.0,8.48213312565349e-05
416.0,0.0008146321051754057
448.0,0.0010622746776789427
480.0,0.00023444888938684016
512.0,-0.00017315972945652902
576.0,0.0001983438414754346
640.0,-0.00012016441905871034
704.0,8.046130096772686e-05
768.0,2.1972939066472463e-05
832.0,9.835872333496809e-05
896.0,-0.0002094065712299198
960.0,-2.3490920284530148e-05
1024.0,7.274447125382721e-05
1152.0,-0.00020298088202252984
1280.0,-0.00022765608446206897
1408.0,9.420724381925538e-05
1536.0,-0.0002768855483736843
1664.0,-0.0002400261873845011
1792.0,-0.00015208779950626194
1920.0,-0.00017718157323542982
2048.0,-9.601699275663123e-05
2304.0,-5.820363367092796e-05
2560.0,-0.0002675424620974809
2816.0,-6.381948196576559e-07
3072.0,0.0002654943964444101
3328.0,2.8543774533318356e-05
3584.0,-0.00013753556413576007
3840.0,-0.00023570565099362284
4096.0,-6.343926361296326e-05
4608.0,-6.279642548179254e-05
5120.0,2.6818153855856508e-05
5632.0,1.1528632057888899e-05
6144.0,0.0001004114601528272
6656.0,0.00013896002201363444
7168.0,0.00010234093497274444
7680.0,6.23030646238476e-05
8192.0,1.4008681318955496e-05
9216.0,-0.00012280936061870307
10240.0,-0.00020367879187688231
11264.0,-0.00017482670955359936
12288.0,0.0003643445379566401
13312.0,-6.36259646853432e-05
14336.0,-0.00032689637737348676
end
