version,3.0
numOfCh,1
type,point
parent_name,40-cuts
ch_type,1_1
kcount,1
numberNandB,1
brightnessNandB,1
carpet pos,0
pc,0
Time (ms),CH1 Auto-Correlation
1.0,0.015896819531917572
2.0,0.012977824546396732
3.0,0.01091682631522417
4.0,0.009293701499700546
5.0,0.008048693649470806
6.0,0.007041551172733307
7.0,0.0062356446869671345
8.0,0.005580355413258076
9.0,0.005016900599002838
10.0,0.004576529376208782
11.0,0.004104166757315397
12.0,0.003772593569010496
13.0,0.003480640472844243
14.0,0.003168416442349553
15.0,0.0028894159477204084
16.0,0.002627673791721463
18.0,0.00213145581074059
20.0,0.001720114261843264
22.0,0.0014775913441553712
24.0,0.001309405080974102
26.0,0.0012275304179638624
28.0,0.0011495219077914953
30.0,0.000996542046777904
32.0,0.0009346398874185979
36.0,0.0007798777660354972
40.0,0.0006641510990448296
44.0,0.00030568704823963344
48.0,0.00016680225962772965
52.0,-1.2468988643377088e-05
56.0,-2.2816835553385317e-05
60.0,-0.00016408257943112403
64.0,-7.670840568607673e-05
72.0,-0.00019899265316780657
80.0,-0.00015322992112487555
88.0,5.515197699423879e-06
96.0,-0.00026537684607319534
104.0,1.1604151950450614e-05
112.0,0.00010144236875930801
120.0,-4.17796618421562e-05
128.0,0.00021039025159552693
144.0,0.0006497071590274572
160.0,0.0007322838064283133
176.0,0.00022634548076894134
192.0,7.094219472492114e-05
208.0,5.9461755881784484e-05
224.0,0.0001351253013126552
240.0,1.3045470041106455e-05
256.0,-0.00023333127319347113
288.0,-0.0006555331056006253
320.0,-0.0005065776058472693
352.0,7.103019015630707e-05
384.0,0.0001519795914646238
416.0,0.0005424934206530452
448.0,-1.2292411156522576e-05
480.0,-2.7985488486592658e-05
512.0,-0.000344607891747728
576.0,1.7812768419389613e-05
640.0,-0.000124501166283153
704.0,-0.00040458361036144197
768.0,-0.000489596335683018
832.0,0.0004586748545989394
896.0,2.5515377274132334e-05
960.0,0.0003222923551220447
1024.0,0.00018484462634660304
1152.0,-0.00012300409434828907
1280.0,0.00013054358714725822
1408.0,0.00028858144651167095
1536.0,1.5881934814387932e-05
1664.0,-0.00027269721613265574
1792.0,0.00020360022608656436
1920.0,-0.00013956775364931673
2048.0,-0.00021610080148093402
2304.0,0.00024001425481401384
2560.0,7.264238774951082e-06
2816.0,4.4919179345015436e-05
3072.0,-7.457382889697328e-05
3328.0,0.0001357638684567064
3584.0,-7.108337013050914e-05
3840.0,-6.833800580352545e-05
4096.0,9.567080269334838e-05
4608.0,-0.00013854332792107016
5120.0,0.00021395113435573876
5632.0,-6.273637700360268e-05
6144.0,-0.0002077094541164115
6656.0,7.356518472079188e-05
7168.0,-0.00024471437791362405
7680.0,0.000129587366245687
8192.0,-0.00014816141629125923
9216.0,-6.737681542290375e-05
10240.0,8.290726691484451e-05
11264.0,-9.090288949664682e-05
12288.0,4.614071804098785e-05
13312.0,-0.00014732620911672711
14336.0,-7.171483593992889e-05
end
