version,3.0
numOfCh,1
type,point
parent_name,40-cuts
ch_type,1_1
kcount,1
numberNandB,1
brightnessNandB,1
carpet pos,0
pc,0
Time (ms),CH1 Auto-Correlation
1.0,0.01650645025074482
2.0,0.013740207068622112
3.0,0.011637263000011444
4.0,0.010124651715159416
5.0,0.00905043724924326
6.0,0.008245152421295643
7.0,0.0074585918337106705
8.0,0.006798406597226858
9.0,0.006234753876924515
10.0,0.005801832769066095
11.0,0.005307003390043974
12.0,0.004803242161870003
13.0,0.004391289781779051
14.0,0.004183343145996332
15.0,0.00395859032869339
16.0,0.003730945521965623
18.0,0.0033779265359044075
20.0,0.0029473116155713797
22.0,0.002549625700339675
24.0,0.0023356503807008266
26.0,0.0021663305815309286
28.0,0.0020117757376283407
30.0,0.0018296113703399897
32.0,0.001601983793079853
36.0,0.0011808149283751845
40.0,0.0008341531502082944
44.0,0.0008253551204688847
48.0,0.0008366340189240873
52.0,0.000964067701715976
56.0,0.0010007276432588696
60.0,0.0007436714367941022
64.0,0.000666061183437705
72.0,0.0008868458680808544
80.0,0.0009132937411777675
88.0,0.000481126771774143
96.0,0.0005278821918182075
104.0,0.000398908305214718
112.0,0.000503622111864388
120.0,0.0006657787598669529
128.0,0.0008147066691890359
144.0,0.0007683380390517414
160.0,0.0007568944711238146
176.0,0.0006298356456682086
192.0,0.00037596849142573774
208.0,0.0006047477945685387
224.0,0.0003925924829673022
240.0,0.0003625683602876961
256.0,0.00030988725484348834
288.0,0.00018689689750317484
320.0,-0.0006905983900651336
352.0,-0.0007821664912626147
384.0,-0.0007601244142279029
416.0,-0.00034413865068927407
448.0,-9.530562238069251e-05
480.0,-0.0001296182890655473
512.0,-0.00031503403442911804
576.0,-0.0001604435092303902
640.0,-0.00027079175924882293
704.0,0.0001548317668493837
768.0,0.0007463343208655715
832.0,0.0004056556790601462
896.0,0.0005171727389097214
960.0,0.0003334360080771148
1024.0,4.47561833425425e-05
1152.0,-0.00019527522090356797
1280.0,-0.000553811143618077
1408.0,-0.0006019672146067023
1536.0,-3.459617801127024e-05
1664.0,0.00018658960470929742
1792.0,0.0003630507562775165
1920.0,0.0002531066129449755
2048.0,0.00013584447151515633
2304.0,-0.0001895901805255562
2560.0,0.0002523945295251906
2816.0,0.000371142610674724
3072.0,-0.00018638308392837644
3328.0,-0.00029028364224359393
3584.0,0.00032488119904883206
3840.0,0.00027771852910518646
4096.0,-0.0001898660120787099
4608.0,-0.00020646351913455874
5120.0,0.00010417186422273517
5632.0,-0.00022776158584747463
6144.0,4.75359229312744e-05
6656.0,-5.7583638408686966e-05
7168.0,-1.528755274193827e-05
7680.0,0.0003654079628176987
8192.0,-0.0002872247132472694
9216.0,2.3927699658088386e-05
10240.0,-0.00014035833009984344
11264.0,0.0001804885541787371
12288.0,-0.0005036257789470255
13312.0,0.00010643113637343049
14336.0,-0.00031989425770007074
end
