version,3.0
numOfCh,1
type,point
parent_name,40-cuts
ch_type,1_1
kcount,1
numberNandB,1
brightnessNandB,1
carpet pos,0
pc,0
Time (ms),CH1 Auto-Correlation
1.0,0.016302108764648438
2.0,0.013455720618367195
3.0,0.011464102193713188
4.0,0.009941293857991695
5.0,0.008752160705626011
6.0,0.007853307761251926
7.0,0.007079511880874634
8.0,0.00636253971606493
9.0,0.0056885117664933205
10.0,0.005133100785315037
11.0,0.004740054253488779
12.0,0.004315620753914118
13.0,0.003947412129491568
14.0,0.0036844764836132526
15.0,0.003486471716314554
16.0,0.003274407936260104
18.0,0.003098744200542569
20.0,0.0028016597498208284
22.0,0.0025741406716406345
24.0,0.0021602255292236805
26.0,0.001866674516350031
28.0,0.0017823533853515983
30.0,0.001636661123484373
32.0,0.0014754675794392824
36.0,0.0013765902258455753
40.0,0.0012339988024905324
44.0,0.0011487272568047047
48.0,0.0011200542794540524
52.0,0.0013037503231316805
56.0,0.0014065656578168273
60.0,0.0014062738046050072
64.0,0.0015309671871364117
72.0,0.0012949708616361022
80.0,0.0012365925358608365
88.0,0.0008195826667360961
96.0,0.000341844221111387
104.0,0.0006367971654981375
112.0,0.0004754192486871034
120.0,0.0005726609379053116
128.0,0.0005992428050376475
144.0,0.0002498204412404448
160.0,0.0003749548923224211
176.0,0.00011033149348804727
192.0,-0.0001296800037380308
208.0,-0.0002580953296273947
224.0,3.393589940969832e-05
240.0,0.0002368149725953117
256.0,0.00023355905432254076
288.0,0.00010200512042501941
320.0,0.0008654038538224995
352.0,0.00019363817409612238
384.0,0.0002556332910899073
416.0,-0.00010751342779258266
448.0,-0.0006292197504080832
480.0,-0.0005287545500323176
512.0,-0.00018579571042209864
576.0,-0.00035186781315132976
640.0,-0.0004163373087067157
704.0,-0.00022175653430167586
768.0,1.5895952856226359e-06
832.0,0.00021473159722518176
896.0,8.033662743400782e-05
960.0,-0.00016147761198226362
1024.0,3.368957186467014e-05
1152.0,-7.819660822860897e-05
1280.0,0.0001838168827816844
1408.0,-0.00028175461920909584
1536.0,-0.0003550345718394965
1664.0,3.0847622838336974e-05
1792.0,-7.48277670936659e-05
1920.0,-3.2091393222799525e-05
2048.0,-0.00015933573013171554
2304.0,-0.00011727758828783408
2560.0,-0.000387183710699901
2816.0,-0.00027679288177751005
3072.0,-0.000141204844112508
3328.0,4.372208877612138e-06
3584.0,0.00047015101881697774
3840.0,-3.205598841304891e-05
4096.0,-8.850734593579546e-05
4608.0,0.00032744300551712513
5120.0,0.0002841393288690597
5632.0,-3.8359383324859664e-05
6144.0,-0.0002695455914363265
6656.0,-0.00016280857380479574
7168.0,-0.00021490122890099883
7680.0,-0.000229267097893171
8192.0,0.0001944292598636821
9216.0,0.00016744728782214224
10240.0,-5.3585084970109165e-05
11264.0,-0.00012611165584530681
12288.0,-7.628842286067083e-05
13312.0,1.7161593859782442e-05
14336.0,3.6443103454075754e-05
end
