version,3.0
numOfCh,1
type,point
parent_name,40-cuts
ch_type,1_1
kcount,1
numberNandB,1
brightnessNandB,1
carpet pos,0
pc,0
Time (ms),CH1 Auto-Correlation
1.0,0.015819238498806953
2.0,0.013004066422581673
3.0,0.01102469488978386
4.0,0.00944940373301506
5.0,0.008247303776443005
6.0,0.007327895145863295
7.0,0.006484991870820522
8.0,0.005819907411932945
9.0,0.005341211799532175
10.0,0.004924823064357042
11.0,0.004524298943579197
12.0,0.0042982203885912895
13.0,0.004065434914082289
14.0,0.003901190822944045
15.0,0.00369759532622993
16.0,0.0035609917249530554
18.0,0.003299509873613715
20.0,0.002930406015366316
22.0,0.0027616056613624096
24.0,0.0024916743859648705
26.0,0.0022710044868290424
28.0,0.0018925386248156428
30.0,0.0016724728047847748
32.0,0.0014830166473984718
36.0,0.0013346768682822585
40.0,0.001167727867141366
44.0,0.0009411153150722384
48.0,0.0010181659599766135
52.0,0.0008794949389994144
56.0,0.0007089056889526546
60.0,0.0006024308386258781
64.0,0.0005472194752655923
72.0,0.0003368948237039149
80.0,0.0003414778329897672
88.0,0.00036086468026041985
96.0,0.0007831254624761641
104.0,0.0005048277671448886
112.0,0.0006284050177782774
120.0,0.0005144322058185935
128.0,0.00028997138724662364
144.0,-4.3407479097368196e-05
160.0,9.897791642288212e-06
176.0,-0.0002683205239009112
192.0,-0.0005359296919777989
208.0,-0.00020343669166322798
224.0,0.0006097443983890116
240.0,0.0005821216618642211
256.0,0.00013482110807672143
288.0,0.00019994928152300417
320.0,0.00020224327454343438
352.0,7.575813651783392e-05
384.0,0.0003436999104451388
416.0,0.00013377712457440794
448.0,-0.0002709117252379656
480.0,-0.000641760416328907
512.0,-0.000856981729157269
576.0,-4.173255365458317e-05
640.0,1.5807783711352386e-05
704.0,-1.7391332221450284e-05
768.0,-0.0006686517153866589
832.0,-0.0008692165138199925
896.0,-0.000507846474647522
960.0,8.411943417740986e-05
1024.0,0.00045312594738788903
1152.0,-0.00017724836652632803
1280.0,-0.00011685523350024596
1408.0,-0.00012694665929302573
1536.0,2.763520024018362e-05
1664.0,0.00011170315701747313
1792.0,-8.209279621951282e-05
1920.0,0.0004266524047125131
2048.0,0.00017288800154346973
2304.0,0.00019095749303232878
2560.0,0.00011861912935273722
2816.0,-0.00025949778500944376
3072.0,-9.748799493536353e-05
3328.0,-8.396260091103613e-05
3584.0,9.550150025461335e-06
3840.0,0.00010015072621172294
4096.0,0.00017152921645902097
4608.0,-0.0003585495869629085
5120.0,-2.9166734748287126e-05
5632.0,1.592555577190069e-06
6144.0,1.9922999854316004e-05
6656.0,5.349796083464753e-06
7168.0,0.00012856248940806836
7680.0,0.0001052559819072485
8192.0,-6.705708801746368e-05
9216.0,0.0001329430815530941
10240.0,-6.941957690287381e-05
11264.0,-2.2486467059934512e-05
12288.0,-0.0002472526393830776
13312.0,1.0226088306808379e-05
14336.0,5.2174480515532196e-05
end
