version,3.0
numOfCh,1
type,point
parent_name,40-cuts
ch_type,1_1
kcount,1
numberNandB,1
brightnessNandB,1
carpet pos,0
pc,0
Time (ms),CH1 Auto-Correlation
1.0,0.02853153832256794
2.0,0.023672278970479965
3.0,0.020072348415851593
4.0,0.017404422163963318
5.0,0.015377315692603588
6.0,0.013799469918012619
7.0,0.012405071407556534
8.0,0.011506489478051662
9.0,0.010561715811491013
10.0,0.009826737456023693
11.0,0.009308521635830402
12.0,0.008619314059615135
13.0,0.00810908805578947
14.0,0.00778754148632288
15.0,0.007389659062027931
16.0,0.007037128787487745
18.0,0.006181312724947929
20.0,0.005425449460744858
22.0,0.005085354670882225
24.0,0.004862695932388306
26.0,0.004480037838220596
28.0,0.003939914517104626
30.0,0.0036260876804590225
32.0,0.0036853975616395473
36.0,0.003441459499299526
40.0,0.0028310315683484077
44.0,0.002228765981271863
48.0,0.0019530898425728083
52.0,0.002077015582472086
56.0,0.0020714320708066225
60.0,0.002304717665538192
64.0,0.0022399176377803087
72.0,0.0024476770777255297
80.0,0.0014695621794089675
88.0,0.0009296075440943241
96.0,0.0010391907999292016
104.0,0.00018898605776485056
112.0,0.00023208513448480517
120.0,-5.467305891215801e-05
128.0,-0.00022013178386259824
144.0,-0.0005240060272626579
160.0,-0.00012396194506436586
176.0,-0.00013139270595274866
192.0,-0.0007585791754536331
208.0,-0.0006229148712009192
224.0,-0.0005417590145953
240.0,0.00012896170665044338
256.0,-9.1617061116267e-05
288.0,0.00019594462355598807
320.0,-0.0006777485250495374
352.0,-0.0005297763855196536
384.0,1.3440713701129425e-05
416.0,0.0005107453325763345
448.0,0.00033804241684265435
480.0,0.0007684989250265062
512.0,0.0010652831988409162
576.0,0.00024686139659024775
640.0,-0.0002920475380960852
704.0,6.62866877974011e-05
768.0,0.0005298077594488859
832.0,0.0005215979181230068
896.0,0.0006367682944983244
960.0,-2.0349341866676696e-05
1024.0,5.4642045142827556e-05
1152.0,0.0005419694934971631
1280.0,-0.0014980589039623737
1408.0,-0.0001784691703505814
1536.0,-0.00029106653528288007
1664.0,0.0006288776639848948
1792.0,-1.4195354196999688e-05
1920.0,0.0009847487090155482
2048.0,-7.408594683511183e-05
2304.0,-0.00020949848112650216
2560.0,-9.042735655384604e-06
2816.0,0.0002661666658241302
3072.0,-9.855739335762337e-05
3328.0,-0.00036999283474870026
3584.0,0.0002822790411300957
3840.0,-0.0001193289936054498
4096.0,-0.0002518682449590415
4608.0,0.00023103201237972826
5120.0,0.00018007770995609462
5632.0,0.00020961246627848595
6144.0,0.00032409944105893373
6656.0,3.388645563973114e-05
7168.0,-0.00011793493467848748
7680.0,-0.000602984509896487
8192.0,-0.0004357714205980301
9216.0,-7.07236904418096e-05
10240.0,-0.00037222952232696116
11264.0,-0.00011688987433444709
12288.0,6.949083763174713e-05
13312.0,-0.0008598415297456086
14336.0,-0.0008190213120542467
end
