version,3.0
numOfCh,1
type,point
parent_name,40-cuts
ch_type,1_1
kcount,1
numberNandB,1
brightnessNandB,1
carpet pos,0
pc,0
Time (ms),CH1 Auto-Correlation
1.0,0.01587836630642414
2.0,0.013129140250384808
3.0,0.011239541694521904
4.0,0.009710632264614105
5.0,0.008539050817489624
6.0,0.007508930750191212
7.0,0.006761528551578522
8.0,0.006131852511316538
9.0,0.005578985437750816
10.0,0.005126697476953268
11.0,0.004727465566247702
12.0,0.004387545399367809
13.0,0.004114562179893255
14.0,0.0038796537555754185
15.0,0.00362690188921988
16.0,0.003367128549143672
18.0,0.0029295512940734625
20.0,0.002631267299875617
22.0,0.0021790796890854836
24.0,0.0017854711040854454
26.0,0.0016194750787690282
28.0,0.0014670166419818997
30.0,0.0014816438779234886
32.0,0.0014981644926592708
36.0,0.0012582991039380431
40.0,0.0008332666475325823
44.0,0.000489622529130429
48.0,0.0003309824678581208
52.0,0.00040046361391432583
56.0,0.000456029549241066
60.0,0.00034269923344254494
64.0,0.0002652251278050244
72.0,0.00039748233393765986
80.0,0.00027264730306342244
88.0,0.00022324903693515807
96.0,6.035136175341904e-05
104.0,0.00024479065905325115
112.0,-0.00011259791790507734
120.0,-0.0004233467916492373
128.0,0.00012098684237571433
144.0,0.0006753937341272831
160.0,0.0008179436554200947
176.0,0.0006702902028337121
192.0,0.00030709890415892005
208.0,0.0001610913168406114
224.0,0.00013083504745736718
240.0,0.00013952943845652044
256.0,0.00018952068057842553
288.0,0.00035489650326780975
320.0,0.0003818251716438681
352.0,0.00024783439585007727
384.0,0.0005562602891586721
416.0,9.304677223553881e-05
448.0,-0.00022007315419614315
480.0,0.0002128315536538139
512.0,0.00010132732131751254
576.0,-0.0009561054757796228
640.0,6.360516999848187e-05
704.0,4.0330563933821395e-05
768.0,-0.00041865563252940774
832.0,-0.0001653871440794319
896.0,-0.00044144195271655917
960.0,-0.0005899210809729993
1024.0,-0.0001834543509176001
1152.0,-0.0001440869236830622
1280.0,-0.0004874870355706662
1408.0,-0.00010030569683294743
1536.0,3.6772940802620724e-05
1664.0,-9.068938379641622e-05
1792.0,0.0002499892725609243
1920.0,-0.00016741041326895356
2048.0,-8.631307719042525e-05
2304.0,-0.00021165631187614053
2560.0,-5.9355992561904714e-05
2816.0,0.0001258405391126871
3072.0,-4.99305097036995e-05
3328.0,0.00034217475331388414
3584.0,-0.000347631867043674
3840.0,-0.00018827157327905297
4096.0,-0.00012159183825133368
4608.0,0.00039977586129680276
5120.0,0.00018773319607134908
5632.0,-0.00022322825680021197
6144.0,-6.935704732313752e-05
6656.0,-5.418118598754518e-05
7168.0,-7.684583397349343e-05
7680.0,9.110006794799119e-05
8192.0,-4.261852154741064e-05
9216.0,0.00011615578841883689
10240.0,-2.3589991542394273e-05
11264.0,-4.1585732105886564e-05
12288.0,3.041460513486527e-05
13312.0,-3.7332090869313106e-05
14336.0,-2.8277800083742477e-05
end
