version,3.0
numOfCh,1
type,point
parent_name,40-cuts
ch_type,1_1
kcount,1
numberNandB,1
brightnessNandB,1
carpet pos,0
pc,0
Time (ms),CH1 Auto-Correlation
1.0,0.015800008550286293
2.0,0.012899168767035007
3.0,0.010912038385868073
4.0,0.009360577911138535
5.0,0.008283378556370735
6.0,0.007345085497945547
7.0,0.006537533365190029
8.0,0.005970328114926815
9.0,0.00542591093108058
10.0,0.004919559229165316
11.0,0.004503373522311449
12.0,0.004246696829795837
13.0,0.004007350653409958
14.0,0.0037942335475236177
15.0,0.003617991227656603
16.0,0.003438980085775256
18.0,0.0030284833628684282
20.0,0.0025780457071959972
22.0,0.0024306122213602066
24.0,0.0021834978833794594
26.0,0.0020140560809522867
28.0,0.0017026631394401193
30.0,0.0014901204267516732
32.0,0.0011471869656816125
36.0,0.0008082508575171232
40.0,0.0006824138690717518
44.0,0.0006828397745266557
48.0,0.0005289328400976956
52.0,0.0005321968928910792
56.0,0.0005468634772114456
60.0,0.00024224612570833415
64.0,7.742086017969996e-05
72.0,-0.0002409980515949428
80.0,-0.00012371169577818364
88.0,0.0001150400421465747
96.0,-0.00021591995027847588
104.0,-0.00044115062337368727
112.0,-0.0006366244633682072
120.0,-0.0003238026984035969
128.0,-8.543187141185626e-05
144.0,0.0005108867771923542
160.0,0.0007032217690721154
176.0,0.0011217029532417655
192.0,0.0008711395203135908
208.0,0.0003052176034543663
224.0,-8.745904051465914e-05
240.0,-0.0008166180341504514
256.0,-0.0006287787109613419
288.0,0.00017227992066182196
320.0,0.00027655629673972726
352.0,0.0003271899186074734
384.0,-0.00043553198338486254
416.0,-0.00017526838928461075
448.0,0.00021612949785776436
480.0,0.0009002781589515507
512.0,0.0004428197571542114
576.0,-0.00012960581807419658
640.0,0.0003647032135631889
704.0,-0.00013174413470551372
768.0,-0.0004277233383618295
832.0,0.00021379262034315616
896.0,-9.577184391673654e-05
960.0,0.0001464556116843596
1024.0,0.00028703524731099606
1152.0,-0.00012494153634179384
1280.0,-0.0005185646587051451
1408.0,-0.0006627258844673634
1536.0,-0.00010422980267321691
1664.0,-0.00031137114274315536
1792.0,-0.00025820438168011606
1920.0,-0.0004316955164540559
2048.0,0.00014643117901869118
2304.0,-0.00034298893297091126
2560.0,0.00019757777045015246
2816.0,5.169769428903237e-05
3072.0,-0.00012649390555452555
3328.0,1.481924391555367e-05
3584.0,0.00036388097214512527
3840.0,0.00010276163811795413
4096.0,0.0001600550313014537
4608.0,0.00013207487063482404
5120.0,-0.00011827701382571831
5632.0,-0.00023064691049512476
6144.0,-0.00039807482971809804
6656.0,0.0001147435323218815
7168.0,4.142319085076451e-05
7680.0,0.0003174160374328494
8192.0,0.00022649297898169607
9216.0,-0.00015529751544818282
10240.0,-0.0001226397871505469
11264.0,0.00023527344455942512
12288.0,-1.4560016097675543e-05
13312.0,-0.0001934124156832695
14336.0,0.00031748865148983896
end
