version,3.0
numOfCh,1
type,point
parent_name,40-cuts
ch_type,1_1
kcount,1
numberNandB,1
brightnessNandB,1
carpet pos,0
pc,0
Time (ms),CH1 Auto-Correlation
1.0,0.02782484143972397
2.0,0.0229638759046793
3.0,0.01941433735191822
4.0,0.01659052073955536
5.0,0.014549357816576958
6.0,0.013016418553888798
7.0,0.011777958832681179
8.0,0.010754471644759178
9.0,0.009919017553329468
10.0,0.009089140221476555
11.0,0.008338348008692265
12.0,0.007680268958210945
13.0,0.0071343244053423405
14.0,0.006700413767248392
15.0,0.006208887789398432
16.0,0.005885389633476734
18.0,0.0052675218321383
20.0,0.004973741713911295
22.0,0.004663936328142881
24.0,0.004367277026176453
26.0,0.003883649129420519
28.0,0.0034514295402914286
30.0,0.003246544860303402
32.0,0.0032638688571751118
36.0,0.0027605409268289804
40.0,0.0022163428366184235
44.0,0.001924350974150002
48.0,0.0015349360182881355
52.0,0.0010532516753301024
56.0,0.0012599488254636526
60.0,0.0015501311281695962
64.0,0.0015017406549304724
72.0,0.0010437282035127282
80.0,0.0011346031678840518
88.0,0.0011221395106986165
96.0,0.001021820236928761
104.0,0.0009898237185552716
112.0,0.001047481899149716
120.0,0.0003195632598362863
128.0,0.000791064347140491
144.0,0.0013580849627032876
160.0,0.0007763779140077531
176.0,0.0008113414514809847
192.0,0.00032021658262237906
208.0,2.10081252589589e-05
224.0,0.00015717055066488683
240.0,-0.00016106168914120644
256.0,0.00023989955661818385
288.0,0.000297106453217566
320.0,-0.0008909762836992741
352.0,0.0003772011259570718
384.0,0.0008092486532405019
416.0,0.00041978940134868026
448.0,0.0002686061488930136
480.0,0.0013574952026829123
512.0,0.001183411106467247
576.0,0.001010351232253015
640.0,0.0004302389279473573
704.0,0.00015043785970192403
768.0,-3.0169259844115004e-05
832.0,8.902966510504484e-05
896.0,0.0005374107859097421
960.0,0.00027862266870215535
1024.0,0.00016009948740247637
1152.0,-0.0003880708245560527
1280.0,-0.00032241520239040256
1408.0,0.00015549006639048457
1536.0,0.00023170156055130064
1664.0,-0.000691091874614358
1792.0,-0.0007442748756147921
1920.0,-0.0005934825167059898
2048.0,-0.00033901966526173055
2304.0,-0.00040459464071318507
2560.0,-0.0004208774189464748
2816.0,-0.0005771499709226191
3072.0,0.00016187602886930108
3328.0,-0.0003087976947426796
3584.0,0.00013266383029986173
3840.0,0.00014089132309891284
4096.0,0.00038803278584964573
4608.0,0.00039823102997615933
5120.0,1.963514841918368e-05
5632.0,-0.0005541382124647498
6144.0,-0.00031559227500110865
6656.0,-0.00016008081729523838
7168.0,8.878934750100598e-05
7680.0,0.0006347480812110007
8192.0,0.0009522840264253318
9216.0,-8.74509169079829e-06
10240.0,-0.0009746629511937499
11264.0,-0.0005957971443422139
12288.0,-0.0001331732200924307
13312.0,0.0002482564595993608
14336.0,0.0005939078400842845
end
