version,3.0
numOfCh,1
type,point
parent_name,40-cuts
ch_type,1_1
kcount,1
numberNandB,1
brightnessNandB,1
carpet pos,0
pc,0
Time (ms),CH1 Auto-Correlation
1.0,0.017078407108783722
2.0,0.01405071746557951
3.0,0.011993423104286194
4.0,0.01052653044462204
5.0,0.00934478361159563
6.0,0.008370645344257355
7.0,0.007532577030360699
8.0,0.006937497295439243
9.0,0.006506630219519138
10.0,0.006130867637693882
11.0,0.005904628429561853
12.0,0.005597719457000494
13.0,0.005393856670707464
14.0,0.005080833099782467
15.0,0.004852685146033764
16.0,0.004575039725750685
18.0,0.004094789735972881
20.0,0.0034987321123480797
22.0,0.0032230864744633436
24.0,0.003087590914219618
26.0,0.002996009774506092
28.0,0.00293782539665699
30.0,0.0026718154549598694
32.0,0.0025504878722131252
36.0,0.002218815265223384
40.0,0.0021525907795876265
44.0,0.0019055043812841177
48.0,0.0018461835570633411
52.0,0.0019278217805549502
56.0,0.0018496992997825146
60.0,0.0017369634006172419
64.0,0.001652092207223177
72.0,0.0012658778578042984
80.0,0.0013817748986184597
88.0,0.0013204265851527452
96.0,0.0012519825249910355
104.0,0.0011277510784566402
112.0,0.000721072603482753
120.0,0.00046780164120718837
128.0,0.0002343654923606664
144.0,0.00011295069271000102
160.0,0.0005299638723954558
176.0,0.00045305717503651977
192.0,0.0003900438314303756
208.0,-0.0001069977370207198
224.0,-0.00017563240544404835
240.0,-0.0004896764876320958
256.0,-0.0009708881843835115
288.0,-0.00116392329800874
320.0,-0.000941119622439146
352.0,-0.00103574653621763
384.0,-0.0007397838053293526
416.0,-0.0006327206501737237
448.0,-0.00018795538926497102
480.0,0.0002755800960585475
512.0,-4.8538811824982986e-05
576.0,0.00015051494119688869
640.0,8.626225462649018e-05
704.0,-0.0005607566563412547
768.0,-0.0004927674308419228
832.0,-0.00019992701709270477
896.0,-3.599822593969293e-05
960.0,2.869107220249134e-06
1024.0,0.00022470267140306532
1152.0,-7.77091845520772e-05
1280.0,-6.935009878361598e-05
1408.0,-3.070713864872232e-05
1536.0,-0.0001350632810499519
1664.0,-2.643028892634902e-05
1792.0,-1.1934646863664966e-05
1920.0,-0.0002925492590293288
2048.0,-0.00035855601890943944
2304.0,-0.00018359720706939697
2560.0,0.0003268240543548018
2816.0,-0.0005147982155904174
3072.0,0.0003720131644513458
3328.0,-0.00020380422938615084
3584.0,0.0004290156939532608
3840.0,0.00011433317558839917
4096.0,-0.0002011305623454973
4608.0,-0.0001268372725462541
5120.0,-7.244045264087617e-05
5632.0,4.589113302699843e-07
6144.0,0.0002722686913330108
6656.0,-6.61770100123249e-05
7168.0,-0.00010442580241942778
7680.0,-0.0002711783745326102
8192.0,0.00024069423670880497
9216.0,-2.4295820821862435e-06
10240.0,-2.8093738364987075e-05
11264.0,-0.00021710847795475274
12288.0,0.00015795578656252474
13312.0,9.76300798356533e-05
14336.0,0.00014364297385327518
end
