version,3.0
numOfCh,1
type,point
parent_name,40-cuts
ch_type,1_1
kcount,1
numberNandB,1
brightnessNandB,1
carpet pos,0
pc,0
Time (ms),CH1 Auto-Correlation
1.0,0.01640157587826252
2.0,0.013494085520505905
3.0,0.011481031775474548
4.0,0.009968702681362629
5.0,0.008755091577768326
6.0,0.007811510935425758
7.0,0.007117198780179024
8.0,0.0066010779701173306
9.0,0.006158500909805298
10.0,0.005696875508874655
11.0,0.0052799382247030735
12.0,0.0050253067165613174
13.0,0.004753026179969311
14.0,0.004454025998711586
15.0,0.0042329407297074795
16.0,0.004034986719489098
18.0,0.0035889684222638607
20.0,0.0032032839953899384
22.0,0.0028992604929953814
24.0,0.0026577708777040243
26.0,0.00248448783531785
28.0,0.0023055756464600563
30.0,0.0019385296618565917
32.0,0.0017782060895115137
36.0,0.0014261867618188262
40.0,0.0013200289104133844
44.0,0.0013598488876596093
48.0,0.0012994445860385895
52.0,0.000998150440864265
56.0,0.0008298443863168359
60.0,0.0008867834694683552
64.0,0.0012304260162636638
72.0,0.0010011076228693128
80.0,0.0005055670044384897
88.0,2.1953745090286247e-05
96.0,-2.3496599169448018e-05
104.0,0.00024380690592806786
112.0,0.0006396942189894617
120.0,0.0006594419246539474
128.0,0.00024875946110114455
144.0,7.046840619295835e-05
160.0,0.0004839024040848017
176.0,0.00033230389817617834
192.0,0.0005350735737010837
208.0,0.0001108817377826199
224.0,0.0002792404848150909
240.0,0.0004450366541277617
256.0,-8.076130325207487e-05
288.0,0.0002876778307836503
320.0,0.0004048435657750815
352.0,0.00018473243108019233
384.0,0.00011589622590690851
416.0,6.593039142899215e-05
448.0,0.00025868849479593337
480.0,0.00033801241079345345
512.0,-0.00012155751755926758
576.0,4.315953265177086e-05
640.0,-0.0003681883681565523
704.0,-0.00019403196347411722
768.0,0.000152142922161147
832.0,-0.0006332597695291042
896.0,-3.354158980073407e-05
960.0,0.00024027342442423105
1024.0,-0.00011215302220080048
1152.0,-0.0005238038720563054
1280.0,1.5157304915192071e-05
1408.0,-0.0003353665815666318
1536.0,-0.00035170975024811924
1664.0,-0.0003079558664467186
1792.0,0.00036941765574738383
1920.0,-0.00036567903589457273
2048.0,0.0005375575856305659
2304.0,-1.765464730851818e-05
2560.0,0.00011253157572355121
2816.0,6.030909935361706e-05
3072.0,-0.0003378681722097099
3328.0,-0.0001817480515455827
3584.0,0.00016341063019353896
3840.0,-6.207630940480158e-05
4096.0,8.285384683404118e-05
4608.0,-0.0003847861953545362
5120.0,-0.00010704399028327316
5632.0,-0.00022502464707940817
6144.0,0.0002731728018261492
6656.0,-0.00026723023620434105
7168.0,-8.381259976886213e-05
7680.0,0.00024787758593447506
8192.0,0.00022613127657677978
9216.0,-4.409460598253645e-05
10240.0,-6.314604979706928e-05
11264.0,0.00018276163609698415
12288.0,-0.00010363839101046324
13312.0,-0.00026987495948560536
14336.0,0.00023090955801308155
end
