version,3.0
numOfCh,1
type,point
parent_name,40-cuts
ch_type,1_1
kcount,1
numberNandB,1
brightnessNandB,1
carpet pos,0
pc,0
Time (ms),CH1 Auto-Correlation
1.0,0.016796458512544632
2.0,0.013979491777718067
3.0,0.011873862706124783
4.0,0.010250398889183998
5.0,0.009014490991830826
6.0,0.00799488928169012
7.0,0.0071275318041443825
8.0,0.0064084334298968315
9.0,0.0058906590566039085
10.0,0.005451183766126633
11.0,0.005009431391954422
12.0,0.0047472454607486725
13.0,0.004467671271413565
14.0,0.0042267548851668835
15.0,0.00393759785220027
16.0,0.003618614049628377
18.0,0.00326520181261003
20.0,0.003063222160562873
22.0,0.0026466341223567724
24.0,0.0021442901343107224
26.0,0.0017000461230054498
28.0,0.0012793290661647916
30.0,0.0009686973062343895
32.0,0.000935260730329901
36.0,0.0007898506009951234
40.0,0.000469610356958583
44.0,0.0005137752741575241
48.0,0.0005128831835463643
52.0,0.0004398707824293524
56.0,0.0001384355127811432
60.0,-0.0002280211920151487
64.0,-0.00011471015022834763
72.0,-0.00012296048225834966
80.0,0.00013298359408508986
88.0,0.0003827746259048581
96.0,0.00030845514265820384
104.0,0.00031583753298036754
112.0,0.0001437469618394971
120.0,0.00034785663592629135
128.0,0.00035739640588872135
144.0,4.6718112571397796e-05
160.0,-2.1732121240347624e-06
176.0,0.00028097580070607364
192.0,0.00023286876967176795
208.0,0.00013806002971250564
224.0,0.0006619791965931654
240.0,0.0005380927468650043
256.0,0.0003364456060808152
288.0,0.00033754357718862593
320.0,-3.147676034132019e-05
352.0,-0.00040022985194809735
384.0,1.9304474335513078e-05
416.0,-4.15295799029991e-05
448.0,0.0005280838813632727
480.0,-0.00011981587886111811
512.0,-0.00035847866092808545
576.0,-0.000526582938618958
640.0,-0.00024319476506207138
704.0,-3.0395705834962428e-05
768.0,-0.0003081719914916903
832.0,2.7435622541815974e-05
896.0,0.0002109709894284606
960.0,0.0003740921092685312
1024.0,-0.00012252146552782506
1152.0,4.39837240264751e-05
1280.0,-0.0002439306117594242
1408.0,-5.623496326734312e-05
1536.0,-0.0003923018230125308
1664.0,-7.6496580732055e-06
1792.0,0.00046304170973598957
1920.0,-0.00016030257393140346
2048.0,-1.1354593880241737e-05
2304.0,0.0002524281735531986
2560.0,-7.539675607404206e-06
2816.0,-0.0003397234540898353
3072.0,-0.00026364991208538413
3328.0,-0.0002528025070205331
3584.0,0.00013774167746305466
3840.0,6.720501551171765e-05
4096.0,0.0002603055618237704
4608.0,-0.00014647039643023163
5120.0,-0.0004478767514228821
5632.0,0.00016302565927617252
6144.0,6.225158722372726e-05
6656.0,0.00015145463112276047
7168.0,-0.0003237700730096549
7680.0,0.000342532031936571
8192.0,-5.058279202785343e-05
9216.0,-5.151842924533412e-05
10240.0,-5.851178502780385e-05
11264.0,-0.00010873330757021904
12288.0,0.00010929892596323043
13312.0,0.00028424992342479527
14336.0,0.00015830565826036036
end
