version,3.0
numOfCh,1
type,point
parent_name,40-cuts
ch_type,1_1
kcount,1
numberNandB,1
brightnessNandB,1
carpet pos,0
pc,0
Time (ms),CH1 Auto-Correlation
1.0,0.028203118592500687
2.0,0.02326994016766548
3.0,0.019815808162093163
4.0,0.017252935096621513
5.0,0.015422023832798004
6.0,0.013976238667964935
7.0,0.012706540524959564
8.0,0.011680127121508121
9.0,0.010793983936309814
10.0,0.010114999487996101
11.0,0.009317208081483841
12.0,0.00869567971676588
13.0,0.008172604255378246
14.0,0.007744902744889259
15.0,0.007271205075085163
16.0,0.006665403489023447
18.0,0.0057408190332353115
20.0,0.004922622349113226
22.0,0.0044937897473573685
24.0,0.004251229576766491
26.0,0.00389590160921216
28.0,0.0036143038887530565
30.0,0.003434720914810896
32.0,0.0030639441683888435
36.0,0.0025015431456267834
40.0,0.002207478042691946
44.0,0.0021552119869738817
48.0,0.00223636906594038
52.0,0.001728538889437914
56.0,0.0016876847948879004
60.0,0.0016650034813210368
64.0,0.0013381200842559338
72.0,0.001114792306907475
80.0,0.0004298505955375731
88.0,-0.0002162754681194201
96.0,0.00012208476255182177
104.0,4.94020787300542e-05
112.0,0.00040215341141447425
120.0,0.0002620505401864648
128.0,0.000183358060894534
144.0,0.0005096090026199818
160.0,0.00042515480890870094
176.0,0.00014733272837474942
192.0,-2.357265202590497e-06
208.0,0.0003723015252035111
224.0,-2.456779475323856e-05
240.0,-0.00012868409976363182
256.0,-0.0005699608009308577
288.0,0.0003074791166000068
320.0,-0.00020490433962550014
352.0,2.037803642451763e-05
384.0,0.000938153883907944
416.0,0.00095997320022434
448.0,-8.160285506164655e-05
480.0,-1.4038989320397377e-05
512.0,0.0009854070376604795
576.0,0.0006229357095435262
640.0,-0.0010307166958227754
704.0,0.0005613491521216929
768.0,0.00020467577269300818
832.0,0.0010031700367107987
896.0,0.00035867688711732626
960.0,0.0007679328555241227
1024.0,0.00025437146541662514
1152.0,-0.00020248733926564455
1280.0,0.0004893206642009318
1408.0,-0.0006098164012655616
1536.0,-0.000858660729136318
1664.0,-0.0007382615585811436
1792.0,-4.5568690438813064e-06
1920.0,-6.857635162305087e-05
2048.0,-0.001007308135740459
2304.0,-0.0002816977212205529
2560.0,-0.0006121278856880963
2816.0,-0.0003074333362746984
3072.0,-0.00014160927094053477
3328.0,1.0821943760674912e-05
3584.0,0.00021710895816795528
3840.0,-4.924507447867654e-05
4096.0,0.00014021439710631967
4608.0,0.00036672657006420195
5120.0,7.275469397427514e-05
5632.0,-0.0003319784882478416
6144.0,-0.00029888784047216177
6656.0,-0.00037875433918088675
7168.0,-6.856654363218695e-05
7680.0,-0.00024619087344035506
8192.0,0.0001094648614525795
9216.0,9.189867705572397e-05
10240.0,0.0002515965315978974
11264.0,0.00026870661531575024
12288.0,-7.974466279847547e-05
13312.0,-0.00030029378831386566
14336.0,-7.569597801193595e-05
end
