version,3.0
numOfCh,1
type,point
parent_name,40-cuts
ch_type,1_1
kcount,1
numberNandB,1
brightnessNandB,1
carpet pos,0
pc,0
Time (ms),CH1 Auto-Correlation
1.0,0.01716672070324421
2.0,0.014088750816881657
3.0,0.011837291531264782
4.0,0.010248621925711632
5.0,0.008992652408778667
6.0,0.007961070165038109
7.0,0.007108278572559357
8.0,0.006470806431025267
9.0,0.005927466321736574
10.0,0.005430622957646847
11.0,0.004993597511202097
12.0,0.004628106951713562
13.0,0.00428012665361166
14.0,0.0040554082952439785
15.0,0.0036865430884063244
16.0,0.003402404487133026
18.0,0.00311643467284739
20.0,0.00279711140319705
22.0,0.0024349172599613667
24.0,0.00215550628490746
26.0,0.0018713485915213823
28.0,0.0017681645695120096
30.0,0.0016735093668103218
32.0,0.0016536610201001167
36.0,0.001556640723720193
40.0,0.0014382828958332539
44.0,0.0012773429043591022
48.0,0.00114977837074548
52.0,0.0010569299338385463
56.0,0.0008270080434158444
60.0,0.0006405205349437892
64.0,0.0007107689161784947
72.0,0.0009504728368483484
80.0,0.0007639485411345959
88.0,0.0007981712114997208
96.0,0.0005623227916657925
104.0,0.00047582737170159817
112.0,0.00041564065031707287
120.0,0.00018788347369991243
128.0,-0.00031260467949323356
144.0,-7.81578928581439e-05
160.0,-0.00023564917501062155
176.0,0.00022951376740820706
192.0,0.0006606662063859403
208.0,0.00030346939456649125
224.0,5.970996789983474e-05
240.0,0.0004217975656501949
256.0,0.00011666743375826627
288.0,0.00012668089766521007
320.0,-0.0003237249911762774
352.0,-0.0005329743144102395
384.0,-0.00020808738190680742
416.0,-5.7148965424858034e-05
448.0,-6.188183760968968e-05
480.0,-0.00033863825956359506
512.0,-2.355586002522614e-05
576.0,0.0005078164977021515
640.0,0.00022946424724068493
704.0,-0.00011405796249164268
768.0,-0.0004055323952343315
832.0,0.0002454274508636445
896.0,0.0005213286494836211
960.0,-8.834717300487682e-05
1024.0,5.5729466112097725e-05
1152.0,0.0003568144456949085
1280.0,0.0004166751750744879
1408.0,-0.00010735280375229195
1536.0,-6.51057853247039e-05
1664.0,0.0002983921149279922
1792.0,-7.226581510622054e-05
1920.0,-0.00034032767871394753
2048.0,-6.345746805891395e-05
2304.0,0.00014456153439823538
2560.0,0.00016484479419887066
2816.0,-4.198320675641298e-05
3072.0,-0.0006402264116331935
3328.0,-0.0003719621163327247
3584.0,0.0002257830637972802
3840.0,-4.153631743974984e-05
4096.0,8.916811202652752e-05
4608.0,-9.321714605903253e-05
5120.0,9.229622264683712e-06
5632.0,-0.00030906684696674347
6144.0,0.0005355297471396625
6656.0,-0.0003862884477712214
7168.0,-0.00023318585590459406
7680.0,-9.532837430015206e-05
8192.0,-0.0003742118424270302
9216.0,-0.0001104804832721129
10240.0,4.052753502037376e-05
11264.0,-1.040576353261713e-05
12288.0,7.650892803212628e-05
13312.0,-7.203580753412098e-05
14336.0,2.953357034130022e-05
end
