version,3.0
numOfCh,1
type,point
parent_name,40-cuts
ch_type,1_1
kcount,1
numberNandB,1
brightnessNandB,1
carpet pos,0
pc,0
Time (ms),CH1 Auto-Correlation
1.0,0.02788500115275383
2.0,0.022955751046538353
3.0,0.019507072865962982
4.0,0.01696419157087803
5.0,0.014765382744371891
6.0,0.013250228948891163
7.0,0.012072639539837837
8.0,0.011067084036767483
9.0,0.010278838686645031
10.0,0.009548766538500786
11.0,0.008989961817860603
12.0,0.008609846234321594
13.0,0.008156138472259045
14.0,0.0077315387316048145
15.0,0.0071790083311498165
16.0,0.006801069714128971
18.0,0.006336405873298645
20.0,0.005631143692880869
22.0,0.005128853488713503
24.0,0.0048117609694600105
26.0,0.004529876168817282
28.0,0.004185830242931843
30.0,0.0038788390811532736
32.0,0.0037331078201532364
36.0,0.0032441543880850077
40.0,0.002412122441455722
44.0,0.002060451777651906
48.0,0.0012781431432813406
52.0,0.0010281532304361463
56.0,0.0010891201673075557
60.0,0.0014008653815835714
64.0,0.0015081660822033882
72.0,0.00042392834438942373
80.0,0.0002564636815804988
88.0,0.0012400136329233646
96.0,0.0010841824114322662
104.0,0.0005760652711614966
112.0,0.0005586832412518561
120.0,-0.0001657691755099222
128.0,0.00023501281975768507
144.0,0.00035110165481455624
160.0,0.0006077626603655517
176.0,0.0011676716385409236
192.0,0.000306472007650882
208.0,-0.0007867483654990792
224.0,-0.0004409673565533012
240.0,3.9899914554553106e-05
256.0,0.00020149412739556283
288.0,-0.00013112270971760154
320.0,0.00020419001521077007
352.0,6.175699672894552e-05
384.0,0.00046372361248359084
416.0,-0.00010815184941748157
448.0,-0.0006014996906742454
480.0,-0.0007782550528645515
512.0,-0.0004738131246995181
576.0,-0.00012671890726778656
640.0,0.0004472767177503556
704.0,-0.0003916344721801579
768.0,-0.0005565586034208536
832.0,-0.000983722973614931
896.0,7.623753481311724e-05
960.0,3.0125091143418103e-05
1024.0,-0.00013830041280016303
1152.0,-0.00022096298926044255
1280.0,0.00017416062473785132
1408.0,-0.00032743916381150484
1536.0,0.000680214841850102
1664.0,1.3542410215450218e-06
1792.0,-0.001221315935254097
1920.0,0.000714516791049391
2048.0,0.0003894055844284594
2304.0,4.11206237913575e-05
2560.0,-0.0004831860715057701
2816.0,-0.00023690947273280472
3072.0,-0.0005035424837842584
3328.0,3.448451388976537e-05
3584.0,0.0007246878813020885
3840.0,7.172158075263724e-05
4096.0,-0.00041262086597271264
4608.0,-4.1872212023008615e-05
5120.0,-0.0004370439564809203
5632.0,0.00022714670922141522
6144.0,-0.0005216624122112989
6656.0,-0.0001185585861094296
7168.0,0.0005884034908376634
7680.0,0.0004707417683675885
8192.0,-0.00024091987870633602
9216.0,7.010701665421948e-05
10240.0,-2.5256687877117656e-05
11264.0,-0.0003579487092792988
12288.0,0.00033355047344230115
13312.0,-0.00041005684761330485
14336.0,0.0004459389892872423
end
