version,3.0
numOfCh,1
type,point
parent_name,40-cuts
ch_type,1_1
kcount,1
numberNandB,1
brightnessNandB,1
carpet pos,0
pc,0
Time (ms),CH1 Auto-Correlation
1.0,0.015927065163850784
2.0,0.012931239791214466
3.0,0.010808487422764301
4.0,0.009141739457845688
5.0,0.007800696883350611
6.0,0.006881833076477051
7.0,0.006193996407091618
8.0,0.005586658604443073
9.0,0.005045274738222361
10.0,0.004629419185221195
11.0,0.004191234707832336
12.0,0.0038663141895085573
13.0,0.0036875810474157333
14.0,0.003472427371889353
15.0,0.003347269957885146
16.0,0.0031978071201592684
18.0,0.0027840358670800924
20.0,0.002511426340788603
22.0,0.002237981650978327
24.0,0.002226848155260086
26.0,0.0020960159599781036
28.0,0.0018786489963531494
30.0,0.0018380627734586596
32.0,0.0018946952186524868
36.0,0.0017617493867874146
40.0,0.0012089575175195932
44.0,0.0009986375225707889
48.0,0.000843556656036526
52.0,0.0004961059894412756
56.0,0.00021956092678010464
60.0,0.00023515963403042406
64.0,0.00026297784643247724
72.0,0.0004496677138376981
80.0,0.00035215288517065346
88.0,0.00026248980429954827
96.0,0.00032299995655193925
104.0,0.00039133496466092765
112.0,0.00031772872898727655
120.0,0.0003787497116718441
128.0,0.0002594882680568844
144.0,0.0004567774885799736
160.0,0.0003290236054453999
176.0,0.0002689090615604073
192.0,0.00016663964197505265
208.0,-2.206937460869085e-05
224.0,-0.000514169514644891
240.0,-0.0005222497857175767
256.0,-0.00015787332085892558
288.0,-2.0763192878803238e-05
320.0,0.00015853402146603912
352.0,0.0005419186782091856
384.0,0.00020436964405234903
416.0,-0.00021481479052454233
448.0,0.00032586086308583617
480.0,0.0005429773009382188
512.0,3.482606916804798e-05
576.0,0.00014653883408755064
640.0,-7.454038131982088e-05
704.0,-1.3916593161411583e-05
768.0,-0.00048550753854215145
832.0,0.0004175262001808733
896.0,0.0003933378029614687
960.0,2.8442567781894468e-05
1024.0,0.00010772286623250693
1152.0,-0.00047117265057750046
1280.0,-0.000249131815508008
1408.0,0.0002809084253385663
1536.0,3.2937925880105468e-06
1664.0,-0.00011870584421558306
1792.0,0.0003883398021571338
1920.0,0.0003143844660371542
2048.0,-0.0005642811302095652
2304.0,5.2717758080689237e-05
2560.0,-7.561790698673576e-05
2816.0,7.372656909865327e-06
3072.0,-0.00015722052194178104
3328.0,0.0002532172075007111
3584.0,7.530492439400405e-05
3840.0,-3.4352622606093064e-05
4096.0,-6.790308543713763e-05
4608.0,-0.00021192744316067547
5120.0,-0.00032767001539468765
5632.0,-7.089506834745407e-05
6144.0,-0.00021962997561786324
6656.0,-8.329975389642641e-05
7168.0,0.00012176940072095022
7680.0,-0.00012092620454495773
8192.0,-9.494145342614502e-05
9216.0,5.607835191767663e-05
10240.0,0.00020992216013837606
11264.0,8.959922706708312e-05
12288.0,-0.00010223202843917534
13312.0,0.0003942612383980304
14336.0,0.0001112035897676833
end
