version,3.0
numOfCh,1
type,point
parent_name,40-cuts
ch_type,1_1
kcount,1
numberNandB,1
brightnessNandB,1
carpet pos,0
pc,0
Time (ms),CH1 Auto-Correlation
1.0,0.015666553750634193
2.0,0.012695669196546078
3.0,0.010659771040081978
4.0,0.009077607654035091
5.0,0.007954775355756283
6.0,0.006986169144511223
7.0,0.006154327187687159
8.0,0.005486710462719202
9.0,0.004891589283943176
10.0,0.004530948121100664
11.0,0.004038235638290644
12.0,0.0036046085879206657
13.0,0.003149075200781226
14.0,0.0028209856245666742
15.0,0.0024698174092918634
16.0,0.002102389233186841
18.0,0.00176034786272794
20.0,0.0012976559810340405
22.0,0.0008979612612165511
24.0,0.0006796987145207822
26.0,0.0006243572570383549
28.0,0.0005783181404694915
30.0,0.0004159690288361162
32.0,0.00032496167114004493
36.0,0.00037915806751698256
40.0,0.0002602523018140346
44.0,0.00018038079724647105
48.0,0.0002901190018747002
52.0,0.00028838595608249307
56.0,0.00027279648929834366
60.0,0.00017021375242620707
64.0,6.084963752073236e-05
72.0,-0.00010400122118880972
80.0,-0.00030112656531855464
88.0,-0.00019104036618955433
96.0,-0.00012162332131993026
104.0,-6.86059138388373e-05
112.0,2.801374466798734e-05
120.0,-4.099392390344292e-05
128.0,-9.282164683099836e-05
144.0,-0.00020974810468032956
160.0,-0.00032252169330604374
176.0,-4.7323680973931914e-07
192.0,7.063518569339067e-05
208.0,-6.250193109735847e-05
224.0,0.00033140601590275764
240.0,0.00030848896130919456
256.0,9.711239545140415e-05
288.0,-9.008828055812046e-05
320.0,-0.0005137678235769272
352.0,-0.0005561595316976309
384.0,-0.0005126657197251916
416.0,-0.00015075599367264658
448.0,-5.3731877414975315e-05
480.0,0.0005454530473798513
512.0,-9.757064253790304e-05
576.0,-0.00041703786700963974
640.0,-3.7488131056306884e-05
704.0,-0.0002782679512165487
768.0,-7.753135287202895e-05
832.0,-0.0002409838925814256
896.0,6.89947628416121e-05
960.0,-0.00012934683763887733
1024.0,-0.00020391939324326813
1152.0,0.00013535242760553956
1280.0,7.966956036398187e-05
1408.0,5.252310074865818e-05
1536.0,6.09697999607306e-05
1664.0,-0.0002398741926299408
1792.0,-0.00019110305584035814
1920.0,0.00014191761147230864
2048.0,0.00023484312987420708
2304.0,-0.00011948985047638416
2560.0,-9.128307283390313e-05
2816.0,9.65199142228812e-05
3072.0,-9.454186510993168e-05
3328.0,-5.113682345836423e-05
3584.0,4.6981029299786314e-05
3840.0,0.00015076925046741962
4096.0,-5.264232095214538e-05
4608.0,2.15816999116214e-05
5120.0,0.00010988370195263997
5632.0,-0.00014825438847765326
6144.0,3.1036594009492546e-05
6656.0,9.573160787113011e-05
7168.0,-5.927369102209923e-07
7680.0,-6.213486631168053e-05
8192.0,-6.706215208396316e-05
9216.0,-8.93725809874013e-05
10240.0,4.508302663452923e-05
11264.0,6.565448711626232e-05
12288.0,-6.43334788037464e-05
13312.0,-2.6206062102573924e-05
14336.0,-4.9165988457389176e-05
end
