version,3.0
numOfCh,1
type,point
parent_name,40-cuts
ch_type,1_1
kcount,1
numberNandB,1
brightnessNandB,1
carpet pos,0
pc,0
Time (ms),CH1 Auto-Correlation
1.0,0.026387589052319527
2.0,0.02134251594543457
3.0,0.018042076379060745
4.0,0.01555242482572794
5.0,0.013719156384468079
6.0,0.012231112457811832
7.0,0.010957557708024979
8.0,0.009925216436386108
9.0,0.009089362807571888
10.0,0.008380907587707043
11.0,0.007769427262246609
12.0,0.007270323112607002
13.0,0.006782937794923782
14.0,0.006472730077803135
15.0,0.006236972287297249
16.0,0.005870681256055832
18.0,0.0052567459642887115
20.0,0.004944740794599056
22.0,0.004618172533810139
24.0,0.004141141660511494
26.0,0.003667161799967289
28.0,0.0034099877811968327
30.0,0.0035289637744426727
32.0,0.0033652649726718664
36.0,0.002775515429675579
40.0,0.0025295885279774666
44.0,0.002215171465650201
48.0,0.0019494405714794993
52.0,0.001453690230846405
56.0,0.0012594179715961218
60.0,0.0010898319305852056
64.0,0.0015465111937373877
72.0,0.0016615850618109107
80.0,0.0012362723937258124
88.0,0.0007179378299042583
96.0,0.0005933320499025285
104.0,9.86545182968257e-06
112.0,-0.00018149787501897663
120.0,0.00037565059028565884
128.0,0.00015034465468488634
144.0,0.0003438098356127739
160.0,4.657490717363544e-05
176.0,0.0007208760944195092
192.0,0.0011193237733095884
208.0,0.0004222749557811767
224.0,0.0004304801404941827
240.0,-0.000573989877011627
256.0,-0.00017663293692748994
288.0,-0.00020041075185872614
320.0,4.634041033568792e-05
352.0,-5.226763823884539e-05
384.0,-3.780255792662501e-05
416.0,0.00012053234240738675
448.0,0.00038400565972551703
480.0,-0.0005640500457957387
512.0,-0.00018741728854365647
576.0,0.0002225622592959553
640.0,0.00033222249476239085
704.0,-0.0006891140947118402
768.0,-0.0009080818272195756
832.0,-0.0005731447599828243
896.0,-0.0005143302259966731
960.0,-0.001214127871207893
1024.0,-0.0002788635902106762
1152.0,-0.0002490585029590875
1280.0,0.0001460162748117
1408.0,0.0006663116510026157
1536.0,0.0007130916346795857
1664.0,0.00014369354175869375
1792.0,5.811079972772859e-05
1920.0,4.484638702706434e-05
2048.0,-9.17444413062185e-05
2304.0,-0.0005843967664986849
2560.0,-0.000354729185346514
2816.0,-0.0008319994667544961
3072.0,-2.53278881245933e-06
3328.0,-0.0004977294011041522
3584.0,-3.777036181418225e-05
3840.0,-0.00036131576052866876
4096.0,-3.391688005649485e-05
4608.0,-8.251953113358468e-05
5120.0,-0.00014510062464978546
5632.0,0.00029550044564530253
6144.0,0.00010425314394524321
6656.0,0.00044477093615569174
7168.0,-0.00032385168015025556
7680.0,-0.0003637080662883818
8192.0,0.0007860390469431877
9216.0,-0.00017004783148877323
10240.0,-9.692594176158309e-06
11264.0,6.86887142364867e-05
12288.0,0.00029150271438993514
13312.0,-0.00021173572167754173
14336.0,-0.00016296756803058088
end
