version,3.0
numOfCh,1
type,point
parent_name,40-cuts
ch_type,1_1
kcount,1
numberNandB,1
brightnessNandB,1
carpet pos,0
pc,0
Time (ms),CH1 Auto-Correlation
1.0,0.016923675313591957
2.0,0.014082226902246475
3.0,0.012050827965140343
4.0,0.010607404634356499
5.0,0.009437835775315762
6.0,0.008454553782939911
7.0,0.0076574524864554405
8.0,0.006959470454603434
9.0,0.006404190324246883
10.0,0.005898215342313051
11.0,0.0053748395293951035
12.0,0.005025149788707495
13.0,0.004712807014584541
14.0,0.004496284294873476
15.0,0.004180314484983683
16.0,0.003960953094065189
18.0,0.0035777895245701075
20.0,0.003159829182550311
22.0,0.0027899593114852905
24.0,0.002553759142756462
26.0,0.0022672449704259634
28.0,0.0019861781038343906
30.0,0.0018162437481805682
32.0,0.0016849599778652191
36.0,0.0014751101844012737
40.0,0.0010133048053830862
44.0,0.000941630860324949
48.0,0.0006960451719351113
52.0,0.00044320369488559663
56.0,0.0004001672496087849
60.0,0.00031579096685163677
64.0,0.00040379021083936095
72.0,0.00021586916409432888
80.0,8.017335494514555e-05
88.0,0.0001347716461168602
96.0,0.00032383017241954803
104.0,0.00042807002319023013
112.0,0.00029898318462073803
120.0,0.00035657486296258867
128.0,0.0003957078733947128
144.0,-1.174221893052163e-06
160.0,3.800070408033207e-05
176.0,0.0004498636117205024
192.0,0.0007317693089134991
208.0,0.0008238657028414309
224.0,0.0008590283687226474
240.0,0.0006103745545260608
256.0,0.0004975983174517751
288.0,-0.00018360090325586498
320.0,6.420092540793121e-05
352.0,-0.0001225111773237586
384.0,0.0001712615048745647
416.0,-3.364285657880828e-05
448.0,-0.0003930690872948617
480.0,-0.0006279108347371221
512.0,-0.00025213093613274395
576.0,5.408411379903555e-05
640.0,0.00031264181598089635
704.0,8.007395081222057e-05
768.0,0.000493142637424171
832.0,0.00011900866229552776
896.0,-0.0006165435770526528
960.0,-0.00027946344926021993
1024.0,-1.2629709999600891e-05
1152.0,-0.0005923576536588371
1280.0,3.218788378944737e-06
1408.0,0.00021141891193110496
1536.0,0.00013224130088929087
1664.0,0.00014546301099471748
1792.0,9.841517749009654e-05
1920.0,-0.0003126569790765643
2048.0,0.000307523732772097
2304.0,0.00018869125051423907
2560.0,0.00018652554717846215
2816.0,-0.0002520752605050802
3072.0,1.764150511007756e-05
3328.0,-4.902597993350355e-06
3584.0,-0.00023692968534305692
3840.0,0.00019459710165392607
4096.0,-0.00035719064180739224
4608.0,-2.9868262572563253e-05
5120.0,-5.3883723012404516e-05
5632.0,-0.00014754933363292366
6144.0,-0.00017845869297161698
6656.0,3.9492024370701984e-05
7168.0,-0.00019276213424745947
7680.0,-0.00013044824299868196
8192.0,0.00010855444270418957
9216.0,7.963102689245716e-05
10240.0,-0.00011453840852482244
11264.0,0.00011630065273493528
12288.0,-5.458181840367615e-05
13312.0,0.0001451802090741694
14336.0,0.0002169735380448401
end
