version,3.0
numOfCh,1
type,point
parent_name,40-cuts
ch_type,1_1
kcount,1
numberNandB,1
brightnessNandB,1
carpet pos,0
pc,0
Time (ms),CH1 Auto-Correlation
1.0,0.02706916630268097
2.0,0.022323423996567726
3.0,0.018932117149233818
4.0,0.016485029831528664
5.0,0.014852628111839294
6.0,0.013363124802708626
7.0,0.012308966368436813
8.0,0.01132192462682724
9.0,0.01040070690214634
10.0,0.009541272185742855
11.0,0.008778618648648262
12.0,0.008247606456279755
13.0,0.007646394893527031
14.0,0.007156689185649157
15.0,0.006517000962048769
16.0,0.0061139389872550964
18.0,0.00566461868584156
20.0,0.005276020150631666
22.0,0.004828137345612049
24.0,0.004527772776782513
26.0,0.004361285828053951
28.0,0.004095227457582951
30.0,0.00393874803557992
32.0,0.0036889463663101196
36.0,0.0035478053614497185
40.0,0.003168485825881362
44.0,0.0029799819458276033
48.0,0.0027152022812515497
52.0,0.0028715820517390966
56.0,0.002502685645595193
60.0,0.002175683155655861
64.0,0.0021346474532037973
72.0,0.0023344019427895546
80.0,0.0017637540586292744
88.0,0.001437166123650968
96.0,0.001823914353735745
104.0,0.0012117793085053563
112.0,0.0002026932779699564
120.0,-0.00020679722365457565
128.0,-0.00019422349578235298
144.0,0.0004717088886536658
160.0,-0.00039691251004114747
176.0,-0.0002648514346219599
192.0,-0.0003848849446512759
208.0,-1.0302301234332845e-06
224.0,-0.0006578362081199884
240.0,0.00014225115592125803
256.0,-0.00013221550034359097
288.0,1.8978133084601723e-05
320.0,-1.566394348628819e-05
352.0,0.00017298715829383582
384.0,-0.0009160712361335754
416.0,-0.0008154839742928743
448.0,-0.0006619847263209522
480.0,-0.0009348120074719191
512.0,-0.001044271164573729
576.0,-0.0001828295789891854
640.0,-0.0003507754299789667
704.0,-0.0007755463011562824
768.0,-0.0008465845021419227
832.0,-8.874638297129422e-05
896.0,-4.820744288736023e-05
960.0,4.41311567556113e-05
1024.0,-0.00025035624275915325
1152.0,0.00023079945822246373
1280.0,0.0004327192436903715
1408.0,0.0013536721235141158
1536.0,0.00028470545657910407
1664.0,0.0010811014799401164
1792.0,0.0004189669562038034
1920.0,-0.0007763300091028214
2048.0,-0.0005075029912404716
2304.0,-0.00013921911886427552
2560.0,8.029283344512805e-05
2816.0,0.0005194750847294927
3072.0,-0.0005236688884906471
3328.0,-0.0003158964682370424
3584.0,-0.00015052748494781554
3840.0,-3.386491516721435e-05
4096.0,-0.00012911524390801787
4608.0,-0.0002569225325714797
5120.0,-0.0003212033770978451
5632.0,3.7596295442199335e-05
6144.0,7.421885675285012e-05
6656.0,0.00014262707554735243
7168.0,-0.000549066870007664
7680.0,2.9796217859257013e-05
8192.0,0.0006102415500208735
9216.0,2.3454056645277888e-05
10240.0,-4.219491529511288e-05
11264.0,-0.00010172413749387488
12288.0,-4.0672723116585985e-05
13312.0,7.044740868877852e-06
14336.0,-9.325537575932685e-06
end
