version,3.0
numOfCh,1
type,point
parent_name,40-cuts
ch_type,1_1
kcount,1
numberNandB,1
brightnessNandB,1
carpet pos,0
pc,0
Time (ms),CH1 Auto-Correlation
1.0,0.017113471403717995
2.0,0.014063010923564434
3.0,0.0119373369961977
4.0,0.010306021198630333
5.0,0.009020645171403885
6.0,0.008133932948112488
7.0,0.007348589599132538
8.0,0.00682491110637784
9.0,0.006483813282102346
10.0,0.006158264819532633
11.0,0.005733379628509283
12.0,0.005395738407969475
13.0,0.005123630631715059
14.0,0.004835779778659344
15.0,0.004377714358270168
16.0,0.004167106933891773
18.0,0.0036661403719335794
20.0,0.0032334437128156424
22.0,0.0028537041507661343
24.0,0.002696501323953271
26.0,0.0026278155855834484
28.0,0.0023740436881780624
30.0,0.0022740669082850218
32.0,0.0021697571501135826
36.0,0.001971744466573
40.0,0.002097268356010318
44.0,0.0019195880740880966
48.0,0.0017513774801045656
52.0,0.0015074156690388918
56.0,0.0011596342083066702
60.0,0.0009645847603678703
64.0,0.001112934434786439
72.0,0.0010777683928608894
80.0,0.0011319791665300727
88.0,0.000756557856220752
96.0,0.0005147327319718897
104.0,0.00043956295121461153
112.0,0.0006049110670574009
120.0,0.00038971591857261956
128.0,5.3349725931184366e-05
144.0,0.0003686912532430142
160.0,0.0005762465880252421
176.0,0.00024582634796388447
192.0,0.0002115508686983958
208.0,0.00024258058692794293
224.0,0.00041111884638667107
240.0,0.0006096609286032617
256.0,0.0005291196284815669
288.0,5.154677637619898e-05
320.0,-0.0004880084015894681
352.0,-0.0008051402401179075
384.0,-0.001132681965827942
416.0,-0.0008133320370689034
448.0,-0.00037564808735623956
480.0,-0.00012109176896046847
512.0,-0.00012818319373764098
576.0,0.00015685718972235918
640.0,0.0005221374449320138
704.0,0.0006357110105454922
768.0,0.00031840207520872355
832.0,0.0005067236488685012
896.0,0.0006111966213211417
960.0,-1.2535416317405179e-05
1024.0,-0.0006446135230362415
1152.0,-0.000614687567576766
1280.0,-0.000285846326733008
1408.0,0.00015954156697262079
1536.0,0.00044018225162290037
1664.0,-7.936908514238894e-05
1792.0,-0.00012619441258721054
1920.0,-0.0004263381415512413
2048.0,-0.0003319550887681544
2304.0,0.0002456092624925077
2560.0,-0.0003330258186906576
2816.0,-3.121420741081238e-05
3072.0,-6.154453149065375e-05
3328.0,0.00018246594117954373
3584.0,-0.00012519639858510345
3840.0,0.0006347685120999813
4096.0,0.0003345517034176737
4608.0,0.0003737178340088576
5120.0,-3.751144322450273e-05
5632.0,-0.00026061400421895087
6144.0,-4.17519077018369e-05
6656.0,-0.000180271512363106
7168.0,-0.00036188532249070704
7680.0,-0.00024062441661953926
8192.0,0.00026608805637806654
9216.0,8.67178532644175e-05
10240.0,-0.00040955518488772213
11264.0,-0.0003315936482977122
12288.0,-2.9539827664848417e-05
13312.0,4.826611984753981e-05
14336.0,-0.0005605996702797711
end
