version,3.0
numOfCh,1
type,point
parent_name,40-cuts
ch_type,1_1
kcount,1
numberNandB,1
brightnessNandB,1
carpet pos,0
pc,0
Time (ms),CH1 Auto-Correlation
1.0,0.01470976509153843
2.0,0.011933408677577972
3.0,0.009979519061744213
4.0,0.008513492532074451
5.0,0.0073152161203324795
6.0,0.006431086454540491
7.0,0.005738296080380678
8.0,0.005103524308651686
9.0,0.0046241930685937405
10.0,0.004273518454283476
11.0,0.004055993165820837
12.0,0.0037010060623288155
13.0,0.0034094704315066338
14.0,0.0031305982265621424
15.0,0.002837664680555463
16.0,0.002512055216357112
18.0,0.0021990626119077206
20.0,0.0020009861327707767
22.0,0.0018351797480136156
24.0,0.0018681571818888187
26.0,0.001803763210773468
28.0,0.001666546449996531
30.0,0.0013663391582667828
32.0,0.000996640883386135
36.0,0.0004276010731700808
40.0,-3.3897472349053714e-06
44.0,-0.0002037015074165538
48.0,-0.00027019644039683044
52.0,-0.00010534642933635041
56.0,-0.00012142919877078384
60.0,-0.00022010273823980242
64.0,-6.701578240608796e-05
72.0,4.8310699639841914e-05
80.0,0.00021185401419643313
88.0,0.0002626710047479719
96.0,0.00026238508871756494
104.0,0.0003795194497797638
112.0,0.000258250831393525
120.0,-4.3042367906309664e-05
128.0,0.000147906132042408
144.0,0.0005081839044578373
160.0,0.00023742701159790158
176.0,1.701109613350127e-05
192.0,0.00010432284034322947
208.0,1.8188718968303874e-05
224.0,9.383606811752543e-05
240.0,4.680403071688488e-05
256.0,-0.00020531156042125076
288.0,-7.600300887133926e-05
320.0,0.00014538547839038074
352.0,0.00037255603820085526
384.0,-1.4555974303220864e-05
416.0,-0.00010734637908171862
448.0,-1.922939918586053e-05
480.0,0.00011497556261019781
512.0,0.000169080012710765
576.0,-0.0001733314129523933
640.0,-0.0002960755373351276
704.0,-0.0003230571164749563
768.0,-7.124136755010113e-05
832.0,-0.00013301041326485574
896.0,-3.6958321288693696e-05
960.0,-0.0002079144906019792
1024.0,-0.0002183705073548481
1152.0,-0.0005340263014659286
1280.0,-5.50223994650878e-05
1408.0,-0.00013340522127691656
1536.0,-0.00021646334789693356
1664.0,0.00016680826956871897
1792.0,-1.4874495718686376e-05
1920.0,-4.678329059970565e-05
2048.0,0.0002752173750195652
2304.0,0.00015060938312672079
2560.0,-0.0002040746621787548
2816.0,-5.6296325055882335e-05
3072.0,-2.778496127575636e-05
3328.0,-8.909229654818773e-05
3584.0,-3.168425973854028e-05
3840.0,8.531833009328693e-05
4096.0,1.0057814506581053e-05
4608.0,-2.176919224439189e-05
5120.0,-0.00018317850481253117
5632.0,0.00012699251237791032
6144.0,8.601557783549652e-05
6656.0,-0.000190105420188047
7168.0,-7.668904436286539e-05
7680.0,0.00014065187133383006
8192.0,1.5984842320904136e-05
9216.0,8.466385042993352e-05
10240.0,0.00016543024685233831
11264.0,-0.00026664737379178405
12288.0,9.195477468892932e-05
13312.0,0.00018476738478057086
14336.0,-0.0003058014262933284
end
