version,3.0
numOfCh,1
type,point
parent_name,40-cuts
ch_type,1_1
kcount,1
numberNandB,1
brightnessNandB,1
carpet pos,0
pc,0
Time (ms),CH1 Auto-Correlation
1.0,0.026845283806324005
2.0,0.02186727710068226
3.0,0.01840544119477272
4.0,0.015765832737088203
5.0,0.013618993572890759
6.0,0.01188767608255148
7.0,0.010623595677316189
8.0,0.00959333311766386
9.0,0.008729930967092514
10.0,0.0081475879997015
11.0,0.007443699520081282
12.0,0.007012194022536278
13.0,0.006549624260514975
14.0,0.006104219239205122
15.0,0.00581626920029521
16.0,0.005619261879473925
18.0,0.0048404294066131115
20.0,0.004097392782568932
22.0,0.0038374988362193108
24.0,0.0036595892161130905
26.0,0.0032336171716451645
28.0,0.0030725128017365932
30.0,0.002737727016210556
32.0,0.0025379520375281572
36.0,0.002354940166696906
40.0,0.0020144120790064335
44.0,0.0016836441354826093
48.0,0.0013626418076455593
52.0,0.0010844605276361108
56.0,0.0006938401493243873
60.0,0.00046551195555366576
64.0,0.0006841403082944453
72.0,0.0008800289942882955
80.0,0.00044152780901640654
88.0,0.0008123622392304242
96.0,0.0005537821562029421
104.0,0.000892175710760057
112.0,0.00088542141020298
120.0,0.00036525254836305976
128.0,0.000483121897559613
144.0,0.0007244260632432997
160.0,0.0010572794126346707
176.0,0.0010318157728761435
192.0,0.0004987093852832913
208.0,-5.444998805614887e-06
224.0,-0.0003706830320879817
240.0,-0.00040609872667118907
256.0,-0.00041897251503542066
288.0,-0.0004727613995783031
320.0,-0.0005730367265641689
352.0,-0.0003648616839200258
384.0,0.0003561819903552532
416.0,-0.00024377279623877257
448.0,-0.00010555411427048966
480.0,-0.0009884400060400367
512.0,0.00012254250759724528
576.0,0.0008543436997570097
640.0,0.0007131858146749437
704.0,0.00011842767708003521
768.0,-0.00014593818923458457
832.0,3.0096462069195695e-05
896.0,-0.00013168336590752006
960.0,-1.0635406397341285e-05
1024.0,-0.0002569550706539303
1152.0,8.886592695489526e-05
1280.0,-6.309385207714513e-05
1408.0,-0.00014371050929185003
1536.0,0.0003204684762749821
1664.0,-0.00020508929446805269
1792.0,0.000639785488601774
1920.0,4.418552998686209e-05
2048.0,0.00010649588512023911
2304.0,-6.035839396645315e-05
2560.0,0.0009077148861251771
2816.0,-0.00017150482744909823
3072.0,-0.0002248664095532149
3328.0,-0.00031993089942261577
3584.0,0.00027295606560073793
3840.0,-0.0007508984999731183
4096.0,-0.000237214335356839
4608.0,-6.766773003619164e-05
5120.0,-7.080732757458463e-05
5632.0,-0.00039175653364509344
6144.0,0.0005628301296383142
6656.0,-0.0006741391262039542
7168.0,-0.0003122471971437335
7680.0,1.704431269899942e-05
8192.0,-0.00024117619614116848
9216.0,-0.00043147648102603853
10240.0,-0.0004731228400487453
11264.0,-2.6476776838535443e-05
12288.0,0.0003395848616492003
13312.0,0.0005160754662938416
14336.0,0.0006614582962356508
end
