version,3.0
numOfCh,1
type,point
parent_name,40-cuts
ch_type,1_1
kcount,1
numberNandB,1
brightnessNandB,1
carpet pos,0
pc,0
Time (ms),CH1 Auto-Correlation
1.0,0.016219958662986755
2.0,0.0131086939945817
3.0,0.01099382434040308
4.0,0.009431038983166218
5.0,0.00814574584364891
6.0,0.007193993777036667
7.0,0.0064080506563186646
8.0,0.005787319969385862
9.0,0.005164014641195536
10.0,0.004691729787737131
11.0,0.00432313559576869
12.0,0.004057734273374081
13.0,0.003791317343711853
14.0,0.003582477569580078
15.0,0.0034396944101899862
16.0,0.0033584688790142536
18.0,0.002993054920807481
20.0,0.0026009101420640945
22.0,0.0023882274981588125
24.0,0.0022452487610280514
26.0,0.0022013485431671143
28.0,0.0020641444716602564
30.0,0.0019123784732073545
32.0,0.0018900197464972734
36.0,0.0018660487839952111
40.0,0.0017577024409547448
44.0,0.0015593559946864843
48.0,0.0014464259147644043
52.0,0.001271393266506493
56.0,0.0013257296523079276
60.0,0.0013549966970458627
64.0,0.0012679139617830515
72.0,0.0011727403616532683
80.0,0.000523697177413851
88.0,0.0002738939947448671
96.0,-0.00018355342035647482
104.0,-0.0001350535312667489
112.0,-0.00012676749611273408
120.0,-0.00010087927512358874
128.0,-0.00038331738323904574
144.0,-0.0009930930100381374
160.0,-0.0004988701548427343
176.0,-5.128817792865448e-05
192.0,-0.00020559091353788972
208.0,-0.0008477219962514937
224.0,-0.0005053532076999545
240.0,-0.0004836866573896259
256.0,-0.00021252383885439485
288.0,-0.00023623746528755873
320.0,-0.00020801181381102651
352.0,3.5256733099231496e-05
384.0,6.184715311974287e-05
416.0,0.0001046371617121622
448.0,-0.00030815423815511167
480.0,-0.00011141905997646973
512.0,-0.0004180122632533312
576.0,0.000311424519168213
640.0,-0.0001277631236007437
704.0,2.478479473211337e-05
768.0,0.00013039530313108116
832.0,0.00021415550145320594
896.0,0.0002242223417852074
960.0,0.00018346765136811882
1024.0,0.00047198557876981795
1152.0,-0.0002575400285422802
1280.0,-0.0004125064006075263
1408.0,0.00010901680070674047
1536.0,-0.0002257951273350045
1664.0,-3.839594137389213e-05
1792.0,0.0004061241925228387
1920.0,0.00017510069301351905
2048.0,-0.00024086334451567382
2304.0,-0.00015397464449051768
2560.0,0.00021190584811847657
2816.0,9.168220276478678e-05
3072.0,-0.00028991111321374774
3328.0,0.00019159819930791855
3584.0,0.00014057934458833188
3840.0,-0.0001963843678822741
4096.0,-0.00018023484153673053
4608.0,-0.00015065215120557696
5120.0,-7.692945473536383e-06
5632.0,-0.0001774517586454749
6144.0,-0.00013840955216437578
6656.0,-4.9287653382634744e-05
7168.0,7.87921526352875e-05
7680.0,0.0001020823183353059
8192.0,5.5702133977320045e-05
9216.0,-6.457097242673626e-06
10240.0,0.00021471759828273207
11264.0,-8.228624938055873e-05
12288.0,0.00010427192319184542
13312.0,-0.00025110950809903443
14336.0,-0.0001863955840235576
end
