version,3.0
numOfCh,1
type,point
parent_name,40-cuts
ch_type,1_1
kcount,1
numberNandB,1
brightnessNandB,1
carpet pos,0
pc,0
Time (ms),CH1 Auto-Correlation
1.0,0.01641387678682804
2.0,0.013446800410747528
3.0,0.01135841105133295
4.0,0.009734956547617912
5.0,0.008550506085157394
6.0,0.007604619022458792
7.0,0.006799002643674612
8.0,0.006144952028989792
9.0,0.0056514497846364975
10.0,0.00515500083565712
11.0,0.004718915559351444
12.0,0.004364305175840855
13.0,0.0040842825546860695
14.0,0.003769071539863944
15.0,0.003510580863803625
16.0,0.0032140137627720833
18.0,0.0026771468110382557
20.0,0.0023597890976816416
22.0,0.0020064718555659056
24.0,0.0017810184508562088
26.0,0.0016083507798612118
28.0,0.001616053399629891
30.0,0.0016567130805924535
32.0,0.0017055496573448181
36.0,0.0016608824953436852
40.0,0.0014486833242699504
44.0,0.0013972541783005
48.0,0.0012511954410001636
52.0,0.0009676843765191734
56.0,0.0009436664986424148
60.0,0.0009820793056860566
64.0,0.0010856874287128448
72.0,0.0010075726313516498
80.0,0.0005454019410535693
88.0,0.0008195287082344294
96.0,0.0008130935020744801
104.0,0.0006516546127386391
112.0,0.0008157974225468934
120.0,0.00012980356405023485
128.0,0.0001682836445979774
144.0,-6.296183710219339e-05
160.0,-0.000419912685174495
176.0,-0.00011492233898025006
192.0,-2.328469963686075e-05
208.0,6.0551337810466066e-05
224.0,-0.00011156235996168107
240.0,-0.0005842657410539687
256.0,-0.00010657325037755072
288.0,0.0002762888325378299
320.0,0.00038404640508815646
352.0,-9.801840496947989e-05
384.0,-0.0003609080158639699
416.0,8.339072519447654e-05
448.0,-0.0004277600964996964
480.0,-0.0002201453025918454
512.0,-0.000162116062710993
576.0,7.922408258309588e-05
640.0,0.0001997019280679524
704.0,-5.355990651878528e-05
768.0,3.7180296203587204e-05
832.0,-0.00039707610267214477
896.0,-0.00013351156667340547
960.0,-0.00010578719957266003
1024.0,-0.000250964512815699
1152.0,0.0001914432505145669
1280.0,-4.377078585093841e-05
1408.0,-0.0005046851001679897
1536.0,-0.0002951026544906199
1664.0,-0.0001605603174539283
1792.0,-7.92606151662767e-05
1920.0,-5.8537665609037504e-05
2048.0,-0.0001738701539579779
2304.0,-3.6614961572922766e-05
2560.0,-0.000175635825144127
2816.0,-0.00026607586187310517
3072.0,0.00011103048746008426
3328.0,-0.00022800809529144317
3584.0,0.00018656956672202796
3840.0,6.3660743762739e-05
4096.0,0.00019648027955554426
4608.0,3.039773764612619e-05
5120.0,0.00022236346558202058
5632.0,-6.229180871741846e-05
6144.0,-5.06196593050845e-05
6656.0,-0.00038321001920849085
7168.0,-0.00020303101337049156
7680.0,5.730476914322935e-05
8192.0,0.00015521534078288823
9216.0,9.426837641512975e-05
10240.0,0.00013125938130542636
11264.0,-0.0003872498054988682
12288.0,-4.93100487801712e-05
13312.0,0.000330066483002156
14336.0,0.00027061643777415156
end
