version,3.0
numOfCh,1
type,point
parent_name,40-cuts
ch_type,1_1
kcount,1
numberNandB,1
brightnessNandB,1
carpet pos,0
pc,0
Time (ms),CH1 Auto-Correlation
1.0,0.01872974820435047
2.0,0.015772972255945206
3.0,0.013612992130219936
4.0,0.0118942242115736
5.0,0.010657621547579765
6.0,0.009696845896542072
7.0,0.008924712426960468
8.0,0.008264436386525631
9.0,0.0077536264434456825
10.0,0.0072796279564499855
11.0,0.00690529216080904
12.0,0.006540689151734114
13.0,0.00622505322098732
14.0,0.00591314909979701
15.0,0.005528255831450224
16.0,0.005331581458449364
18.0,0.004832257982343435
20.0,0.0044836909510195255
22.0,0.004240770824253559
24.0,0.003968422766774893
26.0,0.0037491051480174065
28.0,0.003404129995033145
30.0,0.0030101900920271873
32.0,0.002630753442645073
36.0,0.0020762814674526453
40.0,0.0020687063224613667
44.0,0.001850878237746656
48.0,0.001708208816125989
52.0,0.0015189427649602294
56.0,0.001375267980620265
60.0,0.0010738364653661847
64.0,0.001139571308158338
72.0,0.0011409010039642453
80.0,0.0012343121925368905
88.0,0.0011924139689654112
96.0,0.0009019235731102526
104.0,0.0007232576026581228
112.0,0.0008356786565855145
120.0,0.0006670247530564666
128.0,0.0008152251830324531
144.0,0.00046482705511152744
160.0,0.00014401348016690463
176.0,0.0002444671408738941
192.0,2.0183833839837462e-05
208.0,-0.0006271752645261586
224.0,-0.0006141997291706502
240.0,-0.0004584803245961666
256.0,-0.0005625179037451744
288.0,-0.0005230951937846839
320.0,-0.00046311994083225727
352.0,-0.0005430455203168094
384.0,-0.000602221698500216
416.0,-0.0001746731431921944
448.0,0.0005867418367415667
480.0,0.0007916517788544297
512.0,0.0006740958197042346
576.0,0.0007059031049720943
640.0,0.0004876859311480075
704.0,-0.00045839586528018117
768.0,0.00010643578571034595
832.0,-0.00018441329302731901
896.0,9.864610183285549e-05
960.0,0.00014356750762090087
1024.0,0.00013673976354766637
1152.0,-0.00027871981728821993
1280.0,-0.001013805391266942
1408.0,-0.000466564524685964
1536.0,-4.4066317059332505e-05
1664.0,-0.0005258284509181976
1792.0,-0.00034256986691616476
1920.0,-0.0001366200449410826
2048.0,-0.00022454914869740605
2304.0,-0.0004500038630794734
2560.0,0.0005896045477129519
2816.0,-0.00018559375894255936
3072.0,0.0003979453758802265
3328.0,-0.00010770601511467248
3584.0,0.00046388484770432115
3840.0,-0.0005056082154624164
4096.0,0.00023054917983245105
4608.0,-3.9991220546653494e-05
5120.0,-4.435033770278096e-05
5632.0,0.0003176217433065176
6144.0,0.00013668225437868387
6656.0,0.00020924600539729
7168.0,-0.00015571349649690092
7680.0,-0.00038400603807531297
8192.0,-0.00013537304766941816
9216.0,0.00026653235545381904
10240.0,-0.0004720597353298217
11264.0,0.0001163448832812719
12288.0,0.0006037316634319723
13312.0,-0.000952665985096246
14336.0,-0.00010957163613056764
end
