version,3.0
numOfCh,1
type,point
parent_name,40-cuts
ch_type,1_1
kcount,1
numberNandB,1
brightnessNandB,1
carpet pos,0
pc,0
Time (ms),CH1 Auto-Correlation
1.0,0.02737933211028576
2.0,0.022423632442951202
3.0,0.019137030467391014
4.0,0.016654357314109802
5.0,0.014790075831115246
6.0,0.013198885135352612
7.0,0.011780088767409325
8.0,0.010533818043768406
9.0,0.009571422822773457
10.0,0.008837132714688778
11.0,0.008259865455329418
12.0,0.007831619121134281
13.0,0.007430501282215118
14.0,0.007006439846009016
15.0,0.0065594925545156
16.0,0.006380531471222639
18.0,0.006230665370821953
20.0,0.0059447260573506355
22.0,0.005453931167721748
24.0,0.0051179793663322926
26.0,0.004538264125585556
28.0,0.0041385614313185215
30.0,0.00408473564311862
32.0,0.00391159113496542
36.0,0.0031630496960133314
40.0,0.002506784861907363
44.0,0.0025573086459189653
48.0,0.0025108917616307735
52.0,0.002750507090240717
56.0,0.0023266063071787357
60.0,0.0018207007087767124
64.0,0.0014886935241520405
72.0,0.0013726637698709965
80.0,0.0011659454321488738
88.0,0.0013766896445304155
96.0,0.0012993987184017897
104.0,0.0014513840433210135
112.0,0.0012067259522154927
120.0,0.0006988843088038266
128.0,0.0006550414254888892
144.0,0.0009693679749034345
160.0,0.0007397528970614076
176.0,0.0008949270704761147
192.0,0.0009821997955441475
208.0,0.000818063213955611
224.0,0.0008745898376218975
240.0,0.0004638753307517618
256.0,0.0003723152622114867
288.0,5.838033393956721e-05
320.0,0.0003445767506491393
352.0,0.00045654107816517353
384.0,0.0006875651306472719
416.0,2.8827851565438323e-05
448.0,-1.4299504982773215e-05
480.0,0.0002136815310223028
512.0,-0.00016146033885888755
576.0,0.0005068807513453066
640.0,-1.099592827813467e-05
704.0,-0.0003554133581928909
768.0,-0.00018422653374727815
832.0,-0.000557241088245064
896.0,0.0002089320623781532
960.0,-0.0003200958308298141
1024.0,-0.0008957090321928263
1152.0,-0.0006217543268576264
1280.0,-0.0004004067159257829
1408.0,-0.0005542704020626843
1536.0,-8.441093086730689e-06
1664.0,-0.00010734516399679706
1792.0,0.0004900904605165124
1920.0,0.0001226704043801874
2048.0,-0.0005186894559301436
2304.0,0.00020519013924058527
2560.0,0.0005317195900715888
2816.0,0.0002900345716625452
3072.0,-0.0005469274474307895
3328.0,-0.00035166318411938846
3584.0,-0.0002680126635823399
3840.0,-0.0007689944468438625
4096.0,2.2698661268805154e-05
4608.0,-0.00019523962691891938
5120.0,0.00031530059641227126
5632.0,0.00046773822396062315
6144.0,-1.0650883268681355e-05
6656.0,-0.0001339408045168966
7168.0,-0.0005000809323973954
7680.0,-0.00030972814420238137
8192.0,0.0001261546858586371
9216.0,-0.0005839827354066074
10240.0,0.0005819425568915904
11264.0,0.00011031689791707322
12288.0,0.0003902470925822854
13312.0,-0.00017051112081389874
14336.0,-0.0009234104072675109
end
