version,3.0
numOfCh,1
type,point
parent_name,40-cuts
ch_type,1_1
kcount,1
numberNandB,1
brightnessNandB,1
carpet pos,0
pc,0
Time (ms),CH1 Auto-Correlation
1.0,0.02677867002785206
2.0,0.022112635895609856
3.0,0.018897011876106262
4.0,0.016496267169713974
5.0,0.014582310803234577
6.0,0.01303014438599348
7.0,0.011572143994271755
8.0,0.010445922613143921
9.0,0.009573685936629772
10.0,0.008795096538960934
11.0,0.007964326068758965
12.0,0.007361434865742922
13.0,0.006873146630823612
14.0,0.006688361056149006
15.0,0.006270356476306915
16.0,0.005895226262509823
18.0,0.005257978569716215
20.0,0.004621422383934259
22.0,0.004130925517529249
24.0,0.003751329844817519
26.0,0.002950662514194846
28.0,0.002484447555616498
30.0,0.0024932706728577614
32.0,0.0024160402826964855
36.0,0.0020944459829479456
40.0,0.0015404309378936887
44.0,0.0017274663550779223
48.0,0.0019454328576102853
52.0,0.0015673446469008923
56.0,0.0011752776335924864
60.0,0.0009387560421600938
64.0,0.0008426408749073744
72.0,0.0011412805179134011
80.0,0.0008863824768923223
88.0,0.0005097038811072707
96.0,-7.570054731331766e-05
104.0,0.00010258454130962491
112.0,0.0006385663291439414
120.0,0.0007906003156676888
128.0,0.0010184678249061108
144.0,0.0005528313340619206
160.0,0.0006404190789908171
176.0,0.0011647924548014998
192.0,0.0007124265539459884
208.0,7.419223402393982e-05
224.0,-0.0003088797675445676
240.0,-2.8265460059628822e-05
256.0,0.0005756175960414112
288.0,0.0007771447999402881
320.0,0.0007576106581836939
352.0,9.94709407677874e-05
384.0,0.0005363318487070501
416.0,0.0007918067858554423
448.0,0.0008089139591902494
480.0,-7.905926031526178e-05
512.0,-0.00027522360323928297
576.0,-0.00029692600946873426
640.0,0.0004599840904120356
704.0,5.856976713403128e-05
768.0,0.00014147807087283581
832.0,-0.0003327284939587116
896.0,0.00015095654816832393
960.0,-0.0003289418527856469
1024.0,-0.0005152582889422774
1152.0,-0.00045954709639772773
1280.0,-0.00012034847168251872
1408.0,0.0002985353930853307
1536.0,-0.00033017699024640024
1664.0,-0.000160057534230873
1792.0,-0.00028761979774571955
1920.0,0.0005422524409368634
2048.0,0.00010772564564831555
2304.0,-0.00030643577338196337
2560.0,0.00038281152956187725
2816.0,0.0004898772458545864
3072.0,-0.0005771323340013623
3328.0,0.00020747401867993176
3584.0,-0.0005776887992396951
3840.0,-0.001300302566960454
4096.0,-0.0005457751103676856
4608.0,0.00012038615386700258
5120.0,8.476583752781153e-05
5632.0,-9.037580639414955e-07
6144.0,0.0002483671123627573
6656.0,-0.0004607209993992001
7168.0,-0.00022819316654931754
7680.0,0.00021146275685168803
8192.0,0.00016573292668908834
9216.0,-1.9136699847877026e-05
10240.0,0.0005823927349410951
11264.0,-0.00012413199874572456
12288.0,6.20054779574275e-05
13312.0,-0.0006491450476460159
14336.0,-0.0004166397266089916
end
