version,3.0
numOfCh,1
type,point
parent_name,40-cuts
ch_type,1_1
kcount,1
numberNandB,1
brightnessNandB,1
carpet pos,0
pc,0
Time (ms),CH1 Auto-Correlation
1.0,0.02619803510606289
2.0,0.021411476656794548
3.0,0.018044302240014076
4.0,0.01556575857102871
5.0,0.013645632192492485
6.0,0.012190433219075203
7.0,0.010998018085956573
8.0,0.009940775111317635
9.0,0.009196353144943714
10.0,0.008457213640213013
11.0,0.007834486663341522
12.0,0.007329615764319897
13.0,0.006804811302572489
14.0,0.006444964092224836
15.0,0.005969528574496508
16.0,0.005572251509875059
18.0,0.0049673342145979404
20.0,0.004346664063632488
22.0,0.004246891010552645
24.0,0.0039248280227184296
26.0,0.003453837474808097
28.0,0.0031176151242107153
30.0,0.003036895301192999
32.0,0.0029519028030335903
36.0,0.003045065328478813
40.0,0.0033634724095463753
44.0,0.003000400261953473
48.0,0.002229309407994151
52.0,0.0019011521944776177
56.0,0.0017364489613100886
60.0,0.0017828369745984674
64.0,0.0021346944849938154
72.0,0.0017607591580599546
80.0,0.0018845342565327883
88.0,0.001956918742507696
96.0,0.0014230742817744613
104.0,0.0011630342341959476
112.0,0.0006918736617080867
120.0,0.00024933370877988636
128.0,0.0005116003449074924
144.0,0.00023420342768076807
160.0,0.0003362526767887175
176.0,0.00035373447462916374
192.0,-0.00040315763908438385
208.0,-0.001520182704553008
224.0,-0.0010689322371035814
240.0,-0.0007033221190795302
256.0,-7.959276990732178e-05
288.0,0.0002866142604034394
320.0,-9.650598804000765e-05
352.0,2.2937525500310585e-05
384.0,-0.00031328591285273433
416.0,-0.00034006897476501763
448.0,-0.0007416761363856494
480.0,7.047569670248777e-05
512.0,-0.0006279423250816762
576.0,-0.00042443990241736174
640.0,2.752470572886523e-05
704.0,0.00015921448357403278
768.0,0.0005491678602993488
832.0,-4.6011467929929495e-05
896.0,-0.0004395443247631192
960.0,-0.00017666301573626697
1024.0,6.364220462273806e-05
1152.0,0.000513933424372226
1280.0,0.00015149504179134965
1408.0,-0.00019806553609669209
1536.0,-0.000342002633260563
1664.0,-0.0002897029335144907
1792.0,-6.984943320276216e-05
1920.0,0.00015699208597652614
2048.0,-0.0008662031614221632
2304.0,2.3429422071785666e-05
2560.0,0.0003682603419292718
2816.0,-0.00041808831156231463
3072.0,-0.00032866670517250896
3328.0,0.0002984428429044783
3584.0,0.00023001818044576794
3840.0,-0.0005690165562555194
4096.0,0.0001421297201886773
4608.0,8.152855298249051e-05
5120.0,-6.689759902656078e-05
5632.0,-0.00027129609952680767
6144.0,-0.0006258164648897946
6656.0,0.0001503851672168821
7168.0,0.00016834425332490355
7680.0,-0.00019785018230322748
8192.0,-3.597717295633629e-05
9216.0,4.839021494262852e-05
10240.0,-0.0003180540516041219
11264.0,0.00010367564391344786
12288.0,-1.206962133437628e-05
13312.0,-0.00012927949137520045
14336.0,-0.0009663940872997046
end
