version,3.0
numOfCh,1
type,point
parent_name,40-cuts
ch_type,1_1
kcount,1
numberNandB,1
brightnessNandB,1
carpet pos,0
pc,0
Time (ms),CH1 Auto-Correlation
1.0,0.015674391761422157
2.0,0.012833701446652412
3.0,0.010977127589285374
4.0,0.00950674805790186
5.0,0.008320005610585213
6.0,0.007459443528205156
7.0,0.006622471380978823
8.0,0.005991320125758648
9.0,0.005491018760949373
10.0,0.005007918458431959
11.0,0.004488449543714523
12.0,0.0040717595256865025
13.0,0.0037171037402004004
14.0,0.0034019744489341974
15.0,0.003164126304909587
16.0,0.0029732193797826767
18.0,0.002608963055536151
20.0,0.002195862354710698
22.0,0.001925028976984322
24.0,0.0016856691800057888
26.0,0.001509530353359878
28.0,0.0012351344339549541
30.0,0.0010275525273755193
32.0,0.0009343621786683798
36.0,0.000835639366414398
40.0,0.0007851234986446798
44.0,0.0007633481873199344
48.0,0.0006389844347722828
52.0,0.0007902209763415158
56.0,0.0007602304685860872
60.0,0.0008706891094334424
64.0,0.0007883194484747946
72.0,0.00024272971495520324
80.0,0.00027294998290017247
88.0,-4.265551979187876e-05
96.0,-9.046818013302982e-05
104.0,7.760178414173424e-05
112.0,8.787457045400515e-05
120.0,0.00039578962605446577
128.0,0.00039207367808558047
144.0,0.000261058536125347
160.0,0.0005146356415934861
176.0,0.00046284188283607364
192.0,0.00012990550021640956
208.0,0.000516003870870918
224.0,0.00067593262065202
240.0,-0.0002700302575249225
256.0,3.71310998161789e-05
288.0,0.00025544347590766847
320.0,0.000445689307525754
352.0,0.00039120964356698096
384.0,0.00045821856474503875
416.0,0.00017104182916227728
448.0,0.000452849839348346
480.0,0.00010031869896920398
512.0,-0.00036189431557431817
576.0,5.2374336519278586e-05
640.0,-4.9157682951772586e-05
704.0,-0.0005948185571469367
768.0,-0.0003756946243811399
832.0,-8.794677705736831e-05
896.0,-0.00044110341696068645
960.0,-0.0007762627210468054
1024.0,-0.0004487002152018249
1152.0,0.00011580052523640916
1280.0,-0.00023276956926565617
1408.0,-0.00048436084762215614
1536.0,9.38457617394306e-07
1664.0,0.00016741229046601802
1792.0,0.00010047228715848178
1920.0,2.774961103568785e-06
2048.0,0.0003335829824209213
2304.0,9.91209817584604e-05
2560.0,0.00011859927326440811
2816.0,9.168413816951215e-05
3072.0,-0.0005808425485156476
3328.0,-0.0003918364236596972
3584.0,-0.0001535190676804632
3840.0,-0.00016977795166894794
4096.0,0.00012535603309515864
4608.0,7.152914622565731e-05
5120.0,-0.0001382267801091075
5632.0,1.595886169525329e-05
6144.0,0.00016203749692067504
6656.0,-0.000276674865745008
7168.0,0.00013330743240658194
7680.0,0.0002001177053898573
8192.0,-1.5362767953774892e-05
9216.0,0.00014820935030002147
10240.0,-0.00013413099804893136
11264.0,4.73289837827906e-05
12288.0,8.363653614651412e-05
13312.0,-0.00015976547729223967
14336.0,0.00028593954630196095
end
