version,3.0
numOfCh,1
type,point
parent_name,40-cuts
ch_type,1_1
kcount,1
numberNandB,1
brightnessNandB,1
carpet pos,0
pc,0
Time (ms),CH1 Auto-Correlation
1.0,0.016422105953097343
2.0,0.013425052165985107
3.0,0.011287237517535686
4.0,0.009681272320449352
5.0,0.008443014696240425
6.0,0.007371312007308006
7.0,0.0065018231980502605
8.0,0.00581353297457099
9.0,0.005104596260935068
10.0,0.004644889384508133
11.0,0.004201567731797695
12.0,0.0038576596416532993
13.0,0.0034965898375958204
14.0,0.003169300267472863
15.0,0.002902151085436344
16.0,0.0026892623864114285
18.0,0.0022375357802957296
20.0,0.0019550055731087923
22.0,0.0017235759878531098
24.0,0.001725363777950406
26.0,0.0016265350859612226
28.0,0.001520622055977583
30.0,0.0013344562612473965
32.0,0.0012224515667185187
36.0,0.001193026197142899
40.0,0.001293530105613172
44.0,0.001376109546981752
48.0,0.0013961183140054345
52.0,0.0012802256969735026
56.0,0.0010755137773230672
60.0,0.0008725881925784051
64.0,0.0005729081458412111
72.0,0.0007062077056616545
80.0,0.0006547342636622488
88.0,0.0004734043905045837
96.0,0.0005349928396753967
104.0,0.0002633391704875976
112.0,0.0002758461923804134
120.0,0.0004905496607534587
128.0,-0.00015119403542485088
144.0,0.0006069371593184769
160.0,0.0003300392418168485
176.0,0.00011713368439814076
192.0,-0.00012087430513929576
208.0,-0.0005218786536715925
224.0,-0.00011174133396707475
240.0,-0.0002921628183685243
256.0,-8.253717533079907e-05
288.0,0.00021109670342411846
320.0,-0.00013705318269785494
352.0,0.00020741070329677314
384.0,-0.0003453030367381871
416.0,-0.000707760569639504
448.0,0.00039107620250433683
480.0,0.0007078794296830893
512.0,0.0003944100171793252
576.0,0.0004983503604307771
640.0,0.00032004847889766097
704.0,-6.572691927431151e-05
768.0,-0.00023207502090372145
832.0,-0.00041608346509747207
896.0,-0.0006520860479213297
960.0,-0.0003931490646209568
1024.0,0.00023348801187239587
1152.0,-9.520972525933757e-06
1280.0,-0.0004507735720835626
1408.0,-0.0004999757511541247
1536.0,-5.741243057855172e-06
1664.0,0.00013470518752001226
1792.0,-8.3650220403797e-06
1920.0,8.10213023214601e-05
2048.0,0.0002563247689977288
2304.0,-2.1123278202139772e-05
2560.0,-0.00038639496779069304
2816.0,-9.142408816842362e-05
3072.0,-0.0003618685295805335
3328.0,-0.00019935297314077616
3584.0,7.841635670047253e-05
3840.0,2.9676872145500965e-05
4096.0,0.0003523142950143665
4608.0,3.546927837305702e-05
5120.0,9.7314232334611e-06
5632.0,0.00030296892509795725
6144.0,0.00016694466467015445
6656.0,-0.0002714692382141948
7168.0,4.6980290790088475e-05
7680.0,-7.721856673015282e-05
8192.0,-0.00010319748253095895
9216.0,-4.1783947381190956e-05
10240.0,-2.149594365619123e-05
11264.0,0.0001315263652941212
12288.0,1.0625527465890627e-05
13312.0,-0.0001493732852395624
14336.0,1.6319320650381997e-07
end
