version,3.0
numOfCh,1
type,point
parent_name,40-cuts
ch_type,1_1
kcount,1
numberNandB,1
brightnessNandB,1
carpet pos,0
pc,0
Time (ms),CH1 Auto-Correlation
1.0,0.026124771684408188
2.0,0.021045539528131485
3.0,0.017584195360541344
4.0,0.015051553957164288
5.0,0.013079211115837097
6.0,0.011508536525070667
7.0,0.010398118756711483
8.0,0.009432955645024776
9.0,0.00837494246661663
10.0,0.007568579167127609
11.0,0.006881667301058769
12.0,0.006246750708669424
13.0,0.005780855659395456
14.0,0.005410853307694197
15.0,0.005022687837481499
16.0,0.0047284201718866825
18.0,0.0043634879402816296
20.0,0.003824724582955241
22.0,0.0033475086092948914
24.0,0.0030663160141557455
26.0,0.0029457646887749434
28.0,0.002655691932886839
30.0,0.0026067537255585194
32.0,0.0026657814159989357
36.0,0.0024867646861821413
40.0,0.0021912441588938236
44.0,0.0020219655707478523
48.0,0.001847066800110042
52.0,0.0014555342495441437
56.0,0.0014305443037301302
60.0,0.0014019400114193559
64.0,0.0007653142092749476
72.0,0.0005003896076232195
80.0,-0.00019186707504559308
88.0,-0.0005061280680820346
96.0,-0.00025194717454724014
104.0,-0.00042871705954894423
112.0,-0.00034976439201273024
120.0,-0.0004793659318238497
128.0,0.0002729023981373757
144.0,0.0005217456491664052
160.0,-0.000323243293678388
176.0,0.00026767715462483466
192.0,-0.0002835739578586072
208.0,-8.716919546714053e-05
224.0,-4.403703860589303e-05
240.0,-0.0005473478231579065
256.0,-0.0005081488634459674
288.0,-1.6840649550431408e-05
320.0,0.0010816321009770036
352.0,0.00019454522407613695
384.0,0.00032457135966978967
416.0,0.00043441448360681534
448.0,0.000389266264392063
480.0,0.00047637245734222233
512.0,0.00023995399533305317
576.0,-0.00020483878324739635
640.0,-0.00039523461600765586
704.0,0.00024115722044371068
768.0,-0.00024257827317342162
832.0,-0.0004936250043101609
896.0,4.1899297684722114e-06
960.0,0.0007835980504751205
1024.0,0.0006211558356881142
1152.0,3.434974132687785e-05
1280.0,0.0001105873379856348
1408.0,7.07415965734981e-05
1536.0,-3.828334592981264e-05
1664.0,-8.551849532523192e-06
1792.0,-0.00014226566418074071
1920.0,-4.491623258218169e-05
2048.0,-0.0004811763355974108
2304.0,-6.451545777963474e-05
2560.0,-0.0001093745231628418
2816.0,0.00018995467689819634
3072.0,-0.0003688256547320634
3328.0,-0.0001463971275370568
3584.0,-0.0003026235499419272
3840.0,0.00039180729072541
4096.0,-0.000624971347860992
4608.0,-0.00014844087127130479
5120.0,0.0001673584192758426
5632.0,-0.00019843876361846924
6144.0,-0.00023982465791050345
6656.0,8.739651093492284e-05
7168.0,-5.499629332916811e-05
7680.0,1.4908763660059776e-05
8192.0,0.00023233557294588536
9216.0,1.0637646482791752e-05
10240.0,-0.000103125894383993
11264.0,-0.0005682428018189967
12288.0,-0.00030940069700591266
13312.0,0.00037771082133986056
14336.0,0.0008935570949688554
end
