version,3.0
numOfCh,1
type,point
parent_name,40-cuts
ch_type,1_1
kcount,1
numberNandB,1
brightnessNandB,1
carpet pos,0
pc,0
Time (ms),CH1 Auto-Correlation
1.0,0.017705656588077545
2.0,0.014739392325282097
3.0,0.012548773549497128
4.0,0.010949214920401573
5.0,0.009596125222742558
6.0,0.008551590144634247
7.0,0.007671316619962454
8.0,0.007088285870850086
9.0,0.006579352077096701
10.0,0.006032952573150396
11.0,0.0056728036142885685
12.0,0.0054468195885419846
13.0,0.005161658860743046
14.0,0.004874865524470806
15.0,0.004558218643069267
16.0,0.00432755658403039
18.0,0.003984886687248945
20.0,0.003518185345456004
22.0,0.0031552519649267197
24.0,0.003005345817655325
26.0,0.0030316656921058893
28.0,0.00282201892696321
30.0,0.002587854163721204
32.0,0.0022055821027606726
36.0,0.0018784096464514732
40.0,0.0017734031425788999
44.0,0.001541996723972261
48.0,0.0015164519427344203
52.0,0.0013029651017859578
56.0,0.0011327492538839579
60.0,0.000894468801561743
64.0,0.0006186874816194177
72.0,0.00021181009651627392
80.0,0.0003632055304478854
88.0,0.000811934529338032
96.0,0.0007790079107508063
104.0,0.0005679252208210528
112.0,0.0004400231991894543
120.0,0.00014584157906938344
128.0,-0.00020706307259388268
144.0,-0.0006701129605062306
160.0,-0.00022802993771620095
176.0,0.00011628403444774449
192.0,2.104276245518122e-05
208.0,9.430247155250981e-05
224.0,3.4452132240403444e-06
240.0,-0.00013423748896457255
256.0,-0.0005369826685637236
288.0,-0.00034099866752512753
320.0,-0.0002237445005448535
352.0,-0.00013443488569464535
384.0,0.00020594771194737405
416.0,-0.0006187063409015536
448.0,-0.001013135421089828
480.0,-0.0005576127441599965
512.0,-0.00015680707292631269
576.0,0.00037824007449671626
640.0,0.00026584643637761474
704.0,0.0002940105041489005
768.0,0.0002915608056355268
832.0,0.00017588083574082702
896.0,0.00031620258232578635
960.0,5.445562237582635e-06
1024.0,0.0003536999283824116
1152.0,0.0003132788115181029
1280.0,0.00030304581741802394
1408.0,0.0006667839479632676
1536.0,-0.0003921004827134311
1664.0,-0.00013320391008164734
1792.0,0.0004007880634162575
1920.0,0.00041688827332109213
2048.0,0.0005060794646851718
2304.0,0.00047121316310949624
2560.0,9.169087570626289e-05
2816.0,-0.00021427770843729377
3072.0,0.00013251999916974455
3328.0,0.0001709220086922869
3584.0,0.00024968976504169405
3840.0,1.14980584839941e-05
4096.0,-0.00023460006923414767
4608.0,-0.00016373649123124778
5120.0,2.6323230486013927e-05
5632.0,-0.00019688962493091822
6144.0,-0.00018308575090486556
6656.0,-0.00028195386403240263
7168.0,-0.00013431443949230015
7680.0,-0.0003981407207902521
8192.0,-0.00013921908976044506
9216.0,-0.0002498413377907127
10240.0,-0.0002388734428677708
11264.0,-0.0001235984091181308
12288.0,-8.222114411182702e-05
13312.0,-1.6102749214041978e-05
14336.0,-5.8959518355550244e-05
end
