version,3.0
numOfCh,1
type,point
parent_name,40-cuts
ch_type,1_1
kcount,1
numberNandB,1
brightnessNandB,1
carpet pos,0
pc,0
Time (ms),CH1 Auto-Correlation
1.0,0.027001220732927322
2.0,0.022162050008773804
3.0,0.018860647454857826
4.0,0.016335943713784218
5.0,0.014597594738006592
6.0,0.013076581992208958
7.0,0.011756925843656063
8.0,0.010600087232887745
9.0,0.009618081152439117
10.0,0.008695979602634907
11.0,0.008126155473291874
12.0,0.0076203555800020695
13.0,0.00718718022108078
14.0,0.006940161343663931
15.0,0.006594415288418531
16.0,0.00614607147872448
18.0,0.005671914666891098
20.0,0.005305715370923281
22.0,0.005325304344296455
24.0,0.004872366786003113
26.0,0.004040958825498819
28.0,0.0034997377078980207
30.0,0.003216748358681798
32.0,0.0031860198359936476
36.0,0.0029401464853435755
40.0,0.0022819421719759703
44.0,0.002115796087309718
48.0,0.0014643409522250295
52.0,0.0014272532425820827
56.0,0.0017447789432480931
60.0,0.0016006681835278869
64.0,0.001232243375852704
72.0,0.0017244466580450535
80.0,0.0014253412373363972
88.0,0.0007413290441036224
96.0,0.00047398501192219555
104.0,0.00020445733389351517
112.0,0.00024156412109732628
120.0,0.0002734757144935429
128.0,0.00039634498534724116
144.0,-0.0003029070794582367
160.0,-5.157483974471688e-05
176.0,-0.00028408406069502234
192.0,-0.00033730026916600764
208.0,0.00047177073429338634
224.0,0.0001313653338002041
240.0,-0.0004257499531377107
256.0,6.161849887575954e-05
288.0,-0.000659375567920506
320.0,-0.0009478151914663613
352.0,-0.0006961800972931087
384.0,-0.0005325389793142676
416.0,-0.0001712002558633685
448.0,-0.00023105597938410938
480.0,0.00028922868659719825
512.0,0.00021403568098321557
576.0,-0.00015002665168140084
640.0,-1.864582191046793e-05
704.0,0.0004218619433231652
768.0,0.00033662276109680533
832.0,-0.0007875763112679124
896.0,-0.000594422803260386
960.0,-0.0003394677478354424
1024.0,0.0001654764055274427
1152.0,0.00035562796983867884
1280.0,-0.000490040285512805
1408.0,0.00016356271225959063
1536.0,0.0010493732988834381
1664.0,0.0003753932542167604
1792.0,0.0006607472314499319
1920.0,-0.00040750225889496505
2048.0,-0.0007754341932013631
2304.0,-3.0845094443066046e-05
2560.0,0.0003738346276804805
2816.0,7.91482743807137e-05
3072.0,-0.00012013194645987824
3328.0,0.00020593895169440657
3584.0,-0.000260570173850283
3840.0,-0.0004759643052238971
4096.0,0.0005653401603922248
4608.0,-0.00045271459384821355
5120.0,-5.1626637286972255e-05
5632.0,-2.744799348874949e-05
6144.0,0.0006421399302780628
6656.0,-2.3338545361184515e-05
7168.0,0.00011719672329491004
7680.0,-0.00011955705849686638
8192.0,-0.0003592412394937128
9216.0,-0.000254564598435536
10240.0,-0.00031670311000198126
11264.0,-0.0002329307608306408
12288.0,-4.3740845285356045e-05
13312.0,4.062616062583402e-05
14336.0,3.292123437859118e-05
end
