version,3.0
numOfCh,1
type,point
parent_name,40-cuts
ch_type,1_1
kcount,1
numberNandB,1
brightnessNandB,1
carpet pos,0
pc,0
Time (ms),CH1 Auto-Correlation
1.0,0.0283695999532938
2.0,0.02338605932891369
3.0,0.02011682651937008
4.0,0.01751699671149254
5.0,0.015551135875284672
6.0,0.014000248163938522
7.0,0.012569013051688671
8.0,0.011389032006263733
9.0,0.010637116618454456
10.0,0.009841777384281158
11.0,0.008847368881106377
12.0,0.008320730179548264
13.0,0.007821920327842236
14.0,0.00742851197719574
15.0,0.007026328705251217
16.0,0.006321177817881107
18.0,0.0053778039291501045
20.0,0.004680383484810591
22.0,0.004247783683240414
24.0,0.0037250404711812735
26.0,0.0033811060711741447
28.0,0.003223417792469263
30.0,0.0031603677198290825
32.0,0.0029764899518340826
36.0,0.002721072407439351
40.0,0.0028257800731807947
44.0,0.0026213801465928555
48.0,0.0026844684034585953
52.0,0.0027525622863322496
56.0,0.0022806464694440365
60.0,0.0019917674362659454
64.0,0.0018017601687461138
72.0,0.0019477637251839042
80.0,0.0021045624744147062
88.0,0.0015071842353790998
96.0,0.0009192877332679927
104.0,0.0004537275235634297
112.0,0.0008736561285331845
120.0,0.0004377355217002332
128.0,0.0003833052178379148
144.0,0.0005029405583627522
160.0,0.00023961698752827942
176.0,0.0010329103097319603
192.0,0.0014012855244800448
208.0,0.0002173950051655993
224.0,-0.00019435689318925142
240.0,6.397899414878339e-05
256.0,-0.0004223444848321378
288.0,0.00018597782764118165
320.0,-0.0001767168432706967
352.0,-0.0002898646635003388
384.0,-0.0005154366954229772
416.0,-0.00021958796423859894
448.0,-0.0005069993785582483
480.0,-0.0007900774362497032
512.0,-0.00025528439437039196
576.0,0.0005050809122622013
640.0,0.0001065207106876187
704.0,-3.565032238839194e-05
768.0,-0.000264715519733727
832.0,-0.000664080202113837
896.0,1.8154652934754267e-05
960.0,-7.553700470452895e-06
1024.0,0.0004568232106976211
1152.0,0.0009860775899142027
1280.0,0.00041473747114650905
1408.0,0.0002869823365472257
1536.0,-0.00013133842730894685
1664.0,-0.0004899416817352176
1792.0,-9.129518002737314e-05
1920.0,4.399612225824967e-05
2048.0,0.00012121273903176188
2304.0,0.0005628243088722229
2560.0,0.00024342381220776588
2816.0,0.00013386938371695578
3072.0,-0.00047078225179575384
3328.0,0.0005168095231056213
3584.0,0.00022391416132450104
3840.0,0.0006030959193594754
4096.0,-0.0003703001420944929
4608.0,-6.0304271755740047e-05
5120.0,0.00020091416081413627
5632.0,-0.00042170894448645413
6144.0,0.0006212078151293099
6656.0,-0.0006031914963386953
7168.0,-5.492575655807741e-05
7680.0,-0.0008304163347929716
8192.0,4.544481635093689e-05
9216.0,-0.0006117126322351396
10240.0,-0.000588505994528532
11264.0,-0.0007406164659187198
12288.0,0.0004639208491425961
13312.0,-0.00032131775515154004
14336.0,0.00028340122662484646
end
