version,3.0
numOfCh,1
type,point
parent_name,40-cuts
ch_type,1_1
kcount,1
numberNandB,1
brightnessNandB,1
carpet pos,0
pc,0
Time (ms),CH1 Auto-Correlation
1.0,0.026464607566595078
2.0,0.021698053926229477
3.0,0.018391838297247887
4.0,0.015789251774549484
5.0,0.013805251568555832
6.0,0.01221088320016861
7.0,0.01087834220379591
8.0,0.00977669470012188
9.0,0.008687019348144531
10.0,0.007848608307540417
11.0,0.007066725287586451
12.0,0.006651278585195541
13.0,0.006251601967960596
14.0,0.005677384790033102
15.0,0.005301869940012693
16.0,0.0049176388420164585
18.0,0.00422079861164093
20.0,0.0037902032490819693
22.0,0.003350058803334832
24.0,0.003108677454292774
26.0,0.0028484025970101357
28.0,0.002485374454408884
30.0,0.002157643437385559
32.0,0.00198653107509017
36.0,0.0016846921062096953
40.0,0.001274910056963563
44.0,0.0011223639594390988
48.0,0.0009476370178163052
52.0,0.0008905692375265062
56.0,0.00048734547453932464
60.0,0.0001640373229747638
64.0,0.0001435066806152463
72.0,0.0004785020719282329
80.0,0.00015142507618293166
88.0,-8.13568476587534e-05
96.0,-0.0005566284526139498
104.0,3.5615641536423936e-05
112.0,0.0008197214920073748
120.0,0.0012470345245674253
128.0,0.0009863288141787052
144.0,0.001029072911478579
160.0,0.00041546381544321775
176.0,-9.648474224377424e-05
192.0,-0.0005525151500478387
208.0,-0.0006354778306558728
224.0,-0.0002290582488058135
240.0,-2.0559380573104136e-05
256.0,7.94404186308384e-05
288.0,0.0001068575875251554
320.0,0.000270213553449139
352.0,-0.0003941466857213527
384.0,-0.00047450236161239445
416.0,-0.0006927014328539371
448.0,-0.0006573236314579844
480.0,-0.000516381289344281
512.0,-0.0005583228194154799
576.0,0.00016977399354800582
640.0,0.0007942730444483459
704.0,0.0011290163965895772
768.0,0.0010073381708934903
832.0,0.001189827686175704
896.0,0.0002018673694692552
960.0,0.0002795608015730977
1024.0,-0.0002717037277761847
1152.0,-0.0002802811795845628
1280.0,-9.87011517281644e-05
1408.0,0.0004479179624468088
1536.0,0.0003194795281160623
1664.0,1.6483232684549876e-05
1792.0,-0.0005991681828163564
1920.0,9.77128729573451e-05
2048.0,0.00013295799726620317
2304.0,0.0002062663552351296
2560.0,-0.0004939226200804114
2816.0,6.559958274010569e-05
3072.0,0.0004559743101708591
3328.0,-0.0004242579743731767
3584.0,9.088854858418927e-05
3840.0,0.000143523357110098
4096.0,-0.00036207662196829915
4608.0,-0.00016216636868193746
5120.0,-0.00013979626237414777
5632.0,-0.000527815253008157
6144.0,-0.0002018270461121574
6656.0,-0.00012125082139391452
7168.0,-3.2996005757013336e-05
7680.0,0.0001727309136185795
8192.0,6.599108019145206e-05
9216.0,7.778853614581749e-05
10240.0,0.00012472145317588001
11264.0,0.00019401698955334723
12288.0,-3.263445250922814e-05
13312.0,-0.000684959115460515
14336.0,-0.0006462338496930897
end
