version,3.0
numOfCh,1
type,point
parent_name,40-cuts
ch_type,1_1
kcount,1
numberNandB,1
brightnessNandB,1
carpet pos,0
pc,0
Time (ms),CH1 Auto-Correlation
1.0,0.016725441440939903
2.0,0.013731490820646286
3.0,0.011596386320888996
4.0,0.01005913969129324
5.0,0.008939153514802456
6.0,0.007938549853861332
7.0,0.00711996853351593
8.0,0.006349966395646334
9.0,0.005729850381612778
10.0,0.005254789255559444
11.0,0.004804305732250214
12.0,0.004430950153619051
13.0,0.0040986863896250725
14.0,0.0037954463623464108
15.0,0.0036342833191156387
16.0,0.003473221557214856
18.0,0.0030973132234066725
20.0,0.002809237688779831
22.0,0.0026249645743519068
24.0,0.002443775301799178
26.0,0.0023170390632003546
28.0,0.002248299540951848
30.0,0.0020895355846732855
32.0,0.0018708432326093316
36.0,0.0015117386355996132
40.0,0.0011450996389612556
44.0,0.001080599264241755
48.0,0.0010242186253890395
52.0,0.0010895635932683945
56.0,0.0009766049915924668
60.0,0.0008729640976525843
64.0,0.0006348718306981027
72.0,0.00013778141874354333
80.0,0.000550728349480778
88.0,0.0004545651900116354
96.0,0.00075186399044469
104.0,0.0007930042338557541
112.0,0.0006198533228598535
120.0,0.0004777883004862815
128.0,0.0001028666811180301
144.0,-0.00010865431977435946
160.0,0.00012043350579915568
176.0,0.00022971918224357069
192.0,0.0003407207259442657
208.0,0.00023092926130630076
224.0,2.751547799562104e-05
240.0,-0.0004281317233107984
256.0,-0.0005016335635446012
288.0,-0.00022189230367075652
320.0,-9.203521040035412e-05
352.0,-3.757778540602885e-05
384.0,0.0002917144156526774
416.0,0.0006283396505750716
448.0,-0.0002608594368211925
480.0,-0.000420356635004282
512.0,-4.496450003443897e-07
576.0,0.00020965083967894316
640.0,-4.124925908399746e-05
704.0,0.00012229892308823764
768.0,-0.0003237105265725404
832.0,-0.0002090227062581107
896.0,-5.0954353355336934e-05
960.0,0.00016515931929461658
1024.0,0.00043015702976845205
1152.0,7.233079668367282e-05
1280.0,-9.415591193828732e-05
1408.0,-0.00010523690434638411
1536.0,4.519815411185846e-05
1664.0,0.00012479022552724928
1792.0,-0.00021861770073883235
1920.0,-0.00012758643424604088
2048.0,-9.80830955086276e-05
2304.0,-0.0005337193724699318
2560.0,0.00020997639512643218
2816.0,-0.0001115784834837541
3072.0,-8.268783858511597e-06
3328.0,-0.00038058357313275337
3584.0,0.00022224232088774443
3840.0,-0.00027452604263089597
4096.0,0.00035798578755930066
4608.0,-0.00024630335974507034
5120.0,0.0003216140903532505
5632.0,9.434737148694694e-05
6144.0,-2.1396323063527234e-05
6656.0,5.3485477110370994e-05
7168.0,-0.0004190837498754263
7680.0,-0.00013470205885823816
8192.0,-5.574221722781658e-05
9216.0,9.84790749498643e-05
10240.0,-0.0001712290832074359
11264.0,7.334762631217018e-05
12288.0,-6.025800030329265e-05
13312.0,-0.00016084074741229415
14336.0,0.00034987294930033386
end
