version,3.0
numOfCh,1
type,point
parent_name,40-cuts
ch_type,1_1
kcount,1
numberNandB,1
brightnessNandB,1
carpet pos,0
pc,0
Time (ms),CH1 Auto-Correlation
1.0,0.01697625406086445
2.0,0.01402441505342722
3.0,0.011855734512209892
4.0,0.010168000124394894
5.0,0.00889167096465826
6.0,0.007953217253088951
7.0,0.00720452144742012
8.0,0.006602870300412178
9.0,0.00598373357206583
10.0,0.005461524240672588
11.0,0.005141634959727526
12.0,0.004881374537944794
13.0,0.0046045309863984585
14.0,0.004425995983183384
15.0,0.0041972436010837555
16.0,0.004003423731774092
18.0,0.0035914599429816008
20.0,0.0032077063806355
22.0,0.0028622697573155165
24.0,0.0026250926312059164
26.0,0.0023726332001388073
28.0,0.0020080816466361284
30.0,0.0017842849483713508
32.0,0.001742029213346541
36.0,0.0015449401689693332
40.0,0.0014385856920853257
44.0,0.0011077681556344032
48.0,0.0008696839795447886
52.0,0.0008722509955987334
56.0,0.0008236642461270094
60.0,0.000625317101366818
64.0,0.00041599973337724805
72.0,0.00033767271088436246
80.0,0.0004555506457109004
88.0,0.0004985117702744901
96.0,0.0004631841438822448
104.0,0.0003118125023320317
112.0,0.00042877576197497547
120.0,0.00028547513647936285
128.0,0.000370777997886762
144.0,0.0003873021632898599
160.0,0.0002816713822539896
176.0,0.0003603099612519145
192.0,0.00041061456431634724
208.0,0.00017122577992267907
224.0,0.0008435599156655371
240.0,0.0011385275283828378
256.0,0.0007756778504699469
288.0,0.00024381968250963837
320.0,0.00021479660063050687
352.0,0.0009132890263572335
384.0,0.0005054580396972597
416.0,8.684421482030302e-05
448.0,-0.0002600772713776678
480.0,-0.0003662228991743177
512.0,-0.00015936733689159155
576.0,0.00013505203241948038
640.0,0.0003811277274508029
704.0,-6.336261867545545e-05
768.0,-0.00016270556079689413
832.0,-2.5000395908136852e-05
896.0,0.00015733148029539734
960.0,0.00046282773837447166
1024.0,0.0001487380068283528
1152.0,0.00032187046599574387
1280.0,0.0004722832818515599
1408.0,0.00046864006435498595
1536.0,0.00011558589903870597
1664.0,0.0004552059108391404
1792.0,-0.00024965955526567996
1920.0,0.00022153429745230824
2048.0,2.9453556635417044e-05
2304.0,-0.00015822793648112565
2560.0,0.00016399446758441627
2816.0,0.00024215001030825078
3072.0,0.0002855201601050794
3328.0,-1.7947342712432146e-05
3584.0,-0.00018340682436246425
3840.0,-0.0002172833919757977
4096.0,-0.0001955309126060456
4608.0,-0.0003281115787103772
5120.0,-0.00017366827523801476
5632.0,-0.00018556398572400212
6144.0,-3.250219742767513e-05
6656.0,-0.00010966693662339821
7168.0,-0.0001434687146684155
7680.0,-6.242379458853975e-05
8192.0,-1.705155591480434e-05
9216.0,0.00023154252266976982
10240.0,-6.755731737939641e-05
11264.0,0.0001290132786380127
12288.0,-0.00028650564490817487
13312.0,-0.00030750822043046355
14336.0,-0.0005216922145336866
end
