version,3.0
numOfCh,1
type,point
parent_name,40-cuts
ch_type,1_1
kcount,1
numberNandB,1
brightnessNandB,1
carpet pos,0
pc,0
Time (ms),CH1 Auto-Correlation
1.0,0.016451699659228325
2.0,0.013529612682759762
3.0,0.01132448110729456
4.0,0.009742897003889084
5.0,0.008563031442463398
6.0,0.007590046618133783
7.0,0.006912487559020519
8.0,0.006306005176156759
9.0,0.0057345107197761536
10.0,0.0053213005885481834
11.0,0.004951864946633577
12.0,0.004577856510877609
13.0,0.004131709225475788
14.0,0.0037200625520199537
15.0,0.0033769814763218164
16.0,0.0031434379052370787
18.0,0.002827573800459504
20.0,0.0024805248249322176
22.0,0.002317438367754221
24.0,0.002102623460814357
26.0,0.0018776344368234277
28.0,0.001711570774205029
30.0,0.0015546006616204977
32.0,0.0014117870014160872
36.0,0.0013119318755343556
40.0,0.0015012059593573213
44.0,0.0015584477223455906
48.0,0.0011601923033595085
52.0,0.0007876505260355771
56.0,0.0005257125594653189
60.0,0.0006817848770879209
64.0,0.0006613073637709022
72.0,0.0003175334131810814
80.0,-0.0003406658652238548
88.0,-0.00037867831997573376
96.0,-0.0001284594472963363
104.0,6.678268255200237e-05
112.0,0.0001783013140084222
120.0,-0.0002084625739371404
128.0,-1.8795764844981022e-05
144.0,-0.00021421918063424528
160.0,-0.00044656681711785495
176.0,-0.00037434027763083577
192.0,-0.0002272708370583132
208.0,-0.0003609842387959361
224.0,-0.00021205309894867241
240.0,-0.0007395017892122269
256.0,-0.0006269883015193045
288.0,-0.0009107897058129311
320.0,-0.0004886260139755905
352.0,-0.0005447668372653425
384.0,-6.782636774005368e-05
416.0,-0.00026281236205250025
448.0,0.00021647810353897512
480.0,-0.0004537869244813919
512.0,-0.00010000632755691186
576.0,-0.00010608236334519461
640.0,0.0003595117887016386
704.0,0.0004642582789529115
768.0,0.000524160626810044
832.0,-0.00017537148960400373
896.0,-0.0006749078165739775
960.0,-0.00046398292761296034
1024.0,0.00021464534802362323
1152.0,-0.0003496694553177804
1280.0,2.4564218620071188e-05
1408.0,-5.445804345072247e-05
1536.0,0.00023901938402559608
1664.0,-0.00014679347805213183
1792.0,-0.00012276211054995656
1920.0,-0.0003073156112805009
2048.0,0.0002402206155238673
2304.0,-0.0001260362332686782
2560.0,-1.3931935427535791e-05
2816.0,-0.00011937273666262627
3072.0,0.00021192040003370494
3328.0,-0.0001134532067226246
3584.0,-7.828731031622738e-05
3840.0,5.2762177801923826e-05
4096.0,-0.00011411610466893762
4608.0,0.00017844185640569776
5120.0,1.122187495639082e-05
5632.0,-2.4975390260806307e-05
6144.0,6.765661237295717e-05
6656.0,-0.0001972543977899477
7168.0,-5.112115104566328e-06
7680.0,0.00010481062781764194
8192.0,-0.00011200735752936453
9216.0,5.101903752802173e-06
10240.0,7.648042810615152e-05
11264.0,-5.3836767619941384e-05
12288.0,7.246530458360212e-06
13312.0,-2.6508470909902826e-05
14336.0,1.4917044609319419e-05
end
