version,3.0
numOfCh,1
type,point
parent_name,40-cuts
ch_type,1_1
kcount,1
numberNandB,1
brightnessNandB,1
carpet pos,0
pc,0
Time (ms),CH1 Auto-Correlation
1.0,0.017015863209962845
2.0,0.014059622772037983
3.0,0.01190157700330019
4.0,0.010253114625811577
5.0,0.009011898189783096
6.0,0.007946068421006203
7.0,0.007170326076447964
8.0,0.006587198469787836
9.0,0.005989179480820894
10.0,0.0055384100414812565
11.0,0.005089836660772562
12.0,0.004736132454127073
13.0,0.004523150157183409
14.0,0.00426090881228447
15.0,0.004119477700442076
16.0,0.0039181821048259735
18.0,0.003573172725737095
20.0,0.0032298339065164328
22.0,0.0028948273975402117
24.0,0.0027926284819841385
26.0,0.0028491774573922157
28.0,0.0028319263365119696
30.0,0.002545011695474386
32.0,0.002267132978886366
36.0,0.0015497817657887936
40.0,0.0012681728694587946
44.0,0.0012009656056761742
48.0,0.0008220472373068333
52.0,0.0008688293746672571
56.0,0.0009725100826472044
60.0,0.0010138786165043712
64.0,0.0009380084229633212
72.0,0.0006623698282055557
80.0,0.0002453774504829198
88.0,0.0003318519447930157
96.0,0.00015304966655094177
104.0,0.00010827763617271557
112.0,-0.00017386770923621953
120.0,0.000424736033892259
128.0,0.0008662845939397812
144.0,0.00053053890587762
160.0,-3.603919321903959e-05
176.0,-0.0003890357620548457
192.0,-3.448734059929848e-05
208.0,-0.0001825593935791403
224.0,0.0001555831840960309
240.0,-0.00023613353550899774
256.0,0.00010267130710417405
288.0,-0.0006631820579059422
320.0,-0.0008625568589195609
352.0,-0.0003235823824070394
384.0,-2.1542480681091547e-05
416.0,7.554257990705082e-06
448.0,6.872495578136295e-05
480.0,9.3885297246743e-05
512.0,-6.149527325760573e-05
576.0,-0.00046293222112581134
640.0,-0.00025850601377896965
704.0,-6.044180190656334e-05
768.0,0.0002055174991255626
832.0,0.00029152852948755026
896.0,0.000180344344698824
960.0,0.0007510215509682894
1024.0,0.00027082936139777303
1152.0,-1.439020434190752e-05
1280.0,0.00020418483472894877
1408.0,0.00012076755956513807
1536.0,-0.00033411988988518715
1664.0,-5.217912621446885e-05
1792.0,0.000280816137092188
1920.0,0.00035278030554763973
2048.0,1.7565789676154964e-05
2304.0,-0.0003181785286869854
2560.0,7.551688759122044e-05
2816.0,0.00018210202688351274
3072.0,5.573064845521003e-05
3328.0,-6.323089473880827e-05
3584.0,0.0002956467214971781
3840.0,8.124660234898329e-05
4096.0,-0.00012622858048416674
4608.0,0.00012960292224306613
5120.0,-3.47102468367666e-05
5632.0,9.415639215148985e-05
6144.0,7.120035297702998e-05
6656.0,-0.0004127422289457172
7168.0,0.00030195617000572383
7680.0,-0.00025563471717759967
8192.0,8.173477544914931e-05
9216.0,-0.00013097393093630672
10240.0,-0.00023891047749202698
11264.0,-0.00021030966308899224
12288.0,-0.00018667713447939605
13312.0,-0.00018083583563566208
14336.0,-0.000233116268645972
end
