version,3.0
numOfCh,1
type,point
parent_name,40-cuts
ch_type,1_1
kcount,1
numberNandB,1
brightnessNandB,1
carpet pos,0
pc,0
Time (ms),CH1 Auto-Correlation
1.0,0.01585923321545124
2.0,0.013011571019887924
3.0,0.01106511801481247
4.0,0.009692552499473095
5.0,0.00860646367073059
6.0,0.007769406773149967
7.0,0.007124318741261959
8.0,0.006547093391418457
9.0,0.0060544987209141254
10.0,0.005578197073191404
11.0,0.005176966078579426
12.0,0.004874627571552992
13.0,0.004634604789316654
14.0,0.004351937677711248
15.0,0.004155256785452366
16.0,0.004146373365074396
18.0,0.0038774069398641586
20.0,0.0035580985713750124
22.0,0.0032363361679017544
24.0,0.0031258265953511
26.0,0.002884740475565195
28.0,0.0026892891619354486
30.0,0.0024667480029165745
32.0,0.0024245285894721746
36.0,0.002147048246115446
40.0,0.0018461651634424925
44.0,0.0017432456370443106
48.0,0.0013619629899039865
52.0,0.001365583622828126
56.0,0.001394440419971943
60.0,0.0012980425963178277
64.0,0.0011486489092931151
72.0,0.0007140617235563695
80.0,0.00048396355123259127
88.0,0.00029376117163337767
96.0,-4.366237931208161e-07
104.0,4.401317346491851e-05
112.0,0.0002693532733246684
120.0,0.0006086350767873228
128.0,0.0005826357519254088
144.0,0.0004107014392502606
160.0,0.00017783745715860277
176.0,0.00048496227827854455
192.0,0.0005089539918117225
208.0,0.00029993467614986
224.0,-1.273288216907531e-05
240.0,-3.021928387170192e-05
256.0,0.0002839484659489244
288.0,-0.00013709915219806135
320.0,0.0002094787050737068
352.0,0.00020554757793433964
384.0,3.748249218915589e-05
416.0,0.0006875243270769715
448.0,0.0008802538504824042
480.0,0.00043626315891742706
512.0,0.00034712234628386796
576.0,-0.00031113793374970555
640.0,-0.0003320283140055835
704.0,0.0003882108139805496
768.0,9.553860581945628e-05
832.0,-0.0005298050818964839
896.0,-0.0004258747212588787
960.0,-0.0002719820768106729
1024.0,-6.590746488654986e-05
1152.0,3.647528137662448e-05
1280.0,-0.00017832289449870586
1408.0,-0.0005108432378619909
1536.0,-0.0003624622186180204
1664.0,0.00025041872868314385
1792.0,-1.0049091542896349e-05
1920.0,-0.00022777194681111723
2048.0,0.00012152660929132253
2304.0,0.00043856038246303797
2560.0,0.00014080898836255074
2816.0,-0.00011099312541773543
3072.0,-0.00028807841590605676
3328.0,6.889440555823967e-05
3584.0,0.00015294602781068534
3840.0,-0.0001600144023541361
4096.0,0.0002334042073925957
4608.0,0.00021207655663602054
5120.0,-0.00015939230797812343
5632.0,-0.0007596988580189645
6144.0,-0.00016692825010977685
6656.0,-6.760405085515231e-05
7168.0,0.00039010774344205856
7680.0,0.00017546798335388303
8192.0,-0.0005339292692951858
9216.0,-0.00031798251438885927
10240.0,-0.000233227779972367
11264.0,0.00025178291252814233
12288.0,-0.00013271874922793359
13312.0,1.951888407347724e-06
14336.0,0.00032591127092018723
end
