version,3.0
numOfCh,1
type,point
parent_name,40-cuts
ch_type,1_1
kcount,1
numberNandB,1
brightnessNandB,1
carpet pos,0
pc,0
Time (ms),CH1 Auto-Correlation
1.0,0.015560049563646317
2.0,0.0127162029966712
3.0,0.01070274319499731
4.0,0.009289177134633064
5.0,0.008189632557332516
6.0,0.007284990511834621
7.0,0.0064809443429112434
8.0,0.005822450388222933
9.0,0.005289723165333271
10.0,0.00485247140750289
11.0,0.004563906695693731
12.0,0.004261123947799206
13.0,0.003949865698814392
14.0,0.0037070137914270163
15.0,0.0033734957687556744
16.0,0.0030556810088455677
18.0,0.002784562995657325
20.0,0.0024287872947752476
22.0,0.002089638961479068
24.0,0.0021275056060403585
26.0,0.0020988646429032087
28.0,0.001954500563442707
30.0,0.0017418044153600931
32.0,0.0015919842990115285
36.0,0.001352183986455202
40.0,0.0012104393681511283
44.0,0.001222348539158702
48.0,0.0010360495653003454
52.0,0.0009471237426623702
56.0,0.0006009854841977358
60.0,0.00040927750524133444
64.0,0.0002941031416412443
72.0,0.00018538210133556277
80.0,0.00016226433217525482
88.0,0.00021540853776969016
96.0,0.000581293657887727
104.0,0.00029065925627946854
112.0,0.0003807194880209863
120.0,0.000601518782787025
128.0,0.0004593829798977822
144.0,0.00011355671449564397
160.0,-0.000320822698995471
176.0,-0.0006567368400283158
192.0,-0.000605489534791559
208.0,-0.00030247645918279886
224.0,-0.000580791849642992
240.0,-3.960073081543669e-05
256.0,0.0003258226497564465
288.0,0.0001212971328641288
320.0,-0.00024558353470638394
352.0,-0.00010326145275030285
384.0,-0.00024230490089394152
416.0,-0.0003165043599437922
448.0,-0.00028053770074620843
480.0,-0.0003940070455428213
512.0,-0.0009403717122040689
576.0,-0.0005045708967372775
640.0,-0.00020615466928575188
704.0,-0.00012559712922666222
768.0,4.175754656898789e-05
832.0,0.00037019967567175627
896.0,0.000676373194437474
960.0,0.0001533435279270634
1024.0,-0.0003271467867307365
1152.0,0.00038139172829687595
1280.0,0.00020255366689525545
1408.0,-0.00015098434232641011
1536.0,-0.00023916229838505387
1664.0,-0.0003586298553273082
1792.0,-0.0002486659795977175
1920.0,-4.942165469401516e-05
2048.0,0.00014155123790260404
2304.0,3.0382201657630503e-05
2560.0,0.0002637307916302234
2816.0,0.00017157384718302637
3072.0,-0.0003613238804973662
3328.0,0.0002484586730133742
3584.0,0.00014886110147926956
3840.0,-0.0001773642870830372
4096.0,-0.0001484354870626703
4608.0,-0.0001573281770106405
5120.0,-3.0534611141774803e-05
5632.0,-5.673446139553562e-05
6144.0,-3.759172102490993e-07
6656.0,3.0030574635020457e-05
7168.0,-0.000163461736519821
7680.0,3.173873483319767e-05
8192.0,-0.0001441108761355281
9216.0,1.458346832805546e-05
10240.0,2.5757790353964083e-05
11264.0,-0.00011198868014616892
12288.0,0.0002222744224127382
13312.0,-0.00032433803426101804
14336.0,0.0006831308710388839
end
