version,3.0
numOfCh,1
type,point
parent_name,40-cuts
ch_type,1_1
kcount,1
numberNandB,1
brightnessNandB,1
carpet pos,0
pc,0
Time (ms),CH1 Auto-Correlation
1.0,0.02726653404533863
2.0,0.02253808081150055
3.0,0.019390083849430084
4.0,0.016879724338650703
5.0,0.014886688441038132
6.0,0.013589521870017052
7.0,0.012538693845272064
8.0,0.011351662687957287
9.0,0.010491937398910522
10.0,0.009821942076086998
11.0,0.00899703148752451
12.0,0.008238435722887516
13.0,0.007678768131881952
14.0,0.0072107152082026005
15.0,0.006699122488498688
16.0,0.006334137171506882
18.0,0.005790520925074816
20.0,0.0051519544795155525
22.0,0.004565890412777662
24.0,0.004233531653881073
26.0,0.0040366435423493385
28.0,0.0038336641155183315
30.0,0.00354943098500371
32.0,0.0031971056014299393
36.0,0.0026677995920181274
40.0,0.002060587052255869
44.0,0.0018633462022989988
48.0,0.0020286496728658676
52.0,0.001704762107692659
56.0,0.001785465981811285
60.0,0.0016638858942314982
64.0,0.0012955662095919251
72.0,0.0017059709643945098
80.0,0.0013072362635284662
88.0,0.0011921072145923972
96.0,0.0014604786410927773
104.0,0.0011989580234512687
112.0,0.0006075459532439709
120.0,0.0005237311124801636
128.0,0.00043117156019434333
144.0,-0.0002539860433898866
160.0,-0.00016647831944283098
176.0,0.00045488643809221685
192.0,5.8758174418471754e-05
208.0,-0.00027353790937922895
224.0,-0.00016172551841009408
240.0,0.0005337059265002608
256.0,0.0005371143342927098
288.0,0.0007497258484363556
320.0,0.001587473787367344
352.0,0.0007990990416146815
384.0,0.0006488373037427664
416.0,0.001072874991223216
448.0,0.001079972367733717
480.0,0.0009426715550944209
512.0,0.00043931574327871203
576.0,0.00055510742822662
640.0,-0.0005205967463552952
704.0,-0.00014211174857337028
768.0,0.0005317967152222991
832.0,0.0006574504659511149
896.0,0.00031409459188580513
960.0,-0.0002840478846337646
1024.0,-0.00017242760804947466
1152.0,-0.0002698501921258867
1280.0,0.00026299021556042135
1408.0,-0.0002298084000358358
1536.0,-0.0013362858444452286
1664.0,-0.0004739114665426314
1792.0,-0.00027614005375653505
1920.0,-0.00031297243549488485
2048.0,-0.0006134550203569233
2304.0,-0.0005305888480506837
2560.0,-0.0003467650676611811
2816.0,-0.0006706025451421738
3072.0,-0.00012204760423628613
3328.0,-0.00013904976367484778
3584.0,-0.00017591392679605633
3840.0,-3.988626122009009e-05
4096.0,-0.0002603644970804453
4608.0,0.0006030842778272927
5120.0,0.0006385167362168431
5632.0,0.00053224345901981
6144.0,-0.00021296204067766666
6656.0,-0.00035190003109164536
7168.0,-0.0009616375318728387
7680.0,-0.000624273787252605
8192.0,-0.00016842660261318088
9216.0,-7.565921259811148e-05
10240.0,0.0006400622078217566
11264.0,-0.00012464739847928286
12288.0,-0.0011309499386698008
13312.0,0.0008433372713625431
14336.0,0.0009175565792247653
end
