version,3.0
numOfCh,1
type,point
parent_name,40-cuts
ch_type,1_1
kcount,1
numberNandB,1
brightnessNandB,1
carpet pos,0
pc,0
Time (ms),CH1 Auto-Correlation
1.0,0.016065416857600212
2.0,0.01326061598956585
3.0,0.011089946143329144
4.0,0.009628638625144958
5.0,0.008627668023109436
6.0,0.007790549658238888
7.0,0.007229112554341555
8.0,0.006589810363948345
9.0,0.006028732750564814
10.0,0.005477079190313816
11.0,0.005057539325207472
12.0,0.004680475685745478
13.0,0.004425454884767532
14.0,0.0041855135932564735
15.0,0.0039060337003320456
16.0,0.003737844992429018
18.0,0.003488062182441354
20.0,0.003142306813970208
22.0,0.002794523723423481
24.0,0.002610487397760153
26.0,0.002503752475604415
28.0,0.0023170090280473232
30.0,0.0021893687080591917
32.0,0.0020124330185353756
36.0,0.0018565489444881678
40.0,0.0018153854180127382
44.0,0.0014965380541980267
48.0,0.0013149839360266924
52.0,0.0014928168384358287
56.0,0.0014117573155090213
60.0,0.0013375721173360944
64.0,0.0009655593312345445
72.0,0.0010153788607567549
80.0,0.0008121584542095661
88.0,0.0009124523494392633
96.0,0.0008443263941444457
104.0,0.0007174736238084733
112.0,0.0004639591497834772
120.0,0.00033780161174945533
128.0,0.000285402376903221
144.0,0.00025129702407866716
160.0,0.00031404223409481347
176.0,0.0009845136664807796
192.0,0.000612137489952147
208.0,7.585320872749435e-06
224.0,2.2330308638629504e-05
240.0,5.9473688452271745e-05
256.0,-8.230948151322082e-05
288.0,-0.00025450263638049364
320.0,-0.0005542013677768409
352.0,8.098659600364044e-05
384.0,-0.0004569415468722582
416.0,-0.00010402344923932105
448.0,9.10374874365516e-05
480.0,-0.00017530706827528775
512.0,-0.00022198594524525106
576.0,-0.0011991539504379034
640.0,-0.0012484440812841058
704.0,-0.0009573118877597153
768.0,-0.0008021650137379766
832.0,-0.0001968352444237098
896.0,0.0001889632549136877
960.0,0.0001545782870380208
1024.0,0.0002442328550387174
1152.0,0.00025724369334056973
1280.0,0.0006204649689607322
1408.0,0.0006018205895088613
1536.0,0.0005053376080468297
1664.0,-0.00038631013012491167
1792.0,-0.000456413283245638
1920.0,-0.0006169648258946836
2048.0,-0.0009632831206545234
2304.0,0.00010738721903180704
2560.0,0.0005572898080572486
2816.0,0.00037830305518582463
3072.0,-0.0004784695920534432
3328.0,-0.0003817126853391528
3584.0,5.451006654766388e-05
3840.0,0.0002510214108042419
4096.0,-0.000258760730503127
4608.0,-0.0002997509727720171
5120.0,0.0003733165794983506
5632.0,-0.0005213594413362443
6144.0,0.0003707955766003579
6656.0,-0.0004040492058265954
7168.0,0.0001315199042437598
7680.0,0.00045255967415869236
8192.0,-0.0005399770452640951
9216.0,-0.00015159502800088376
10240.0,0.0002711925480980426
11264.0,9.668695565778762e-05
12288.0,-0.00016161604435183108
13312.0,-0.00018935449770651758
14336.0,-0.00029669792274944484
end
