version,3.0
numOfCh,1
type,point
parent_name,40-cuts
ch_type,1_1
kcount,1
numberNandB,1
brightnessNandB,1
carpet pos,0
pc,0
Time (ms),CH1 Auto-Correlation
1.0,0.01594831980764866
2.0,0.012892100028693676
3.0,0.010728477500379086
4.0,0.009233755990862846
5.0,0.00806637853384018
6.0,0.0072189015336334705
7.0,0.006454388611018658
8.0,0.005777387879788876
9.0,0.005256960168480873
10.0,0.004849183838814497
11.0,0.004492317792028189
12.0,0.004131929948925972
13.0,0.003859913442283869
14.0,0.0036548427306115627
15.0,0.0035199217963963747
16.0,0.003506941720843315
18.0,0.0031140099745243788
20.0,0.0028188738506287336
22.0,0.00250062788836658
24.0,0.0022535049356520176
26.0,0.0019468924729153514
28.0,0.0018324849661439657
30.0,0.0018089255318045616
32.0,0.001731839613057673
36.0,0.0014026178978383541
40.0,0.001246816013008356
44.0,0.0010318284621462226
48.0,0.0008338383631780744
52.0,0.0005651213577948511
56.0,0.0004771824460476637
60.0,0.00046657747589051723
64.0,0.00043165733222849667
72.0,0.0003975694708060473
80.0,0.0003307528968434781
88.0,-5.402765054896008e-06
96.0,0.00013354550173971802
104.0,0.0004273594240657985
112.0,0.0005744635709561408
120.0,0.0004026102542411536
128.0,0.00047246599569916725
144.0,0.0004934371099807322
160.0,0.00042523114825598896
176.0,-0.00018350841128267348
192.0,-0.0004351303505245596
208.0,-0.0004680660495068878
224.0,5.108164623379707e-05
240.0,0.0005288174143061042
256.0,0.0007112466264516115
288.0,0.00020851753652095795
320.0,-0.00011583586456254125
352.0,0.0005085004959255457
384.0,0.0008051070617511868
416.0,0.0007327260682359338
448.0,0.00024138158187270164
480.0,0.0005386534030549228
512.0,0.000544275448191911
576.0,-0.00013140290684532374
640.0,0.00030166583019308746
704.0,8.540905400877818e-05
768.0,8.592120138928294e-05
832.0,-0.0004191719926893711
896.0,0.00010465858213137835
960.0,-0.00020140607375651598
1024.0,-0.0006605589878745377
1152.0,-0.00013685644080396742
1280.0,-0.00019154962501488626
1408.0,-0.0005852002068422735
1536.0,-0.00021566965733654797
1664.0,-0.00020838332420680672
1792.0,0.00010361578461015597
1920.0,6.848145858384669e-05
2048.0,-0.00017873664910439402
2304.0,-6.889039650559425e-05
2560.0,0.00010431847476866096
2816.0,-0.00025808403734117746
3072.0,0.00020129322365392
3328.0,4.5926281018182635e-05
3584.0,0.00023714291455689818
3840.0,0.00019152920867782086
4096.0,-5.047385275247507e-05
4608.0,-0.0001131861936300993
5120.0,-0.00017071842739824206
5632.0,2.5237512090825476e-05
6144.0,0.00014680584718007594
6656.0,2.332547228434123e-05
7168.0,-0.00015224015805870295
7680.0,-0.00010609048331389204
8192.0,-0.00013029732508584857
9216.0,0.00022735873062629253
10240.0,-0.00036064774030819535
11264.0,0.00019283604342490435
12288.0,0.000385606283089146
13312.0,-0.000269769603619352
14336.0,-0.0006937985308468342
end
