version,3.0
numOfCh,1
type,point
parent_name,40-cuts
ch_type,1_1
kcount,1
numberNandB,1
brightnessNandB,1
carpet pos,0
pc,0
Time (ms),CH1 Auto-Correlation
1.0,0.015262017026543617
2.0,0.012439345940947533
3.0,0.010534599423408508
4.0,0.009096615947782993
5.0,0.007972925901412964
6.0,0.007178820203989744
7.0,0.006451504770666361
8.0,0.005865610204637051
9.0,0.005377583671361208
10.0,0.004930419847369194
11.0,0.004578078631311655
12.0,0.004168708808720112
13.0,0.003787990426644683
14.0,0.003489948343485594
15.0,0.0031967537943273783
16.0,0.0028979298658668995
18.0,0.0025137716438621283
20.0,0.0021001333370804787
22.0,0.0017316857120022178
24.0,0.0014647693606093526
26.0,0.001428036019206047
28.0,0.001320681651122868
30.0,0.0011695424327626824
32.0,0.0009692095336504281
36.0,0.0009327602456323802
40.0,0.0009129620739258826
44.0,0.0007734625251032412
48.0,0.0008401121594943106
52.0,0.0008570152567699552
56.0,0.0007296315161511302
60.0,0.000638697063550353
64.0,0.00045290536945685744
72.0,0.0001986082934308797
80.0,0.00035279206349514425
88.0,0.00029002060182392597
96.0,0.0003081795875914395
104.0,8.110288763418794e-05
112.0,-6.156613380881026e-05
120.0,-0.0001921738003147766
128.0,7.488815754186362e-05
144.0,3.3939988497877494e-05
160.0,0.0002398783399257809
176.0,0.00022345094475895166
192.0,0.00013173096522223204
208.0,2.0801500795641914e-05
224.0,0.00011668106162687764
240.0,-0.00020872917957603931
256.0,0.000130450411234051
288.0,-1.7482860130257905e-05
320.0,-6.958886660868302e-05
352.0,0.00014331575948745012
384.0,0.00026412465376779437
416.0,0.0003871311491820961
448.0,0.00038348205271176994
480.0,0.0002473882050253451
512.0,-0.0001986904680961743
576.0,-0.0002765399985946715
640.0,7.069340790621936e-05
704.0,-8.378815255127847e-05
768.0,-2.006151044042781e-05
832.0,-0.0001681697613094002
896.0,-4.557194552035071e-05
960.0,-0.00017637517885304987
1024.0,-0.0001185713117592968
1152.0,-0.00023489347950089723
1280.0,7.157139771152288e-05
1408.0,0.0002485838776919991
1536.0,9.188519470626488e-06
1664.0,-5.859087468707003e-05
1792.0,0.00010804039629874751
1920.0,-0.00020834476163145155
2048.0,-9.87596285995096e-05
2304.0,-0.00010999379446730018
2560.0,-0.0001561202952871099
2816.0,0.00017691926041152328
3072.0,0.00014589789498131722
3328.0,-0.0002681493351701647
3584.0,7.250714406836778e-05
3840.0,-0.00019562177476473153
4096.0,-0.00031695165671408176
4608.0,2.6413212253828533e-05
5120.0,8.101920684566721e-05
5632.0,8.858873479766771e-05
6144.0,1.4874278349452652e-05
6656.0,-0.0001390518300468102
7168.0,0.00016112350567709655
7680.0,0.0002630786912050098
8192.0,-4.8433637857669964e-05
9216.0,-0.00011296697630314156
10240.0,-0.00030627447995357215
11264.0,0.00013894498988520354
12288.0,-2.3191400032374077e-05
13312.0,-9.951402171282098e-05
14336.0,0.0001198391109937802
end
