version,3.0
numOfCh,1
type,point
parent_name,40-cuts
ch_type,1_1
kcount,1
numberNandB,1
brightnessNandB,1
carpet pos,0
pc,0
Time (ms),CH1 Auto-Correlation
1.0,0.015117471106350422
2.0,0.012232092209160328
3.0,0.010187368839979172
4.0,0.00864050816744566
5.0,0.007595760747790337
6.0,0.006658714730292559
7.0,0.00598978903144598
8.0,0.0053506409749388695
9.0,0.004846838302910328
10.0,0.004368474241346121
11.0,0.003988984506577253
12.0,0.0036276604514569044
13.0,0.003295782022178173
14.0,0.0029563242569565773
15.0,0.0027985607739537954
16.0,0.0025773169472813606
18.0,0.002259570173919201
20.0,0.002093925606459379
22.0,0.0020041363313794136
24.0,0.0017425519181415439
26.0,0.001382319489493966
28.0,0.0012078998843207955
30.0,0.0010711567010730505
32.0,0.0010976815829053521
36.0,0.000942428654525429
40.0,0.000774729996919632
44.0,0.0006114625139161944
48.0,0.0005895567592233419
52.0,0.0005748668918386102
56.0,0.0006211285945028067
60.0,0.0004598476807586849
64.0,0.0006846449105069041
72.0,0.00097867741715163
80.0,0.000940754369366914
88.0,0.00045154153485782444
96.0,0.00011890142923220992
104.0,3.801334241870791e-05
112.0,-0.00017741099873092026
120.0,-0.000349287292920053
128.0,-0.0002647516375873238
144.0,-6.290309829637408e-05
160.0,3.3222018828382716e-05
176.0,0.00019916976452805102
192.0,0.00015304499538615346
208.0,0.0001602617121534422
224.0,0.000250113575020805
240.0,0.0005526143359020352
256.0,0.00045535937533713877
288.0,0.00044964035623706877
320.0,0.0003727144794538617
352.0,2.6482852263143286e-05
384.0,-0.00028804317116737366
416.0,-0.0003953854029532522
448.0,0.00028767113690264523
480.0,0.0004059101629536599
512.0,0.0002443912671878934
576.0,-0.00010895545710809529
640.0,-0.0001722833840176463
704.0,0.00015237118350341916
768.0,-0.000313608004944399
832.0,-4.2565046896925196e-05
896.0,5.6450760894222185e-05
960.0,-1.4948872376407962e-05
1024.0,-0.0003042391617782414
1152.0,0.00012148232781328261
1280.0,-0.00013845415378455073
1408.0,0.0002326234825886786
1536.0,-0.00013388725346885622
1664.0,0.0002690205001272261
1792.0,-0.0001476685720263049
1920.0,-0.00013948635023552924
2048.0,0.00039908773032948375
2304.0,0.0001329755614278838
2560.0,6.15251628914848e-05
2816.0,0.00028613480390049517
3072.0,0.00010744194878498092
3328.0,-3.386593743925914e-05
3584.0,-6.381914863595739e-05
3840.0,-0.0001754424738464877
4096.0,4.4752534449798986e-05
4608.0,0.00019726001482922584
5120.0,1.2530660569609609e-05
5632.0,2.967297587019857e-05
6144.0,-7.0933965616859496e-06
6656.0,-1.6827716535772197e-05
7168.0,7.625732541782781e-05
7680.0,-0.00011707851808751002
8192.0,-0.00012855361273977906
9216.0,-0.00026108467136509717
10240.0,-9.186218085233122e-05
11264.0,-0.00014411358279176056
12288.0,-0.00036141410237178206
13312.0,-0.00021334114717319608
14336.0,-0.0004295830149203539
end
