version,3.0
numOfCh,1
type,point
parent_name,40-cuts
ch_type,1_1
kcount,1
numberNandB,1
brightnessNandB,1
carpet pos,0
pc,0
Time (ms),CH1 Auto-Correlation
1.0,0.026551008224487305
2.0,0.02160531096160412
3.0,0.018048424273729324
4.0,0.015574823133647442
5.0,0.013684896752238274
6.0,0.012127244845032692
7.0,0.011056262999773026
8.0,0.010238121263682842
9.0,0.009501191787421703
10.0,0.008861136622726917
11.0,0.008477889932692051
12.0,0.007942593656480312
13.0,0.00742943212389946
14.0,0.006964987143874168
15.0,0.006517806556075811
16.0,0.0062832157127559185
18.0,0.005797708872705698
20.0,0.005256563890725374
22.0,0.00494019640609622
24.0,0.004529626574367285
26.0,0.00411987816914916
28.0,0.003712248522788286
30.0,0.0034181789960712194
32.0,0.003242236329242587
36.0,0.0025583612732589245
40.0,0.0019354489631950855
44.0,0.001942375092767179
48.0,0.0015147222438827157
52.0,0.0012128010857850313
56.0,0.0011856799246743321
60.0,0.0008196319686248899
64.0,0.0006500221788883209
72.0,0.0005706805968657136
80.0,0.0005384297110140324
88.0,0.00026457212516106665
96.0,0.00020534780924208462
104.0,0.00025522339274175465
112.0,0.0005583409802056849
120.0,0.0007648399332538247
128.0,0.00034199346555396914
144.0,0.0005436365609057248
160.0,0.0003837007679976523
176.0,-0.00028103365912102163
192.0,-0.0006349433097057045
208.0,-0.0001775239798007533
224.0,0.00022983772214502096
240.0,-6.935821147635579e-05
256.0,3.272961112088524e-05
288.0,-3.7561683711828664e-05
320.0,-0.0006933402619324625
352.0,-0.00042919866973534226
384.0,0.0002788449637591839
416.0,-7.213967182906345e-05
448.0,0.000868940376676619
480.0,0.0016041473718360066
512.0,0.0009155712905339897
576.0,-0.0003685966366901994
640.0,0.0001671750214882195
704.0,-0.0005852727917954326
768.0,0.0004294560931157321
832.0,-0.00023252486425917596
896.0,-0.00021264786482788622
960.0,0.00023019082436803728
1024.0,0.00026334889116697013
1152.0,-0.0005206461064517498
1280.0,-0.0005595298716798425
1408.0,-0.00035663560265675187
1536.0,0.00016938203771132976
1664.0,-0.00016258889809250832
1792.0,-0.00042316800681874156
1920.0,-0.0001793739211279899
2048.0,-0.0003481382445897907
2304.0,-0.0002465921570546925
2560.0,6.412862603610847e-06
2816.0,-5.678775778505951e-05
3072.0,-0.0003699630033224821
3328.0,0.0005499587277881801
3584.0,2.757676520559471e-05
3840.0,-7.887295942055061e-05
4096.0,-6.852346996311098e-05
4608.0,-8.296201849589124e-05
5120.0,-0.00017215279513038695
5632.0,9.432747901882976e-06
6144.0,0.00012809387408196926
6656.0,0.0003035444824490696
7168.0,7.126960554160178e-05
7680.0,-0.0002432406909065321
8192.0,-0.00019469890685286373
9216.0,-0.00017135190137196332
10240.0,0.000282508583040908
11264.0,0.00023203843738883734
12288.0,0.0002256734878756106
13312.0,-1.372120914311381e-05
14336.0,-0.0007703947485424578
end
