version,3.0
numOfCh,1
type,point
parent_name,40-cuts
ch_type,1_1
kcount,1
numberNandB,1
brightnessNandB,1
carpet pos,0
pc,0
Time (ms),CH1 Auto-Correlation
1.0,0.015573841519653797
2.0,0.012587308883666992
3.0,0.01044411025941372
4.0,0.008848343975841999
5.0,0.007547727320343256
6.0,0.0065626464784145355
7.0,0.00585547462105751
8.0,0.005194457247853279
9.0,0.004686162807047367
10.0,0.004191944375634193
11.0,0.003819078905507922
12.0,0.0035065796691924334
13.0,0.003273051930591464
14.0,0.003113404382020235
15.0,0.0029024407267570496
16.0,0.0026358559262007475
18.0,0.0024141385219991207
20.0,0.00226772204041481
22.0,0.001960417255759239
24.0,0.0017750982660800219
26.0,0.0016557316994294524
28.0,0.0015839511761441827
30.0,0.0015465804608538747
32.0,0.0014796475879848003
36.0,0.000964877603109926
40.0,0.0007235845550894737
44.0,0.0005957227549515665
48.0,0.0004835842119064182
52.0,0.0002344986132811755
56.0,6.123335333541036e-05
60.0,0.00032644125167280436
64.0,0.0002594992984086275
72.0,0.0003075669810641557
80.0,0.0002194194821640849
88.0,0.0001595441863173619
96.0,0.00020147809118498117
104.0,0.00018478087440598756
112.0,-0.0002136300754500553
120.0,-0.0004009015974588692
128.0,-0.0005748869734816253
144.0,-0.00044920670916326344
160.0,-3.195376484654844e-05
176.0,0.00016237530508078635
192.0,8.945615991251543e-05
208.0,-4.809233723790385e-05
224.0,-0.0006147441454231739
240.0,-0.0005873595946468413
256.0,0.00010307168849976733
288.0,-0.00018423268920741975
320.0,-2.170277548430022e-05
352.0,-0.0001659776462474838
384.0,-0.00026872585294768214
416.0,1.805352803785354e-05
448.0,0.00043282308615744114
480.0,-1.9282018911326304e-05
512.0,5.591625722445315e-06
576.0,-0.00042236215085722506
640.0,4.192077904008329e-05
704.0,-0.00011800754145951942
768.0,-6.015590042807162e-05
832.0,0.0001329179503954947
896.0,-0.0002792461309581995
960.0,-3.9414993807440624e-05
1024.0,9.891390072880313e-05
1152.0,-4.295059261494316e-05
1280.0,-0.0003559098986443132
1408.0,3.210064096492715e-05
1536.0,0.0001821098121581599
1664.0,0.0001806966756703332
1792.0,-0.0003976802690885961
1920.0,-0.00015664033708162606
2048.0,0.00018626694509293884
2304.0,-0.00017990998458117247
2560.0,0.00030584988417103887
2816.0,-0.0004032789438497275
3072.0,9.939289884641767e-05
3328.0,8.082848944468424e-05
3584.0,0.00013802427565678954
3840.0,1.3668043720826972e-05
4096.0,0.0004997301148250699
4608.0,-0.00024182378547266126
5120.0,9.43972117966041e-05
5632.0,-6.111282800702611e-06
6144.0,-8.25951065053232e-05
6656.0,7.812793046468869e-05
7168.0,-1.318513932346832e-05
7680.0,5.400119334808551e-05
8192.0,-0.00020623976888600737
9216.0,0.0001277208502870053
10240.0,-2.3025810151011683e-05
11264.0,-8.517409150954336e-05
12288.0,-1.852277091529686e-05
13312.0,-5.7974684750661254e-05
14336.0,0.00014002546959090978
end
