version,3.0
numOfCh,1
type,point
parent_name,40-cuts
ch_type,1_1
kcount,1
numberNandB,1
brightnessNandB,1
carpet pos,0
pc,0
Time (ms),CH1 Auto-Correlation
1.0,0.02519526146352291
2.0,0.02042899839580059
3.0,0.016866808757185936
4.0,0.01425197720527649
5.0,0.0124044269323349
6.0,0.010895360261201859
7.0,0.009595808573067188
8.0,0.008651837706565857
9.0,0.007914446294307709
10.0,0.007226275280117989
11.0,0.006605395115911961
12.0,0.005892698187381029
13.0,0.005239448044449091
14.0,0.004674756433814764
15.0,0.0042409333400428295
16.0,0.003891448490321636
18.0,0.003591520246118307
20.0,0.0033523456659168005
22.0,0.002901283325627446
24.0,0.0023101407568901777
26.0,0.001997442217543721
28.0,0.0019028967944905162
30.0,0.001833414426073432
32.0,0.0020240077283233404
36.0,0.0020950825419276953
40.0,0.0016666360897943377
44.0,0.001662592520006001
48.0,0.001749149290844798
52.0,0.0019634731579571962
56.0,0.0018089663935825229
60.0,0.0015123910270631313
64.0,0.001337856869213283
72.0,0.0017824399983510375
80.0,0.0016303545562550426
88.0,0.001667840057052672
96.0,0.0011091014603152871
104.0,0.0014921351103112102
112.0,0.0015471193473786116
120.0,0.0011469008168205619
128.0,0.0009415576932951808
144.0,0.00102201197296381
160.0,0.0005570690846070647
176.0,0.00047968330909498036
192.0,0.00021267116244416684
208.0,0.00042824880802072585
224.0,7.209269097074866e-05
240.0,0.00014216687122825533
256.0,0.00010295041283825412
288.0,-0.00035447219852358103
320.0,-0.000251546676736325
352.0,-0.000476799497846514
384.0,4.822955816052854e-05
416.0,-0.0002106082101818174
448.0,0.000272392324404791
480.0,-0.0002957096148747951
512.0,0.000258489279076457
576.0,-0.00015343465202022344
640.0,-0.0004229879705235362
704.0,-0.0004324072797317058
768.0,-9.064430923899636e-05
832.0,-0.0007102695526555181
896.0,-0.0004197378293611109
960.0,-0.00024608318926766515
1024.0,9.329644854005892e-06
1152.0,-3.55213342118077e-05
1280.0,5.0279755669180304e-05
1408.0,0.0008548412588424981
1536.0,3.7012963730376214e-05
1664.0,-0.0002915439836215228
1792.0,-0.0002609414514154196
1920.0,5.828048233524896e-05
2048.0,-0.0003736095386557281
2304.0,0.0002934114309027791
2560.0,0.0004157743533141911
2816.0,2.1066662156954408e-05
3072.0,-0.00016002565098460764
3328.0,-0.00045232276897877455
3584.0,4.323951725382358e-05
3840.0,1.2269217222637963e-05
4096.0,0.00017066532745957375
4608.0,-0.00042168336221948266
5120.0,-0.0002674357674550265
5632.0,-0.0002670502581167966
6144.0,0.000482505391119048
6656.0,3.952316183131188e-05
7168.0,-1.0477700016053859e-05
7680.0,0.0003797775134444237
8192.0,-0.00030221871566027403
9216.0,0.00013684877194464207
10240.0,9.00476734386757e-05
11264.0,-0.00039989998913370073
12288.0,-0.0002532891812734306
13312.0,2.472462620062288e-05
14336.0,-0.0004093441239092499
end
