version,3.0
numOfCh,1
type,point
parent_name,40-cuts
ch_type,1_1
kcount,1
numberNandB,1
brightnessNandB,1
carpet pos,0
pc,0
Time (ms),CH1 Auto-Correlation
1.0,0.025197258219122887
2.0,0.02043486200273037
3.0,0.017043188214302063
4.0,0.014511128887534142
5.0,0.012744579464197159
6.0,0.01125592365860939
7.0,0.00994911789894104
8.0,0.008828583173453808
9.0,0.007750513963401318
10.0,0.007207581773400307
11.0,0.006641714368015528
12.0,0.006283855531364679
13.0,0.006045403424650431
14.0,0.005614836700260639
15.0,0.005211879964917898
16.0,0.0050772493705153465
18.0,0.004856385290622711
20.0,0.00441889138892293
22.0,0.00413121422752738
24.0,0.0035888860002160072
26.0,0.0032633256632834673
28.0,0.0030249461997300386
30.0,0.002907158574089408
32.0,0.0023245930206030607
36.0,0.002114838222041726
40.0,0.001981985755264759
44.0,0.001300094067119062
48.0,0.0009553633281029761
52.0,0.0009711651364341378
56.0,0.0010618541855365038
60.0,0.0010197591036558151
64.0,0.000910070026293397
72.0,0.0009848045883700252
80.0,0.00033058985718525946
88.0,0.00013979979848954827
96.0,-2.3449258151231334e-05
104.0,-0.00027737379423342645
112.0,-0.0006982951890677214
120.0,-0.0009151744307018816
128.0,-9.713353938423097e-05
144.0,-5.9426205552881584e-05
160.0,-4.081459337612614e-05
176.0,-0.0004108784778509289
192.0,-8.98439611773938e-05
208.0,-0.00018014262604992837
224.0,-0.000233901955652982
240.0,-0.0007142024696804583
256.0,-0.0006537118460983038
288.0,4.0942642954178154e-05
320.0,-0.0009580034529790282
352.0,-0.0011610109359025955
384.0,-0.0005852426402270794
416.0,-0.0008730432600714266
448.0,4.607716255122796e-05
480.0,0.0002540276327636093
512.0,0.00019119129865430295
576.0,0.000596645928453654
640.0,0.0010898109758272767
704.0,0.0006479803705587983
768.0,0.00011647785140667111
832.0,-0.0007726066396571696
896.0,-5.898379458812997e-05
960.0,-0.00022011902183294296
1024.0,-0.0004619360261131078
1152.0,-0.0003039912844542414
1280.0,-0.0003073734405916184
1408.0,-9.990166290663183e-05
1536.0,7.758752326481044e-05
1664.0,0.00028777774423360825
1792.0,-0.0002046466979663819
1920.0,-0.0005083387368358672
2048.0,0.000133748326334171
2304.0,1.3423975360637996e-05
2560.0,0.0006459462456405163
2816.0,-0.00010439229663461447
3072.0,-0.00011971622006967664
3328.0,0.00033469550544396043
3584.0,-0.0007007538806647062
3840.0,0.0003924481279682368
4096.0,8.750531560508534e-05
4608.0,2.886313814087771e-05
5120.0,-0.00013793953985441476
5632.0,-0.00010363183537265286
6144.0,5.156527549843304e-05
6656.0,4.795244603883475e-05
7168.0,4.114035618840717e-05
7680.0,-0.00028692311025224626
8192.0,-0.00030556306592188776
9216.0,0.00032231173827312887
10240.0,-0.0003548080276232213
11264.0,-5.1972110668430105e-05
12288.0,7.451522833434865e-05
13312.0,1.324951426795451e-05
14336.0,-0.00016159210645128042
end
