version,3.0
numOfCh,1
type,point
parent_name,40-cuts
ch_type,1_1
kcount,1
numberNandB,1
brightnessNandB,1
carpet pos,0
pc,0
Time (ms),CH1 Auto-Correlation
1.0,0.01611938327550888
2.0,0.013276314362883568
3.0,0.011193692684173584
4.0,0.009542543441057205
5.0,0.008370654657483101
6.0,0.007376605179160833
7.0,0.0065850368700921535
8.0,0.0059275152161717415
9.0,0.005390805192291737
10.0,0.004889274947345257
11.0,0.004508152138441801
12.0,0.00430098595097661
13.0,0.004053465090692043
14.0,0.003808224108070135
15.0,0.003553068032488227
16.0,0.0033084391616284847
18.0,0.0029834560118615627
20.0,0.002626902423799038
22.0,0.00222642975859344
24.0,0.0019148661522194743
26.0,0.0017555801896378398
28.0,0.0017140796408057213
30.0,0.0014781170757487416
32.0,0.0012590463738888502
36.0,0.0010192326735705137
40.0,0.00091556430561468
44.0,0.0010747156338766217
48.0,0.0008839906076900661
52.0,0.0007763572502881289
56.0,0.000251240620855242
60.0,-2.9345763323362917e-05
64.0,0.00016052823048084974
72.0,0.00015702673408668488
80.0,0.00010621027468005195
88.0,7.56890294724144e-05
96.0,0.00028851948445662856
104.0,0.0005200539017096162
112.0,0.0007099459762685001
120.0,0.0008784977253526449
128.0,0.0005383131792768836
144.0,0.0003131133271381259
160.0,-1.1905493920494337e-05
176.0,0.00024459074484184384
192.0,0.000501961971167475
208.0,0.0007351494859904051
224.0,0.0008222045144066215
240.0,0.0005493013304658234
256.0,0.0003596253809519112
288.0,-0.0001551970635773614
320.0,-0.0004973175819031894
352.0,-0.00022451662516687065
384.0,0.0004634005599655211
416.0,0.00021528478828258812
448.0,0.00011355791502865031
480.0,6.12589719821699e-05
512.0,-0.00030066724866628647
576.0,0.0005191053496673703
640.0,5.8899508985632565e-06
704.0,-1.3563409083872102e-05
768.0,0.0001645540032768622
832.0,0.00020125845912843943
896.0,-0.00010693908552639186
960.0,0.00030995908309705555
1024.0,0.00044670235365629196
1152.0,-3.987194941146299e-05
1280.0,0.0003271167806815356
1408.0,8.535369124729186e-05
1536.0,-0.0001477011974202469
1664.0,-0.00011775158054661006
1792.0,-0.00021623331122100353
1920.0,-0.00018713646568357944
2048.0,-0.00046988550457172096
2304.0,6.32434239378199e-06
2560.0,-0.00011627156345639378
2816.0,-0.00023707063519395888
3072.0,-0.00032902247039601207
3328.0,-0.00022311355860438198
3584.0,-0.0003397952241357416
3840.0,0.00038995069917291403
4096.0,0.00032646110048517585
4608.0,-0.0001180412364192307
5120.0,0.00015391074703074992
5632.0,-0.0003940324822906405
6144.0,-9.84490689006634e-05
6656.0,-6.515797576867044e-05
7168.0,-0.0006638728082180023
7680.0,0.00014125715824775398
8192.0,-3.9310642023338005e-05
9216.0,0.0002747389953583479
10240.0,0.00010229075996903703
11264.0,3.618672417360358e-05
12288.0,-4.647671175916912e-06
13312.0,-5.3177602239884436e-05
14336.0,-4.319696017773822e-05
end
