version,3.0
numOfCh,1
type,point
parent_name,40-cuts
ch_type,1_1
kcount,1
numberNandB,1
brightnessNandB,1
carpet pos,0
pc,0
Time (ms),CH1 Auto-Correlation
1.0,0.016751429066061974
2.0,0.013673592358827591
3.0,0.011507315561175346
4.0,0.009865778498351574
5.0,0.008686864748597145
6.0,0.007793455384671688
7.0,0.0070390901528298855
8.0,0.006432957947254181
9.0,0.00576813006773591
10.0,0.005358194466680288
11.0,0.00495805311948061
12.0,0.004656793083995581
13.0,0.00437202351167798
14.0,0.004004656802862883
15.0,0.0036375948693603277
16.0,0.0032785125076770782
18.0,0.002789650345221162
20.0,0.0024551241658627987
22.0,0.002375286305323243
24.0,0.0023281078319996595
26.0,0.0021155565045773983
28.0,0.001986910356208682
30.0,0.0018599031027406454
32.0,0.0017256529536098242
36.0,0.0014810238499194384
40.0,0.0010781489545479417
44.0,0.000702484103385359
48.0,0.00044600790715776384
52.0,0.0003803173021879047
56.0,0.0006515922141261399
60.0,0.0006008484051562846
64.0,0.0005631666863337159
72.0,0.00037421565502882004
80.0,0.00034205414704047143
88.0,0.0005668808007612824
96.0,0.00045781786320731044
104.0,0.00035261077573522925
112.0,0.00018901625298894942
120.0,0.0001820140314521268
128.0,0.00047450605779886246
144.0,0.0003287589061073959
160.0,0.0006825952441431582
176.0,7.025563536444679e-05
192.0,-7.821348117431626e-05
208.0,0.000321505474857986
224.0,0.00034070468973368406
240.0,-0.0001495450414950028
256.0,-0.00018566813378129154
288.0,-0.00011745412484742701
320.0,-0.00026390841230750084
352.0,-0.0002641615574248135
384.0,-4.578670996124856e-06
416.0,1.5755587810417637e-05
448.0,-0.0002536135434638709
480.0,-4.46281410404481e-06
512.0,-0.00048013386549428105
576.0,0.00013613128976430744
640.0,0.00023897364735603333
704.0,-0.00018851780623663217
768.0,6.401272548828274e-05
832.0,0.0001127033174270764
896.0,0.0003369647602085024
960.0,0.00048174834228120744
1024.0,0.00031541925272904336
1152.0,4.061647268827073e-05
1280.0,6.05645391260623e-06
1408.0,-4.836593507206999e-05
1536.0,-0.000308079004753381
1664.0,-0.0001509467838332057
1792.0,0.00020440018852241337
1920.0,-0.00042997984564863145
2048.0,-0.0005281934281811118
2304.0,0.00015367285232059658
2560.0,-0.00034620860242284834
2816.0,-0.00010873319843085483
3072.0,-0.00012026507465634495
3328.0,8.815427281660959e-05
3584.0,-0.0003160239430144429
3840.0,0.00029435078613460064
4096.0,-0.0004737607087008655
4608.0,-0.00011045693827327341
5120.0,1.2736673852487002e-05
5632.0,-0.00016993781900964677
6144.0,0.00033240497577935457
6656.0,0.0002660311001818627
7168.0,0.0002555162354838103
7680.0,-0.00011356979666743428
8192.0,0.00015335169155150652
9216.0,8.136595170071814e-06
10240.0,-0.00021478251437656581
11264.0,1.95086049643578e-05
12288.0,3.024562647624407e-05
13312.0,5.047576269134879e-05
14336.0,5.4524785809917375e-05
end
