version,3.0
numOfCh,1
type,point
parent_name,40-cuts
ch_type,1_1
kcount,1
numberNandB,1
brightnessNandB,1
carpet pos,0
pc,0
Time (ms),CH1 Auto-Correlation
1.0,0.027105025947093964
2.0,0.022154374048113823
3.0,0.018915193155407906
4.0,0.016407139599323273
5.0,0.014459611847996712
6.0,0.013045799918472767
7.0,0.011634414084255695
8.0,0.010515796951949596
9.0,0.009384875185787678
10.0,0.008442258462309837
11.0,0.0076637170277535915
12.0,0.00693914107978344
13.0,0.00623749103397131
14.0,0.005801313556730747
15.0,0.00535963848233223
16.0,0.004968964960426092
18.0,0.004680067766457796
20.0,0.004503106232732534
22.0,0.004216262139379978
24.0,0.003767763264477253
26.0,0.0032375394366681576
28.0,0.003321673721075058
30.0,0.003328005550429225
32.0,0.002906065434217453
36.0,0.00258450023829937
40.0,0.0023277164436876774
44.0,0.0021291784942150116
48.0,0.0018368589226156473
52.0,0.0015599936014041305
56.0,0.0015349865425378084
60.0,0.0010281404247507453
64.0,0.0008921014377847314
72.0,0.0006281154928728938
80.0,0.000418840761994943
88.0,0.00043957619345746934
96.0,0.0001315199042437598
104.0,0.0002732576976995915
112.0,0.0004926054971292615
120.0,0.0007955271285027266
128.0,0.0007795151905156672
144.0,-8.196811540983617e-05
160.0,-7.825766078894958e-05
176.0,3.2939140510279685e-05
192.0,-5.960918861092068e-05
208.0,0.0001411212288076058
224.0,0.0004907924449071288
240.0,0.0006133575807325542
256.0,0.0003005210019182414
288.0,-0.00018088876095134765
320.0,-0.00030062891892157495
352.0,-0.0001127612849813886
384.0,0.00020022180979140103
416.0,-0.00035313365515321493
448.0,-0.0009515414712950587
480.0,-0.000542149122338742
512.0,-0.0009515612036921084
576.0,-0.00019522677757777274
640.0,-0.00027050793869420886
704.0,0.00014437537174671888
768.0,0.000673240574542433
832.0,0.0005070343031547964
896.0,5.024971324019134e-05
960.0,4.2823521653190255e-05
1024.0,-0.0010126756969839334
1152.0,-0.0006295000202953815
1280.0,0.000415705144405365
1408.0,4.710215944214724e-05
1536.0,0.0005158692365512252
1664.0,3.3686541428323835e-05
1792.0,-0.000422684068325907
1920.0,-0.0005450746393762529
2048.0,0.00021411072521004826
2304.0,-0.00010044477676274255
2560.0,6.795274384785444e-05
2816.0,-9.555614087730646e-05
3072.0,-0.0001169151219073683
3328.0,-0.00018526081112213433
3584.0,-0.0003844038292299956
3840.0,0.0005637045833282173
4096.0,2.4317150746355765e-06
4608.0,-7.113660831237212e-05
5120.0,-0.00019954082381445915
5632.0,-0.0005085338489152491
6144.0,-5.6984819821082056e-05
6656.0,0.0003724690177477896
7168.0,-3.5037290217587724e-05
7680.0,-0.00015925485058687627
8192.0,0.00016586485435254872
9216.0,-0.00026019170763902366
10240.0,0.0002450972970109433
11264.0,0.0002879241656046361
12288.0,0.00031417288118973374
13312.0,-0.0007429697434417903
14336.0,-0.0006920151063241065
end
