version,3.0
numOfCh,1
type,point
parent_name,40-cuts
ch_type,1_1
kcount,1
numberNandB,1
brightnessNandB,1
carpet pos,0
pc,0
Time (ms),CH1 Auto-Correlation
1.0,0.017314033582806587
2.0,0.014359809458255768
3.0,0.012256679125130177
4.0,0.010567539371550083
5.0,0.009106140583753586
6.0,0.008037885650992393
7.0,0.0072280364111065865
8.0,0.006692896131426096
9.0,0.006077168043702841
10.0,0.005615981295704842
11.0,0.005163042806088924
12.0,0.004856693558394909
13.0,0.0045961011201143265
14.0,0.004246771335601807
15.0,0.003994442522525787
16.0,0.0038269897922873497
18.0,0.0035298552829772234
20.0,0.0033526381012052298
22.0,0.003100320464000106
24.0,0.0027637577150017023
26.0,0.002318562241271138
28.0,0.0020321086049079895
30.0,0.0020995240192860365
32.0,0.002175998641178012
36.0,0.0020294981077313423
40.0,0.0017616249388083816
44.0,0.0018726346315816045
48.0,0.0016070868587121367
52.0,0.0013579648220911622
56.0,0.0012769968016073108
60.0,0.0010915505699813366
64.0,0.0010889427503570914
72.0,0.0006999197066761553
80.0,0.0006864240858703852
88.0,0.0006219856441020966
96.0,0.00035802400088869035
104.0,0.0005943272262811661
112.0,0.0011974641820415854
120.0,0.000664141436573118
128.0,0.0007947803242132068
144.0,0.0005508815520443022
160.0,0.0003000132564920932
176.0,0.00026281477767042816
192.0,-0.0001378058223053813
208.0,0.00031982376822270453
224.0,0.0003169294213876128
240.0,-0.0002192734827985987
256.0,-0.00022378141875378788
288.0,0.0003068242222070694
320.0,5.636589776258916e-05
352.0,-0.0004952197195962071
384.0,-0.0002927030436694622
416.0,-0.0008428036817349494
448.0,-0.0005530523485504091
480.0,-5.712417623726651e-05
512.0,0.00044832361163571477
576.0,-0.00037169974530115724
640.0,-0.000364958104910329
704.0,-0.0002143067540600896
768.0,-0.00024038190895225853
832.0,-0.000228901844820939
896.0,0.00014858494978398085
960.0,0.00011672389518935233
1024.0,-0.0001683124719420448
1152.0,-0.00036687959800474346
1280.0,0.00018994628044310957
1408.0,0.0004089029971510172
1536.0,0.000610289687756449
1664.0,0.0006172062130644917
1792.0,0.00026580152916722
1920.0,0.00029551400803029537
2048.0,-0.00015575361612718552
2304.0,-0.0005209278897382319
2560.0,-0.00026414901367388666
2816.0,-2.3061054889694788e-05
3072.0,9.208674600813538e-05
3328.0,0.0005469018360599875
3584.0,-0.00021850493794772774
3840.0,-0.00023001212684903294
4096.0,-0.00013398555165622383
4608.0,0.00039685715455561876
5120.0,-0.0001509955181973055
5632.0,-0.00022306418395601213
6144.0,3.434987593209371e-05
6656.0,0.00013131236482877284
7168.0,-0.0005447833682410419
7680.0,-4.7842135245446116e-05
8192.0,-0.00012342666741460562
9216.0,-3.646837285486981e-05
10240.0,1.8794627976603806e-05
11264.0,0.0002199302107328549
12288.0,-2.3581924324389547e-05
13312.0,-0.000440661096945405
14336.0,0.00035331869730725884
end
