version,3.0
numOfCh,1
type,point
parent_name,40-cuts
ch_type,1_1
kcount,1
numberNandB,1
brightnessNandB,1
carpet pos,0
pc,0
Time (ms),CH1 Auto-Correlation
1.0,0.026705825701355934
2.0,0.021906258538365364
3.0,0.01837083138525486
4.0,0.01579594612121582
5.0,0.014012846164405346
6.0,0.012735927477478981
7.0,0.011766915209591389
8.0,0.010810346342623234
9.0,0.01004529558122158
10.0,0.00935553852468729
11.0,0.008745361119508743
12.0,0.00795896165072918
13.0,0.007202999200671911
14.0,0.00666577834635973
15.0,0.00620022090151906
16.0,0.005900867283344269
18.0,0.005313335917890072
20.0,0.004741164389997721
22.0,0.004133943002671003
24.0,0.003844752674922347
26.0,0.0037665737327188253
28.0,0.0036768692079931498
30.0,0.0035811765119433403
32.0,0.003281237557530403
36.0,0.002843425376340747
40.0,0.0026798094622790813
44.0,0.002069214591756463
48.0,0.0015404053265228868
52.0,0.0013162408722564578
56.0,0.0010274291271343827
60.0,0.0008038753876462579
64.0,0.0004894953453913331
72.0,0.00012474454706534743
80.0,0.00035328991361893713
88.0,0.0006124753854237497
96.0,0.00045943414443172514
104.0,-1.22866267702193e-05
112.0,0.00039413143531419337
120.0,0.0008865369600243866
128.0,0.0006609305273741484
144.0,-0.0006294973427429795
160.0,-0.0013013416901230812
176.0,-0.0011608166387304664
192.0,-0.0012962587643414736
208.0,-0.0011129050981253386
224.0,-0.0012651594588533044
240.0,-0.0013592097675427794
256.0,-0.0009847561595961452
288.0,-4.9805148591985926e-05
320.0,0.0007819061866030097
352.0,0.000620612408965826
384.0,7.28397280909121e-05
416.0,0.0004066186957061291
448.0,-9.660986688686535e-05
480.0,-0.0009815620724111795
512.0,-0.0004781316965818405
576.0,-0.0004961019731126726
640.0,4.612958582583815e-05
704.0,0.0004816150467377156
768.0,0.00033203698694705963
832.0,5.390783189795911e-05
896.0,-4.2924631998175755e-05
960.0,-1.7825308532337658e-05
1024.0,-2.3471189706469886e-05
1152.0,0.00021822315466124564
1280.0,-0.0004693959199357778
1408.0,0.00019516091560944915
1536.0,0.0003168520051985979
1664.0,-0.0007140245870687068
1792.0,-0.00019208133744541556
1920.0,-0.00030556332785636187
2048.0,-0.00033361659734509885
2304.0,-0.0001246743049705401
2560.0,-0.00011268744856351987
2816.0,-0.00033890007762238383
3072.0,0.0004137841460760683
3328.0,0.000119810487376526
3584.0,1.984908067242941e-06
3840.0,3.936973007512279e-05
4096.0,5.790477734990418e-05
4608.0,-6.456786650232971e-05
5120.0,0.00013453805877361447
5632.0,1.4918882698111702e-06
6144.0,0.0002550037170294672
6656.0,-6.505334749817848e-05
7168.0,8.808549318928272e-05
7680.0,-0.00043697847286239266
8192.0,-7.079871284076944e-05
9216.0,-7.382193871308118e-05
10240.0,0.00013207191659603268
11264.0,-5.506231536855921e-05
12288.0,-0.0002088357723550871
13312.0,-7.759634172543883e-05
14336.0,8.650968811707571e-05
end
