version,3.0
numOfCh,1
type,point
parent_name,40-cuts
ch_type,1_1
kcount,1
numberNandB,1
brightnessNandB,1
carpet pos,0
pc,0
Time (ms),CH1 Auto-Correlation
1.0,0.016152210533618927
2.0,0.01331560593098402
3.0,0.011272632516920567
4.0,0.009733272716403008
5.0,0.008540717884898186
6.0,0.0075587076134979725
7.0,0.0067491005174815655
8.0,0.006068668328225613
9.0,0.005573098082095385
10.0,0.0050556855276227
11.0,0.004559413995593786
12.0,0.004149193409830332
13.0,0.0037631294690072536
14.0,0.003490017494186759
15.0,0.0031912587583065033
16.0,0.002991903107613325
18.0,0.0026755500584840775
20.0,0.002563987858593464
22.0,0.002446626778692007
24.0,0.0021440342534333467
26.0,0.0020065687131136656
28.0,0.0017925782594829798
30.0,0.0015933469403535128
32.0,0.0012994451681151986
36.0,0.0009704603580757976
40.0,0.0009250647854059935
44.0,0.0009979716269299388
48.0,0.0007604273851029575
52.0,0.0006178920157253742
56.0,0.0005077921668998897
60.0,0.000408023945055902
64.0,0.00019071725546382368
72.0,-7.077611371641979e-05
80.0,-0.00017449414008297026
88.0,-0.00027595541905611753
96.0,-0.0004983600811101496
104.0,-0.0005533013609237969
112.0,-0.0007602297118864954
120.0,-0.0002457844384480268
128.0,0.0006007460760883987
144.0,0.0006743933190591633
160.0,0.0002762900840025395
176.0,0.00048428753507323563
192.0,0.0006088552763685584
208.0,0.0007602280820719898
224.0,0.0002108137559844181
240.0,-0.00031038522138260305
256.0,7.596812065457925e-05
288.0,0.00039430311881005764
320.0,2.1127705622348003e-05
352.0,3.679569999803789e-05
384.0,2.8031798137817532e-05
416.0,-3.770544572034851e-05
448.0,-0.00012695378973148763
480.0,-0.00011454712512204424
512.0,-0.0003144609509035945
576.0,-0.0004936734330840409
640.0,3.0155173590173945e-05
704.0,0.0003044396289624274
768.0,7.325365004362538e-05
832.0,-7.123207615222782e-05
896.0,0.0003598477051127702
960.0,-3.7428075302159414e-05
1024.0,6.522961484733969e-06
1152.0,-9.98911345959641e-05
1280.0,-5.4984568123472854e-05
1408.0,-0.00020448779105208814
1536.0,-6.143237260403112e-05
1664.0,0.0003186053945682943
1792.0,0.00035260349977761507
1920.0,0.0004868904361501336
2048.0,-3.1825551559450105e-05
2304.0,9.179705557471607e-06
2560.0,0.00025849463418126106
2816.0,-9.359569958178326e-06
3072.0,-0.00042554287938401103
3328.0,-0.00021271532750688493
3584.0,-8.576088293921202e-05
3840.0,0.0002289392868988216
4096.0,-6.869162461953238e-05
4608.0,-6.0004756960552186e-05
5120.0,-0.0002128513588104397
5632.0,-0.00015007337788119912
6144.0,-0.00031141351792030036
6656.0,0.00013439102622214705
7168.0,1.969874392671045e-05
7680.0,-8.822693052934483e-05
8192.0,-5.10502650286071e-06
9216.0,-1.905800854729023e-05
10240.0,-8.127166074700654e-05
11264.0,9.327652514912188e-05
12288.0,2.5192292014253326e-05
13312.0,-0.00011875075870193541
14336.0,-6.143289647297934e-05
end
