version,3.0
numOfCh,1
type,point
parent_name,40-cuts
ch_type,1_1
kcount,1
numberNandB,1
brightnessNandB,1
carpet pos,0
pc,0
Time (ms),CH1 Auto-Correlation
1.0,0.015661144629120827
2.0,0.01282284315675497
3.0,0.010832110419869423
4.0,0.009296177886426449
5.0,0.008147632703185081
6.0,0.007178927306085825
7.0,0.006465033628046513
8.0,0.005875022150576115
9.0,0.005314730107784271
10.0,0.004953582305461168
11.0,0.004574866965413094
12.0,0.004236383829265833
13.0,0.0039195469580590725
14.0,0.003622138872742653
15.0,0.003432110184803605
16.0,0.0032409997656941414
18.0,0.0028737657703459263
20.0,0.0025857125874608755
22.0,0.002351120812818408
24.0,0.0021498193964362144
26.0,0.0020687400829046965
28.0,0.001853585708886385
30.0,0.001796102849766612
32.0,0.0017885577399283648
36.0,0.0015528216026723385
40.0,0.0015136214205995202
44.0,0.0013992313761264086
48.0,0.0011374447494745255
52.0,0.0008374724420718849
56.0,0.00039049741462804377
60.0,0.00012683257227763534
64.0,1.1188221833435819e-05
72.0,-7.45431607356295e-05
80.0,0.00023951602634042501
88.0,0.0003218000347260386
96.0,-0.0002497592940926552
104.0,-0.0004956651828251779
112.0,-0.00042823568219318986
120.0,-0.0003782083513215184
128.0,-0.00021568508236669004
144.0,-0.00030959275318309665
160.0,-0.0005301496130414307
176.0,0.00015164504293352365
192.0,0.00012536060239654034
208.0,-0.00013621890684589744
224.0,0.00018980987078975886
240.0,-7.328957144636661e-05
256.0,0.00026818920741789043
288.0,0.0006145987426862121
320.0,0.00027472188230603933
352.0,5.632365355268121e-05
384.0,0.0002150336658814922
416.0,0.00015757657820358872
448.0,-0.0004443822253961116
480.0,-2.209892772953026e-05
512.0,5.4662523325532675e-05
576.0,0.0001490473805461079
640.0,0.00018733888282440603
704.0,1.691690158622805e-05
768.0,-2.7607298761722632e-05
832.0,-6.552020204253495e-05
896.0,3.459495201241225e-05
960.0,-1.6812999092508107e-05
1024.0,0.00019259729015175253
1152.0,0.00018967586220242083
1280.0,-0.00025822536554187536
1408.0,3.9841950638219714e-05
1536.0,4.029967385577038e-05
1664.0,0.00021412267233245075
1792.0,-0.00019991879526060075
1920.0,-0.0003088890516664833
2048.0,0.00010566506534814835
2304.0,-0.00015494592662435025
2560.0,-6.505196506623179e-05
2816.0,-2.4505101464455947e-05
3072.0,-0.0001307882193941623
3328.0,8.122764847939834e-05
3584.0,0.00010783985635498539
3840.0,-3.382607610546984e-05
4096.0,3.300244134152308e-05
4608.0,-0.0003799067344516516
5120.0,-4.7402169002452865e-05
5632.0,-0.00025692087365314364
6144.0,2.5489087420282885e-05
6656.0,8.405893458984792e-05
7168.0,9.73181249719346e-06
7680.0,0.00011582339357119054
8192.0,-0.00020895276975352317
9216.0,0.00017673775437287986
10240.0,0.000294575555017218
11264.0,-3.968340388382785e-05
12288.0,-0.00012179101759102196
13312.0,-0.00025070516858249903
14336.0,3.341651245136745e-05
end
