version,3.0
numOfCh,1
type,point
parent_name,40-cuts
ch_type,1_1
kcount,1
numberNandB,1
brightnessNandB,1
carpet pos,0
pc,0
Time (ms),CH1 Auto-Correlation
1.0,0.02740267850458622
2.0,0.022378254681825638
3.0,0.018866509199142456
4.0,0.016148796305060387
5.0,0.014379407279193401
6.0,0.012819752097129822
7.0,0.011603369377553463
8.0,0.010539823211729527
9.0,0.009548203088343143
10.0,0.008911150507628918
11.0,0.008472973480820656
12.0,0.008151330053806305
13.0,0.007706166710704565
14.0,0.0072872028686106205
15.0,0.0069063217379152775
16.0,0.006534670479595661
18.0,0.005610392428934574
20.0,0.005171747412532568
22.0,0.004856588318943977
24.0,0.0045976173132658005
26.0,0.004270010627806187
28.0,0.0038060867227613926
30.0,0.003448161296546459
32.0,0.0028918676543980837
36.0,0.0025989410933107138
40.0,0.0020967505406588316
44.0,0.0021298492792993784
48.0,0.0016730166971683502
52.0,0.0016895196167752147
56.0,0.0012220073258504272
60.0,0.0014109008479863405
64.0,0.0011917210649698973
72.0,0.0007866628584451973
80.0,0.0009936613496392965
88.0,0.0006617322214879096
96.0,0.00023720404715277255
104.0,0.00036098703276365995
112.0,-0.00038710024091415107
120.0,-0.0008081385749392211
128.0,-0.0008206056081689894
144.0,-0.0005172661622054875
160.0,-0.0006553598213940859
176.0,-0.00015873476513661444
192.0,-0.0004057625774294138
208.0,-0.0007455546874552965
224.0,-0.0006722687394358218
240.0,-0.00019073905423283577
256.0,-0.0006732854526489973
288.0,-0.0006912756361998618
320.0,-0.0008124256855808198
352.0,-0.000565788010135293
384.0,-0.0005881752003915608
416.0,-0.0009397320100106299
448.0,-0.0003935873100999743
480.0,0.00039697313331998885
512.0,2.1234998712316155e-05
576.0,8.132148650474846e-05
640.0,0.0002228306548204273
704.0,-0.00020870196749456227
768.0,-0.0003791914787143469
832.0,-0.000984038459137082
896.0,-0.0012499479344114661
960.0,0.00018597285088617355
1024.0,0.00024992626276798546
1152.0,0.000584805675316602
1280.0,0.0003732529003173113
1408.0,-0.0006901080487295985
1536.0,6.882488378323615e-05
1664.0,-0.00022525548411067575
1792.0,-0.001159195089712739
1920.0,-0.00025123549858108163
2048.0,-6.774743815185502e-05
2304.0,0.0005340136121958494
2560.0,0.0007280004792846739
2816.0,-0.0004735449037980288
3072.0,-0.0005491432966664433
3328.0,-7.121315138647333e-05
3584.0,0.0007304506143555045
3840.0,-3.130580444121733e-05
4096.0,-0.0008691241382621229
4608.0,0.0007184722344391048
5120.0,-0.00019044859800487757
5632.0,-3.433450183365494e-05
6144.0,-3.0852126656100154e-05
6656.0,-0.00030197890009731054
7168.0,0.0005943045835010707
7680.0,-0.0005214893026277423
8192.0,0.0005638402071781456
9216.0,2.782544106594287e-05
10240.0,-0.00030985730700194836
11264.0,-0.0001505029504187405
12288.0,0.00018437531252857298
13312.0,0.0001930734288180247
14336.0,-3.085851494688541e-05
end
