version,3.0
numOfCh,1
type,point
parent_name,40-cuts
ch_type,1_1
kcount,1
numberNandB,1
brightnessNandB,1
carpet pos,0
pc,0
Time (ms),CH1 Auto-Correlation
1.0,0.02821963280439377
2.0,0.02335900440812111
3.0,0.019855773076415062
4.0,0.01719702035188675
5.0,0.015134270302951336
6.0,0.013302446343004704
7.0,0.011791026219725609
8.0,0.01050923578441143
9.0,0.009385853074491024
10.0,0.008697821758687496
11.0,0.008019909262657166
12.0,0.007202666252851486
13.0,0.006532459985464811
14.0,0.00578914163634181
15.0,0.00514430645853281
16.0,0.004693188704550266
18.0,0.004193849395960569
20.0,0.00365577288903296
22.0,0.0031948925461620092
24.0,0.0026546854060143232
26.0,0.0023330729454755783
28.0,0.0018689276184886694
30.0,0.0013883302453905344
32.0,0.0013484657974913716
36.0,0.0012538527371361852
40.0,0.001165373483672738
44.0,0.001300745876505971
48.0,0.0010141261154785752
52.0,0.0007931281579658389
56.0,0.0009088555816560984
60.0,0.0008895592764019966
64.0,0.0010606077266857028
72.0,0.0008357728365808725
80.0,0.0007261679857037961
88.0,0.0010070601711049676
96.0,0.001104175578802824
104.0,0.0017133504152297974
112.0,0.0010338462889194489
120.0,0.0006562777562066913
128.0,0.0005127027397975326
144.0,-8.365466783288866e-05
160.0,0.0006567607633769512
176.0,-2.259646180391428e-06
192.0,-0.00023719939053989947
208.0,-7.146765710785985e-05
224.0,-0.00020933190535288304
240.0,-0.00010205864236922935
256.0,0.00027095229597762227
288.0,0.00118258164729923
320.0,7.833483687136322e-05
352.0,0.0008093594806268811
384.0,0.0009372210479341447
416.0,0.0011000224621966481
448.0,0.000208350014872849
480.0,0.0005806490080431104
512.0,0.0013314805692061782
576.0,0.0006649269489571452
640.0,0.001028143335133791
704.0,0.0003236288030166179
768.0,0.00011583499872358516
832.0,-0.00014615785039495677
896.0,3.5488814319251105e-05
960.0,0.0006151130073703825
1024.0,-0.00012188862456241623
1152.0,-0.00037373093073256314
1280.0,-0.00018961794557981193
1408.0,-0.00030525357578881085
1536.0,-1.2597910426848102e-05
1664.0,-0.0003012012748513371
1792.0,-0.0005806505214422941
1920.0,-0.00021784390264656395
2048.0,0.0003640191862359643
2304.0,-0.00015362018893938512
2560.0,-0.0003891009255312383
2816.0,-8.441611134912819e-05
3072.0,-1.0731469046731945e-05
3328.0,-4.9821286665974185e-05
3584.0,-3.605403617257252e-05
3840.0,0.00013894167204853147
4096.0,-5.5815042287576944e-05
4608.0,5.643750773742795e-05
5120.0,-0.0003633906308095902
5632.0,-0.0004728413769043982
6144.0,-0.00030231295386329293
6656.0,-0.00039680112968198955
7168.0,-0.0005912712076678872
7680.0,-0.0002398803480900824
8192.0,0.00041706269257701933
9216.0,0.00016252335626631975
10240.0,-2.0367246179375798e-05
11264.0,-0.0001628646714380011
12288.0,0.00010001708142226562
13312.0,0.00019404152408242226
14336.0,0.00010838967136805877
end
