version,3.0
numOfCh,1
type,point
parent_name,40-cuts
ch_type,1_1
kcount,1
numberNandB,1
brightnessNandB,1
carpet pos,0
pc,0
Time (ms),CH1 Auto-Correlation
1.0,0.0267107542604208
2.0,0.021678874269127846
3.0,0.018129698932170868
4.0,0.015483027324080467
5.0,0.013654825277626514
6.0,0.012310412712395191
7.0,0.01103236898779869
8.0,0.009931609965860844
9.0,0.009130159392952919
10.0,0.008279678411781788
11.0,0.007582644931972027
12.0,0.006966194603592157
13.0,0.006477160844951868
14.0,0.006045270711183548
15.0,0.0054503148421645164
16.0,0.005098968278616667
18.0,0.004547849763184786
20.0,0.004217869136482477
22.0,0.0038169126491993666
24.0,0.003456628182902932
26.0,0.0031019714660942554
28.0,0.002713109366595745
30.0,0.0025030311662703753
32.0,0.0024436344392597675
36.0,0.0019374560797587037
40.0,0.001711691846139729
44.0,0.0010483888909220695
48.0,0.0008202313329093158
52.0,0.0004966080887243152
56.0,0.0001491751172579825
60.0,0.0004000344197265804
64.0,0.0006643036613240838
72.0,0.0006918071885593235
80.0,0.0004312555829528719
88.0,0.0001830396504374221
96.0,0.0007032340508885682
104.0,0.0008705371874384582
112.0,0.0012213452719151974
120.0,0.0008919454994611442
128.0,0.0006044975016266108
144.0,0.00028295814990997314
160.0,-0.0003130663826595992
176.0,-0.00047571148024871945
192.0,-0.0008151942165568471
208.0,-0.00066104851430282
224.0,-0.0008426799904555082
240.0,-1.3296224096848164e-05
256.0,-0.00021709856810048223
288.0,0.0006183285149745643
320.0,0.00015470353537239134
352.0,0.00014981828280724585
384.0,0.0007196356309577823
416.0,-3.233612369513139e-05
448.0,-0.0006031661760061979
480.0,-0.000992496614344418
512.0,-0.0014257648726925254
576.0,0.00010254039807477966
640.0,-4.236222957842983e-05
704.0,0.0006842227303422987
768.0,0.00031786851468496025
832.0,-0.00022076854656916112
896.0,-3.833930168184452e-05
960.0,-1.3061683603154961e-05
1024.0,0.00028168121934868395
1152.0,-0.0005121926660649478
1280.0,0.0005033861962147057
1408.0,7.120832742657512e-05
1536.0,-0.0001368163648294285
1664.0,0.00017079648387152702
1792.0,-0.0003981830086559057
1920.0,-0.0005078891408629715
2048.0,-0.00032272416865453124
2304.0,-0.00026391769642941654
2560.0,0.00039418129017576575
2816.0,-0.00010211623884970322
3072.0,-0.00016208511078730226
3328.0,0.00025568754062987864
3584.0,-8.913944475352764e-05
3840.0,-0.0003386331081856042
4096.0,0.0003821125428657979
4608.0,9.941196185536683e-05
5120.0,-0.00015052429807838053
5632.0,0.00033365635317750275
6144.0,-0.00047208592877723277
6656.0,0.00013162540562916547
7168.0,-0.0004184870340395719
7680.0,-2.6338706447859295e-05
8192.0,0.00027708066045306623
9216.0,2.5127530534518883e-05
10240.0,-6.275327177718282e-05
11264.0,-0.00042695290176197886
12288.0,7.942859519971535e-05
13312.0,0.00033687212271615863
14336.0,2.884161403926555e-05
end
