version,3.0
numOfCh,1
type,point
parent_name,40-cuts
ch_type,1_1
kcount,1
numberNandB,1
brightnessNandB,1
carpet pos,0
pc,0
Time (ms),CH1 Auto-Correlation
1.0,0.016314014792442322
2.0,0.013450713828206062
3.0,0.011468837037682533
4.0,0.00991934072226286
5.0,0.008683210238814354
6.0,0.0077390531077980995
7.0,0.0069573987275362015
8.0,0.006310479249805212
9.0,0.005799605045467615
10.0,0.005223024170845747
11.0,0.004735770169645548
12.0,0.0043488056398928165
13.0,0.003948913421481848
14.0,0.003613874316215515
15.0,0.0033773293253034353
16.0,0.003232096554711461
18.0,0.0029798196628689766
20.0,0.0027545017655938864
22.0,0.0024680288042873144
24.0,0.002249467419460416
26.0,0.0020724954083561897
28.0,0.00176727632060647
30.0,0.0014227635692805052
32.0,0.0013345227343961596
36.0,0.0009965429781004786
40.0,0.0010918972548097372
44.0,0.001430107862688601
48.0,0.0015411012573167682
52.0,0.0013791327364742756
56.0,0.0012209669221192598
60.0,0.000907622859813273
64.0,0.0004538135835900903
72.0,0.0002325345849385485
80.0,-5.189307557884604e-05
88.0,-1.0460793419042602e-05
96.0,0.00024526246124878526
104.0,4.206287849228829e-05
112.0,-0.0002316463942406699
120.0,-0.00015465130854863673
128.0,2.6501451429794542e-05
144.0,1.1930694199691061e-05
160.0,-0.00037972498103044927
176.0,-0.00017090223263949156
192.0,0.0002997803676407784
208.0,2.3861428417149e-05
224.0,-0.0003366936289239675
240.0,-0.0003216495970264077
256.0,-0.00013184137060306966
288.0,-9.866668733593542e-06
320.0,0.0006254247855395079
352.0,0.00010858922905754298
384.0,0.0004821571346838027
416.0,0.0006188499974086881
448.0,0.0004496692563407123
480.0,-0.0001709391945041716
512.0,-0.0001507533888798207
576.0,4.1863168007694185e-05
640.0,-9.245512956113089e-06
704.0,0.00014854990877211094
768.0,0.0005290363915264606
832.0,-8.568498742533848e-05
896.0,-0.0003820244164671749
960.0,-0.0005196631536819041
1024.0,-0.0003609060950111598
1152.0,1.976531530090142e-05
1280.0,-0.00026344359503127635
1408.0,-0.0005747450632043183
1536.0,-0.0003031629021279514
1664.0,-0.0002755238674581051
1792.0,0.0001992126926779747
1920.0,-0.0001414439029758796
2048.0,3.3605145290493965e-05
2304.0,0.0001681899157119915
2560.0,-0.00011901649122592062
2816.0,1.9811743186437525e-05
3072.0,-0.0001675685925874859
3328.0,-0.00018881013966165483
3584.0,-3.205525717930868e-05
3840.0,-0.00017532533092889935
4096.0,0.00012573017738759518
4608.0,0.00018431601347401738
5120.0,0.00020417645282577723
5632.0,-0.00025803031167015433
6144.0,-0.00011326922685839236
6656.0,-8.988861372927204e-05
7168.0,0.00010736146941781044
7680.0,-6.378706893883646e-05
8192.0,-3.4375036193523556e-05
9216.0,3.4037282603094354e-05
10240.0,-0.00020106291049160063
11264.0,-0.00017053814372047782
12288.0,0.00016619174857623875
13312.0,0.00033146527130156755
14336.0,-1.8654793166206218e-05
end
