version,3.0
numOfCh,1
type,point
parent_name,c1204_0dot069-1dot0
ch_type,1_1
kcount,1
numberNandB,1
brightnessNandB,1
carpet pos,0
pc,0
Time (ms),CH1 Auto-Correlation
1.0,0.08308684080839157
2.0,0.08226725459098816
3.0,0.08148132264614105
4.0,0.08073440939188004
5.0,0.08000421524047852
6.0,0.0793604925274849
7.0,0.07872962951660156
8.0,0.07809299975633621
9.0,0.07750847190618515
10.0,0.07689525932073593
11.0,0.07627937942743301
12.0,0.075677789747715
13.0,0.07510784268379211
14.0,0.0745173767209053
15.0,0.07395648211240768
16.0,0.07341647893190384
18.0,0.07235770672559738
20.0,0.0713118389248848
22.0,0.07026096433401108
24.0,0.06931331008672714
26.0,0.0683571919798851
28.0,0.06746146082878113
30.0,0.06661572307348251
32.0,0.0658380314707756
36.0,0.06428146362304688
40.0,0.06286146491765976
44.0,0.061602797359228134
48.0,0.060273949056863785
52.0,0.05891748517751694
56.0,0.05757969245314598
60.0,0.05628596618771553
64.0,0.0550239272415638
72.0,0.052384160459041595
80.0,0.0497441403567791
88.0,0.04731389507651329
96.0,0.04480036348104477
104.0,0.042625680565834045
112.0,0.04061159864068031
120.0,0.03862939029932022
128.0,0.03663549944758415
144.0,0.033370934426784515
160.0,0.030368808656930923
176.0,0.02744343876838684
192.0,0.02450614795088768
208.0,0.022258291020989418
224.0,0.02139005810022354
240.0,0.02112879976630211
256.0,0.02045305073261261
288.0,0.018665529787540436
320.0,0.01744847372174263
352.0,0.01653352938592434
384.0,0.014970422722399235
416.0,0.012980816885828972
448.0,0.01000372413545847
480.0,0.008954188786447048
512.0,0.009288442321121693
576.0,0.004448528867214918
640.0,-0.0015407511964440346
704.0,-0.004629348870366812
768.0,-0.0062563358806073666
832.0,-0.007074965629726648
896.0,-0.006616014987230301
960.0,-0.008910763077437878
1024.0,-0.012334143742918968
1152.0,-0.018816864117980003
1280.0,-0.012954557314515114
1408.0,-0.004246714524924755
1536.0,-0.0006848041666671634
1664.0,-0.0016096732579171658
1792.0,0.003304834710434079
1920.0,-0.0027809562161564827
2048.0,-0.0010534459725022316
2304.0,0.010523558594286442
2560.0,0.010182800702750683
2816.0,0.0014113557990640402
3072.0,-0.0033108240459114313
3328.0,-0.015716318041086197
3584.0,-0.021236231550574303
3840.0,-0.010889574885368347
4096.0,-0.005393854342401028
4608.0,0.003920177463442087
5120.0,-0.0007107860874384642
5632.0,0.012035787105560303
6144.0,-0.002802313305437565
6656.0,-0.015488989651203156
7168.0,-0.0016546844271942973
7680.0,0.005564781837165356
8192.0,-0.007864844985306263
end
