version,3.0
numOfCh,1
type,point
parent_name,c1204_0dot069-1dot0
ch_type,1_1
kcount,1
numberNandB,1
brightnessNandB,1
carpet pos,0
pc,0
Time (ms),CH1 Auto-Correlation
1.0,0.09514715522527695
2.0,0.09430728107690811
3.0,0.09361855685710907
4.0,0.09296154975891113
5.0,0.09231847524642944
6.0,0.09170312434434891
7.0,0.09110336005687714
8.0,0.09046965092420578
9.0,0.08994876593351364
10.0,0.08946255594491959
11.0,0.08898083865642548
12.0,0.08847445249557495
13.0,0.08799650520086288
14.0,0.08746159076690674
15.0,0.08697438985109329
16.0,0.08653105050325394
18.0,0.08562083542346954
20.0,0.08473937213420868
22.0,0.08389869332313538
24.0,0.08312910050153732
26.0,0.0823773443698883
28.0,0.08171164244413376
30.0,0.08101668208837509
32.0,0.0803614929318428
36.0,0.07900269329547882
40.0,0.07770420610904694
44.0,0.07654326409101486
48.0,0.07540472596883774
52.0,0.07432955503463745
56.0,0.07322414964437485
60.0,0.07210187613964081
64.0,0.07111993432044983
72.0,0.06908954679965973
80.0,0.06715188920497894
88.0,0.06525783240795135
96.0,0.06340783089399338
104.0,0.06172550097107887
112.0,0.05993419885635376
120.0,0.058317385613918304
128.0,0.05669340863823891
144.0,0.053451694548130035
160.0,0.05008186027407646
176.0,0.047301456332206726
192.0,0.045034125447273254
208.0,0.042144011706113815
224.0,0.039396293461322784
240.0,0.0368325412273407
256.0,0.03505517914891243
288.0,0.03259875252842903
320.0,0.029557932168245316
352.0,0.027078142389655113
384.0,0.02512643113732338
416.0,0.02246224693953991
448.0,0.018928050994873047
480.0,0.01700323075056076
512.0,0.017015377059578896
576.0,0.017031289637088776
640.0,0.016355294734239578
704.0,0.013708602637052536
768.0,0.012219217605888844
832.0,0.013532075099647045
896.0,0.01721253991127014
960.0,0.020817134529352188
1024.0,0.021909305825829506
1152.0,0.017987756058573723
1280.0,0.01590682938694954
1408.0,0.015386673621833324
1536.0,0.014333649538457394
1664.0,0.013948001898825169
1792.0,0.010504410602152348
1920.0,0.013288791291415691
2048.0,0.024000458419322968
2304.0,0.01023105438798666
2560.0,-0.0045668999664485455
2816.0,-0.005896271672099829
3072.0,0.009335435926914215
3328.0,0.0027229541447013617
3584.0,0.0027507145423442125
3840.0,0.0027334638871252537
4096.0,0.005394466686993837
4608.0,-0.012478116899728775
5120.0,-0.017001129686832428
5632.0,-0.007546841166913509
6144.0,-0.010393287986516953
6656.0,-0.022850148379802704
7168.0,-0.023371433839201927
7680.0,-0.016697067767381668
8192.0,-0.01603854075074196
end
