version,3.0
numOfCh,1
type,point
parent_name,c1204_0dot069-1dot0
ch_type,1_1
kcount,1
numberNandB,1
brightnessNandB,1
carpet pos,0
pc,0
Time (ms),CH1 Auto-Correlation
1.0,0.09534329175949097
2.0,0.09447453916072845
3.0,0.09371676295995712
4.0,0.09298940747976303
5.0,0.0922970101237297
6.0,0.0915960818529129
7.0,0.09099318832159042
8.0,0.09033334255218506
9.0,0.08970747143030167
10.0,0.08906088024377823
11.0,0.08848106861114502
12.0,0.08793953061103821
13.0,0.08738575130701065
14.0,0.08686196058988571
15.0,0.08637679368257523
16.0,0.08588028699159622
18.0,0.08492245525121689
20.0,0.08400821685791016
22.0,0.08313482254743576
24.0,0.08235999941825867
26.0,0.08161187916994095
28.0,0.08085355162620544
30.0,0.08006315678358078
32.0,0.07929245382547379
36.0,0.0779271274805069
40.0,0.07653520256280899
44.0,0.07512759417295456
48.0,0.07358694076538086
52.0,0.07217326015233994
56.0,0.07074973732233047
60.0,0.06930509209632874
64.0,0.06802207231521606
72.0,0.06531188637018204
80.0,0.06293067336082458
88.0,0.060741670429706573
96.0,0.05874701589345932
104.0,0.05669540911912918
112.0,0.05489519611001015
120.0,0.05337851867079735
128.0,0.051937032490968704
144.0,0.049371689558029175
160.0,0.04721340164542198
176.0,0.045647069811820984
192.0,0.04404369369149208
208.0,0.04228787124156952
224.0,0.04108179733157158
240.0,0.03994591906666756
256.0,0.038684599101543427
288.0,0.03716130182147026
320.0,0.0357186459004879
352.0,0.03316280618309975
384.0,0.029778435826301575
416.0,0.026957880705595016
448.0,0.02679564617574215
480.0,0.028671126812696457
512.0,0.03096780739724636
576.0,0.030842144042253494
640.0,0.029031548649072647
704.0,0.027568355202674866
768.0,0.024556804448366165
832.0,0.02505667693912983
896.0,0.027400678023695946
960.0,0.027411015704274178
1024.0,0.025971757248044014
1152.0,0.02387794852256775
1280.0,0.021611295640468597
1408.0,0.023548247292637825
1536.0,0.023753395304083824
1664.0,0.012250714004039764
1792.0,0.012632385827600956
1920.0,0.017660651355981827
2048.0,0.016610393300652504
2304.0,0.01611325889825821
2560.0,0.020785300061106682
2816.0,0.006598862819373608
3072.0,0.009095688350498676
3328.0,-0.0010959749342873693
3584.0,-0.0019877252634614706
3840.0,-0.0022333646193146706
4096.0,-0.005258433986455202
4608.0,-0.007544453255832195
5120.0,-0.007112650200724602
5632.0,-0.01896272972226143
6144.0,-0.033003780990839005
6656.0,-0.0389661006629467
7168.0,-0.03505538031458855
7680.0,-0.02665187232196331
8192.0,-0.029861582443118095
end
