version,3.0
numOfCh,1
type,point
parent_name,c1204_0dot069-1dot0
ch_type,1_1
kcount,1
numberNandB,1
brightnessNandB,1
carpet pos,0
pc,0
Time (ms),CH1 Auto-Correlation
1.0,0.06666722148656845
2.0,0.0659671276807785
3.0,0.06531450897455215
4.0,0.06471972912549973
5.0,0.06413942575454712
6.0,0.06363119184970856
7.0,0.06313928961753845
8.0,0.06266714632511139
9.0,0.06221727281808853
10.0,0.06176505610346794
11.0,0.06133381649851799
12.0,0.06095653399825096
13.0,0.060569752007722855
14.0,0.06012611836194992
15.0,0.05972473695874214
16.0,0.059330061078071594
18.0,0.05853657051920891
20.0,0.05774488300085068
22.0,0.05701203644275665
24.0,0.056288231164216995
26.0,0.055591609328985214
28.0,0.0549030527472496
30.0,0.05426051467657089
32.0,0.05361836031079292
36.0,0.05227107182145119
40.0,0.05094236508011818
44.0,0.04969479516148567
48.0,0.04851672425866127
52.0,0.04735163226723671
56.0,0.04615199938416481
60.0,0.04493475705385208
64.0,0.043794043362140656
72.0,0.04171179234981537
80.0,0.039809271693229675
88.0,0.03811291977763176
96.0,0.036439403891563416
104.0,0.034975890070199966
112.0,0.033578068017959595
120.0,0.032120075076818466
128.0,0.03082788549363613
144.0,0.028320951387286186
160.0,0.025733238086104393
176.0,0.023111790418624878
192.0,0.02086995169520378
208.0,0.018384363502264023
224.0,0.015956759452819824
240.0,0.013896075077354908
256.0,0.011840042658150196
288.0,0.00877879187464714
320.0,0.007478805258870125
352.0,0.007088031154125929
384.0,0.0062060970813035965
416.0,0.006016633938997984
448.0,0.005994854494929314
480.0,0.004984667059034109
512.0,0.0019224410643801093
576.0,-0.002395209390670061
640.0,-0.003026409074664116
704.0,-0.0033071504440158606
768.0,-0.003081946400925517
832.0,-0.0023932175245136023
896.0,-0.002008686773478985
960.0,-0.0022171055898070335
1024.0,-0.003692523343488574
1152.0,0.0009803231805562973
1280.0,-0.0002811236190609634
1408.0,-0.005230041220784187
1536.0,-0.005418699234724045
1664.0,-0.002577102743089199
1792.0,-0.002432796638458967
1920.0,-0.0006826511234976351
2048.0,0.004191230051219463
2304.0,0.004814893007278442
2560.0,-0.005795798730105162
2816.0,-0.007740870583802462
3072.0,0.004312294535338879
3328.0,0.0036286097019910812
3584.0,-0.00040641604573465884
3840.0,-0.0022619792725890875
4096.0,0.003450958291068673
4608.0,0.007718816865235567
5120.0,-0.006205443758517504
5632.0,-0.009994842112064362
6144.0,-0.014621333219110966
6656.0,-0.003530113724991679
7168.0,0.0012252783635631204
7680.0,0.001849029678851366
8192.0,-0.007892577908933163
end
