version,3.0
numOfCh,1
type,point
parent_name,c1204_0dot069-1dot0
ch_type,1_1
kcount,1
numberNandB,1
brightnessNandB,1
carpet pos,0
pc,0
Time (ms),CH1 Auto-Correlation
1.0,0.07810787111520767
2.0,0.076924167573452
3.0,0.0758962333202362
4.0,0.07502202689647675
5.0,0.07428517937660217
6.0,0.07368265837430954
7.0,0.07304581999778748
8.0,0.07242628931999207
9.0,0.07185377180576324
10.0,0.07125763595104218
11.0,0.07067451626062393
12.0,0.07014723122119904
13.0,0.06954136490821838
14.0,0.06892107427120209
15.0,0.06827867031097412
16.0,0.06769251078367233
18.0,0.06664811819791794
20.0,0.0656229704618454
22.0,0.06459985673427582
24.0,0.06360176205635071
26.0,0.06258398294448853
28.0,0.061564140021800995
30.0,0.06065259501338005
32.0,0.05979320779442787
36.0,0.05791638419032097
40.0,0.056140005588531494
44.0,0.054347530007362366
48.0,0.052640821784734726
52.0,0.051049064844846725
56.0,0.049456872045993805
60.0,0.04798872023820877
64.0,0.04660288617014885
72.0,0.04404781386256218
80.0,0.04171890392899513
88.0,0.039555832743644714
96.0,0.03772425279021263
104.0,0.035988472402095795
112.0,0.03413240984082222
120.0,0.03235657513141632
128.0,0.030748149380087852
144.0,0.027962960302829742
160.0,0.025629054754972458
176.0,0.023302357643842697
192.0,0.02160073257982731
208.0,0.019823342561721802
224.0,0.018179243430495262
240.0,0.0169519055634737
256.0,0.01600349321961403
288.0,0.01431327499449253
320.0,0.011767670512199402
352.0,0.009226192720234394
384.0,0.006744256243109703
416.0,0.0042356932535767555
448.0,0.002449960680678487
480.0,0.0013402380282059312
512.0,-0.00014141220890451223
576.0,-0.0009774487698450685
640.0,-0.001755836303345859
704.0,-0.00041404494550079107
768.0,0.0008030359167605639
832.0,0.0014065975556150079
896.0,0.0014418811770156026
960.0,0.00043264974374324083
1024.0,0.0018463452579453588
1152.0,0.006810507271438837
1280.0,0.003772069001570344
1408.0,0.0026223056484013796
1536.0,-0.0005537719698622823
1664.0,-0.006487765349447727
1792.0,-0.009690990671515465
1920.0,-0.012505440041422844
2048.0,-0.014356641098856926
2304.0,-0.002001380082219839
2560.0,0.0011667604558169842
2816.0,-0.0027263364754617214
3072.0,-0.006288833450525999
3328.0,-0.006075100041925907
3584.0,-0.0036148508079349995
3840.0,-0.007697818335145712
4096.0,-0.010483912192285061
4608.0,-0.010777720250189304
5120.0,0.0010903491638600826
5632.0,0.0013114651665091515
6144.0,0.012117353267967701
6656.0,0.004784624557942152
7168.0,0.002586016897112131
7680.0,0.002380762714892626
8192.0,-0.0031604222021996975
end
