version,3.0
numOfCh,1
type,point
parent_name,c1204_0dot069-1dot0
ch_type,1_1
kcount,1
numberNandB,1
brightnessNandB,1
carpet pos,0
pc,0
Time (ms),CH1 Auto-Correlation
1.0,0.09855788946151733
2.0,0.09757532924413681
3.0,0.09674804657697678
4.0,0.09596714377403259
5.0,0.09521014243364334
6.0,0.09452164173126221
7.0,0.0938214659690857
8.0,0.09311579912900925
9.0,0.09246508777141571
10.0,0.0918431431055069
11.0,0.09122046083211899
12.0,0.09060925245285034
13.0,0.0899900570511818
14.0,0.08940868079662323
15.0,0.08885625004768372
16.0,0.0883132666349411
18.0,0.08728847652673721
20.0,0.08629186451435089
22.0,0.08530937135219574
24.0,0.0843803808093071
26.0,0.08351310342550278
28.0,0.08269885182380676
30.0,0.0819268599152565
32.0,0.08123508095741272
36.0,0.0798727348446846
40.0,0.07848083972930908
44.0,0.07716856896877289
48.0,0.07600054889917374
52.0,0.0749087929725647
56.0,0.07387004047632217
60.0,0.07270687073469162
64.0,0.07154097408056259
72.0,0.06922586262226105
80.0,0.06720329821109772
88.0,0.06572619825601578
96.0,0.06462850421667099
104.0,0.06318017095327377
112.0,0.061696551740169525
120.0,0.060221116989851
128.0,0.05875713378190994
144.0,0.05614273622632027
160.0,0.05361751839518547
176.0,0.051006730645895004
192.0,0.047961026430130005
208.0,0.044773850589990616
224.0,0.04189768061041832
240.0,0.039908669888973236
256.0,0.03774220123887062
288.0,0.03474237769842148
320.0,0.03240498900413513
352.0,0.029203642159700394
384.0,0.025216199457645416
416.0,0.02191505953669548
448.0,0.019447635859251022
480.0,0.015984859317541122
512.0,0.011727393604815006
576.0,0.007060302421450615
640.0,0.0039572748355567455
704.0,0.002893701894208789
768.0,0.00249761831946671
832.0,0.003473245771601796
896.0,0.004736914299428463
960.0,0.007909474894404411
1024.0,0.01099726278334856
1152.0,0.010374939069151878
1280.0,0.009990214370191097
1408.0,0.007335985545068979
1536.0,-0.0016940386267378926
1664.0,-0.009304431267082691
1792.0,-0.013765556737780571
1920.0,-0.016430020332336426
2048.0,-0.014464326202869415
2304.0,-0.008673541247844696
2560.0,-0.0029774880968034267
2816.0,0.0005538403056561947
3072.0,-0.0003270587185397744
3328.0,-0.0035385568626224995
3584.0,-0.007763145491480827
3840.0,-0.003932641819119453
4096.0,0.009602469392120838
4608.0,0.009209596551954746
5120.0,-0.006324606481939554
5632.0,0.004867445677518845
6144.0,-0.03235321119427681
6656.0,-0.027355389669537544
7168.0,-0.0202046949416399
7680.0,-0.02587040886282921
8192.0,0.001931812148541212
end
