version,3.0
numOfCh,1
type,point
parent_name,c1204_0dot069-1dot0
ch_type,1_1
kcount,1
numberNandB,1
brightnessNandB,1
carpet pos,0
pc,0
Time (ms),CH1 Auto-Correlation
1.0,0.07498684525489807
2.0,0.07391320168972015
3.0,0.07298251241445541
4.0,0.07211972773075104
5.0,0.07127659022808075
6.0,0.07054369151592255
7.0,0.06985809653997421
8.0,0.06909984350204468
9.0,0.06843900680541992
10.0,0.06780236214399338
11.0,0.06716074794530869
12.0,0.06647776812314987
13.0,0.06582574546337128
14.0,0.0651850625872612
15.0,0.06458719819784164
16.0,0.06402450054883957
18.0,0.06287343055009842
20.0,0.061746519058942795
22.0,0.060695260763168335
24.0,0.05970030277967453
26.0,0.05868952348828316
28.0,0.05771663412451744
30.0,0.05673065781593323
32.0,0.05567040666937828
36.0,0.05388887971639633
40.0,0.05209615081548691
44.0,0.05049828067421913
48.0,0.04898899793624878
52.0,0.04750017821788788
56.0,0.046201035380363464
60.0,0.044971104711294174
64.0,0.04379614442586899
72.0,0.04137015715241432
80.0,0.03906136006116867
88.0,0.03696058690547943
96.0,0.03509095311164856
104.0,0.03330688923597336
112.0,0.03169981390237808
120.0,0.03052365966141224
128.0,0.02958899922668934
144.0,0.02762175351381302
160.0,0.02531510964035988
176.0,0.023021483793854713
192.0,0.02073674649000168
208.0,0.017254959791898727
224.0,0.014085503295063972
240.0,0.011063974350690842
256.0,0.008606166578829288
288.0,0.005433161277323961
320.0,0.004371711052954197
352.0,0.003182831685990095
384.0,0.0013807399664074183
416.0,9.776939259609208e-05
448.0,0.00028836281853727996
480.0,0.000950265908613801
512.0,0.0027326345443725586
576.0,0.005224884022027254
640.0,0.00812496431171894
704.0,0.00726133631542325
768.0,0.007289090193808079
832.0,0.006095800083130598
896.0,0.007277955766767263
960.0,0.005901914089918137
1024.0,0.0018713962053880095
1152.0,-0.0020400017965584993
1280.0,0.001539701595902443
1408.0,0.008498244918882847
1536.0,0.007161714136600494
1664.0,-0.0014279893366619945
1792.0,-0.005755001679062843
1920.0,-0.0024769355077296495
2048.0,0.0005827709683217108
2304.0,0.008861330337822437
2560.0,0.013219577260315418
2816.0,0.008171659894287586
3072.0,0.011652415618300438
3328.0,0.00229491014033556
3584.0,-0.0035179320257157087
3840.0,0.011117177084088326
4096.0,0.0037372007500380278
4608.0,-0.0031413838732987642
5120.0,-0.00579470070078969
5632.0,0.005912731401622295
6144.0,-0.00885499082505703
6656.0,-0.008602703921496868
7168.0,-0.00028497824678197503
7680.0,-0.007651738356798887
8192.0,0.0006372662610374391
end
