version,3.0
numOfCh,1
type,point
parent_name,c1204_0dot069-1dot0
ch_type,1_1
kcount,1
numberNandB,1
brightnessNandB,1
carpet pos,0
pc,0
Time (ms),CH1 Auto-Correlation
1.0,0.06977439671754837
2.0,0.06888866424560547
3.0,0.06812188029289246
4.0,0.06740352511405945
5.0,0.06670689582824707
6.0,0.06607109308242798
7.0,0.06546957045793533
8.0,0.06493343412876129
9.0,0.06433188170194626
10.0,0.06372348219156265
11.0,0.06316245347261429
12.0,0.06260330229997635
13.0,0.06206152215600014
14.0,0.06155906617641449
15.0,0.061066266149282455
16.0,0.060571614652872086
18.0,0.059616778045892715
20.0,0.05865458771586418
22.0,0.057761937379837036
24.0,0.05693986266851425
26.0,0.05611551180481911
28.0,0.05527736246585846
30.0,0.054480478167533875
32.0,0.05378633365035057
36.0,0.05247027426958084
40.0,0.05118570849299431
44.0,0.04994120076298714
48.0,0.04859349504113197
52.0,0.04741505905985832
56.0,0.046204086393117905
60.0,0.045054949820041656
64.0,0.04407689720392227
72.0,0.04225945472717285
80.0,0.04040100798010826
88.0,0.03853358328342438
96.0,0.036783307790756226
104.0,0.035324826836586
112.0,0.03392961993813515
120.0,0.03277738019824028
128.0,0.03156701475381851
144.0,0.02935619279742241
160.0,0.026862414553761482
176.0,0.02444450370967388
192.0,0.022686295211315155
208.0,0.02197614498436451
224.0,0.02242962084710598
240.0,0.023124638944864273
256.0,0.023155394941568375
288.0,0.022531703114509583
320.0,0.021937407553195953
352.0,0.01986134611070156
384.0,0.018168868497014046
416.0,0.01555152703076601
448.0,0.013789677061140537
480.0,0.012845868244767189
512.0,0.010707322508096695
576.0,0.007912641391158104
640.0,0.0064200591295957565
704.0,0.005385021213442087
768.0,0.005239719990640879
832.0,0.004877479746937752
896.0,0.0055008758790791035
960.0,0.0075085279531776905
1024.0,0.006143542006611824
1152.0,0.0033446606248617172
1280.0,0.0031011952087283134
1408.0,0.000435302295954898
1536.0,0.0031895712018013
1664.0,0.000945787294767797
1792.0,-0.0009737397194840014
1920.0,0.00218114978633821
2048.0,0.0009503589826636016
2304.0,0.0012767936568707228
2560.0,-0.002068794099614024
2816.0,-0.009958060458302498
3072.0,-0.015088018961250782
3328.0,-0.01169301476329565
3584.0,-0.011152125895023346
3840.0,-0.012005000375211239
4096.0,-0.008210687898099422
4608.0,0.01498677209019661
5120.0,0.008637456223368645
5632.0,0.0024563847109675407
6144.0,0.010852549225091934
6656.0,0.0020213164389133453
7168.0,0.00226282374933362
7680.0,-0.012153043411672115
8192.0,-0.017549609765410423
end
