version,3.0
numOfCh,1
type,point
parent_name,c1204_0dot069-1dot0
ch_type,1_1
kcount,1
numberNandB,1
brightnessNandB,1
carpet pos,0
pc,0
Time (ms),CH1 Auto-Correlation
1.0,0.07160498946905136
2.0,0.07081573456525803
3.0,0.07009880244731903
4.0,0.0694325640797615
5.0,0.06882691383361816
6.0,0.06820468604564667
7.0,0.06757935136556625
8.0,0.06695891171693802
9.0,0.06641008704900742
10.0,0.06586305797100067
11.0,0.065287746489048
12.0,0.06472847610712051
13.0,0.06420388072729111
14.0,0.0636475458741188
15.0,0.06313911080360413
16.0,0.06260856986045837
18.0,0.06160232424736023
20.0,0.060618072748184204
22.0,0.05972863733768463
24.0,0.05895007774233818
26.0,0.058130815625190735
28.0,0.05733082443475723
30.0,0.05660225450992584
32.0,0.05587392672896385
36.0,0.05450541153550148
40.0,0.053162381052970886
44.0,0.05194838345050812
48.0,0.05076048895716667
52.0,0.04959584400057793
56.0,0.048416733741760254
60.0,0.04723667353391647
64.0,0.046133942902088165
72.0,0.043993379920721054
80.0,0.04194686934351921
88.0,0.0400749109685421
96.0,0.03838058561086655
104.0,0.03685999661684036
112.0,0.03542815521359444
120.0,0.033873140811920166
128.0,0.03229258209466934
144.0,0.029886210337281227
160.0,0.027759157121181488
176.0,0.025822307914495468
192.0,0.02452479861676693
208.0,0.023334184661507607
224.0,0.021921273320913315
240.0,0.020890774205327034
256.0,0.01990283653140068
288.0,0.019074058160185814
320.0,0.01910838857293129
352.0,0.018696647137403488
384.0,0.017656398937106133
416.0,0.01606694795191288
448.0,0.01423620618879795
480.0,0.0134715735912323
512.0,0.01273938175290823
576.0,0.009542709216475487
640.0,0.005978121887892485
704.0,0.004314793739467859
768.0,0.005260520149022341
832.0,0.00698344549164176
896.0,0.007013683672994375
960.0,0.0031351635698229074
1024.0,-0.0013868514215573668
1152.0,-0.0030474872328341007
1280.0,-0.0033637993037700653
1408.0,-0.009122084826231003
1536.0,-0.009648222476243973
1664.0,-0.012140018865466118
1792.0,-0.014139402657747269
1920.0,-0.017503099516034126
2048.0,-0.011536023579537868
2304.0,-0.006004286464303732
2560.0,-0.004853416234254837
2816.0,-0.00391706358641386
3072.0,-0.006328347139060497
3328.0,-0.001965512754395604
3584.0,-0.005406119395047426
3840.0,-0.007239463273435831
4096.0,-0.008143322542309761
4608.0,9.652891458244994e-05
5120.0,0.005936784669756889
5632.0,0.002028448274359107
6144.0,0.000527606753166765
6656.0,0.008558480069041252
7168.0,0.009458512999117374
7680.0,0.015723006799817085
8192.0,-0.0014754170551896095
end
