version,3.0
numOfCh,1
type,point
parent_name,c1204_0dot069-1dot0
ch_type,1_1
kcount,1
numberNandB,1
brightnessNandB,1
carpet pos,0
pc,0
Time (ms),CH1 Auto-Correlation
1.0,0.062111254781484604
2.0,0.061463940888643265
3.0,0.060884784907102585
4.0,0.06037425249814987
5.0,0.059875164180994034
6.0,0.05937344208359718
7.0,0.05890452861785889
8.0,0.05842887610197067
9.0,0.0579586960375309
10.0,0.05748886987566948
11.0,0.057057175785303116
12.0,0.05662374943494797
13.0,0.056189585477113724
14.0,0.055787093937397
15.0,0.05537331476807594
16.0,0.054965026676654816
18.0,0.05413875728845596
20.0,0.053335417062044144
22.0,0.052572038024663925
24.0,0.05179903656244278
26.0,0.051016852259635925
28.0,0.050317876040935516
30.0,0.04965123534202576
32.0,0.04895549267530441
36.0,0.04764823615550995
40.0,0.04645688459277153
44.0,0.045285020023584366
48.0,0.04409453645348549
52.0,0.0429464727640152
56.0,0.04183546081185341
60.0,0.040730398148298264
64.0,0.0396035797894001
72.0,0.03730626031756401
80.0,0.0351128987967968
88.0,0.03307041898369789
96.0,0.03105609491467476
104.0,0.029229529201984406
112.0,0.027453724294900894
120.0,0.02574940212070942
128.0,0.023962777107954025
144.0,0.020355623215436935
160.0,0.016999701038002968
176.0,0.01382430735975504
192.0,0.01097937487065792
208.0,0.008178932592272758
224.0,0.005324674770236015
240.0,0.002712878631427884
256.0,0.00030919292476028204
288.0,-0.0027825385332107544
320.0,-0.003742968663573265
352.0,-0.003983675967901945
384.0,-0.0035857493057847023
416.0,-0.002227824879810214
448.0,0.00024060547002591193
480.0,0.0036459926050156355
512.0,0.00622955895960331
576.0,0.005927712190896273
640.0,0.004373043775558472
704.0,0.0012257157359272242
768.0,-0.0015237422194331884
832.0,-0.001721101114526391
896.0,-0.001472161733545363
960.0,0.0009639922645874321
1024.0,0.0032136172521859407
1152.0,0.001751026837155223
1280.0,-0.004510191269218922
1408.0,-0.007237258367240429
1536.0,-0.00406663678586483
1664.0,-0.00432363199070096
1792.0,-0.008445131592452526
1920.0,-0.010821284726262093
2048.0,0.001129749696701765
2304.0,0.0003243382670916617
2560.0,-0.0009384123259223998
2816.0,0.0027947796043008566
3072.0,0.0024802726693451405
3328.0,0.005380361340939999
3584.0,0.005152939818799496
3840.0,0.00482541136443615
4096.0,1.6735177268856205e-05
4608.0,-0.0035095540806651115
5120.0,-0.009850559756159782
5632.0,-0.0050057112239301205
6144.0,0.005262181628495455
6656.0,0.005215697921812534
7168.0,-0.0006038379506208003
7680.0,-0.005468333605676889
8192.0,-0.008202120661735535
end
