version,3.0
numOfCh,1
type,point
parent_name,c1204_0dot069-1dot0
ch_type,1_1
kcount,1
numberNandB,1
brightnessNandB,1
carpet pos,0
pc,0
Time (ms),CH1 Auto-Correlation
1.0,0.09274393320083618
2.0,0.09163803607225418
3.0,0.09072612971067429
4.0,0.0899946540594101
5.0,0.0892726331949234
6.0,0.08854515105485916
7.0,0.08786234259605408
8.0,0.08718027174472809
9.0,0.08654260635375977
10.0,0.0859062448143959
11.0,0.08528511226177216
12.0,0.08467859029769897
13.0,0.08412803709506989
14.0,0.08352130651473999
15.0,0.08294489979743958
16.0,0.0823591873049736
18.0,0.08122211694717407
20.0,0.0801602229475975
22.0,0.07915374636650085
24.0,0.07826302945613861
26.0,0.07740498334169388
28.0,0.07653332501649857
30.0,0.07564684748649597
32.0,0.07472340017557144
36.0,0.07306019216775894
40.0,0.0713684931397438
44.0,0.06979800015687943
48.0,0.06827083975076675
52.0,0.06681717932224274
56.0,0.06550215184688568
60.0,0.06426943093538284
64.0,0.06307937204837799
72.0,0.060833148658275604
80.0,0.05850432068109512
88.0,0.055931977927684784
96.0,0.05365997552871704
104.0,0.05194668099284172
112.0,0.050446558743715286
120.0,0.04884151369333267
128.0,0.047547221183776855
144.0,0.04576786234974861
160.0,0.04434145241975784
176.0,0.043365683406591415
192.0,0.0433511845767498
208.0,0.04275232553482056
224.0,0.04239897057414055
240.0,0.04204263910651207
256.0,0.04121655225753784
288.0,0.03776014223694801
320.0,0.034464381635189056
352.0,0.03160497546195984
384.0,0.03047700598835945
416.0,0.03123280219733715
448.0,0.03012336604297161
480.0,0.028984641656279564
512.0,0.027527347207069397
576.0,0.02518429420888424
640.0,0.02229170687496662
704.0,0.016622889786958694
768.0,0.011207204312086105
832.0,0.005379642825573683
896.0,0.00025851864484138787
960.0,-0.0037646153941750526
1024.0,-0.0036851991899311543
1152.0,-0.004971946123987436
1280.0,-0.009042181074619293
1408.0,-0.01018394436687231
1536.0,-0.012504557147622108
1664.0,-0.01032635010778904
1792.0,-0.007017994299530983
1920.0,-0.003793900366872549
2048.0,-0.002771210391074419
2304.0,-0.0033044363372027874
2560.0,-0.0028017107397317886
2816.0,-0.007074641063809395
3072.0,-0.012162690050899982
3328.0,-0.012804465368390083
3584.0,-0.010502900928258896
3840.0,-0.005706661380827427
4096.0,-0.0072533562779426575
4608.0,-0.003971462603658438
5120.0,-0.013004189357161522
5632.0,-0.020130500197410583
6144.0,-0.011240123771131039
6656.0,0.010361559689044952
7168.0,0.02177104540169239
7680.0,0.0009308644221164286
8192.0,-0.02212807908654213
end
