version,3.0
numOfCh,1
type,point
parent_name,c1204_0dot069-1dot0
ch_type,1_1
kcount,1
numberNandB,1
brightnessNandB,1
carpet pos,0
pc,0
Time (ms),CH1 Auto-Correlation
1.0,0.09742902219295502
2.0,0.0963313952088356
3.0,0.09532532840967178
4.0,0.09449902921915054
5.0,0.09382683783769608
6.0,0.09313149750232697
7.0,0.09250489622354507
8.0,0.09191551059484482
9.0,0.09134644269943237
10.0,0.09079058468341827
11.0,0.0902172327041626
12.0,0.089625783264637
13.0,0.08905558288097382
14.0,0.0884811282157898
15.0,0.08792160451412201
16.0,0.08734709024429321
18.0,0.08618949353694916
20.0,0.08511590957641602
22.0,0.08412983268499374
24.0,0.08315420150756836
26.0,0.08218498528003693
28.0,0.08128205686807632
30.0,0.08048885315656662
32.0,0.07964539527893066
36.0,0.0779692754149437
40.0,0.07632763683795929
44.0,0.07468202710151672
48.0,0.0730270966887474
52.0,0.07137498259544373
56.0,0.0697760283946991
60.0,0.0681643858551979
64.0,0.06666897237300873
72.0,0.06418940424919128
80.0,0.061859406530857086
88.0,0.05959547683596611
96.0,0.05765616148710251
104.0,0.05607326701283455
112.0,0.05478566139936447
120.0,0.053630780428647995
128.0,0.0524740070104599
144.0,0.0501689612865448
160.0,0.04820913448929787
176.0,0.04746212437748909
192.0,0.04631549119949341
208.0,0.04493562504649162
224.0,0.043119918555021286
240.0,0.040881115943193436
256.0,0.038490910083055496
288.0,0.03423726186156273
320.0,0.030757606029510498
352.0,0.02822204865515232
384.0,0.027155805379152298
416.0,0.025349518284201622
448.0,0.023726943880319595
480.0,0.022095246240496635
512.0,0.01970943622291088
576.0,0.012378118000924587
640.0,0.009450990706682205
704.0,0.01004047878086567
768.0,0.009147037751972675
832.0,0.007333420217037201
896.0,0.005997505970299244
960.0,0.002750273561105132
1024.0,0.0007460014312528074
1152.0,0.0020825439132750034
1280.0,-0.0012513748370110989
1408.0,0.000993178109638393
1536.0,-0.004903288558125496
1664.0,-0.00969361700117588
1792.0,-0.007807652000337839
1920.0,-0.007664618548005819
2048.0,-0.010277865454554558
2304.0,-0.003559181233868003
2560.0,0.00045884010614827275
2816.0,-0.00031734147341921926
3072.0,0.0004780164745170623
3328.0,0.00493739964440465
3584.0,0.011649660766124725
3840.0,0.01242749858647585
4096.0,0.011532211676239967
4608.0,0.012490351684391499
5120.0,-0.007043809164315462
5632.0,-0.025640452280640602
6144.0,-0.021703243255615234
6656.0,-0.010947132483124733
7168.0,-0.025239000096917152
7680.0,-0.016713351011276245
8192.0,0.00034172445884905756
end
