version,3.0
numOfCh,1
type,point
parent_name,c1204_0dot069-1dot0
ch_type,1_1
kcount,1
numberNandB,1
brightnessNandB,1
carpet pos,0
pc,0
Time (ms),CH1 Auto-Correlation
1.0,0.06387939304113388
2.0,0.06295166164636612
3.0,0.06214921921491623
4.0,0.06146043911576271
5.0,0.06072695925831795
6.0,0.060084499418735504
7.0,0.05949915200471878
8.0,0.05890684574842453
9.0,0.058342255651950836
10.0,0.05775332450866699
11.0,0.05712323635816574
12.0,0.05658780783414841
13.0,0.0561164990067482
14.0,0.05565338209271431
15.0,0.05517439544200897
16.0,0.054661691188812256
18.0,0.05372672155499458
20.0,0.052816495299339294
22.0,0.05197246000170708
24.0,0.05108717828989029
26.0,0.050178878009319305
28.0,0.04944200441241264
30.0,0.04870901256799698
32.0,0.04809233546257019
36.0,0.04671183601021767
40.0,0.04533592239022255
44.0,0.04403628408908844
48.0,0.04280472546815872
52.0,0.04162865877151489
56.0,0.04053293168544769
60.0,0.03943772614002228
64.0,0.038444023579359055
72.0,0.0366831012070179
80.0,0.03501332551240921
88.0,0.03344353660941124
96.0,0.031979531049728394
104.0,0.030802233144640923
112.0,0.0296544898301363
120.0,0.028278762474656105
128.0,0.026863625273108482
144.0,0.023490799590945244
160.0,0.020711565390229225
176.0,0.01932493783533573
192.0,0.018855232745409012
208.0,0.018432119861245155
224.0,0.017842300236225128
240.0,0.01722933165729046
256.0,0.015937332063913345
288.0,0.014307964593172073
320.0,0.012703632935881615
352.0,0.010807085782289505
384.0,0.00932286400347948
416.0,0.008461430668830872
448.0,0.00792709831148386
480.0,0.00549803813919425
512.0,0.003012589178979397
576.0,-0.0007464427617378533
640.0,-0.0015349629102274776
704.0,-0.0019596561323851347
768.0,-0.0035697005223482847
832.0,-0.003356172237545252
896.0,-0.0022617944050580263
960.0,-0.0013940699864178896
1024.0,-0.001302817021496594
1152.0,-0.0017561212880536914
1280.0,-0.0015776355285197496
1408.0,-0.0019873185083270073
1536.0,-0.006544678937643766
1664.0,-0.005842022597789764
1792.0,-0.004239148460328579
1920.0,-0.007512096781283617
2048.0,-0.004963479470461607
2304.0,-0.0015962986508384347
2560.0,-0.005845656152814627
2816.0,-0.0015627905959263444
3072.0,-0.00664295069873333
3328.0,-0.009311029687523842
3584.0,-0.001718927058391273
3840.0,-0.0012253235327079892
4096.0,-0.0032816084567457438
4608.0,0.001478141057305038
5120.0,0.004443855956196785
5632.0,-0.006591042969375849
6144.0,-0.0032355471048504114
6656.0,0.007711003068834543
7168.0,-0.0016657853266224265
7680.0,-0.007971566170454025
8192.0,-0.009586194530129433
end
