version,3.0
numOfCh,1
type,point
parent_name,c1204_0dot069-1dot0
ch_type,1_1
kcount,1
numberNandB,1
brightnessNandB,1
carpet pos,0
pc,0
Time (ms),CH1 Auto-Correlation
1.0,0.10484132170677185
2.0,0.10392463952302933
3.0,0.10309655219316483
4.0,0.10244794934988022
5.0,0.10184153914451599
6.0,0.10119760036468506
7.0,0.10059156268835068
8.0,0.10000630468130112
9.0,0.09941872209310532
10.0,0.09889140725135803
11.0,0.09836402535438538
12.0,0.09790199995040894
13.0,0.09747770428657532
14.0,0.09703212976455688
15.0,0.09660840034484863
16.0,0.09619006514549255
18.0,0.09535995870828629
20.0,0.09453889727592468
22.0,0.09380873292684555
24.0,0.09306879341602325
26.0,0.09230975061655045
28.0,0.09149324893951416
30.0,0.0907110795378685
32.0,0.09003477543592453
36.0,0.08884205669164658
40.0,0.08782591670751572
44.0,0.0868021622300148
48.0,0.0857495442032814
52.0,0.08472389727830887
56.0,0.08376959711313248
60.0,0.08286520093679428
64.0,0.08205263316631317
72.0,0.0804651528596878
80.0,0.07867627590894699
88.0,0.07699055224657059
96.0,0.07551871240139008
104.0,0.0743187963962555
112.0,0.07303416728973389
120.0,0.0716787576675415
128.0,0.07039673626422882
144.0,0.06798585504293442
160.0,0.065459243953228
176.0,0.06325904279947281
192.0,0.06107618287205696
208.0,0.05892880633473396
224.0,0.05715625733137131
240.0,0.055492103099823
256.0,0.05406681075692177
288.0,0.05178116634488106
320.0,0.04948430880904198
352.0,0.046598318964242935
384.0,0.045616265386343
416.0,0.046212270855903625
448.0,0.04491080716252327
480.0,0.041437819600105286
512.0,0.038056474179029465
576.0,0.03463812917470932
640.0,0.032008253037929535
704.0,0.027770260348916054
768.0,0.021565673872828484
832.0,0.018860887736082077
896.0,0.020006325095891953
960.0,0.020780261605978012
1024.0,0.02348688803613186
1152.0,0.02388766221702099
1280.0,0.02151152305305004
1408.0,0.018801456317305565
1536.0,0.01916469633579254
1664.0,0.016704831272363663
1792.0,0.012125206179916859
1920.0,0.009633827023208141
2048.0,0.0065958574414253235
2304.0,0.00389041006565094
2560.0,0.00246043992228806
2816.0,0.0021966753993183374
3072.0,0.00021117215510457754
3328.0,-0.008060012944042683
3584.0,-0.010722270235419273
3840.0,-0.012057020328938961
4096.0,-0.007347344886511564
4608.0,-0.0015693703899160028
5120.0,-0.002157822949811816
5632.0,-0.00982721894979477
6144.0,-0.012260251678526402
6656.0,-0.015314789488911629
7168.0,-0.019041528925299644
7680.0,-0.03784490376710892
8192.0,-0.06900469213724136
end
