version,3.0
numOfCh,1
type,point
parent_name,c1204_0dot069-1dot0
ch_type,1_1
kcount,1
numberNandB,1
brightnessNandB,1
carpet pos,0
pc,0
Time (ms),CH1 Auto-Correlation
1.0,0.07120834290981293
2.0,0.07024794071912766
3.0,0.06945488601922989
4.0,0.06877976655960083
5.0,0.06816540658473969
6.0,0.06751382350921631
7.0,0.06693735718727112
8.0,0.06632351130247116
9.0,0.06577587127685547
10.0,0.06517171114683151
11.0,0.06453569233417511
12.0,0.06397781521081924
13.0,0.06343331933021545
14.0,0.06292681396007538
15.0,0.062378447502851486
16.0,0.061860937625169754
18.0,0.06076652184128761
20.0,0.05977658927440643
22.0,0.058815330266952515
24.0,0.05790352448821068
26.0,0.05699533224105835
28.0,0.05616690590977669
30.0,0.055293962359428406
32.0,0.05451173707842827
36.0,0.05307822301983833
40.0,0.05153319612145424
44.0,0.05005025863647461
48.0,0.048570774495601654
52.0,0.04711703211069107
56.0,0.04582907259464264
60.0,0.04457459971308708
64.0,0.04340149462223053
72.0,0.041387658566236496
80.0,0.039728228002786636
88.0,0.038216039538383484
96.0,0.036759451031684875
104.0,0.03555520996451378
112.0,0.03427279368042946
120.0,0.03303658962249756
128.0,0.031948816031217575
144.0,0.02975790947675705
160.0,0.0268719345331192
176.0,0.02426355704665184
192.0,0.02254563942551613
208.0,0.02104279212653637
224.0,0.019542083144187927
240.0,0.018149331212043762
256.0,0.01653912104666233
288.0,0.01236801128834486
320.0,0.008715547621250153
352.0,0.006064864341169596
384.0,0.004319026600569487
416.0,0.002512279199436307
448.0,0.000919485290069133
480.0,0.0006083657499402761
512.0,0.0017384517705067992
576.0,0.003936189692467451
640.0,0.0027365554124116898
704.0,0.0027448039036244154
768.0,0.003935313783586025
832.0,0.0042157587595283985
896.0,0.003985508810728788
960.0,0.005768365692347288
1024.0,0.005444115027785301
1152.0,-0.0031464225612580776
1280.0,-0.0028082006610929966
1408.0,-0.0007069093990139663
1536.0,0.0019396735588088632
1664.0,-0.0031782907899469137
1792.0,-0.010070710442960262
1920.0,-0.012761256657540798
2048.0,-0.0077011906541883945
2304.0,0.002649629721418023
2560.0,0.0018531308742240071
2816.0,0.002497524255886674
3072.0,0.0035900005605071783
3328.0,0.0019336279947310686
3584.0,-0.002802462549880147
3840.0,-0.009192093275487423
4096.0,-0.013227473013103008
4608.0,-0.005468724761158228
5120.0,0.0009234520839527249
5632.0,0.0016742396401241422
6144.0,0.006575238425284624
6656.0,-0.004473459906876087
7168.0,-0.009152092970907688
7680.0,-0.021330079063773155
8192.0,-0.0025538490153849125
end
