version,3.0
numOfCh,1
type,point
parent_name,c1204_0dot069-1dot0
ch_type,1_1
kcount,1
numberNandB,1
brightnessNandB,1
carpet pos,0
pc,0
Time (ms),CH1 Auto-Correlation
1.0,0.10598798841238022
2.0,0.10529956221580505
3.0,0.10464830696582794
4.0,0.10405904054641724
5.0,0.10347303003072739
6.0,0.10291573405265808
7.0,0.1024235188961029
8.0,0.10187698155641556
9.0,0.1013307198882103
10.0,0.10081218928098679
11.0,0.10026364028453827
12.0,0.09973606467247009
13.0,0.09918293356895447
14.0,0.09867484122514725
15.0,0.09814976900815964
16.0,0.09767072647809982
18.0,0.09663859754800797
20.0,0.09567346423864365
22.0,0.09473952651023865
24.0,0.0938175618648529
26.0,0.09286373853683472
28.0,0.09195283055305481
30.0,0.09108589589595795
32.0,0.09024026244878769
36.0,0.08860861510038376
40.0,0.08718849718570709
44.0,0.08590161800384521
48.0,0.08473461866378784
52.0,0.08359204977750778
56.0,0.08248640596866608
60.0,0.08136247098445892
64.0,0.08023153245449066
72.0,0.07779788225889206
80.0,0.0755421593785286
88.0,0.07344424724578857
96.0,0.071629598736763
104.0,0.07005947828292847
112.0,0.0687003880739212
120.0,0.06730253994464874
128.0,0.06566910445690155
144.0,0.06151069700717926
160.0,0.057369083166122437
176.0,0.053858231753110886
192.0,0.05042170360684395
208.0,0.04714304581284523
224.0,0.044711384922266006
240.0,0.0424993634223938
256.0,0.040290649980306625
288.0,0.03679479658603668
320.0,0.033526524901390076
352.0,0.03094559535384178
384.0,0.029395440593361855
416.0,0.02692641317844391
448.0,0.023720813915133476
480.0,0.021005690097808838
512.0,0.01907029002904892
576.0,0.015902351588010788
640.0,0.013550966046750546
704.0,0.011307313106954098
768.0,0.00877298042178154
832.0,0.007479033432900906
896.0,0.005429945886135101
960.0,0.004733502399176359
1024.0,0.003013653215020895
1152.0,-0.0018758905353024602
1280.0,-0.0011061405530199409
1408.0,-0.003533380338922143
1536.0,-0.008513878099620342
1664.0,-0.015233511105179787
1792.0,-0.014547652564942837
1920.0,-0.016294021159410477
2048.0,-0.02177681401371956
2304.0,-0.017573857679963112
2560.0,-0.00617515854537487
2816.0,-0.00020852564193774015
3072.0,0.005760376341640949
3328.0,0.00962595921009779
3584.0,0.005646000616252422
3840.0,-3.613407170632854e-05
4096.0,5.613952816929668e-05
4608.0,0.0012562082847580314
5120.0,0.005360973998904228
5632.0,0.02063783071935177
6144.0,0.017049714922904968
6656.0,-0.00448737433180213
7168.0,-0.02073465846478939
7680.0,-0.011696160770952702
8192.0,0.001517984550446272
end
