version,3.0
numOfCh,1
type,point
parent_name,c1204_0dot069-1dot0
ch_type,1_1
kcount,1
numberNandB,1
brightnessNandB,1
carpet pos,0
pc,0
Time (ms),CH1 Auto-Correlation
1.0,0.0783417671918869
2.0,0.07766033709049225
3.0,0.0770816057920456
4.0,0.0764445811510086
5.0,0.07584116607904434
6.0,0.0752919465303421
7.0,0.07473122328519821
8.0,0.07422701269388199
9.0,0.0737084448337555
10.0,0.07316816598176956
11.0,0.0726822093129158
12.0,0.0722070038318634
13.0,0.07169894874095917
14.0,0.07122812420129776
15.0,0.07079088687896729
16.0,0.07035116851329803
18.0,0.06948048621416092
20.0,0.0686388686299324
22.0,0.0677783414721489
24.0,0.06691714376211166
26.0,0.06607325375080109
28.0,0.06529739499092102
30.0,0.06451506912708282
32.0,0.06376097351312637
36.0,0.06220276653766632
40.0,0.060754138976335526
44.0,0.05938806012272835
48.0,0.058023251593112946
52.0,0.0566328726708889
56.0,0.055375710129737854
60.0,0.05431050434708595
64.0,0.05322890356183052
72.0,0.0507800318300724
80.0,0.04836197569966316
88.0,0.046210240572690964
96.0,0.044325899332761765
104.0,0.04262681305408478
112.0,0.041086722165346146
120.0,0.039665158838033676
128.0,0.03846656531095505
144.0,0.03662588819861412
160.0,0.03515005111694336
176.0,0.033860839903354645
192.0,0.032974883913993835
208.0,0.03175787255167961
224.0,0.03014962561428547
240.0,0.02827455662190914
256.0,0.02602066472172737
288.0,0.022002212703227997
320.0,0.018171170726418495
352.0,0.015666386112570763
384.0,0.013039130717515945
416.0,0.010876520536839962
448.0,0.00917358323931694
480.0,0.007952767424285412
512.0,0.006795755121856928
576.0,0.002794178668409586
640.0,-0.0005041733966208994
704.0,-0.0028345766477286816
768.0,-0.00415848521515727
832.0,-0.004129419568926096
896.0,-0.0051352642476558685
960.0,-0.006374674383550882
1024.0,-0.00992931704968214
1152.0,-0.01322352234274149
1280.0,-0.011812277138233185
1408.0,-0.011479012668132782
1536.0,-0.013012434355914593
1664.0,-0.01135316863656044
1792.0,-0.005324206314980984
1920.0,-0.008829272352159023
2048.0,-0.002483486430719495
2304.0,0.006884632166475058
2560.0,0.0024749680887907743
2816.0,-0.003604878904297948
3072.0,-0.00755200395360589
3328.0,-0.008124060928821564
3584.0,-0.00486002815887332
3840.0,-0.0020787534303963184
4096.0,-0.009723753668367863
4608.0,-0.007490966934710741
5120.0,0.01378543023020029
5632.0,0.012542877346277237
6144.0,0.005270289722830057
6656.0,-0.007661339361220598
7168.0,0.0005001261597499251
7680.0,0.0032278175931423903
8192.0,-0.00896537397056818
end
