version,3.0
numOfCh,1
type,point
parent_name,c1204_0dot069-1dot0
ch_type,1_1
kcount,1
numberNandB,1
brightnessNandB,1
carpet pos,0
pc,0
Time (ms),CH1 Auto-Correlation
1.0,0.07028211653232574
2.0,0.06923415511846542
3.0,0.06836193054914474
4.0,0.06758056581020355
5.0,0.06685914099216461
6.0,0.06618119031190872
7.0,0.06553387641906738
8.0,0.06485031545162201
9.0,0.0641699954867363
10.0,0.06357227265834808
11.0,0.06299364566802979
12.0,0.06241356581449509
13.0,0.06182767078280449
14.0,0.06128992512822151
15.0,0.06075621768832207
16.0,0.06019696593284607
18.0,0.05918175354599953
20.0,0.05827365070581436
22.0,0.05735495686531067
24.0,0.05638076737523079
26.0,0.05558233708143234
28.0,0.054808903485536575
30.0,0.053932297974824905
32.0,0.05310875177383423
36.0,0.0516616590321064
40.0,0.05028956010937691
44.0,0.04893118888139725
48.0,0.04763428866863251
52.0,0.04627852886915207
56.0,0.044881679117679596
60.0,0.04364345222711563
64.0,0.04250802844762802
72.0,0.04068870097398758
80.0,0.0388902872800827
88.0,0.03715135157108307
96.0,0.03565634414553642
104.0,0.034341342747211456
112.0,0.03316370025277138
120.0,0.03177886828780174
128.0,0.030353456735610962
144.0,0.02750438265502453
160.0,0.024938829243183136
176.0,0.022793568670749664
192.0,0.020962104201316833
208.0,0.01866731233894825
224.0,0.016478756442666054
240.0,0.014776444993913174
256.0,0.013953984715044498
288.0,0.011655202135443687
320.0,0.010289667174220085
352.0,0.007972721010446548
384.0,0.007415485102683306
416.0,0.0069014583714306355
448.0,0.005777886603027582
480.0,0.003220858285203576
512.0,0.0012642587535083294
576.0,-4.82822224512347e-06
640.0,-0.002823946764692664
704.0,-0.004681839141994715
768.0,-0.007017291150987148
832.0,-0.006365984212607145
896.0,-0.00610231002792716
960.0,-0.005908832885324955
1024.0,-0.005965548101812601
1152.0,-0.00510258786380291
1280.0,-0.0031224945560097694
1408.0,0.0018366619478911161
1536.0,0.007189794909209013
1664.0,0.0052159735932946205
1792.0,0.00041185112786479294
1920.0,-2.4381704861298203e-05
2048.0,-0.004047328606247902
2304.0,-0.0042738039046525955
2560.0,0.0031442386098206043
2816.0,0.007324790582060814
3072.0,0.0082296933978796
3328.0,0.004680398385971785
3584.0,-0.0016444462817162275
3840.0,0.00316844810731709
4096.0,0.004026215057820082
4608.0,-0.007126941811293364
5120.0,-0.005310587119311094
5632.0,0.002418919000774622
6144.0,-0.005884374491870403
6656.0,-0.006418970413506031
7168.0,-0.018045132979750633
7680.0,-0.007621236145496368
8192.0,0.0012271461309865117
end
