version,3.0
numOfCh,1
type,point
parent_name,c1204_0dot069-1dot0
ch_type,1_1
kcount,1
numberNandB,1
brightnessNandB,1
carpet pos,0
pc,0
Time (ms),CH1 Auto-Correlation
1.0,0.0648387148976326
2.0,0.06405383348464966
3.0,0.06335320323705673
4.0,0.0626569539308548
5.0,0.062064964324235916
6.0,0.06148950755596161
7.0,0.060927651822566986
8.0,0.06040632352232933
9.0,0.0598488412797451
10.0,0.05938054993748665
11.0,0.058963268995285034
12.0,0.058488838374614716
13.0,0.05805141106247902
14.0,0.057606786489486694
15.0,0.057140786200761795
16.0,0.056726302951574326
18.0,0.05586317926645279
20.0,0.0550953708589077
22.0,0.05445040762424469
24.0,0.053852908313274384
26.0,0.05326877906918526
28.0,0.05265975743532181
30.0,0.05207495391368866
32.0,0.05156182870268822
36.0,0.05045254901051521
40.0,0.049361683428287506
44.0,0.048264190554618835
48.0,0.0471162423491478
52.0,0.046043772250413895
56.0,0.04493509605526924
60.0,0.04386046901345253
64.0,0.04276115074753761
72.0,0.04061530530452728
80.0,0.0384024940431118
88.0,0.036174651235342026
96.0,0.03413879871368408
104.0,0.032630667090415955
112.0,0.031119685620069504
120.0,0.029589371755719185
128.0,0.028283055871725082
144.0,0.02621944062411785
160.0,0.02421391010284424
176.0,0.022311795502901077
192.0,0.02065166085958481
208.0,0.018995488062500954
224.0,0.01759519800543785
240.0,0.01613987796008587
256.0,0.014944569207727909
288.0,0.013112688437104225
320.0,0.01194713544100523
352.0,0.010927694849669933
384.0,0.010179666802287102
416.0,0.009713723324239254
448.0,0.01072436198592186
480.0,0.01050175353884697
512.0,0.010866262018680573
576.0,0.0139240687713027
640.0,0.017213819548487663
704.0,0.016441892832517624
768.0,0.014176856726408005
832.0,0.009929981082677841
896.0,0.004595975857228041
960.0,0.0014206854393705726
1024.0,0.0019270202610641718
1152.0,0.002305610803887248
1280.0,0.004700016230344772
1408.0,0.007281441241502762
1536.0,0.00735529325902462
1664.0,0.001531487563624978
1792.0,-0.007645725272595882
1920.0,-0.011759676039218903
2048.0,-0.004663405008614063
2304.0,0.005482158623635769
2560.0,0.00033415600773878396
2816.0,0.0033626442309468985
3072.0,0.0014280601171776652
3328.0,-0.0053792051039636135
3584.0,0.004172394517809153
3840.0,0.008380385115742683
4096.0,0.002352796494960785
4608.0,-0.0025756971444934607
5120.0,-0.0023645132314413786
5632.0,-0.012701675295829773
6144.0,-0.010834401473402977
6656.0,-0.011399687267839909
7168.0,-0.021754974499344826
7680.0,-0.008645978756248951
8192.0,-0.011927355080842972
end
