version,3.0
numOfCh,1
type,point
parent_name,c1204_0dot069-1dot0
ch_type,1_1
kcount,1
numberNandB,1
brightnessNandB,1
carpet pos,0
pc,0
Time (ms),CH1 Auto-Correlation
1.0,0.07988977432250977
2.0,0.07901059836149216
3.0,0.07827819138765335
4.0,0.07763219624757767
5.0,0.07701990753412247
6.0,0.07643434405326843
7.0,0.0758979469537735
8.0,0.07541052252054214
9.0,0.07491881400346756
10.0,0.07446114718914032
11.0,0.07391323149204254
12.0,0.07344584912061691
13.0,0.07299207895994186
14.0,0.07251061499118805
15.0,0.07205753773450851
16.0,0.07161988317966461
18.0,0.07076948136091232
20.0,0.06995901465415955
22.0,0.06917964667081833
24.0,0.06844327598810196
26.0,0.06774511933326721
28.0,0.06703483313322067
30.0,0.06630602478981018
32.0,0.06560453027486801
36.0,0.06435532122850418
40.0,0.06312951445579529
44.0,0.06202014163136482
48.0,0.06107000634074211
52.0,0.06008795648813248
56.0,0.05910945311188698
60.0,0.058145083487033844
64.0,0.057212602347135544
72.0,0.055403999984264374
80.0,0.05364059656858444
88.0,0.05213138088583946
96.0,0.050711940973997116
104.0,0.04919130727648735
112.0,0.047661714255809784
120.0,0.046117767691612244
128.0,0.044794075191020966
144.0,0.042392320930957794
160.0,0.039712805300951004
176.0,0.03681488707661629
192.0,0.033928196877241135
208.0,0.031904466450214386
224.0,0.030288448557257652
240.0,0.028444495052099228
256.0,0.026464348658919334
288.0,0.020980147644877434
320.0,0.015856336802244186
352.0,0.01296840887516737
384.0,0.01085888221859932
416.0,0.008646714501082897
448.0,0.006851661950349808
480.0,0.0048475139774382114
512.0,0.00420750817283988
576.0,0.0026129737962037325
640.0,0.00020127292373217642
704.0,-0.0006655743345618248
768.0,0.0009579838369973004
832.0,0.001915493980050087
896.0,0.0035242694430053234
960.0,0.004345338325947523
1024.0,0.003435051068663597
1152.0,-0.0006476363632827997
1280.0,-0.0021689394488930702
1408.0,-0.00208392390049994
1536.0,-0.004433896392583847
1664.0,-0.0058227526023983955
1792.0,-0.0035896471235901117
1920.0,0.005021966062486172
2048.0,0.011228877119719982
2304.0,0.006136933341622353
2560.0,-0.012767995707690716
2816.0,-0.019655847921967506
3072.0,-0.006820282433182001
3328.0,0.0006361890118569136
3584.0,0.004047822672873735
3840.0,0.011635287664830685
4096.0,0.01981455273926258
4608.0,0.013331645168364048
5120.0,-0.007348975166678429
5632.0,0.004215039778500795
6144.0,-0.006859651301056147
6656.0,-0.003214459866285324
7168.0,-0.022002756595611572
7680.0,0.006833565421402454
8192.0,-0.005538493394851685
end
