version,3.0
numOfCh,1
type,point
parent_name,c1204_0dot069-1dot0
ch_type,1_1
kcount,1
numberNandB,1
brightnessNandB,1
carpet pos,0
pc,0
Time (ms),CH1 Auto-Correlation
1.0,0.08161014318466187
2.0,0.08032442629337311
3.0,0.07923272997140884
4.0,0.07821310311555862
5.0,0.07741516083478928
6.0,0.07666540145874023
7.0,0.07592350244522095
8.0,0.07523071765899658
9.0,0.07451894879341125
10.0,0.07379648834466934
11.0,0.073189876973629
12.0,0.07252690196037292
13.0,0.07185066491365433
14.0,0.07127204537391663
15.0,0.07067446410655975
16.0,0.07012003660202026
18.0,0.06905779242515564
20.0,0.06803286075592041
22.0,0.06704755127429962
24.0,0.06603313237428665
26.0,0.06498132646083832
28.0,0.06402985751628876
30.0,0.0629892498254776
32.0,0.06191365048289299
36.0,0.06007082760334015
40.0,0.05827825143933296
44.0,0.05656630918383598
48.0,0.05493905022740364
52.0,0.05329100415110588
56.0,0.05140587314963341
60.0,0.04981260746717453
64.0,0.04832114651799202
72.0,0.04550602659583092
80.0,0.043311696499586105
88.0,0.041601333767175674
96.0,0.040325041860342026
104.0,0.03915838152170181
112.0,0.037983257323503494
120.0,0.03662831336259842
128.0,0.03538418188691139
144.0,0.03235122561454773
160.0,0.028547286987304688
176.0,0.024724001064896584
192.0,0.020978044718503952
208.0,0.01808600313961506
224.0,0.01560362707823515
240.0,0.013050816021859646
256.0,0.010916207917034626
288.0,0.007115855813026428
320.0,0.003220346523448825
352.0,-0.0012756880605593324
384.0,-0.004595180973410606
416.0,-0.005504039581865072
448.0,-0.00722679914906621
480.0,-0.008257920853793621
512.0,-0.008478298783302307
576.0,-0.00864043552428484
640.0,-0.008454039692878723
704.0,-0.009688314981758595
768.0,-0.005857545416802168
832.0,-0.0033238353207707405
896.0,-0.001073632505722344
960.0,-0.0026457172352820635
1024.0,-0.004186882637441158
1152.0,-0.008644746616482735
1280.0,-0.014283264987170696
1408.0,-0.012498481199145317
1536.0,-0.002980099990963936
1664.0,0.003478321712464094
1792.0,0.011614678427577019
1920.0,0.008820150047540665
2048.0,0.002074615564197302
2304.0,-0.006882735528051853
2560.0,0.0008376642363145947
2816.0,0.006065993569791317
3072.0,0.0017381343059241772
3328.0,-0.005787009838968515
3584.0,-0.012251490727066994
3840.0,-0.007829663343727589
4096.0,-0.0128864124417305
4608.0,0.004068214446306229
5120.0,0.0005900620599277318
5632.0,0.0003957339795306325
6144.0,0.007942654192447662
6656.0,0.007219023536890745
7168.0,-0.0021816829685121775
7680.0,-0.006649914663285017
8192.0,0.005308990366756916
end
