version,3.0
numOfCh,1
type,point
parent_name,c1204_0dot069-1dot0
ch_type,1_1
kcount,1
numberNandB,1
brightnessNandB,1
carpet pos,0
pc,0
Time (ms),CH1 Auto-Correlation
1.0,0.08363935351371765
2.0,0.08282043039798737
3.0,0.08211684972047806
4.0,0.08148912340402603
5.0,0.08091901987791061
6.0,0.08037953823804855
7.0,0.07984114438295364
8.0,0.07932499796152115
9.0,0.07881014794111252
10.0,0.07830856740474701
11.0,0.07779794931411743
12.0,0.07726151496171951
13.0,0.07674380391836166
14.0,0.07623704522848129
15.0,0.07571154832839966
16.0,0.07520213723182678
18.0,0.07415136694908142
20.0,0.0731700137257576
22.0,0.07222872972488403
24.0,0.07128849625587463
26.0,0.07037859410047531
28.0,0.0694798082113266
30.0,0.0685807466506958
32.0,0.06774697452783585
36.0,0.06616735458374023
40.0,0.06459582597017288
44.0,0.06318261474370956
48.0,0.06186492741107941
52.0,0.0606507807970047
56.0,0.05953875929117203
60.0,0.05851094797253609
64.0,0.05747031420469284
72.0,0.055494118481874466
80.0,0.0538548044860363
88.0,0.052525173872709274
96.0,0.05125942826271057
104.0,0.0501335971057415
112.0,0.048939354717731476
120.0,0.04768377169966698
128.0,0.046480294317007065
144.0,0.04401148110628128
160.0,0.04205852746963501
176.0,0.04022902622818947
192.0,0.03891647234559059
208.0,0.03860071301460266
224.0,0.03902965039014816
240.0,0.039183907210826874
256.0,0.03865137696266174
288.0,0.03574233129620552
320.0,0.033005762845277786
352.0,0.03146371990442276
384.0,0.030276888981461525
416.0,0.02864530123770237
448.0,0.02626030147075653
480.0,0.022937698289752007
512.0,0.02127273753285408
576.0,0.01681622862815857
640.0,0.01443207822740078
704.0,0.009529054164886475
768.0,0.007755993865430355
832.0,0.005714102648198605
896.0,0.005141206551343203
960.0,0.006279150024056435
1024.0,0.008443978615105152
1152.0,0.004088961519300938
1280.0,0.004899819381535053
1408.0,0.0024836664088070393
1536.0,0.0045618400909006596
1664.0,-0.0010871897684410214
1792.0,-0.004695267416536808
1920.0,-0.007074838504195213
2048.0,-0.0050378902815282345
2304.0,-0.013569649308919907
2560.0,-0.020032644271850586
2816.0,-0.02827487699687481
3072.0,-0.030689431354403496
3328.0,-0.020308448001742363
3584.0,-0.002106287982314825
3840.0,0.004133437294512987
4096.0,0.009564322419464588
4608.0,0.010362228378653526
5120.0,0.009430906735360622
5632.0,0.00969479139894247
6144.0,-0.0007209700415842235
6656.0,-0.02215544879436493
7168.0,-0.024330276995897293
7680.0,-0.024672366678714752
8192.0,-0.024878697469830513
end
