version,3.0
numOfCh,1
type,point
parent_name,c1204_0dot069-1dot0
ch_type,1_1
kcount,1
numberNandB,1
brightnessNandB,1
carpet pos,0
pc,0
Time (ms),CH1 Auto-Correlation
1.0,0.11162761598825455
2.0,0.11050786823034286
3.0,0.10958186537027359
4.0,0.10879624634981155
5.0,0.10817359387874603
6.0,0.10759635269641876
7.0,0.10703402012586594
8.0,0.10644257813692093
9.0,0.10588058829307556
10.0,0.10530336946249008
11.0,0.10477803647518158
12.0,0.10437314212322235
13.0,0.10395222157239914
14.0,0.10348058491945267
15.0,0.103008933365345
16.0,0.10259533673524857
18.0,0.10177769511938095
20.0,0.10097670555114746
22.0,0.1000332236289978
24.0,0.09903980046510696
26.0,0.0981120765209198
28.0,0.09718319028615952
30.0,0.0962282195687294
32.0,0.09533067047595978
36.0,0.09359478205442429
40.0,0.09202675521373749
44.0,0.09056400507688522
48.0,0.08909902721643448
52.0,0.08759859949350357
56.0,0.08608057349920273
60.0,0.08479691296815872
64.0,0.0838441327214241
72.0,0.08184567838907242
80.0,0.08014931529760361
88.0,0.07896138727664948
96.0,0.07778318971395493
104.0,0.07667842507362366
112.0,0.07585112750530243
120.0,0.07490168511867523
128.0,0.07378437370061874
144.0,0.07163725793361664
160.0,0.06906741112470627
176.0,0.06708624958992004
192.0,0.06527889519929886
208.0,0.06289514899253845
224.0,0.0609070360660553
240.0,0.05952632799744606
256.0,0.05820342153310776
288.0,0.05531322956085205
320.0,0.05289100110530853
352.0,0.051026422530412674
384.0,0.047383666038513184
416.0,0.044133301824331284
448.0,0.04200037196278572
480.0,0.0401589572429657
512.0,0.037095434963703156
576.0,0.03149339184165001
640.0,0.02653561905026436
704.0,0.023161543533205986
768.0,0.019434485584497452
832.0,0.020916327834129333
896.0,0.021175570785999298
960.0,0.017356328666210175
1024.0,0.012011278420686722
1152.0,0.002474381821230054
1280.0,0.000871948548592627
1408.0,0.002668749773874879
1536.0,0.0005565497558563948
1664.0,0.0018230372807011008
1792.0,0.006303361617028713
1920.0,0.007998432032763958
2048.0,0.0007917989860288799
2304.0,0.0027693333104252815
2560.0,-0.002492930507287383
2816.0,-0.008858058601617813
3072.0,-0.017198927700519562
3328.0,-0.017866225913167
3584.0,-0.015816930681467056
3840.0,-0.016434255987405777
4096.0,-0.010480537079274654
4608.0,-0.018380044028162956
5120.0,-0.02897712215781212
5632.0,-0.03131649270653725
6144.0,-0.017603589221835136
6656.0,-0.006031637080013752
7168.0,-0.001544110244140029
7680.0,0.012178967706859112
8192.0,0.006595741957426071
end
