version,3.0
numOfCh,1
type,point
parent_name,400-cuts
ch_type,1_1
kcount,1
numberNandB,1
brightnessNandB,1
carpet pos,0
pc,0
Time (ms),CH1 Auto-Correlation
1.0,0.0288047157227993
2.0,0.02767726220190525
3.0,0.02659652754664421
4.0,0.025560254231095314
5.0,0.024579204618930817
6.0,0.02365512028336525
7.0,0.022737836465239525
8.0,0.02187495306134224
9.0,0.0210293959826231
10.0,0.020218491554260254
11.0,0.019439056515693665
12.0,0.01871584728360176
13.0,0.018027205020189285
14.0,0.017342930659651756
15.0,0.01670570857822895
16.0,0.016113683581352234
18.0,0.015034329146146774
20.0,0.014019331894814968
22.0,0.013101891614496708
24.0,0.012202570214867592
26.0,0.011390372179448605
28.0,0.01068884041160345
30.0,0.010033593513071537
32.0,0.009402450174093246
36.0,0.008275914005935192
40.0,0.007376064546406269
44.0,0.006678083445876837
48.0,0.006085446570068598
52.0,0.005582436453551054
56.0,0.005108823999762535
60.0,0.004750265274196863
64.0,0.004359800834208727
72.0,0.003429871052503586
80.0,0.002743086311966181
88.0,0.002880050800740719
96.0,0.003011801978573203
104.0,0.002703423611819744
112.0,0.0024466144386678934
120.0,0.0025746445171535015
128.0,0.0023691675160080194
144.0,0.0015900838188827038
160.0,0.0014379809144884348
176.0,0.0012404128210619092
192.0,0.001003402634523809
208.0,-0.0004937855992466211
224.0,-0.0007984816911630332
240.0,-6.070660310797393e-05
256.0,0.0005231371033005416
288.0,0.0005806983099319041
320.0,0.0001422512432327494
352.0,0.0001371716643916443
384.0,0.0006167878746055067
416.0,-1.6668520402163267e-05
448.0,-0.0003684529510792345
480.0,-7.800565072102472e-05
512.0,-0.00020548669272102416
576.0,-0.0008373791351914406
640.0,-0.0008817174239084125
704.0,-0.00013731788203585893
768.0,0.0003861062286887318
832.0,0.0004362287581898272
896.0,-0.0005775375757366419
960.0,-0.0012129343813285232
1024.0,-0.0005255796713754535
1152.0,-0.0001847411913331598
1280.0,0.000346396496752277
1408.0,-0.0006304665002971888
1536.0,0.00033006948069669306
1664.0,0.0008297772146761417
1792.0,0.0004633042262867093
1920.0,-2.4846296582836658e-05
2048.0,-0.00027837781817652285
2304.0,0.0002675689465831965
2560.0,0.0013235661899670959
2816.0,0.00016775903350207955
3072.0,-1.5361970326921437e-06
3328.0,0.00013331517402548343
3584.0,0.000910821370780468
3840.0,0.00038695865077897906
4096.0,0.0010717154946178198
4608.0,-0.0006169210537336767
5120.0,-0.0007291670190170407
5632.0,0.00083284912398085
6144.0,0.0002632757241372019
6656.0,0.0002764813834801316
7168.0,-0.0004360423481557518
7680.0,-0.00024775523343123496
8192.0,-4.289268690627068e-05
9216.0,-0.0017141413409262896
10240.0,0.0010490334825590253
11264.0,-0.0005954731022939086
12288.0,-0.001573813147842884
13312.0,-0.00037651462480425835
14336.0,-0.0013070384738966823
end
