version,3.0
numOfCh,1
type,point
parent_name,400-cuts
ch_type,1_1
kcount,1
numberNandB,1
brightnessNandB,1
carpet pos,0
pc,0
Time (ms),CH1 Auto-Correlation
1.0,0.03211778402328491
2.0,0.03073994070291519
3.0,0.029440293088555336
4.0,0.028225906193256378
5.0,0.027055304497480392
6.0,0.0259176604449749
7.0,0.024813078343868256
8.0,0.02373444475233555
9.0,0.022732865065336227
10.0,0.021800432354211807
11.0,0.020925763994455338
12.0,0.02009865641593933
13.0,0.019291343167424202
14.0,0.01850832998752594
15.0,0.01777295023202896
16.0,0.017042316496372223
18.0,0.015671296045184135
20.0,0.014338716864585876
22.0,0.01311284676194191
24.0,0.012002548202872276
26.0,0.011001860722899437
28.0,0.010139238089323044
30.0,0.009310409426689148
32.0,0.008573150262236595
36.0,0.00740243261680007
40.0,0.006500153336673975
44.0,0.005613346584141254
48.0,0.004869399592280388
52.0,0.004174607340246439
56.0,0.0038138774689286947
60.0,0.003532564966008067
64.0,0.003022694494575262
72.0,0.002331481548026204
80.0,0.0018729771254584193
88.0,0.0015987139195203781
96.0,0.0010693153599277139
104.0,0.0010508004343137145
112.0,0.0007675928063690662
120.0,0.00036638235906139016
128.0,-8.603103196946904e-05
144.0,-0.0004536259511951357
160.0,-0.0007735774270258844
176.0,0.0002016647340497002
192.0,0.000957840122282505
208.0,0.001452566240914166
224.0,0.0005514260265044868
240.0,-0.0005224103224463761
256.0,-0.0013623646227642894
288.0,-0.0007284102030098438
320.0,0.0006760816904716194
352.0,0.0009846568573266268
384.0,-0.0005598841235041618
416.0,-0.001133155426941812
448.0,-0.0003525727952364832
480.0,0.00027871664497070014
512.0,0.0008406881242990494
576.0,0.0017730098916217685
640.0,0.0004039486520923674
704.0,0.0004836767620872706
768.0,9.728285658638924e-05
832.0,-0.0007757938583381474
896.0,-0.0001822513877414167
960.0,0.001297679846175015
1024.0,0.00013637906522490084
1152.0,-0.0007935368339531124
1280.0,-0.0003057958965655416
1408.0,-0.0010494842426851392
1536.0,-0.00126397586427629
1664.0,5.254451752989553e-05
1792.0,0.0009201319189742208
1920.0,0.00022887071827426553
2048.0,0.00024414568906649947
2304.0,0.0005456715589389205
2560.0,-0.000459178612800315
2816.0,0.0004910033894702792
3072.0,-0.00021762208780273795
3328.0,0.0006011677323840559
3584.0,-0.00013108731945976615
3840.0,-0.0006073186523281038
4096.0,-0.00044973345939069986
4608.0,-0.0011288549285382032
5120.0,-0.0006609204574488103
5632.0,0.0008022862020879984
6144.0,0.00022591347806155682
6656.0,-0.00045437723747454584
7168.0,-0.00027231688727624714
7680.0,-0.0001764584449119866
8192.0,-9.749116543389391e-06
9216.0,0.0003839707060251385
10240.0,-0.0014182247687131166
11264.0,0.0005731044802814722
12288.0,-4.9846636102302e-05
13312.0,-0.0003484443004708737
14336.0,0.0014876971254125237
end
