version,3.0
numOfCh,1
type,point
parent_name,400-cuts
ch_type,1_1
kcount,1
numberNandB,1
brightnessNandB,1
carpet pos,0
pc,0
Time (ms),CH1 Auto-Correlation
1.0,0.05735782906413078
2.0,0.054777439683675766
3.0,0.05229358375072479
4.0,0.04987848922610283
5.0,0.047525469213724136
6.0,0.045355424284935
7.0,0.043244291096925735
8.0,0.04114394262433052
9.0,0.03909291699528694
10.0,0.03713858127593994
11.0,0.035270266234874725
12.0,0.03352132439613342
13.0,0.03185692057013512
14.0,0.030273012816905975
15.0,0.028729476034641266
16.0,0.027341756969690323
18.0,0.02466537058353424
20.0,0.022411445155739784
22.0,0.020443731918931007
24.0,0.018766658380627632
26.0,0.017311371862888336
28.0,0.016000548377633095
30.0,0.014867804944515228
32.0,0.013995959423482418
36.0,0.01231395173817873
40.0,0.010606557130813599
44.0,0.008952593430876732
48.0,0.007421333342790604
52.0,0.005895343143492937
56.0,0.004482366610318422
60.0,0.0032307812944054604
64.0,0.0016651487676426768
72.0,-0.0009298435179516673
80.0,-0.002338114194571972
88.0,-0.0030375132337212563
96.0,-0.0027950683142989874
104.0,-0.0024980383459478617
112.0,-0.002199409995228052
120.0,-0.0014846563572064042
128.0,-0.001245696796104312
144.0,-0.0009143720380961895
160.0,-0.00010573866893537343
176.0,-0.000218985544051975
192.0,0.0006927207577973604
208.0,0.0009809137554839253
224.0,0.0012416231911629438
240.0,0.0005260410252958536
256.0,-0.0013573309406638145
288.0,-0.0016381593886762857
320.0,2.3696915377513506e-05
352.0,-0.0003253668546676636
384.0,-0.0003545841609593481
416.0,-0.0003647050471045077
448.0,-0.00017466417921241373
480.0,8.657548278279137e-06
512.0,-0.000768850208260119
576.0,9.138968016486615e-05
640.0,-0.00027039158158004284
704.0,0.0019889979157596827
768.0,-0.00023822822549846023
832.0,0.002303219633176923
896.0,-0.0008106206078082323
960.0,-0.003128012176603079
1024.0,-0.0003990840632468462
1152.0,0.0006532411789521575
1280.0,0.0011089114705100656
1408.0,-1.7858683349913917e-05
1536.0,-0.000653102237265557
1664.0,0.000662624544929713
1792.0,-0.0007517616031691432
1920.0,0.001104263705201447
2048.0,-0.0001795012067304924
2304.0,-0.0007273182854987681
2560.0,0.0018711159937083721
2816.0,-0.00040256729698739946
3072.0,0.001146678812801838
3328.0,-0.0007017741445451975
3584.0,8.453484042547643e-05
3840.0,0.00034998616320081055
4096.0,-0.0006862243171781301
4608.0,-0.0018208908149972558
5120.0,-0.0013745068572461605
5632.0,-0.00047337188152596354
6144.0,0.00024575338466092944
6656.0,0.0007566752610728145
7168.0,-0.0013561175437644124
7680.0,-0.0022329911589622498
8192.0,0.0008030470344237983
9216.0,6.961415056139231e-05
10240.0,0.001061245216988027
11264.0,0.0002248142845928669
12288.0,0.00019953641458414495
13312.0,-0.0002936145756393671
14336.0,0.0003481975581962615
end
