version,3.0
numOfCh,1
type,point
parent_name,400-cuts
ch_type,1_1
kcount,1
numberNandB,1
brightnessNandB,1
carpet pos,0
pc,0
Time (ms),CH1 Auto-Correlation
1.0,0.019616015255451202
2.0,0.018795080482959747
3.0,0.018028367310762405
4.0,0.01728583499789238
5.0,0.016590110957622528
6.0,0.01592129096388817
7.0,0.01526166032999754
8.0,0.01463338267058134
9.0,0.014036640524864197
10.0,0.013494191691279411
11.0,0.012974257580935955
12.0,0.012488596141338348
13.0,0.012037832289934158
14.0,0.011585242114961147
15.0,0.011154110543429852
16.0,0.010759444907307625
18.0,0.010039517655968666
20.0,0.009349626488983631
22.0,0.008708436973392963
24.0,0.008109797723591328
26.0,0.007552511058747768
28.0,0.007073369808495045
30.0,0.006596346851438284
32.0,0.006159435957670212
36.0,0.005423475056886673
40.0,0.0048464941792190075
44.0,0.004277295432984829
48.0,0.003680088557302952
52.0,0.003119227709248662
56.0,0.0026777670718729496
60.0,0.0024323000106960535
64.0,0.00223370804451406
72.0,0.001934668398462236
80.0,0.0016022615600377321
88.0,0.0013343429891392589
96.0,0.0012761105317622423
104.0,0.0011973698856309056
112.0,0.0010844087228178978
120.0,0.0009065863559953868
128.0,0.0006503298063762486
144.0,3.368151737959124e-05
160.0,-7.888375694165006e-05
176.0,-8.497884118696675e-05
192.0,-0.0003164142544846982
208.0,-0.0005746709066443145
224.0,-0.000819155655335635
240.0,-0.0012876610271632671
256.0,-0.0010838053422048688
288.0,6.387443136190996e-05
320.0,-1.6631456674076617e-05
352.0,0.00016787911590654403
384.0,-0.00046424384345300496
416.0,-0.00018042117881122977
448.0,0.0002901086409110576
480.0,0.0005476524820551276
512.0,0.0008131802314892411
576.0,-0.00022599833027925342
640.0,-0.0008299953187815845
704.0,-0.0007171477191150188
768.0,-0.0006540347822010517
832.0,-0.00032933472539298236
896.0,0.0003358499670866877
960.0,0.0002377434866502881
1024.0,0.0007422430207952857
1152.0,0.0004152536566834897
1280.0,-0.0006158088217489421
1408.0,0.0002464514982420951
1536.0,5.13150689585018e-06
1664.0,0.00048363959649577737
1792.0,-0.000821801892016083
1920.0,-0.0006098070880398154
2048.0,-0.0007703062146902084
2304.0,-0.00017718813614919782
2560.0,-0.00037730991607531905
2816.0,0.00012047369091305882
3072.0,-0.0008328829426318407
3328.0,-0.0007403964991681278
3584.0,2.7324444090481848e-05
3840.0,0.001194021780975163
4096.0,0.00031483802013099194
4608.0,-0.0003755416546482593
5120.0,0.0005150035722181201
5632.0,-0.0002587803755886853
6144.0,-0.0006957268342375755
6656.0,0.00017940318502951413
7168.0,-0.0010548210702836514
7680.0,0.0012096520513296127
8192.0,0.00020842008234467357
9216.0,0.00010843808559002355
10240.0,-0.00011632599489530548
11264.0,-0.00026796775637194514
12288.0,-3.969884801335866e-06
13312.0,5.654225606122054e-05
14336.0,4.3542753701331094e-05
end
