version,3.0
numOfCh,1
type,point
parent_name,400-cuts
ch_type,1_1
kcount,1
numberNandB,1
brightnessNandB,1
carpet pos,0
pc,0
Time (ms),CH1 Auto-Correlation
1.0,0.026985732838511467
2.0,0.02583269774913788
3.0,0.02472713030874729
4.0,0.023668920621275902
5.0,0.02263682708144188
6.0,0.02161129005253315
7.0,0.02064758911728859
8.0,0.019726086407899857
9.0,0.018867630511522293
10.0,0.01804858259856701
11.0,0.01727028377354145
12.0,0.0165261160582304
13.0,0.015838222578167915
14.0,0.015159244649112225
15.0,0.014510655775666237
16.0,0.013892975635826588
18.0,0.012736472301185131
20.0,0.011660253629088402
22.0,0.010679381899535656
24.0,0.009765383787453175
26.0,0.008938671089708805
28.0,0.008168227970600128
30.0,0.007449037861078978
32.0,0.006844739895313978
36.0,0.005987341050058603
40.0,0.0052045732736587524
44.0,0.004520423244684935
48.0,0.003928736783564091
52.0,0.0034475394058972597
56.0,0.0029580367263406515
60.0,0.002562704961746931
64.0,0.0021617247257381678
72.0,0.0013362098252400756
80.0,0.0006010331562720239
88.0,-8.32808727864176e-05
96.0,-0.0005372570594772696
104.0,-0.0009825867600739002
112.0,-0.0012664895039051771
120.0,-0.0007887168321758509
128.0,8.586746116634458e-05
144.0,0.0005800374201498926
160.0,0.0003441700537223369
176.0,0.0001272264344152063
192.0,-4.187272134004161e-05
208.0,-0.0008842156385071576
224.0,-0.0010801928583532572
240.0,-0.0005507846944965422
256.0,-0.0004370097303763032
288.0,0.0005172129604034126
320.0,0.0007286485051736236
352.0,-0.0006791288033127785
384.0,-0.0010944182286038995
416.0,-0.0012691946467384696
448.0,-0.0011051093460991979
480.0,0.0002080689591821283
512.0,0.00022822071332484484
576.0,-0.0008859635563567281
640.0,-0.00028547487454488873
704.0,0.0010885924566537142
768.0,-0.0006924194749444723
832.0,-0.0007933289161883295
896.0,0.0004219591792207211
960.0,-0.00040492223342880607
1024.0,-0.0007868463289923966
1152.0,-0.0004849100369028747
1280.0,-0.0005462245317175984
1408.0,0.0019529432756826282
1536.0,-0.00038678396958857775
1664.0,-0.001918002380989492
1792.0,-0.0009834326338022947
1920.0,-0.001452143071219325
2048.0,-0.00091447593877092
2304.0,0.0003678762586787343
2560.0,-0.00036504078889265656
2816.0,0.0004711402580142021
3072.0,-0.0007132470491342247
3328.0,0.0011422957759350538
3584.0,0.0005954677471891046
3840.0,-0.000361843325663358
4096.0,0.0006603371584787965
4608.0,-0.00013044684601482004
5120.0,0.00015833110956009477
5632.0,0.00016104905807878822
6144.0,9.555673750583082e-05
6656.0,-4.3488489609444514e-05
7168.0,-0.00029535091016441584
7680.0,-0.0006380951963365078
8192.0,0.00019154736946802586
9216.0,0.0001596522779436782
10240.0,7.578181975986809e-05
11264.0,-0.000285344518488273
12288.0,-0.000561152643058449
13312.0,0.00010204684804193676
14336.0,0.0003703863767441362
end
