version,3.0
numOfCh,1
type,point
parent_name,400-cuts
ch_type,1_1
kcount,1
numberNandB,1
brightnessNandB,1
carpet pos,0
pc,0
Time (ms),CH1 Auto-Correlation
1.0,0.0312546081840992
2.0,0.02999863028526306
3.0,0.02877962589263916
4.0,0.027658462524414062
5.0,0.026626531034708023
6.0,0.02566831186413765
7.0,0.02472386322915554
8.0,0.023778105154633522
9.0,0.022872276604175568
10.0,0.022008072584867477
11.0,0.021177034825086594
12.0,0.02039741352200508
13.0,0.01966138556599617
14.0,0.018991272896528244
15.0,0.018363106995821
16.0,0.017747770994901657
18.0,0.01663152128458023
20.0,0.01555517315864563
22.0,0.01460938062518835
24.0,0.013717934489250183
26.0,0.01283663883805275
28.0,0.01193620078265667
30.0,0.0111162094399333
32.0,0.010270711965858936
36.0,0.008829018101096153
40.0,0.007539958227425814
44.0,0.006491962354630232
48.0,0.005698671564459801
52.0,0.004784561228007078
56.0,0.003939308226108551
60.0,0.0033374305348843336
64.0,0.0027120052836835384
72.0,0.0017052143812179565
80.0,0.0009058789582923055
88.0,0.00015585530491080135
96.0,-0.000289359362795949
104.0,-0.0004308886709623039
112.0,-0.000374219031073153
120.0,0.00015777780208736658
128.0,0.0010885775554925203
144.0,0.0018825591541826725
160.0,0.0017309262184426188
176.0,0.0021049589850008488
192.0,0.0024824803695082664
208.0,0.0014621991431340575
224.0,0.00023261496971827
240.0,-0.0006535383290611207
256.0,-0.0012114073615521193
288.0,-0.0012522542383521795
320.0,-0.0014307447709143162
352.0,-7.668963371543214e-05
384.0,0.00029442235245369375
416.0,0.000633876770734787
448.0,0.0006056387792341411
480.0,0.00021905516041442752
512.0,-0.0003419098793528974
576.0,0.0017908979207277298
640.0,0.00228200014680624
704.0,-0.00037313791108317673
768.0,-0.0003793210198637098
832.0,5.159096326678991e-05
896.0,0.0005233146366663277
960.0,0.00114708102773875
1024.0,-0.00036284953239373863
1152.0,0.00037681133835576475
1280.0,-0.00019111463916487992
1408.0,-0.00037351646460592747
1536.0,0.0003128861135337502
1664.0,-0.0007688176119700074
1792.0,0.0002973162627313286
1920.0,-0.0007486854447051883
2048.0,-0.0013817227445542812
2304.0,0.0008093157666735351
2560.0,5.738985782954842e-05
2816.0,0.0005387490964494646
3072.0,0.0015591352712363005
3328.0,0.0008701970800757408
3584.0,0.00013166613643988967
3840.0,-0.0004372592084109783
4096.0,0.000666092149913311
4608.0,-0.0015995774883776903
5120.0,-0.0016446119407191873
5632.0,-0.00037881650496274233
6144.0,-0.00013263656001072377
6656.0,-1.4830094187345821e-05
7168.0,-0.0003023082681465894
7680.0,-0.0019077399047091603
8192.0,-0.0012435996904969215
9216.0,0.0005035807844251394
10240.0,0.0006380453705787659
11264.0,-0.00020506478904280812
12288.0,0.0007684376905672252
13312.0,0.0009172150166705251
14336.0,0.00017899347585625947
end
