version,3.0
numOfCh,1
type,point
parent_name,400-cuts
ch_type,1_1
kcount,1
numberNandB,1
brightnessNandB,1
carpet pos,0
pc,0
Time (ms),CH1 Auto-Correlation
1.0,0.02239220030605793
2.0,0.021518759429454803
3.0,0.020727746188640594
4.0,0.019956957548856735
5.0,0.019184676930308342
6.0,0.018452610820531845
7.0,0.017767738550901413
8.0,0.017135512083768845
9.0,0.016521478071808815
10.0,0.015952227637171745
11.0,0.015425678342580795
12.0,0.014922368340194225
13.0,0.014429455623030663
14.0,0.013975799083709717
15.0,0.013532846234738827
16.0,0.013131092302501202
18.0,0.012406453490257263
20.0,0.011755147948861122
22.0,0.011113684624433517
24.0,0.01051972433924675
26.0,0.0099177910014987
28.0,0.009348394349217415
30.0,0.008826878853142262
32.0,0.008382871747016907
36.0,0.007576243951916695
40.0,0.006846778094768524
44.0,0.0061188205145299435
48.0,0.00550085911527276
52.0,0.005050300620496273
56.0,0.004766940139234066
60.0,0.004564967472106218
64.0,0.00423329696059227
72.0,0.0035783525090664625
80.0,0.003272967878729105
88.0,0.002982264617457986
96.0,0.0027137696743011475
104.0,0.002641517436131835
112.0,0.0028257088270038366
120.0,0.002765543991699815
128.0,0.0025977843906730413
144.0,0.002058051060885191
160.0,0.001417619758285582
176.0,0.0009085391066037118
192.0,0.0007381270406767726
208.0,0.0009747048607096076
224.0,0.0005959650734439492
240.0,-8.06694952188991e-05
256.0,-0.0007809412200003862
288.0,-0.00016092190344352275
320.0,0.00020831737492699176
352.0,0.00018791363982018083
384.0,-0.00045306311221793294
416.0,0.00020135649538133293
448.0,0.00043920983443968
480.0,-0.00047621328849345446
512.0,-0.0012315306812524796
576.0,-0.0016838074661791325
640.0,-0.0014664143091067672
704.0,-0.000720775977242738
768.0,4.422028723638505e-05
832.0,-0.00011450254532974213
896.0,0.00120401696767658
960.0,0.0009560937760397792
1024.0,-0.00037961185444146395
1152.0,-8.201721357181668e-06
1280.0,0.00028024049242958426
1408.0,0.0004299856082070619
1536.0,-0.0009909323416650295
1664.0,0.00043881358578801155
1792.0,-0.0005772109143435955
1920.0,-0.0004991971072740853
2048.0,0.000962677993811667
2304.0,0.00035029053105972707
2560.0,-0.00014829557039774954
2816.0,-0.0006136334268376231
3072.0,-0.001369061996228993
3328.0,0.0005716399755328894
3584.0,0.0007171634351834655
3840.0,-0.0011432769242674112
4096.0,-0.0018460318678990006
4608.0,-0.0005122600123286247
5120.0,-0.000584987283218652
5632.0,0.00034749021870084107
6144.0,0.00018456422549206764
6656.0,0.00019226087897550315
7168.0,0.0002506482123862952
7680.0,0.0011830099392682314
8192.0,4.9279773520538583e-05
9216.0,-0.0005601634620688856
10240.0,-0.000699149037245661
11264.0,-8.090733899734914e-05
12288.0,-0.0005272591952234507
13312.0,1.1855225238832645e-05
14336.0,0.002293523633852601
end
