version,3.0
numOfCh,1
type,point
parent_name,400-cuts
ch_type,1_1
kcount,1
numberNandB,1
brightnessNandB,1
carpet pos,0
pc,0
Time (ms),CH1 Auto-Correlation
1.0,0.029573358595371246
2.0,0.028254851698875427
3.0,0.026984261348843575
4.0,0.02576650306582451
5.0,0.02459300309419632
6.0,0.023486606776714325
7.0,0.022445574402809143
8.0,0.021461056545376778
9.0,0.02054360695183277
10.0,0.019680514931678772
11.0,0.018865393474698067
12.0,0.01807214505970478
13.0,0.017297571524977684
14.0,0.0165499746799469
15.0,0.015833504498004913
16.0,0.015173270367085934
18.0,0.013921388424932957
20.0,0.012826980091631413
22.0,0.011805997230112553
24.0,0.010841171257197857
26.0,0.009967255406081676
28.0,0.009187716990709305
30.0,0.00848392490297556
32.0,0.007865623570978642
36.0,0.006976406555622816
40.0,0.006311565171927214
44.0,0.005683904979377985
48.0,0.005366609897464514
52.0,0.0053040338680148125
56.0,0.005352587904781103
60.0,0.005299733020365238
64.0,0.005074919201433659
72.0,0.004415704403072596
80.0,0.003821353428065777
88.0,0.00287526729516685
96.0,0.0020984269212931395
104.0,0.0013750788057222962
112.0,0.0009566248627379537
120.0,0.0009366163285449147
128.0,0.0010556582128629088
144.0,0.0007812155527062714
160.0,0.0003085762436967343
176.0,0.00023914029588922858
192.0,0.00010073428711621091
208.0,-3.570605258573778e-05
224.0,-0.00038969513843767345
240.0,-0.00025506678503006697
256.0,0.0001890926214400679
288.0,0.0004640155821107328
320.0,-0.00017186674813274294
352.0,-0.0003999607579316944
384.0,-0.001556705916300416
416.0,-0.001428914605639875
448.0,-0.0009112898260354996
480.0,-0.0009163281647488475
512.0,-0.0009631110006012022
576.0,-0.0005160109722055495
640.0,-0.000627424567937851
704.0,0.0006077337311580777
768.0,-0.0007276920950971544
832.0,-0.0006205359240993857
896.0,0.0013228240422904491
960.0,0.0028174875769764185
1024.0,0.0012362825218588114
1152.0,0.001197747653350234
1280.0,-0.00027397999656386673
1408.0,-5.160106593393721e-05
1536.0,-0.0004127540159970522
1664.0,0.0006877086125314236
1792.0,-0.0004984404076822102
1920.0,0.0006565599469467998
2048.0,-0.0003220602229703218
2304.0,0.0002948420005850494
2560.0,-0.0011049703462049365
2816.0,5.5524869821965694e-06
3072.0,-0.00015087562496773899
3328.0,-0.0003480366140138358
3584.0,-0.00016047888493631035
3840.0,-0.00043177089537493885
4096.0,-0.0012195480521768332
4608.0,-4.456948227016255e-05
5120.0,-0.0012751207686960697
5632.0,0.00019932094437535852
6144.0,-0.0004637051315512508
6656.0,-8.975641685537994e-05
7168.0,-0.00013485908857546747
7680.0,-0.00011113708751508966
8192.0,0.000998681178316474
9216.0,0.0006697425269521773
10240.0,0.0004318799765314907
11264.0,0.00041375626460649073
12288.0,-0.0006078856531530619
13312.0,-0.0005363814998418093
14336.0,0.0006994242430664599
end
