version,3.0
numOfCh,1
type,point
parent_name,400-cuts
ch_type,1_1
kcount,1
numberNandB,1
brightnessNandB,1
carpet pos,0
pc,0
Time (ms),CH1 Auto-Correlation
1.0,0.03413667902350426
2.0,0.032781463116407394
3.0,0.031483136117458344
4.0,0.030220715329051018
5.0,0.02902759425342083
6.0,0.02787037007510662
7.0,0.026753639802336693
8.0,0.02570434659719467
9.0,0.02469322271645069
10.0,0.023701762780547142
11.0,0.02271493338048458
12.0,0.021753089502453804
13.0,0.02085980214178562
14.0,0.01999455690383911
15.0,0.019149063155055046
16.0,0.01832430437207222
18.0,0.016791997477412224
20.0,0.015331978909671307
22.0,0.01398918405175209
24.0,0.012784119695425034
26.0,0.011736970394849777
28.0,0.010801457799971104
30.0,0.009948909282684326
32.0,0.009129798971116543
36.0,0.007659579627215862
40.0,0.006419382523745298
44.0,0.005429218988865614
48.0,0.0046487427316606045
52.0,0.003818708239123225
56.0,0.003208494745194912
60.0,0.002891249256208539
64.0,0.002647270681336522
72.0,0.002353332471102476
80.0,0.002294067293405533
88.0,0.0023270624224096537
96.0,0.0024683421943336725
104.0,0.002626946894451976
112.0,0.0025063108187168837
120.0,0.00173050700686872
128.0,0.00108503142837435
144.0,0.00023951311595737934
160.0,-0.0003589155967347324
176.0,-0.0008149508503265679
192.0,-0.0006344575667753816
208.0,0.00041028112173080444
224.0,0.0006318487576209009
240.0,0.00022469366376753896
256.0,-0.0003886901249643415
288.0,0.0003507446963340044
320.0,-0.0006795965018682182
352.0,-0.002342954510822892
384.0,-0.002041233703494072
416.0,-0.0009006282198242843
448.0,-0.0011273120762780309
480.0,0.0007108838763087988
512.0,0.0026861736550927162
576.0,0.0005304774385876954
640.0,0.00041100531234405935
704.0,-0.002002998488023877
768.0,-0.0010946722468361259
832.0,-0.0009190355194732547
896.0,0.0006487074424512684
960.0,-0.0003169862611684948
1024.0,5.699677058146335e-05
1152.0,-0.0014862667303532362
1280.0,-0.0006836953689344227
1408.0,0.0014395463513210416
1536.0,-0.00013015152944717556
1664.0,-0.0008503518183715641
1792.0,-0.0009813677752390504
1920.0,0.0002614250115584582
2048.0,0.0003726502473000437
2304.0,-0.0005473220371641219
2560.0,-0.00036997394636273384
2816.0,-0.00026864861138164997
3072.0,0.0008301938651129603
3328.0,0.0007439135224558413
3584.0,-0.0005303044454194605
3840.0,-0.0010140049271285534
4096.0,5.636144123855047e-05
4608.0,0.0002683764323592186
5120.0,-0.000440732081187889
5632.0,-0.000532587815541774
6144.0,-0.0006162846693769097
6656.0,0.0006444600876420736
7168.0,0.0007614931673742831
7680.0,-0.0007232250645756721
8192.0,-0.0017793235601857305
9216.0,0.0003136373416054994
10240.0,0.0006344690918922424
11264.0,0.000470437400508672
12288.0,-0.00018327555153518915
13312.0,-0.0010720334248617291
14336.0,0.0006775908987037838
end
