version,3.0
numOfCh,1
type,point
parent_name,400-cuts
ch_type,1_1
kcount,1
numberNandB,1
brightnessNandB,1
carpet pos,0
pc,0
Time (ms),CH1 Auto-Correlation
1.0,0.06438356637954712
2.0,0.0616774745285511
3.0,0.05913882330060005
4.0,0.05661732703447342
5.0,0.054180145263671875
6.0,0.051875703036785126
7.0,0.049691636115312576
8.0,0.04762553796172142
9.0,0.0457269512116909
10.0,0.043899644166231155
11.0,0.04220277816057205
12.0,0.040677282959222794
13.0,0.03915509954094887
14.0,0.03768301010131836
15.0,0.03624209016561508
16.0,0.03480103239417076
18.0,0.03204179182648659
20.0,0.02955663949251175
22.0,0.02732550911605358
24.0,0.025196881964802742
26.0,0.023107292130589485
28.0,0.021227937191724777
30.0,0.019452819600701332
32.0,0.0178038589656353
36.0,0.015252181328833103
40.0,0.013251676224172115
44.0,0.011633475311100483
48.0,0.010461000725626945
52.0,0.009638648480176926
56.0,0.008805569261312485
60.0,0.007722621783614159
64.0,0.006600702181458473
72.0,0.004948565270751715
80.0,0.004778143484145403
88.0,0.005015405360609293
96.0,0.00512125575914979
104.0,0.005096289329230785
112.0,0.004987252876162529
120.0,0.004324892535805702
128.0,0.0029763642232865095
144.0,0.001270033186301589
160.0,0.0006636536563746631
176.0,0.00178601685911417
192.0,0.003144013462588191
208.0,0.0022241154219955206
224.0,-0.0003489386581350118
240.0,-0.0015962093602865934
256.0,-0.000919776561204344
288.0,0.00082736078184098
320.0,0.0023457850329577923
352.0,0.0009992654668167233
384.0,-0.0007411462720483541
416.0,-0.0010045982198789716
448.0,0.0018931766971945763
480.0,0.0012611612910404801
512.0,-0.00014912303595338017
576.0,0.000776751316152513
640.0,0.0015167358797043562
704.0,0.0034106969833374023
768.0,0.004171330947428942
832.0,0.0007481743232347071
896.0,-0.000793406565207988
960.0,0.001727307797409594
1024.0,0.001059318077750504
1152.0,0.0030603103805333376
1280.0,-0.0008469726308248937
1408.0,0.0010969671420753002
1536.0,0.0016535440227016807
1664.0,0.004283061251044273
1792.0,0.0018792998744174838
1920.0,0.00018427253235131502
2048.0,-0.0015038757119327784
2304.0,0.002198582049459219
2560.0,0.0015673983143642545
2816.0,0.0007588606677018106
3072.0,-0.00027228149701841176
3328.0,0.003331952728331089
3584.0,-0.0023755498696118593
3840.0,0.00035995239159092307
4096.0,0.0007887754472903907
4608.0,-0.0015128437662497163
5120.0,-0.0011697174049913883
5632.0,-0.0009869554778560996
6144.0,6.44746023681364e-06
6656.0,-0.0019043413922190666
7168.0,-0.0022744277957826853
7680.0,-0.001579269184730947
8192.0,-0.0022545489482581615
9216.0,-0.0031518149189651012
10240.0,-0.00022027066734153777
11264.0,-0.0017190942307934165
12288.0,0.0016484403749927878
13312.0,0.0030643485952168703
14336.0,-0.0003309242893010378
end
