version,3.0
numOfCh,1
type,point
parent_name,400-cuts
ch_type,1_1
kcount,1
numberNandB,1
brightnessNandB,1
carpet pos,0
pc,0
Time (ms),CH1 Auto-Correlation
1.0,0.050491511821746826
2.0,0.04825052618980408
3.0,0.04613194614648819
4.0,0.044114064425230026
5.0,0.04216378927230835
6.0,0.04035024717450142
7.0,0.03863111883401871
8.0,0.03699966147542
9.0,0.0354924201965332
10.0,0.0340680330991745
11.0,0.032749712467193604
12.0,0.03151431307196617
13.0,0.03033164143562317
14.0,0.029194913804531097
15.0,0.02806333266198635
16.0,0.026944749057292938
18.0,0.024924350902438164
20.0,0.023186758160591125
22.0,0.02170063741505146
24.0,0.020353185012936592
26.0,0.01914002187550068
28.0,0.01795051433146
30.0,0.01679491624236107
32.0,0.015776418149471283
36.0,0.013852324336767197
40.0,0.012304583564400673
44.0,0.010744456201791763
48.0,0.009015310555696487
52.0,0.0074499319307506084
56.0,0.006162915378808975
60.0,0.005213755648583174
64.0,0.004566899035125971
72.0,0.0037519526667892933
80.0,0.0035807746462523937
88.0,0.0035426407121121883
96.0,0.003436361439526081
104.0,0.0029895927291363478
112.0,0.001904242904856801
120.0,0.0007310828659683466
128.0,-0.00034411493106745183
144.0,0.0007573952898383141
160.0,0.0011121743591502309
176.0,0.0009564689244143665
192.0,0.0015246596885845065
208.0,0.0012581921182572842
224.0,0.00034999847412109375
240.0,0.0004501052026171237
256.0,-0.0003228178829886019
288.0,-1.0514270798012149e-05
320.0,0.0004779439768753946
352.0,0.001994888763874769
384.0,0.0014797202311456203
416.0,-0.0008760535856708884
448.0,-0.0010485075181350112
480.0,-0.0007719327113591135
512.0,0.0017935887444764376
576.0,0.002039579674601555
640.0,0.0006156125455163419
704.0,0.0002702555211726576
768.0,0.001309326384216547
832.0,0.00098789157345891
896.0,-0.00018658074259292334
960.0,0.00034595682518556714
1024.0,0.0028226440772414207
1152.0,0.00010774164547910914
1280.0,-0.001794496551156044
1408.0,-0.0036875365767627954
1536.0,0.00040242800605483353
1664.0,-0.001638728310354054
1792.0,-0.0017913784831762314
1920.0,-0.0004925847169943154
2048.0,-0.0009021376608870924
2304.0,-0.0013646723236888647
2560.0,-0.000555644161067903
2816.0,-6.18871272308752e-05
3072.0,-0.00040766230085864663
3328.0,0.0009992241393774748
3584.0,-0.0016963679809123278
3840.0,-0.0003286312858108431
4096.0,-0.0008814773173071444
4608.0,0.0013615614734590054
5120.0,-0.0007033024448901415
5632.0,0.0014697221340611577
6144.0,-4.0469050873070955e-05
6656.0,-0.0012233941815793514
7168.0,-0.0004130219458602369
7680.0,-0.0009046164341270924
8192.0,0.0013091078726574779
9216.0,0.0006473808898590505
10240.0,0.00017658236902207136
11264.0,-0.0004007707757409662
12288.0,-0.0007018150063231587
13312.0,-7.101986557245255e-05
14336.0,-0.002711181528866291
end
