version,3.0
numOfCh,1
type,point
parent_name,400-cuts
ch_type,1_1
kcount,1
numberNandB,1
brightnessNandB,1
carpet pos,0
pc,0
Time (ms),CH1 Auto-Correlation
1.0,0.04032338783144951
2.0,0.03894712030887604
3.0,0.037656303495168686
4.0,0.03646543622016907
5.0,0.03531947359442711
6.0,0.034185100346803665
7.0,0.033098865300416946
8.0,0.03205404058098793
9.0,0.031036952510476112
10.0,0.030049625784158707
11.0,0.029097821563482285
12.0,0.02817586250603199
13.0,0.02726045437157154
14.0,0.026344113051891327
15.0,0.025502381846308708
16.0,0.02466621622443199
18.0,0.023133978247642517
20.0,0.021697834134101868
22.0,0.0204166229814291
24.0,0.019347695633769035
26.0,0.01837787963449955
28.0,0.01744380034506321
30.0,0.01652921549975872
32.0,0.015670528635382652
36.0,0.014067531563341618
40.0,0.012685680761933327
44.0,0.011597310192883015
48.0,0.010594355873763561
52.0,0.009625012055039406
56.0,0.00866597518324852
60.0,0.00767762865871191
64.0,0.006672923918813467
72.0,0.005039552692323923
80.0,0.0037117365282028913
88.0,0.0019563823007047176
96.0,0.00013704225420951843
104.0,-0.0012088457588106394
112.0,-0.0016674344660714269
120.0,-0.0016419636085629463
128.0,-0.0015485897893086076
144.0,-0.002154638059437275
160.0,-0.0024878515396267176
176.0,-0.002315845340490341
192.0,-0.0024147259537130594
208.0,-0.002222286770120263
224.0,-0.0025693457573652267
240.0,-0.0022303001023828983
256.0,-0.0024642441421747208
288.0,-0.0022276153322309256
320.0,-0.0009080710005946457
352.0,-0.0016162607353180647
384.0,-0.0012086343485862017
416.0,-0.0022358663845807314
448.0,-0.0021639864426106215
480.0,-0.0013910867273807526
512.0,0.00012739554222207516
576.0,-0.0010997665813192725
640.0,-0.00015006461762823164
704.0,0.0009657060727477074
768.0,-0.0016693335492163897
832.0,-0.001081667491234839
896.0,0.0010773355606943369
960.0,0.0014335174346342683
1024.0,0.0016863382188603282
1152.0,-0.0003500212333165109
1280.0,-0.0017893792828544974
1408.0,-0.00034973587025888264
1536.0,0.00023086759028956294
1664.0,0.003871822264045477
1792.0,-0.003077455097809434
1920.0,-0.0010142386890947819
2048.0,-0.0014321835478767753
2304.0,0.0003018983406946063
2560.0,0.0013005337677896023
2816.0,-0.0012557103764265776
3072.0,-0.001706726267002523
3328.0,-0.0011071056360378861
3584.0,0.00017563097935635597
3840.0,0.0012737922370433807
4096.0,0.00021324327099137008
4608.0,0.0005339536583051085
5120.0,0.0002652161638252437
5632.0,-0.0001344220363534987
6144.0,0.0010869271354749799
6656.0,-2.0723799025290646e-05
7168.0,-0.0010428651003167033
7680.0,-0.000467287638457492
8192.0,-9.740641871758271e-06
9216.0,-1.5827647075639106e-05
10240.0,1.7699969248496927e-05
11264.0,-0.00011788384290412068
12288.0,-0.000199619127670303
13312.0,-0.00038198562106117606
14336.0,0.0003337930829729885
end
