version,3.0
numOfCh,1
type,point
parent_name,400-cuts
ch_type,1_1
kcount,1
numberNandB,1
brightnessNandB,1
carpet pos,0
pc,0
Time (ms),CH1 Auto-Correlation
1.0,0.06931835412979126
2.0,0.06652668863534927
3.0,0.06377159059047699
4.0,0.06117447838187218
5.0,0.05865725874900818
6.0,0.05629022791981697
7.0,0.054020848125219345
8.0,0.0519019216299057
9.0,0.049843620508909225
10.0,0.04788036271929741
11.0,0.04600182920694351
12.0,0.044117625802755356
13.0,0.0422629714012146
14.0,0.0405394472181797
15.0,0.03883596509695053
16.0,0.03724612295627594
18.0,0.03438926115632057
20.0,0.03176259994506836
22.0,0.02938198111951351
24.0,0.027260327711701393
26.0,0.025360986590385437
28.0,0.023550420999526978
30.0,0.02189950831234455
32.0,0.020459897816181183
36.0,0.01821492239832878
40.0,0.01639600843191147
44.0,0.014776643365621567
48.0,0.01349656656384468
52.0,0.012405283749103546
56.0,0.011598343960940838
60.0,0.011328326538205147
64.0,0.011128540150821209
72.0,0.011206811293959618
80.0,0.011102172546088696
88.0,0.010344008915126324
96.0,0.009676634334027767
104.0,0.008429893292486668
112.0,0.007727868854999542
120.0,0.007642577402293682
128.0,0.007459395099431276
144.0,0.005748359486460686
160.0,0.003393916878849268
176.0,0.0006548115634359419
192.0,-0.0003472308162599802
208.0,-0.00047423617797903717
224.0,0.00032705426565371454
240.0,0.002177557209506631
256.0,0.003649692749604583
288.0,0.0030951532535254955
320.0,0.0011437003267928958
352.0,0.0014301948249340057
384.0,0.0022935373708605766
416.0,0.002931114286184311
448.0,0.0004612971388269216
480.0,4.7183762944769114e-05
512.0,-0.001286292914301157
576.0,-0.004051709547638893
640.0,-0.0041810497641563416
704.0,-0.0029211645014584064
768.0,-0.0026118748355656862
832.0,-0.00021285512775648385
896.0,0.0005362852825783193
960.0,0.002845801878720522
1024.0,-0.00039797043427824974
1152.0,-0.0008117908146232367
1280.0,0.004786630626767874
1408.0,0.004070251248776913
1536.0,-0.0004169567546341568
1664.0,0.00015050359070301056
1792.0,0.0031592173036187887
1920.0,0.002424909034743905
2048.0,0.0012850762577727437
2304.0,-0.002180518116801977
2560.0,-0.00010070243297377601
2816.0,0.0011007528519257903
3072.0,-0.002142081968486309
3328.0,-0.001219452591612935
3584.0,-0.003176870057359338
3840.0,-7.13569315848872e-05
4096.0,0.0015459812711924314
4608.0,0.001114277751185
5120.0,-0.00010260100680170581
5632.0,-0.0012488687643781304
6144.0,0.002036604331806302
6656.0,0.0004573182377498597
7168.0,0.002484161639586091
7680.0,0.0012394998921081424
8192.0,-0.0033780159428715706
9216.0,-0.0009228555136360228
10240.0,-0.004075845703482628
11264.0,-0.0016463068313896656
12288.0,-0.001437998958863318
13312.0,-0.0020406844560056925
14336.0,-0.0028805856127291918
end
