version,3.0
numOfCh,1
type,point
parent_name,400-cuts
ch_type,1_1
kcount,1
numberNandB,1
brightnessNandB,1
carpet pos,0
pc,0
Time (ms),CH1 Auto-Correlation
1.0,0.02578035183250904
2.0,0.024737544357776642
3.0,0.02373969368636608
4.0,0.022801000624895096
5.0,0.02188117802143097
6.0,0.020983116701245308
7.0,0.02012595534324646
8.0,0.019332487136125565
9.0,0.018570104613900185
10.0,0.017832845449447632
11.0,0.017153393477201462
12.0,0.01650138385593891
13.0,0.01586364209651947
14.0,0.015230107121169567
15.0,0.014622925780713558
16.0,0.014089339412748814
18.0,0.013083687983453274
20.0,0.012116244994103909
22.0,0.011192654259502888
24.0,0.010297469794750214
26.0,0.009435801766812801
28.0,0.008670713752508163
30.0,0.007974974811077118
32.0,0.007325300946831703
36.0,0.0062554702162742615
40.0,0.005368461832404137
44.0,0.0046627698466181755
48.0,0.004156198352575302
52.0,0.003760717809200287
56.0,0.003364117117598653
60.0,0.003034727182239294
64.0,0.002676397794857621
72.0,0.0018127926159650087
80.0,0.000965608807746321
88.0,0.000493035011459142
96.0,0.00027154761482961476
104.0,0.00019575207261368632
112.0,0.00023470306769013405
120.0,8.256146975327283e-05
128.0,0.00010752815433079377
144.0,0.00012527601211331785
160.0,-0.00027892194339074194
176.0,-0.0005492037744261324
192.0,-0.00017255052807740867
208.0,0.00042890349868685007
224.0,0.0009049024083651602
240.0,0.0006132919224910438
256.0,0.0003774205397348851
288.0,0.0011031803442165256
320.0,0.001411526114679873
352.0,0.0008411108865402639
384.0,-0.00010942864173557609
416.0,-8.767990220803767e-05
448.0,-0.0012597620952874422
480.0,-0.002078256569802761
512.0,-0.002438110299408436
576.0,-0.0008223005570471287
640.0,-0.0007516106124967337
704.0,8.291221456602216e-05
768.0,0.0001743151806294918
832.0,-0.0008057336672209203
896.0,0.0006095051066949964
960.0,0.0015716982306912541
1024.0,0.0027947858907282352
1152.0,0.0004506274126470089
1280.0,0.0018159124301746488
1408.0,0.0005458428640849888
1536.0,0.0005081992130726576
1664.0,-0.00010207464947598055
1792.0,-0.000341457111062482
1920.0,0.00041230765054933727
2048.0,-0.0007985519478097558
2304.0,0.0004826707881875336
2560.0,-0.00040712012560106814
2816.0,0.00020671494712587446
3072.0,-0.0005489506875164807
3328.0,-0.0008806485566310585
3584.0,-0.00018529155931901187
3840.0,-0.0008544162847101688
4096.0,-0.0011969477636739612
4608.0,-0.00042840419337153435
5120.0,-0.0008466162835247815
5632.0,-0.00034374999813735485
6144.0,-0.0008101605344563723
6656.0,0.00023612049699295312
7168.0,0.0002977246476802975
7680.0,0.0005651454557664692
8192.0,0.0005011521279811859
9216.0,0.0005618127761408687
10240.0,0.00037906705983914435
11264.0,-6.848883640486747e-05
12288.0,-0.0004674763767980039
13312.0,-0.0013207255396991968
14336.0,-0.0013054730370640755
end
