version,3.0
numOfCh,1
type,point
parent_name,400-cuts
ch_type,1_1
kcount,1
numberNandB,1
brightnessNandB,1
carpet pos,0
pc,0
Time (ms),CH1 Auto-Correlation
1.0,0.05804745852947235
2.0,0.05544973909854889
3.0,0.052854955196380615
4.0,0.05042533203959465
5.0,0.04814095422625542
6.0,0.045960769057273865
7.0,0.04386996477842331
8.0,0.041807204484939575
9.0,0.039854757487773895
10.0,0.03803534433245659
11.0,0.03636234998703003
12.0,0.03476620092988014
13.0,0.033283036202192307
14.0,0.031932663172483444
15.0,0.030683238059282303
16.0,0.029419029131531715
18.0,0.027008116245269775
20.0,0.024843670427799225
22.0,0.022924106568098068
24.0,0.020998867228627205
26.0,0.01906227134168148
28.0,0.017315419390797615
30.0,0.01585325039923191
32.0,0.01452124584466219
36.0,0.012506483122706413
40.0,0.010567701421678066
44.0,0.008606132119894028
48.0,0.006808754522353411
52.0,0.005124073475599289
56.0,0.0037516620941460133
60.0,0.002565567148849368
64.0,0.0014927872689440846
72.0,-0.0004998992080800235
80.0,-0.001964463386684656
88.0,-0.003259496996179223
96.0,-0.003772301599383354
104.0,-0.003668801626190543
112.0,-0.003479747101664543
120.0,-0.0030594253912568092
128.0,-0.003010751446709037
144.0,-0.0032869328279048204
160.0,-0.003356368513777852
176.0,-0.0040756273083388805
192.0,-0.0048485416918993
208.0,-0.005596995819360018
224.0,-0.005832941737025976
240.0,-0.005332338623702526
256.0,-0.0029984754510223866
288.0,0.0003681145026348531
320.0,-0.0008120540296658874
352.0,-0.0020418367348611355
384.0,-0.002144868951290846
416.0,-0.0020592103246599436
448.0,0.0009695510962046683
480.0,0.003610209096223116
512.0,0.0013405828503891826
576.0,0.0028794975951313972
640.0,0.0011421965900808573
704.0,-0.00252545322291553
768.0,-0.001469082897529006
832.0,-0.0018339186208322644
896.0,0.0001160486790467985
960.0,-0.0019794011022895575
1024.0,0.0007542159873992205
1152.0,0.002816328778862953
1280.0,-0.0010947337141260505
1408.0,-0.00029086138238199055
1536.0,0.00015594004071317613
1664.0,-0.00013146261335350573
1792.0,0.0009145424701273441
1920.0,-0.0017659711884334683
2048.0,0.0015168088721111417
2304.0,-0.0020733694545924664
2560.0,0.0016417772276327014
2816.0,-0.0010014389408752322
3072.0,0.0006666677072644234
3328.0,7.901420758571476e-05
3584.0,-0.0015433619264513254
3840.0,0.0010254404041916132
4096.0,-0.0003367353929206729
4608.0,7.220963743748143e-05
5120.0,0.00033919260022230446
5632.0,-0.00016464533109683543
6144.0,-0.0004516539629548788
6656.0,-0.0002684325445443392
7168.0,0.0007215411751531065
7680.0,-0.00023644707107450813
8192.0,-0.00033421331318095326
9216.0,0.00034325814340263605
10240.0,0.00043543262290768325
11264.0,-0.0006067441427148879
12288.0,-0.0004652191128116101
13312.0,-0.00036867172457277775
14336.0,0.0005565532483160496
end
