version,3.0
numOfCh,1
type,point
parent_name,400-cuts
ch_type,1_1
kcount,1
numberNandB,1
brightnessNandB,1
carpet pos,0
pc,0
Time (ms),CH1 Auto-Correlation
1.0,0.06787034124135971
2.0,0.0650683268904686
3.0,0.062336515635252
4.0,0.05970921739935875
5.0,0.05714870244264603
6.0,0.05470910295844078
7.0,0.05237489193677902
8.0,0.0501934178173542
9.0,0.04818860813975334
10.0,0.04621628299355507
11.0,0.044313862919807434
12.0,0.042442020028829575
13.0,0.04067235812544823
14.0,0.03900476545095444
15.0,0.037352945655584335
16.0,0.03578481450676918
18.0,0.03297558054327965
20.0,0.030301619321107864
22.0,0.027759920805692673
24.0,0.02548392303287983
26.0,0.023195704445242882
28.0,0.02105974592268467
30.0,0.019022822380065918
32.0,0.01711844839155674
36.0,0.013858146965503693
40.0,0.011101272888481617
44.0,0.008930783718824387
48.0,0.0071289073675870895
52.0,0.005255667492747307
56.0,0.0038114229682832956
60.0,0.002713905880227685
64.0,0.0016187176806852221
72.0,0.0004638467216864228
80.0,0.00021882570581510663
88.0,0.0009670300642028451
96.0,0.0014047794975340366
104.0,0.0026291077956557274
112.0,0.0034252218902111053
120.0,0.0037874053232371807
128.0,0.00416279723867774
144.0,0.004754369147121906
160.0,0.003971325233578682
176.0,0.002268466865643859
192.0,0.0028434237465262413
208.0,0.0030397498048841953
224.0,0.0023054254706948996
240.0,0.002510457532480359
256.0,0.001985051203519106
288.0,-0.000616386067122221
320.0,-0.0026418189518153667
352.0,-0.0022178790532052517
384.0,0.0012412559008225799
416.0,0.003978383261710405
448.0,0.0038178369868546724
480.0,0.0019171558087691665
512.0,-7.132665632525459e-05
576.0,0.0020069812890142202
640.0,0.002243837807327509
704.0,0.002309121424332261
768.0,-0.0011811692966148257
832.0,-0.0018608171958476305
896.0,-0.002816324820742011
960.0,-0.005627572536468506
1024.0,-0.0013228171737864614
1152.0,-0.0021102020982652903
1280.0,0.0023157962132245302
1408.0,-0.0019117516931146383
1536.0,-0.003814763855189085
1664.0,-0.0041921716183424
1792.0,-0.003148637944832444
1920.0,-0.0013504880480468273
2048.0,-0.005119625478982925
2304.0,-0.0031113051809370518
2560.0,-0.0014066103613004088
2816.0,0.00056956842308864
3072.0,0.0011804330861195922
3328.0,0.0022882039193063974
3584.0,0.0024281966034322977
3840.0,0.0026760101318359375
4096.0,0.004591906443238258
4608.0,0.00039972158265300095
5120.0,-0.0022330167703330517
5632.0,-0.0017856060294434428
6144.0,-0.00218153721652925
6656.0,0.0004880059277638793
7168.0,0.002456337446346879
7680.0,0.0012655722675845027
8192.0,0.002048029564321041
9216.0,-0.001498037134297192
10240.0,0.0002902585838455707
11264.0,0.0007457223837263882
12288.0,0.0007633592467755079
13312.0,-0.00035215006209909916
14336.0,-0.0010325004113838077
end
