version,3.0
numOfCh,1
type,point
parent_name,400-cuts
ch_type,1_1
kcount,1
numberNandB,1
brightnessNandB,1
carpet pos,0
pc,0
Time (ms),CH1 Auto-Correlation
1.0,0.030046474188566208
2.0,0.028762491419911385
3.0,0.02754042111337185
4.0,0.026376264169812202
5.0,0.02526220679283142
6.0,0.02423037216067314
7.0,0.023250635713338852
8.0,0.02232356183230877
9.0,0.021383849903941154
10.0,0.020550213754177094
11.0,0.01973467320203781
12.0,0.018941745162010193
13.0,0.018184108659625053
14.0,0.017481625080108643
15.0,0.016815895214676857
16.0,0.01617460325360298
18.0,0.014990575611591339
20.0,0.013847708702087402
22.0,0.01268558669835329
24.0,0.011558412574231625
26.0,0.010526847094297409
28.0,0.009521632455289364
30.0,0.008656243793666363
32.0,0.007857808843255043
36.0,0.006539625581353903
40.0,0.00534586887806654
44.0,0.004283290356397629
48.0,0.003096924629062414
52.0,0.00197270093485713
56.0,0.0011707802768796682
60.0,0.0005770923453383148
64.0,0.00022010412067174911
72.0,-0.0002999812422785908
80.0,-0.0006332998163998127
88.0,-0.0009867156622931361
96.0,-0.0008862516260705888
104.0,-0.0005806435947306454
112.0,-0.00020706348004750907
120.0,-0.00021265994291752577
128.0,-0.0006585819064639509
144.0,-0.00021098357683513314
160.0,-0.0003485896741040051
176.0,-0.0005569877102971077
192.0,-0.00011595612158998847
208.0,0.00022922675998415798
224.0,0.00022755605459678918
240.0,-0.0005410852609202266
256.0,2.3151775167207234e-05
288.0,-0.0002051897463388741
320.0,-0.0006260725785978138
352.0,-6.85952982166782e-05
384.0,0.0013290345668792725
416.0,0.0015888267662376165
448.0,0.0006930474773980677
480.0,0.00022692291531711817
512.0,-6.85361010255292e-05
576.0,-0.000638502708170563
640.0,-0.0007668593316338956
704.0,-2.229738856840413e-05
768.0,-0.0014720994513481855
832.0,-0.000754938751924783
896.0,-0.0009029489010572433
960.0,-0.00015315000200644135
1024.0,0.00048568411148153245
1152.0,-9.178451000479981e-05
1280.0,0.00021792524785269052
1408.0,0.0012507345527410507
1536.0,0.0015310562448576093
1664.0,0.00041758897714316845
1792.0,7.96517706476152e-05
1920.0,0.000483544310554862
2048.0,-0.0001515097974333912
2304.0,-0.00012572621926665306
2560.0,-0.000584422261454165
2816.0,0.00038179734838195145
3072.0,-0.00033989225630648434
3328.0,0.0005745636881329119
3584.0,-0.0005296996678225696
3840.0,-0.0005637194262817502
4096.0,-0.0001287513441639021
4608.0,-2.620581472001504e-05
5120.0,-0.00045297478209249675
5632.0,-0.0006480647716671228
6144.0,0.00029353666468523443
6656.0,-0.0004961814265698195
7168.0,-0.00022251074551604688
7680.0,0.0010844037169590592
8192.0,-5.782098742201924e-05
9216.0,0.00031626943382434547
10240.0,-0.0007739420398138463
11264.0,0.0004981376696377993
12288.0,-0.0008761162171140313
13312.0,-0.0007346895290538669
14336.0,-4.615431862475816e-06
end
