version,3.0
numOfCh,1
type,point
parent_name,400-cuts
ch_type,1_1
kcount,1
numberNandB,1
brightnessNandB,1
carpet pos,0
pc,0
Time (ms),CH1 Auto-Correlation
1.0,0.024752087891101837
2.0,0.023801812902092934
3.0,0.022912852466106415
4.0,0.022057505324482918
5.0,0.021230604499578476
6.0,0.02044113725423813
7.0,0.01967671699821949
8.0,0.018936749547719955
9.0,0.018241530284285545
10.0,0.01758250966668129
11.0,0.016939833760261536
12.0,0.01630394347012043
13.0,0.015686966478824615
14.0,0.015096671879291534
15.0,0.014531180262565613
16.0,0.013955924659967422
18.0,0.012966334819793701
20.0,0.012044874019920826
22.0,0.011233835481107235
24.0,0.010436699725687504
26.0,0.009667869657278061
28.0,0.0089383190497756
30.0,0.008249291218817234
32.0,0.007609535474330187
36.0,0.0065106418915092945
40.0,0.005658529698848724
44.0,0.00494356220588088
48.0,0.004198422655463219
52.0,0.0035227597691118717
56.0,0.0028394374530762434
60.0,0.0022341576404869556
64.0,0.0016708230832591653
72.0,0.0007084104581736028
80.0,0.00018411182099953294
88.0,0.00047179829562082887
96.0,0.0006797864916734397
104.0,0.0008114128140732646
112.0,0.0009317526128143072
120.0,0.0008435708004981279
128.0,0.0007675739470869303
144.0,0.0010308879427611828
160.0,0.0012344130082055926
176.0,0.0009463275200687349
192.0,0.0005491826450452209
208.0,-2.806728662108071e-05
224.0,-0.0006781822303310037
240.0,-6.587295501958579e-05
256.0,0.0007727413321845233
288.0,0.0005308922845870256
320.0,0.00012086113565601408
352.0,-0.0005781766958534718
384.0,-0.00013264389417599887
416.0,-0.0003003327874466777
448.0,-0.0010558159556239843
480.0,-0.0006681021768599749
512.0,-0.00021363557607401162
576.0,-0.0015381445409730077
640.0,-0.0016615460626780987
704.0,-0.00045319568016566336
768.0,-0.000444301898824051
832.0,-0.0007615208742208779
896.0,-0.0004546697891782969
960.0,0.0009559853351674974
1024.0,8.374619937967509e-06
1152.0,0.0006528178928419948
1280.0,-1.898437403724529e-05
1408.0,-0.0002481296833138913
1536.0,-0.0006674285978078842
1664.0,-0.0007818912272341549
1792.0,0.0006008670316077769
1920.0,0.00022486381931230426
2048.0,0.0005339403287507594
2304.0,-0.0001522133534308523
2560.0,-0.0016963811358436942
2816.0,-0.0004248260520398617
3072.0,0.001363027491606772
3328.0,0.000717140908818692
3584.0,0.0007196094957180321
3840.0,-0.0005520841223187745
4096.0,-0.00043730816105380654
4608.0,-6.296155788731994e-06
5120.0,-0.0007076318142935634
5632.0,-0.0001780397433321923
6144.0,-0.0006655848701484501
6656.0,0.0008220929303206503
7168.0,0.000788315141107887
7680.0,-0.0001691091456450522
8192.0,0.00038845959352329373
9216.0,-0.0006600839551538229
10240.0,0.0008648710208944976
11264.0,0.0007790155941620469
12288.0,-0.0014579930575564504
13312.0,0.000472437561256811
14336.0,0.00041127559961751103
end
