version,3.0
numOfCh,1
type,point
parent_name,400-cuts
ch_type,1_1
kcount,1
numberNandB,1
brightnessNandB,1
carpet pos,0
pc,0
Time (ms),CH1 Auto-Correlation
1.0,0.02085253968834877
2.0,0.01990184187889099
3.0,0.019018499180674553
4.0,0.01816702075302601
5.0,0.01734940893948078
6.0,0.016559548676013947
7.0,0.015810754150152206
8.0,0.015099121257662773
9.0,0.014429835602641106
10.0,0.0137738436460495
11.0,0.013143999502062798
12.0,0.012546401470899582
13.0,0.011971971951425076
14.0,0.011433715000748634
15.0,0.01089534629136324
16.0,0.010402968153357506
18.0,0.009483755566179752
20.0,0.008623630739748478
22.0,0.007877254858613014
24.0,0.007260090205818415
26.0,0.006678622681647539
28.0,0.006121152546256781
30.0,0.005606920924037695
32.0,0.005153871141374111
36.0,0.004353085998445749
40.0,0.0036776235792785883
44.0,0.00313371978700161
48.0,0.0027035775128751993
52.0,0.0023560021072626114
56.0,0.0021947259083390236
60.0,0.0021740621887147427
64.0,0.0021238247863948345
72.0,0.0019479971379041672
80.0,0.001777996076270938
88.0,0.00143265665974468
96.0,0.0012190646957606077
104.0,0.001194350770674646
112.0,0.0010933111188933253
120.0,0.000948968343436718
128.0,0.0007841319893486798
144.0,0.0007850174442864954
160.0,0.0004969468573108315
176.0,0.0008957600803114474
192.0,0.0012130890972912312
208.0,0.001056319335475564
224.0,0.0009184033842757344
240.0,0.0005712400889024138
256.0,0.0001242433936567977
288.0,-0.0006046806811355054
320.0,-0.0007920395582914352
352.0,-0.0008464331622235477
384.0,-0.0011120811104774475
416.0,-0.0012386650778353214
448.0,-0.001348785008303821
480.0,-0.0015106209320947528
512.0,-0.0010477508185431361
576.0,-0.0011398735223338008
640.0,-0.0001780566672096029
704.0,5.420147499535233e-05
768.0,0.0009910177905112505
832.0,0.00012740185775328428
896.0,0.0012663663364946842
960.0,0.0008195495465770364
1024.0,0.0009731328464113176
1152.0,-0.0002559903368819505
1280.0,-0.000709621119312942
1408.0,-0.0006221186486072838
1536.0,-0.0005323645891621709
1664.0,-0.00030845217406749725
1792.0,-2.7393512937123887e-05
1920.0,2.6542682007857366e-06
2048.0,-8.453180635115132e-05
2304.0,-0.00033726816764101386
2560.0,0.0005133839440532029
2816.0,-9.230803698301315e-05
3072.0,-2.334877717657946e-05
3328.0,-0.00018998874293174595
3584.0,-6.185538950376213e-05
3840.0,-0.0007394413696601987
4096.0,0.00010726560140028596
4608.0,5.788285852759145e-05
5120.0,6.9835914473515e-05
5632.0,1.1477262887638062e-05
6144.0,-0.0003900894953403622
6656.0,-8.135752432281151e-05
7168.0,-0.0004575707425829023
7680.0,0.00015571450057905167
8192.0,-0.00022411689860746264
9216.0,-0.0001661102141952142
10240.0,-0.00014874576299916953
11264.0,0.0005846865242347121
12288.0,-8.450861787423491e-05
13312.0,-0.0003496426506899297
14336.0,0.0007941300864331424
end
