version,3.0
numOfCh,1
type,point
parent_name,400-cuts
ch_type,1_1
kcount,1
numberNandB,1
brightnessNandB,1
carpet pos,0
pc,0
Time (ms),CH1 Auto-Correlation
1.0,0.022680897265672684
2.0,0.021730277687311172
3.0,0.020841019228100777
4.0,0.01998753286898136
5.0,0.01914449781179428
6.0,0.018334463238716125
7.0,0.017587963491678238
8.0,0.0168857891112566
9.0,0.01621149107813835
10.0,0.01555018313229084
11.0,0.014912559650838375
12.0,0.014293458312749863
13.0,0.013703234493732452
14.0,0.013153892941772938
15.0,0.012638198211789131
16.0,0.012158644385635853
18.0,0.011251469142735004
20.0,0.010388241149485111
22.0,0.009620166383683681
24.0,0.008926394395530224
26.0,0.008266424760222435
28.0,0.007649346254765987
30.0,0.007110193371772766
32.0,0.006642668042331934
36.0,0.005829617381095886
40.0,0.005111193750053644
44.0,0.004509471822530031
48.0,0.003858877345919609
52.0,0.0032942169345915318
56.0,0.002860104665160179
60.0,0.0024074811954051256
64.0,0.0019640070386230946
72.0,0.0012854717206209898
80.0,0.0010303431190550327
88.0,0.0005986947217024863
96.0,0.0003293889167252928
104.0,0.00019434408750385046
112.0,0.00015146058285608888
120.0,0.00011341933713993058
128.0,-0.00011620701116044074
144.0,-0.0005896532675251365
160.0,-0.0017644248437136412
176.0,-0.0023609166964888573
192.0,-0.001853270805440843
208.0,-0.0013032397255301476
224.0,-0.0008385451510548592
240.0,-0.0007134960615076125
256.0,-0.0005121688591316342
288.0,0.00012226238322909921
320.0,-0.000123994643217884
352.0,-0.00045821856474503875
384.0,-0.001043256837874651
416.0,-0.0013460931368172169
448.0,-0.0012332944897934794
480.0,-0.0006545607466250658
512.0,-0.0007647518650628626
576.0,-0.00045027444139122963
640.0,0.0006458753487095237
704.0,0.0014770017005503178
768.0,0.0009658301714807749
832.0,0.0006562782218679786
896.0,0.00014274701243266463
960.0,0.0007885684026405215
1024.0,-0.00045844647684134543
1152.0,0.00047867957619018853
1280.0,-0.0002102736762026325
1408.0,-0.0004897037288174033
1536.0,-0.00016431749099865556
1664.0,-0.00024310217122547328
1792.0,0.0001478289777878672
1920.0,0.00047673413064330816
2048.0,0.00025385318440385163
2304.0,-0.000679160060826689
2560.0,0.0004132556787226349
2816.0,0.0004202098061796278
3072.0,-0.00043832106166519225
3328.0,-0.0004053140291944146
3584.0,0.00012615486048161983
3840.0,0.0005326197133399546
4096.0,-0.00032116283546201885
4608.0,-1.4585190001525916e-05
5120.0,-0.00021563193877227604
5632.0,-0.0002347711124457419
6144.0,-4.558095315587707e-05
6656.0,0.00012289518781471997
7168.0,-0.00042390264570713043
7680.0,-0.0005888131563551724
8192.0,-0.0006025962647981942
9216.0,-7.08785155438818e-05
10240.0,0.00025079798069782555
11264.0,-7.509395072702318e-05
12288.0,-0.00018768521840684116
13312.0,0.0005174233228899539
14336.0,0.0003871083608828485
end
