version,3.0
numOfCh,1
type,point
parent_name,400-cuts
ch_type,1_1
kcount,1
numberNandB,1
brightnessNandB,1
carpet pos,0
pc,0
Time (ms),CH1 Auto-Correlation
1.0,0.03217519447207451
2.0,0.030766692012548447
3.0,0.029447991400957108
4.0,0.02818203717470169
5.0,0.026978688314557076
6.0,0.025839636102318764
7.0,0.024746838957071304
8.0,0.023672103881835938
9.0,0.022701265290379524
10.0,0.021762361750006676
11.0,0.020870277658104897
12.0,0.020044444128870964
13.0,0.01925129070878029
14.0,0.01848149485886097
15.0,0.017753982916474342
16.0,0.01705719716846943
18.0,0.015772582963109016
20.0,0.014598807319998741
22.0,0.013500018045306206
24.0,0.012456572614610195
26.0,0.011476941406726837
28.0,0.010621551424264908
30.0,0.009878939017653465
32.0,0.009294237941503525
36.0,0.00837935134768486
40.0,0.007555341348052025
44.0,0.0065854196436703205
48.0,0.005617856048047543
52.0,0.004860902205109596
56.0,0.004338775295764208
60.0,0.0039091696962714195
64.0,0.0034894391428679228
72.0,0.002970537869259715
80.0,0.0025963035877794027
88.0,0.0022001429460942745
96.0,0.001551415421999991
104.0,0.0009140734327957034
112.0,0.0007288769702427089
120.0,0.0008405141998082399
128.0,0.0008452569018118083
144.0,0.0007392072584480047
160.0,0.0019462484633550048
176.0,0.0017460859380662441
192.0,0.0005440328968688846
208.0,0.00027596435393206775
224.0,-0.0006911532836966217
240.0,-0.0008323274087160826
256.0,-0.00025684473803266883
288.0,-0.0004895060556009412
320.0,-0.001352149760350585
352.0,-0.0014395853504538536
384.0,-0.0005660966271534562
416.0,-0.0016091007273644209
448.0,-0.0016066203825175762
480.0,5.504101500264369e-05
512.0,-0.0004048229893669486
576.0,-6.3056586441234685e-06
640.0,0.00048644302296452224
704.0,0.001880559721030295
768.0,-0.0003326809674035758
832.0,0.0007001531193964183
896.0,2.6917143259197474e-05
960.0,-0.0022678368259221315
1024.0,-0.0022717865649610758
1152.0,-0.0017609231872484088
1280.0,0.0007028752006590366
1408.0,0.0008744685910642147
1536.0,-0.0008466762956231833
1664.0,-0.0014714478747919202
1792.0,0.0003217948542442173
1920.0,0.0006560223991982639
2048.0,-0.00010745289910119027
2304.0,-0.00037355170934461057
2560.0,-0.00010221634875051677
2816.0,0.0009288837318308651
3072.0,0.000599386403337121
3328.0,0.00042362857493571937
3584.0,-0.0006671010050922632
3840.0,-0.00011637879651971161
4096.0,-0.0027433359064161777
4608.0,0.00015959217853378505
5120.0,0.0012298792134970427
5632.0,0.000837380881421268
6144.0,-0.00025959755294024944
6656.0,-0.00045188001240603626
7168.0,3.946743890992366e-05
7680.0,-0.00015335586795117706
8192.0,-0.0002628299407660961
9216.0,-0.0004195530491415411
10240.0,-0.00013750046491622925
11264.0,2.036825753748417e-05
12288.0,0.00021556427236646414
13312.0,-0.0005817204946652055
14336.0,5.2855608373647556e-05
end
