version,3.0
numOfCh,1
type,point
parent_name,400-cuts
ch_type,1_1
kcount,1
numberNandB,1
brightnessNandB,1
carpet pos,0
pc,0
Time (ms),CH1 Auto-Correlation
1.0,0.021315861493349075
2.0,0.020460212603211403
3.0,0.01964401826262474
4.0,0.018850794062018394
5.0,0.018088027834892273
6.0,0.017350098118185997
7.0,0.016619104892015457
8.0,0.015924179926514626
9.0,0.015264716930687428
10.0,0.014613193459808826
11.0,0.013989639468491077
12.0,0.01340432371944189
13.0,0.012862525880336761
14.0,0.012341388501226902
15.0,0.011828559450805187
16.0,0.011327089741826057
18.0,0.010414094664156437
20.0,0.00957964826375246
22.0,0.00879420805722475
24.0,0.008134105242788792
26.0,0.007523342035710812
28.0,0.006915610749274492
30.0,0.006388327106833458
32.0,0.005911072250455618
36.0,0.0050532701425254345
40.0,0.00426049018278718
44.0,0.0035592045169323683
48.0,0.0030572647228837013
52.0,0.0027488581836223602
56.0,0.0025038078892976046
60.0,0.002214142121374607
64.0,0.0018024472519755363
72.0,0.0010991786839440465
80.0,0.0004957498167641461
88.0,-7.9961828305386e-06
96.0,-0.0001678371336311102
104.0,-0.00034668672014959157
112.0,-0.0007471282151527703
120.0,-0.0007041778299026191
128.0,-0.0005969773628748953
144.0,-0.00032377694151364267
160.0,-0.0008936732192523777
176.0,-0.0014268397353589535
192.0,-0.0009524408378638327
208.0,-0.0007996619096957147
224.0,-0.0009605343220755458
240.0,-0.000380213517928496
256.0,0.0002939725818578154
288.0,0.0003395739768166095
320.0,9.704582771519199e-05
352.0,0.0004759283037856221
384.0,0.000391052890336141
416.0,6.556520384037867e-05
448.0,6.189572741277516e-05
480.0,0.00012923193571623415
512.0,0.00015488985809497535
576.0,1.8040007489616983e-05
640.0,-0.00015371100744232535
704.0,1.3959849638922606e-05
768.0,-3.055018896702677e-05
832.0,0.0006388446781784296
896.0,-9.52422633417882e-05
960.0,-0.0014380408683791757
1024.0,-0.001020638970658183
1152.0,-0.00027441902784630656
1280.0,0.00020039700029883534
1408.0,-5.2226394473109394e-05
1536.0,0.00014949626347515732
1664.0,0.0005552140646614134
1792.0,2.257219193779747e-06
1920.0,0.00019635127682704479
2048.0,0.0005412172176875174
2304.0,-0.00012225074169691652
2560.0,-0.0009596123709343374
2816.0,-0.00011083594290539622
3072.0,-0.000725659541785717
3328.0,7.331881352001801e-05
3584.0,0.0006833701627328992
3840.0,9.342213161289692e-05
4096.0,-0.00028587589622475207
4608.0,7.163398549892008e-05
5120.0,0.00028989394195377827
5632.0,0.0005410140147432685
6144.0,-0.00023942170082591474
6656.0,0.00011075427755713463
7168.0,-0.00017656745330896229
7680.0,-0.0006014383397996426
8192.0,-0.00020824185048695654
9216.0,-5.475797661347315e-05
10240.0,0.00014268366794567555
11264.0,-2.6737283405964263e-05
12288.0,-0.000718342256732285
13312.0,0.00014791297144256532
14336.0,6.002096051815897e-05
end
