version,3.0
numOfCh,1
type,point
parent_name,400-cuts
ch_type,1_1
kcount,1
numberNandB,1
brightnessNandB,1
carpet pos,0
pc,0
Time (ms),CH1 Auto-Correlation
1.0,0.0670379102230072
2.0,0.06431630253791809
3.0,0.06176550313830376
4.0,0.05929359421133995
5.0,0.056917376816272736
6.0,0.05464773625135422
7.0,0.05246061831712723
8.0,0.050401944667100906
9.0,0.048440780490636826
10.0,0.04654809832572937
11.0,0.04485893249511719
12.0,0.04325835779309273
13.0,0.04183843731880188
14.0,0.04042522609233856
15.0,0.03906247764825821
16.0,0.03777888044714928
18.0,0.03525993973016739
20.0,0.03272431716322899
22.0,0.03055684268474579
24.0,0.028569165617227554
26.0,0.02664683200418949
28.0,0.024824827909469604
30.0,0.023175565525889397
32.0,0.02148261107504368
36.0,0.018493283540010452
40.0,0.015542551875114441
44.0,0.01324255671352148
48.0,0.011168492957949638
52.0,0.00929233804345131
56.0,0.00782792642712593
60.0,0.00663122721016407
64.0,0.005604812875390053
72.0,0.00444439984858036
80.0,0.0029591999482363462
88.0,0.0023731885012239218
96.0,0.001742427353747189
104.0,0.0011041488032788038
112.0,0.0003454727411735803
120.0,0.0005090368795208633
128.0,0.00103545724414289
144.0,0.0016000657342374325
160.0,0.0005194299155846238
176.0,-0.0013179222587496042
192.0,-0.00200770515948534
208.0,-0.0006650289287790656
224.0,-0.0005570555804297328
240.0,-0.00012345437426120043
256.0,0.0005337766488082707
288.0,-0.0008021245012059808
320.0,-0.0025306479074060917
352.0,0.00022599345538765192
384.0,0.00078880216460675
416.0,-0.0009875040268525481
448.0,-0.0028901200275868177
480.0,-0.002287031849846244
512.0,-0.00082797696813941
576.0,-0.0010489651467651129
640.0,0.0009557990706525743
704.0,5.330843123374507e-05
768.0,0.0015129243256524205
832.0,0.0024666660465300083
896.0,0.00082127790665254
960.0,0.0011528520844876766
1024.0,-0.00037921927287243307
1152.0,-0.00035657768603414297
1280.0,-0.0005297394818626344
1408.0,0.0008817947236821055
1536.0,-0.0008319516782648861
1664.0,-0.00037635237094946206
1792.0,-0.006107815541327
1920.0,-0.00424747122451663
2048.0,-0.0035955379717051983
2304.0,-0.0016715428791940212
2560.0,-0.0010450674453750253
2816.0,-0.0024698437191545963
3072.0,-0.00037221444654278457
3328.0,-0.0005047294544056058
3584.0,0.0005245534121058881
3840.0,0.0024790274910628796
4096.0,0.0018364733550697565
4608.0,0.002273727208375931
5120.0,-0.0010100551880896091
5632.0,0.001118569285608828
6144.0,-0.0020850342698395252
6656.0,-0.0007883640937507153
7168.0,-0.0008469161111861467
7680.0,3.178430051775649e-05
8192.0,-0.0005313943256624043
9216.0,0.002107159700244665
10240.0,-3.3291344152530655e-05
11264.0,-0.0015914392424747348
12288.0,-0.0005856333882547915
13312.0,0.0005192502285353839
14336.0,0.0018909286009147763
end
