version,3.0
numOfCh,1
type,point
parent_name,400-cuts
ch_type,1_1
kcount,1
numberNandB,1
brightnessNandB,1
carpet pos,0
pc,0
Time (ms),CH1 Auto-Correlation
1.0,0.02043289504945278
2.0,0.019522370770573616
3.0,0.018671268597245216
4.0,0.01785518415272236
5.0,0.017076708376407623
6.0,0.01632385328412056
7.0,0.015602475963532925
8.0,0.014916294254362583
9.0,0.014258962124586105
10.0,0.013612877577543259
11.0,0.013005876913666725
12.0,0.012459502555429935
13.0,0.01193682849407196
14.0,0.011426955461502075
15.0,0.010951557196676731
16.0,0.01048598624765873
18.0,0.009592232294380665
20.0,0.008801780641078949
22.0,0.008110882714390755
24.0,0.007483153138309717
26.0,0.006835485342890024
28.0,0.006235150620341301
30.0,0.005693595856428146
32.0,0.005208731163293123
36.0,0.004408599343150854
40.0,0.0037318153772503138
44.0,0.0030881057027727365
48.0,0.002577646868303418
52.0,0.0022345776669681072
56.0,0.0020509015303105116
60.0,0.001962898299098015
64.0,0.0019608901347965
72.0,0.0018924728501588106
80.0,0.0014907734002918005
88.0,0.0008657877333462238
96.0,0.000569410971365869
104.0,0.0005777804763056338
112.0,0.000574875099118799
120.0,0.00034326722379773855
128.0,-7.515727338613942e-05
144.0,-0.0008546135504730046
160.0,-0.0013526860857382417
176.0,-0.0015651991125196218
192.0,-0.0017344738589599729
208.0,-0.0015652788570150733
224.0,-0.0016350820660591125
240.0,-0.0018056104891002178
256.0,-0.0021057147532701492
288.0,-0.0009663936216384172
320.0,0.00020247070642653853
352.0,5.93609111092519e-05
384.0,-0.0005008910084143281
416.0,-0.0007560067460872233
448.0,-0.0008636455168016255
480.0,-0.0005998109118081629
512.0,-0.0004991761525161564
576.0,0.00018349925812799484
640.0,-9.548910747980699e-05
704.0,0.00013621643302030861
768.0,0.0008049568277783692
832.0,0.0006143272039480507
896.0,0.0010853871935978532
960.0,0.0003608891274780035
1024.0,-2.712315290409606e-05
1152.0,-0.0005695471190847456
1280.0,-0.0001957511412911117
1408.0,-0.0005915925139561296
1536.0,-0.00037747868918813765
1664.0,-0.0002732163993641734
1792.0,-0.000954791612457484
1920.0,-0.0002443279081489891
2048.0,-0.00016846272046677768
2304.0,3.1523071811534464e-05
2560.0,-0.0008902077097445726
2816.0,0.0004067844129167497
3072.0,0.0002040097606368363
3328.0,0.00035697704879567027
3584.0,1.8242628357256763e-05
3840.0,6.734542694175616e-05
4096.0,0.0007313715759664774
4608.0,-5.618802606477402e-05
5120.0,-0.00010166955325985327
5632.0,-0.0005387273849919438
6144.0,-0.0002662004844751209
6656.0,0.0001553727634018287
7168.0,0.00030104859615676105
7680.0,0.00028028953238390386
8192.0,4.646986781153828e-05
9216.0,-4.2830277379835024e-05
10240.0,-0.00030558608705177903
11264.0,0.00015791461919434369
12288.0,4.4976797653362155e-05
13312.0,5.3722695156466216e-05
14336.0,-0.00014120782725512981
end
