version,3.0
numOfCh,1
type,point
parent_name,400-cuts
ch_type,1_1
kcount,1
numberNandB,1
brightnessNandB,1
carpet pos,0
pc,0
Time (ms),CH1 Auto-Correlation
1.0,0.02198289893567562
2.0,0.021025294438004494
3.0,0.02009763941168785
4.0,0.01922263577580452
5.0,0.018379347398877144
6.0,0.017570456489920616
7.0,0.016812419518828392
8.0,0.0160977840423584
9.0,0.015410787425935268
10.0,0.014760549180209637
11.0,0.014153611846268177
12.0,0.013544637709856033
13.0,0.012954276986420155
14.0,0.012404325418174267
15.0,0.011864561587572098
16.0,0.011371473781764507
18.0,0.010366888716816902
20.0,0.009416055865585804
22.0,0.008578017354011536
24.0,0.007852666079998016
26.0,0.0072182235307991505
28.0,0.006669974885880947
30.0,0.006162549834698439
32.0,0.0056756664998829365
36.0,0.004859213717281818
40.0,0.004171517211943865
44.0,0.0035401538480073214
48.0,0.0029808494728058577
52.0,0.002475196495652199
56.0,0.002020376967266202
60.0,0.001621863804757595
64.0,0.0013735216343775392
72.0,0.0009449709905311465
80.0,0.00012322913971729577
88.0,-0.000828492920845747
96.0,-0.001307020545937121
104.0,-0.0016129831783473492
112.0,-0.0017828536219894886
120.0,-0.0016444792272523046
128.0,-0.001275928458198905
144.0,-0.0007993897888809443
160.0,-0.0006341847474686801
176.0,-0.00047298596473410726
192.0,-0.00015495689876843244
208.0,-3.5560853575589135e-05
224.0,-0.0004974897601641715
240.0,-0.0004085251421201974
256.0,-5.230887109064497e-05
288.0,0.0009304890991188586
320.0,0.0005995154497213662
352.0,-2.04468124138657e-05
384.0,-0.00029688799986615777
416.0,0.0005806333501823246
448.0,0.0005964149604551494
480.0,0.00041764762136153877
512.0,-5.62887653359212e-05
576.0,-0.0006115994183346629
640.0,-5.9548965509748086e-05
704.0,-0.0006423837039619684
768.0,-0.0012378690298646688
832.0,-0.0010625321883708239
896.0,-0.0013871770352125168
960.0,0.0008979141130112112
1024.0,0.0012005397584289312
1152.0,-0.00042613112600520253
1280.0,-0.0003444739559199661
1408.0,0.0006330878823064268
1536.0,4.5603312173625454e-05
1664.0,0.0005024973070248961
1792.0,-0.0005330927087925375
1920.0,6.064725312171504e-05
2048.0,4.680067650042474e-05
2304.0,-0.0008584324968978763
2560.0,0.0004447029496077448
2816.0,0.00019992208399344236
3072.0,0.000498369918204844
3328.0,-0.0007932220469228923
3584.0,0.0001249225897481665
3840.0,-0.0008045113645493984
4096.0,-0.0003657913766801357
4608.0,0.0008362683583982289
5120.0,-0.00032881874358281493
5632.0,0.00040000639273785055
6144.0,-0.0003173725272063166
6656.0,-0.001047293539159
7168.0,0.0004234419611748308
7680.0,0.00026465533301234245
8192.0,-3.6817596992477775e-05
9216.0,-5.389079888118431e-05
10240.0,0.00015432173677254468
11264.0,-0.0001524228573543951
12288.0,-5.487641101353802e-05
13312.0,0.0003770317416638136
14336.0,-0.0001567269500810653
end
