version,3.0
numOfCh,1
type,point
parent_name,400-cuts
ch_type,1_1
kcount,1
numberNandB,1
brightnessNandB,1
carpet pos,0
pc,0
Time (ms),CH1 Auto-Correlation
1.0,0.03445380553603172
2.0,0.033052146434783936
3.0,0.031712137162685394
4.0,0.030386775732040405
5.0,0.02916540391743183
6.0,0.027990294620394707
7.0,0.026838600635528564
8.0,0.025767682120203972
9.0,0.024727195501327515
10.0,0.02371501363813877
11.0,0.022749315947294235
12.0,0.021834786981344223
13.0,0.021012812852859497
14.0,0.020219378173351288
15.0,0.019421126693487167
16.0,0.01865372620522976
18.0,0.01714721880853176
20.0,0.015824437141418457
22.0,0.014699481427669525
24.0,0.013628074899315834
26.0,0.012628071010112762
28.0,0.01167314313352108
30.0,0.01083735004067421
32.0,0.01005797553807497
36.0,0.008628490380942822
40.0,0.007342235185205936
44.0,0.006181166507303715
48.0,0.005121027119457722
52.0,0.004077734425663948
56.0,0.003135686507448554
60.0,0.0024118423461914062
64.0,0.001921993913128972
72.0,0.0015181954950094223
80.0,0.001559615833684802
88.0,0.0011115368688479066
96.0,0.0008199721924029291
104.0,0.0009534063865430653
112.0,0.0011875694617629051
120.0,0.001125456066802144
128.0,0.0005659944145008922
144.0,-0.00037476056604646146
160.0,-0.00044183104182593524
176.0,8.94653785508126e-05
192.0,0.0005087227327749133
208.0,0.000346929271472618
224.0,0.0003951948892790824
240.0,-0.00010568001744104549
256.0,-9.560387843521312e-05
288.0,-0.000502138864248991
320.0,-0.0020255332347005606
352.0,-0.0039113108068704605
384.0,-0.0032815744634717703
416.0,-0.0006449285428971052
448.0,-0.0006413439987227321
480.0,0.0010719327256083488
512.0,0.0009804427390918136
576.0,-0.0011348838452249765
640.0,-0.00011790619464591146
704.0,0.001316309324465692
768.0,0.001187958288937807
832.0,0.0008747033425606787
896.0,-6.739523087162524e-05
960.0,0.0005584866157732904
1024.0,-0.00019547832198441029
1152.0,0.0014849395956844091
1280.0,0.001983700320124626
1408.0,-0.0012973574921488762
1536.0,-0.000584333436563611
1664.0,0.00010734042007243261
1792.0,0.0014769164845347404
1920.0,0.0002774324093479663
2048.0,-0.0006055806879885495
2304.0,-0.00036480952985584736
2560.0,0.0013494222657755017
2816.0,-0.0013231512857601047
3072.0,-0.00060418521752581
3328.0,0.00019130774307996035
3584.0,0.0008079931139945984
3840.0,-0.0011430210433900356
4096.0,-0.00014389869465958327
4608.0,0.0002183773322030902
5120.0,-0.0007402438786812127
5632.0,-0.00045466781011782587
6144.0,0.00011339130287524313
6656.0,0.00032758116140030324
7168.0,0.00026864599203690886
7680.0,-0.0005722019704990089
8192.0,0.00025048269890248775
9216.0,7.220953557407483e-05
10240.0,-0.0011072201887145638
11264.0,0.00018234719755128026
12288.0,-0.00081414490705356
13312.0,0.0006964407511986792
14336.0,0.0013330265646800399
end
