version,3.0
numOfCh,1
type,point
parent_name,400-cuts
ch_type,1_1
kcount,1
numberNandB,1
brightnessNandB,1
carpet pos,0
pc,0
Time (ms),CH1 Auto-Correlation
1.0,0.028338966891169548
2.0,0.027077874168753624
3.0,0.025905843824148178
4.0,0.024798603728413582
5.0,0.023721996694803238
6.0,0.022670598700642586
7.0,0.02166476473212242
8.0,0.020730311051011086
9.0,0.019801879301667213
10.0,0.018896013498306274
11.0,0.018035095185041428
12.0,0.01725204661488533
13.0,0.016496174037456512
14.0,0.01577155292034149
15.0,0.015095807611942291
16.0,0.014454756863415241
18.0,0.013236353173851967
20.0,0.012158799916505814
22.0,0.011131624691188335
24.0,0.010196072980761528
26.0,0.009397684596478939
28.0,0.00868133082985878
30.0,0.00802819337695837
32.0,0.00745509285479784
36.0,0.006450849585235119
40.0,0.005677805282175541
44.0,0.005108201876282692
48.0,0.004587674513459206
52.0,0.004096454009413719
56.0,0.003568333573639393
60.0,0.003022335469722748
64.0,0.0024583195336163044
72.0,0.0016818910371512175
80.0,0.0010877408785745502
88.0,0.0010294596431776881
96.0,0.0011847135610878468
104.0,0.0012780794641003013
112.0,0.0014454751508310437
120.0,0.0012798542156815529
128.0,0.0007636281661689281
144.0,0.0002907030866481364
160.0,-3.826359534286894e-05
176.0,-0.0004289749194867909
192.0,0.000202008945052512
208.0,0.0001471582509111613
224.0,-0.0011798394843935966
240.0,-0.0010589610319584608
256.0,-0.000569401599932462
288.0,-0.0005365806282497942
320.0,-0.0011204160982742906
352.0,-0.0011261735344305634
384.0,0.00037813110975548625
416.0,0.0008429358713328838
448.0,0.00018879384151659906
480.0,0.0006545166252180934
512.0,-0.0008670888491906226
576.0,0.00024614366702735424
640.0,-0.0006966565269976854
704.0,-0.001782753854058683
768.0,0.0014632316306233406
832.0,0.000627788424026221
896.0,0.000633300980553031
960.0,0.0019260189728811383
1024.0,0.0009246815461665392
1152.0,-0.0003070171514991671
1280.0,-0.0009461311856284738
1408.0,-0.00142362667247653
1536.0,-0.0012905994663015008
1664.0,-0.0011074712965637445
1792.0,0.000691814988385886
1920.0,0.0009362432174384594
2048.0,-0.0002377562632318586
2304.0,0.0006432135123759508
2560.0,-0.0009333304478786886
2816.0,-5.432834223029204e-05
3072.0,0.0001809333625715226
3328.0,-0.0014447361463680863
3584.0,-0.000613367767073214
3840.0,-0.00039631189429201186
4096.0,0.0009679387439973652
4608.0,0.00018433030345477164
5120.0,-0.00020177634723950177
5632.0,-0.0005653394619002938
6144.0,-0.00013795087579637766
6656.0,0.0001461590436520055
7168.0,-0.0002668405941221863
7680.0,-0.0005971404607407749
8192.0,6.557482265634462e-05
9216.0,0.0007886175881139934
10240.0,-0.0003092150145675987
11264.0,6.754974310752004e-05
12288.0,-0.0006602417561225593
13312.0,0.00041539245285093784
14336.0,-0.00019516835163813084
end
