version,3.0
numOfCh,1
type,point
parent_name,400-cuts
ch_type,1_1
kcount,1
numberNandB,1
brightnessNandB,1
carpet pos,0
pc,0
Time (ms),CH1 Auto-Correlation
1.0,0.03614266589283943
2.0,0.03477982059121132
3.0,0.033483076840639114
4.0,0.03221655637025833
5.0,0.030978238210082054
6.0,0.0298229418694973
7.0,0.028736399486660957
8.0,0.02769259177148342
9.0,0.026710325852036476
10.0,0.02574124187231064
11.0,0.024802587926387787
12.0,0.023900192230939865
13.0,0.023022903129458427
14.0,0.022170329466462135
15.0,0.021346505731344223
16.0,0.02056671306490898
18.0,0.019153516739606857
20.0,0.017897678539156914
22.0,0.016702793538570404
24.0,0.015502800233662128
26.0,0.014337800443172455
28.0,0.013234604150056839
30.0,0.012209608219563961
32.0,0.01122338604182005
36.0,0.009388980455696583
40.0,0.007716898340731859
44.0,0.006289604585617781
48.0,0.005063895136117935
52.0,0.004059909377247095
56.0,0.0031582596711814404
60.0,0.002308957977220416
64.0,0.0016496554017066956
72.0,0.0010662497952580452
80.0,0.0009122685878537595
88.0,0.0009566828957758844
96.0,0.0009219736093655229
104.0,0.000887516129296273
112.0,0.0009605101076886058
120.0,0.0008613656973466277
128.0,0.0008627989445813
144.0,0.0010731146903708577
160.0,0.0013328514760360122
176.0,0.002050834707915783
192.0,0.002827325137332082
208.0,0.0032942218240350485
224.0,0.003397253341972828
240.0,0.0019935753662139177
256.0,0.00027197785675525665
288.0,-0.0006151693523861468
320.0,-0.00034601069637574255
352.0,0.0006173203000798821
384.0,0.00025558355264365673
416.0,-0.00025876506697386503
448.0,0.0001923553500091657
480.0,-0.0016791714588180184
512.0,-0.001003035344183445
576.0,-0.0006665663095191121
640.0,2.381047306698747e-05
704.0,-0.00032984503195621073
768.0,-0.0004584532871376723
832.0,-0.0012958839070051908
896.0,0.0019868111703544855
960.0,-0.000805817311629653
1024.0,-0.000881982734426856
1152.0,-0.0002504013536963612
1280.0,0.000514844199642539
1408.0,-0.000666724459733814
1536.0,0.0003238077915739268
1664.0,0.002016374608501792
1792.0,0.0006460159202106297
1920.0,-2.5460230972385034e-05
2048.0,-0.0018422255525365472
2304.0,0.00026736632571555674
2560.0,-0.00025451474357396364
2816.0,0.0005400783848017454
3072.0,-0.00024244400265160948
3328.0,-0.0010013867868110538
3584.0,0.00051084253937006
3840.0,-0.0007417640299536288
4096.0,-4.031154458061792e-05
4608.0,0.0011738991597667336
5120.0,-0.0008971774950623512
5632.0,-9.053036592376884e-06
6144.0,0.00041345832869410515
6656.0,-0.0008262619958259165
7168.0,-0.0005717503372579813
7680.0,-0.002351779257878661
8192.0,0.0010471605928614736
9216.0,-0.00010554327309364453
10240.0,-0.0006831320351921022
11264.0,-6.0018617659807205e-05
12288.0,-0.0014173623640090227
13312.0,0.00046224205289036036
14336.0,0.0009041662560775876
end
