version,3.0
numOfCh,1
type,point
parent_name,400-cuts
ch_type,1_1
kcount,1
numberNandB,1
brightnessNandB,1
carpet pos,0
pc,0
Time (ms),CH1 Auto-Correlation
1.0,0.027134843170642853
2.0,0.025914868339896202
3.0,0.024734992533922195
4.0,0.02364266850054264
5.0,0.022603483870625496
6.0,0.021615436300635338
7.0,0.020674608647823334
8.0,0.019769370555877686
9.0,0.018945418298244476
10.0,0.018158504739403725
11.0,0.01744266413152218
12.0,0.01676582545042038
13.0,0.01614997535943985
14.0,0.015596858225762844
15.0,0.015051915310323238
16.0,0.014536010101437569
18.0,0.013560223393142223
20.0,0.012704103253781796
22.0,0.011895653791725636
24.0,0.011127469129860401
26.0,0.010391739197075367
28.0,0.009683143347501755
30.0,0.009010917507112026
32.0,0.008405828848481178
36.0,0.007239707745611668
40.0,0.006246470380574465
44.0,0.005426359828561544
48.0,0.004655332770198584
52.0,0.004066910594701767
56.0,0.0035827450919896364
60.0,0.003079195972532034
64.0,0.0026924172416329384
72.0,0.0021415655501186848
80.0,0.0014169509522616863
88.0,0.0007921425276435912
96.0,0.00024046777980402112
104.0,-0.00012261289521120489
112.0,1.2990687537239864e-05
120.0,-8.474440255668014e-05
128.0,-0.0002888161106966436
144.0,-0.0008687408408150077
160.0,-0.0016384930349886417
176.0,-0.0013131768209859729
192.0,-0.00032534313504584134
208.0,0.0003291094326414168
224.0,-0.00013584844418801367
240.0,-0.00044315506238490343
256.0,-0.0006729196175001562
288.0,-0.0008221071329899132
320.0,-0.0012126404326409101
352.0,-0.000683070975355804
384.0,0.0004980872618034482
416.0,-0.0003602149663493037
448.0,7.621989789186046e-05
480.0,-0.00022335609537549317
512.0,0.0006787784514017403
576.0,0.0011660485761240125
640.0,0.0007131914026103914
704.0,-0.0005358388880267739
768.0,-0.0019199092639610171
832.0,-0.002221626229584217
896.0,-0.0007141238893382251
960.0,0.0020213513635098934
1024.0,0.0013533633900806308
1152.0,-0.0005649551749229431
1280.0,-0.00048759463243186474
1408.0,-0.0011754054576158524
1536.0,0.0008168077329173684
1664.0,0.0016512053553014994
1792.0,0.0011506503215059638
1920.0,0.00062655343208462
2048.0,-0.0005444751586765051
2304.0,-0.0007987713906913996
2560.0,-0.0003277836658526212
2816.0,-8.963436994235963e-05
3072.0,0.0007711806683801115
3328.0,-4.494092718232423e-05
3584.0,-8.644691115478054e-05
3840.0,-0.0008330299751833081
4096.0,-0.00025099251070059836
4608.0,4.3364023440517485e-05
5120.0,-0.00012463831808418036
5632.0,-0.0008795679314061999
6144.0,0.0006008273339830339
6656.0,-0.0007903148070909083
7168.0,-0.0005912507767789066
7680.0,0.00033149850787594914
8192.0,-0.00032055110204964876
9216.0,0.0004274839593563229
10240.0,-2.2989517674432136e-05
11264.0,0.0002912556810770184
12288.0,-0.0001659283589106053
13312.0,-9.912583482218906e-05
14336.0,0.00026020139921456575
end
