version,3.0
numOfCh,1
type,point
parent_name,400-cuts
ch_type,1_1
kcount,1
numberNandB,1
brightnessNandB,1
carpet pos,0
pc,0
Time (ms),CH1 Auto-Correlation
1.0,0.05688009038567543
2.0,0.05416623875498772
3.0,0.05156989023089409
4.0,0.0492032952606678
5.0,0.047005631029605865
6.0,0.044896449893713
7.0,0.04290836676955223
8.0,0.04101508483290672
9.0,0.03921952098608017
10.0,0.037533000111579895
11.0,0.03591284155845642
12.0,0.034408263862133026
13.0,0.03297904506325722
14.0,0.03173264488577843
15.0,0.03046172298491001
16.0,0.029265129938721657
18.0,0.026869304478168488
20.0,0.024496564641594887
22.0,0.02238038182258606
24.0,0.020301157608628273
26.0,0.018426157534122467
28.0,0.016869980841875076
30.0,0.015352500602602959
32.0,0.01395982876420021
36.0,0.0115398820489645
40.0,0.00992831215262413
44.0,0.008857091888785362
48.0,0.007420436479151249
52.0,0.006045586429536343
56.0,0.0053067561239004135
60.0,0.0045690699480473995
64.0,0.00371019309386611
72.0,0.0015837731771171093
80.0,0.000698618998285383
88.0,0.00031996730831451714
96.0,-5.439728920464404e-05
104.0,-6.422201840905473e-05
112.0,0.0003339482645969838
120.0,0.0009000427089631557
128.0,0.001455525285564363
144.0,0.0023209794890135527
160.0,0.0034077351447194815
176.0,0.0025593347381800413
192.0,0.00141187256667763
208.0,0.0011905189603567123
224.0,0.002071745228022337
240.0,0.0018580815522000194
256.0,0.001451034564524889
288.0,0.0004666573368012905
320.0,0.00023428750864695758
352.0,0.002041752217337489
384.0,0.0022167200222611427
416.0,-5.025793507229537e-05
448.0,0.0008277076412923634
480.0,0.0010695339879021049
512.0,0.0003736424259841442
576.0,-0.001044070115312934
640.0,0.00039742718217894435
704.0,0.0018974334234371781
768.0,-0.0020816060714423656
832.0,-0.0004186300211586058
896.0,-0.0008811012376099825
960.0,0.00044635581434704363
1024.0,-0.0019333170494064689
1152.0,-0.0016309777274727821
1280.0,0.0011039342498406768
1408.0,0.0001723115419736132
1536.0,0.0015143173513934016
1664.0,-0.0009754968923516572
1792.0,0.0001273468224098906
1920.0,-0.00039482073043473065
2048.0,0.001378079759888351
2304.0,-0.0006001446745358407
2560.0,-0.0009236156474798918
2816.0,0.0016977164195850492
3072.0,-0.00011404557153582573
3328.0,-0.001196203171275556
3584.0,0.0009761058026924729
3840.0,0.0021269682329148054
4096.0,0.0005843149847351015
4608.0,-0.00011921981786144897
5120.0,5.0724493121379055e-06
5632.0,0.0010997209465131164
6144.0,0.0001235277159139514
6656.0,0.0007106677512638271
7168.0,-0.0010542366653680801
7680.0,0.0013991487212479115
8192.0,-0.001964827300980687
9216.0,-0.0012008174089714885
10240.0,-0.0003160001942887902
11264.0,-0.0016768128843978047
12288.0,-0.0009598176111467183
13312.0,-0.001966697396710515
14336.0,-0.00019110286666546017
end
