version,3.0
numOfCh,1
type,point
parent_name,400-cuts
ch_type,1_1
kcount,1
numberNandB,1
brightnessNandB,1
carpet pos,0
pc,0
Time (ms),CH1 Auto-Correlation
1.0,0.057645902037620544
2.0,0.05489600449800491
3.0,0.0522100068628788
4.0,0.04968547448515892
5.0,0.047307129949331284
6.0,0.04510605335235596
7.0,0.04298059642314911
8.0,0.040927235037088394
9.0,0.039032336324453354
10.0,0.03718042001128197
11.0,0.03541257977485657
12.0,0.033707939088344574
13.0,0.03206270933151245
14.0,0.030520234256982803
15.0,0.029047317802906036
16.0,0.027601728215813637
18.0,0.024989468976855278
20.0,0.0226071085780859
22.0,0.020350059494376183
24.0,0.018425362184643745
26.0,0.016622764989733696
28.0,0.014944578520953655
30.0,0.013388878665864468
32.0,0.011994315311312675
36.0,0.00959095824509859
40.0,0.007672896143049002
44.0,0.006138465832918882
48.0,0.004961188416928053
52.0,0.0041914088651537895
56.0,0.0036619205493479967
60.0,0.0031734982039779425
64.0,0.0025269563775509596
72.0,0.0014548463514074683
80.0,0.0009592831484042108
88.0,0.00023199699353426695
96.0,-0.001132291043177247
104.0,-0.0023690012749284506
112.0,-0.0035397892352193594
120.0,-0.003801728365942836
128.0,-0.003724914276972413
144.0,-0.002227482618764043
160.0,0.0006727287545800209
176.0,0.0030565715860575438
192.0,0.003285571001470089
208.0,0.003225670661777258
224.0,0.0022366666235029697
240.0,1.015352154354332e-05
256.0,-0.001659102737903595
288.0,-0.0028137629851698875
320.0,-0.0006162453209981322
352.0,0.0005737983738072217
384.0,0.001660032314248383
416.0,0.002192753367125988
448.0,-0.00010480184573680162
480.0,-0.002351481467485428
512.0,-0.00036689304397441447
576.0,0.0025433902628719807
640.0,0.0005013263435102999
704.0,-0.0012099175946787
768.0,0.0014032645849511027
832.0,0.0013789553195238113
896.0,-0.0019881317857652903
960.0,-0.001048652920871973
1024.0,0.00044502256787382066
1152.0,-0.0010002964409068227
1280.0,0.0008246967918239534
1408.0,-0.00219747400842607
1536.0,-0.00012518315634224564
1664.0,-0.0006711569731123745
1792.0,-0.0005866966093890369
1920.0,-0.0019049991387873888
2048.0,-0.0008117898250930011
2304.0,9.352956112707034e-05
2560.0,-0.0004254763189237565
2816.0,-0.0002533732622396201
3072.0,0.0004307851195335388
3328.0,0.0007615932845510542
3584.0,-0.0009177495376206934
3840.0,-0.0021475553512573242
4096.0,-0.0003248167922720313
4608.0,0.0018041583243757486
5120.0,0.000923976011108607
5632.0,0.00019108229025732726
6144.0,-0.0013186107389628887
6656.0,-0.001671948586590588
7168.0,-0.0006190568674355745
7680.0,0.000992467044852674
8192.0,0.0015784454299136996
9216.0,0.00022900722979102284
10240.0,-0.0007757255807518959
11264.0,-0.0019823582842946053
12288.0,-8.388513379031792e-05
13312.0,0.0015355178620666265
14336.0,0.0003554513677954674
end
