version,3.0
numOfCh,1
type,point
parent_name,400-cuts
ch_type,1_1
kcount,1
numberNandB,1
brightnessNandB,1
carpet pos,0
pc,0
Time (ms),CH1 Auto-Correlation
1.0,0.02604786679148674
2.0,0.024818159639835358
3.0,0.023640472441911697
4.0,0.022522704675793648
5.0,0.021450044587254524
6.0,0.02042265050113201
7.0,0.01946379244327545
8.0,0.018566207960247993
9.0,0.01773875206708908
10.0,0.016966592520475388
11.0,0.01622256264090538
12.0,0.01551041193306446
13.0,0.014832825399935246
14.0,0.01417555846273899
15.0,0.013551795855164528
16.0,0.012958602048456669
18.0,0.011856615543365479
20.0,0.01083856076002121
22.0,0.009903069585561752
24.0,0.009056882932782173
26.0,0.008283770643174648
28.0,0.0076787276193499565
30.0,0.007088114973157644
32.0,0.006549775134772062
36.0,0.005563090555369854
40.0,0.004708683583885431
44.0,0.003923987038433552
48.0,0.0032583330757915974
52.0,0.002672643167898059
56.0,0.0021781588438898325
60.0,0.0018268793355673552
64.0,0.0015749235171824694
72.0,0.0011032989714294672
80.0,0.0006512569962069392
88.0,0.0005319229676388204
96.0,0.00020782489445991814
104.0,0.00010257175745209679
112.0,0.00011902157712029293
120.0,8.208966028178111e-05
128.0,0.0002606425550766289
144.0,0.000357579265255481
160.0,7.8765326179564e-05
176.0,8.491475455230102e-05
192.0,-0.00010312895756214857
208.0,-0.0003011181834153831
224.0,-0.0009068374056369066
240.0,-0.0011285207001492381
256.0,-0.0010401086183264852
288.0,-0.0012006466276943684
320.0,-0.0005801340448670089
352.0,-0.00058662926312536
384.0,-0.00044387418893165886
416.0,-0.00030624488135799766
448.0,-0.000766265788115561
480.0,-0.0010142780374735594
512.0,-0.0006382338469848037
576.0,-0.0006807862664572895
640.0,-0.00016961722576525062
704.0,0.0003796613891609013
768.0,0.0007584354607388377
832.0,0.00019739058916456997
896.0,0.00031277851667255163
960.0,-0.0011798784835264087
1024.0,0.00022848701337352395
1152.0,-0.00019802570750471205
1280.0,-0.0002162031887564808
1408.0,-0.0009837300749495625
1536.0,-0.0008112280629575253
1664.0,-0.0003376425302121788
1792.0,0.0020875264890491962
1920.0,0.0012434818781912327
2048.0,-0.0007600101525895298
2304.0,0.0003149487602058798
2560.0,-0.0007932373555377126
2816.0,-0.00020032307656947523
3072.0,-0.00010886671952903271
3328.0,-0.00045747371041215956
3584.0,-0.0007453152211382985
3840.0,-0.00016119969950523227
4096.0,0.0003560985205695033
4608.0,-0.00025270588230341673
5120.0,-0.00045290347770787776
5632.0,-0.0006876133265905082
6144.0,0.0008935343357734382
6656.0,0.00020872721506748348
7168.0,0.00048449134919792414
7680.0,-5.921120464336127e-05
8192.0,0.0005736855091527104
9216.0,-0.0006352323107421398
10240.0,0.00023327504459302872
11264.0,-0.0005874186754226685
12288.0,-0.0003407584154047072
13312.0,0.0007025488303042948
14336.0,0.0002421141107333824
end
