version,3.0
numOfCh,1
type,point
parent_name,400-cuts
ch_type,1_1
kcount,1
numberNandB,1
brightnessNandB,1
carpet pos,0
pc,0
Time (ms),CH1 Auto-Correlation
1.0,0.023750746622681618
2.0,0.02260751463472843
3.0,0.021513257175683975
4.0,0.020494457334280014
5.0,0.019566340371966362
6.0,0.018693307414650917
7.0,0.017879370599985123
8.0,0.017122488468885422
9.0,0.016384147107601166
10.0,0.015693914145231247
11.0,0.015023848041892052
12.0,0.01438919734209776
13.0,0.013760247267782688
14.0,0.013139436952769756
15.0,0.012539573013782501
16.0,0.011946517042815685
18.0,0.010882386937737465
20.0,0.009911471046507359
22.0,0.009058015421032906
24.0,0.008303533308207989
26.0,0.007599017582833767
28.0,0.0069541726261377335
30.0,0.006410908419638872
32.0,0.005894363392144442
36.0,0.004926805384457111
40.0,0.004239066503942013
44.0,0.0035678651183843613
48.0,0.002929078647866845
52.0,0.00242960499599576
56.0,0.001938548986800015
60.0,0.0015985585050657392
64.0,0.0012696482008323073
72.0,0.0003955391584895551
80.0,-0.00011473656195448712
88.0,-0.0004399616736918688
96.0,-0.0007974356412887573
104.0,-0.0010078707709908485
112.0,-0.0008918523089960217
120.0,-0.0006573529681190848
128.0,-0.0005277665914036334
144.0,-0.0007148044533096254
160.0,-0.00048704378423281014
176.0,-0.0007523630629293621
192.0,-0.0011680836323648691
208.0,-0.0008457336225546896
224.0,-0.00022123413509689271
240.0,0.0006372602074407041
256.0,0.0009614906157366931
288.0,0.0010211487533524632
320.0,0.0011151103535667062
352.0,0.0004406113876029849
384.0,-0.0004380283644422889
416.0,6.36297554592602e-05
448.0,-0.00016880691691767424
480.0,0.000416314898757264
512.0,0.00025591705343686044
576.0,-0.0008980275015346706
640.0,-0.00022486987290903926
704.0,0.0007177146035246551
768.0,0.00029150681803002954
832.0,-0.0004694816598203033
896.0,2.4192890123231336e-05
960.0,0.0009884455939754844
1024.0,0.0004733782261610031
1152.0,-7.836744771338999e-05
1280.0,6.433874659705907e-05
1408.0,-8.868287841323763e-05
1536.0,-7.448951510014012e-05
1664.0,-0.00044851505663245916
1792.0,0.0007058720802888274
1920.0,7.021645433269441e-05
2048.0,-0.000614382151979953
2304.0,-0.0009036135743372142
2560.0,-0.0003909391234628856
2816.0,-0.00010559995280345902
3072.0,-0.0007292493246495724
3328.0,-0.0007962652598507702
3584.0,-0.00030210023396648467
3840.0,0.0005863772239536047
4096.0,1.6226855223067105e-05
4608.0,-0.00016589158622082323
5120.0,0.0001771924871718511
5632.0,0.00046758726239204407
6144.0,0.0004326551570557058
6656.0,5.0511982408352196e-05
7168.0,9.49942841543816e-05
7680.0,-0.00030886728200130165
8192.0,-0.00037654131301678717
9216.0,-0.0004880966735072434
10240.0,-0.00010119423677679151
11264.0,0.0002774586610030383
12288.0,0.00032496225321665406
13312.0,0.00015053630340844393
14336.0,0.00012605272058863193
end
