version,3.0
numOfCh,1
type,point
parent_name,400-cuts
ch_type,1_1
kcount,1
numberNandB,1
brightnessNandB,1
carpet pos,0
pc,0
Time (ms),CH1 Auto-Correlation
1.0,0.019231760874390602
2.0,0.01839323714375496
3.0,0.017581485211849213
4.0,0.01680442877113819
5.0,0.0160551555454731
6.0,0.01535224262624979
7.0,0.014672607183456421
8.0,0.014013499021530151
9.0,0.013375106267631054
10.0,0.012745155952870846
11.0,0.012152197770774364
12.0,0.01155221275985241
13.0,0.01098827924579382
14.0,0.010455464944243431
15.0,0.009943589568138123
16.0,0.00945277325809002
18.0,0.008555634878575802
20.0,0.007670419756323099
22.0,0.00688056368380785
24.0,0.006172907073050737
26.0,0.005555089563131332
28.0,0.004983973223716021
30.0,0.004414611030369997
32.0,0.0038897430058568716
36.0,0.0030043579172343016
40.0,0.0022242648992687464
44.0,0.0014926547883078456
48.0,0.0008976527024060488
52.0,0.00041851907735690475
56.0,4.4274016545386985e-05
60.0,-0.00020617216068785638
64.0,-0.0002770292339846492
72.0,-0.0002685724466573447
80.0,-0.00031732217757962644
88.0,-0.0005646980134770274
96.0,-0.0008113052463158965
104.0,-0.0005936821107752621
112.0,-0.000321840459946543
120.0,-9.358517854707316e-05
128.0,-1.306453032157151e-05
144.0,0.00016625667922198772
160.0,0.000185557670192793
176.0,0.00030910008354112506
192.0,0.0007830801187083125
208.0,0.0008121788268908858
224.0,0.0008511513588018715
240.0,0.0013598951045423746
256.0,0.0012724321568384767
288.0,0.00047303360770456493
320.0,-4.726440238300711e-05
352.0,-0.0007683188887313008
384.0,-0.0009528824593871832
416.0,0.0002207167271990329
448.0,0.0009722615941427648
480.0,0.00017203977040480822
512.0,0.0007254355004988611
576.0,0.00047715677646920085
640.0,-0.00037525471998378634
704.0,-0.00013447449600789696
768.0,0.0007763169123791158
832.0,0.0002279629115946591
896.0,8.46105904201977e-05
960.0,0.00013213518832344562
1024.0,0.0011049170279875398
1152.0,7.930892934382427e-06
1280.0,0.0003177040780428797
1408.0,-0.0011506611481308937
1536.0,0.00035167092573828995
1664.0,-0.0005555138923227787
1792.0,4.566146162687801e-05
1920.0,-0.00017180913710035384
2048.0,0.00026436473126523197
2304.0,-0.00018299484509043396
2560.0,-0.0003984347858931869
2816.0,0.00011378477211110294
3072.0,0.0002984613529406488
3328.0,-0.00033969030482694507
3584.0,0.00040472685941495
3840.0,0.00036141209420748055
4096.0,-0.0002555549144744873
4608.0,-4.183536293567158e-05
5120.0,-0.0003588637919165194
5632.0,-0.00043919199379161
6144.0,-0.000678406679071486
6656.0,-0.0001818932214519009
7168.0,-0.0003371780621819198
7680.0,-0.0002361113001825288
8192.0,-0.00018425747111905366
9216.0,-8.215128036681563e-05
10240.0,0.0002593404205981642
11264.0,0.00018162885680794716
12288.0,-0.00018997462757397443
13312.0,0.0007314872927963734
14336.0,-0.0003708123986143619
end
