version,3.0
numOfCh,1
type,point
parent_name,400-cuts
ch_type,1_1
kcount,1
numberNandB,1
brightnessNandB,1
carpet pos,0
pc,0
Time (ms),CH1 Auto-Correlation
1.0,0.023348988965153694
2.0,0.022470541298389435
3.0,0.0216409582644701
4.0,0.02085389755666256
5.0,0.020082898437976837
6.0,0.019345050677657127
7.0,0.018629129976034164
8.0,0.017947951331734657
9.0,0.017277715727686882
10.0,0.016660524532198906
11.0,0.016076598316431046
12.0,0.015504331327974796
13.0,0.014944584108889103
14.0,0.014389950782060623
15.0,0.013856735080480576
16.0,0.013321605511009693
18.0,0.012293178588151932
20.0,0.011360576376318932
22.0,0.01050043385475874
24.0,0.009671208448708057
26.0,0.008893697522580624
28.0,0.008194146677851677
30.0,0.007572336588054895
32.0,0.006983879487961531
36.0,0.006067696958780289
40.0,0.005280225072056055
44.0,0.004617298487573862
48.0,0.004089283756911755
52.0,0.003715443890541792
56.0,0.003459493163973093
60.0,0.0033004251308739185
64.0,0.0030878332909196615
72.0,0.002748106839135289
80.0,0.002372706774622202
88.0,0.002109839115291834
96.0,0.0020023584365844727
104.0,0.001662171445786953
112.0,0.0013929366832599044
120.0,0.0012400128180161119
128.0,0.0010422092163935304
144.0,0.0006002926384098828
160.0,0.00029389411793090403
176.0,0.0005440890090540051
192.0,0.0006770187756046653
208.0,0.0004118214128538966
224.0,0.00017357961041852832
240.0,0.0007263848674483597
256.0,0.0008316332823596895
288.0,0.0004100833903066814
320.0,-0.0009446591138839722
352.0,-0.002094683703035116
384.0,-0.002002768451347947
416.0,-0.0020244517363607883
448.0,-0.001624516793526709
480.0,-0.001241092337295413
512.0,-0.0004275216197129339
576.0,0.0008075693622231483
640.0,0.0017385042738169432
704.0,0.000728352228179574
768.0,0.0006622271030209959
832.0,-4.543522300082259e-05
896.0,0.0006616524187847972
960.0,-0.0006441502482630312
1024.0,-0.0002758443879429251
1152.0,0.000331505318172276
1280.0,0.00034952277201227844
1408.0,-0.00020420220971573144
1536.0,-0.00025674118660390377
1664.0,-0.0009635642054490745
1792.0,3.351672830831376e-06
1920.0,-0.0004269131168257445
2048.0,-0.0004942616214975715
2304.0,-0.00021292520978022367
2560.0,0.00028569571441039443
2816.0,-1.585061545483768e-05
3072.0,0.0004476150206755847
3328.0,-0.0006584947113879025
3584.0,0.0009399301488883793
3840.0,0.0007583997212350368
4096.0,0.0003166747628711164
4608.0,0.00021581738837994635
5120.0,-0.0001493079907959327
5632.0,0.00030810237512923777
6144.0,0.0002222426701337099
6656.0,-0.00018784025451168418
7168.0,-0.00045709157711826265
7680.0,0.0005519030382856727
8192.0,0.0002361749648116529
9216.0,-0.0009404098964296281
10240.0,-0.0003776737430598587
11264.0,0.0008398523204959929
12288.0,-0.0003866289625875652
13312.0,-0.0016335208201780915
14336.0,-0.00017276017752010375
end
