version,3.0
numOfCh,1
type,point
parent_name,400-cuts
ch_type,1_1
kcount,1
numberNandB,1
brightnessNandB,1
carpet pos,0
pc,0
Time (ms),CH1 Auto-Correlation
1.0,0.018150240182876587
2.0,0.017317473888397217
3.0,0.01650366187095642
4.0,0.015712808817625046
5.0,0.014991878531873226
6.0,0.014298650436103344
7.0,0.01366513129323721
8.0,0.01306973397731781
9.0,0.012486116029322147
10.0,0.01192951574921608
11.0,0.011400852352380753
12.0,0.010901116766035557
13.0,0.010423234663903713
14.0,0.009980391710996628
15.0,0.009562795050442219
16.0,0.00917356088757515
18.0,0.00847611203789711
20.0,0.00779087096452713
22.0,0.0071543301455676556
24.0,0.006588010583072901
26.0,0.006081319879740477
28.0,0.005619162227958441
30.0,0.005157068371772766
32.0,0.0047312770038843155
36.0,0.004129011183977127
40.0,0.00358009897172451
44.0,0.0031519108451902866
48.0,0.002712571294978261
52.0,0.0022671506740152836
56.0,0.001883855788037181
60.0,0.0015896912664175034
64.0,0.0013616076903417706
72.0,0.001022565527819097
80.0,0.0004991150344721973
88.0,-1.8059528883895837e-05
96.0,-0.0005319527699612081
104.0,-0.0007886852836236358
112.0,-0.0009093855624087155
120.0,-0.0006855313549749553
128.0,-0.00025459006428718567
144.0,0.0007459836779162288
160.0,0.001087089884094894
176.0,0.00132255838252604
192.0,0.0018881778232753277
208.0,0.0022048617247492075
224.0,0.002129587810486555
240.0,0.0015828139148652554
256.0,0.000725862046238035
288.0,-0.0003998076426796615
320.0,-0.001028160797432065
352.0,-0.00046400330029428005
384.0,0.0005238669109530747
416.0,0.0005503144348040223
448.0,0.00045355147449299693
480.0,0.0009293454932048917
512.0,0.0008570210193283856
576.0,-0.0008569649653509259
640.0,-0.0006702020182274282
704.0,-0.00042506150202825665
768.0,-0.0003371884231455624
832.0,-0.001195433083921671
896.0,-0.0009027312626130879
960.0,-7.010457920841873e-05
1024.0,-0.0002979518612846732
1152.0,-8.095508383121341e-05
1280.0,1.4190279216563795e-05
1408.0,-0.00038153078639879823
1536.0,9.066282655112445e-05
1664.0,-3.3326043194392696e-05
1792.0,8.926312148105353e-05
1920.0,-0.0005402131355367601
2048.0,-0.0001406560477335006
2304.0,-0.0002701409684959799
2560.0,-0.0005431646131910384
2816.0,0.00025089812697842717
3072.0,-0.0003556027077138424
3328.0,-9.732790931593627e-05
3584.0,-0.0001243717852048576
3840.0,0.0005112361977808177
4096.0,0.0008504358702339232
4608.0,-1.4560863746737596e-05
5120.0,0.00013898454199079424
5632.0,6.695651973132044e-05
6144.0,-0.0003205907123629004
6656.0,-0.0005029012681916356
7168.0,-0.00024042812583502382
7680.0,0.00040880858432501554
8192.0,0.0002926735032815486
9216.0,0.0006407416658475995
10240.0,-0.0006495101843029261
11264.0,-0.000826988136395812
12288.0,0.0004933018353767693
13312.0,0.0008670301176607609
14336.0,-0.0010770960943773389
end
