version,3.0
numOfCh,1
type,point
parent_name,400-cuts
ch_type,1_1
kcount,1
numberNandB,1
brightnessNandB,1
carpet pos,0
pc,0
Time (ms),CH1 Auto-Correlation
1.0,0.060076192021369934
2.0,0.05757851526141167
3.0,0.055161841213703156
4.0,0.052863992750644684
5.0,0.050717249512672424
6.0,0.04866359382867813
7.0,0.04663294553756714
8.0,0.0446510836482048
9.0,0.04279905930161476
10.0,0.04099614918231964
11.0,0.03933959826827049
12.0,0.03776400536298752
13.0,0.03619374707341194
14.0,0.0346774123609066
15.0,0.03320489078760147
16.0,0.03177884966135025
18.0,0.029114916920661926
20.0,0.026795724406838417
22.0,0.024607839062809944
24.0,0.022632166743278503
26.0,0.02099657990038395
28.0,0.019552774727344513
30.0,0.0181118156760931
32.0,0.01677154377102852
36.0,0.014413817785680294
40.0,0.01232462003827095
44.0,0.010469217784702778
48.0,0.009088273160159588
52.0,0.007847758010029793
56.0,0.006762194912880659
60.0,0.005669313948601484
64.0,0.004536420572549105
72.0,0.002505465177819133
80.0,0.0018790258327499032
88.0,0.0011141711147502065
96.0,0.0003482753236312419
104.0,-0.0007584912236779928
112.0,-0.001991505501791835
120.0,-0.003131758188828826
128.0,-0.003371527185663581
144.0,-0.0028558888006955385
160.0,-0.0034464539494365454
176.0,-0.002712501445785165
192.0,4.1437862819293514e-05
208.0,0.0016719474224373698
224.0,0.0015818866668269038
240.0,0.001921414164826274
256.0,0.0011979796690866351
288.0,-0.001657238695770502
320.0,-0.002446551341563463
352.0,-0.001218547229655087
384.0,0.0029894153121858835
416.0,0.0033168725203722715
448.0,0.0018222094513475895
480.0,0.00021069517242722213
512.0,-0.00295246415771544
576.0,-0.005297497380524874
640.0,-0.004494564142078161
704.0,-0.0020849185530096292
768.0,-0.000828211719635874
832.0,-0.0004374991694930941
896.0,0.0007121183443814516
960.0,0.0022922151256352663
1024.0,0.0015727930003777146
1152.0,0.0029273508116602898
1280.0,0.0029889275319874287
1408.0,0.002477198839187622
1536.0,-0.0020420204382389784
1664.0,-0.004464761354029179
1792.0,-0.0014882647665217519
1920.0,-0.0009688123827800155
2048.0,-0.0010547038400545716
2304.0,0.0023528931196779013
2560.0,-0.0004719431162811816
2816.0,-0.0018373698694631457
3072.0,0.0008474515052512288
3328.0,-0.0003029800427611917
3584.0,0.00014538060349877924
3840.0,-0.001374490442685783
4096.0,-0.0014458827208727598
4608.0,0.0004075041797477752
5120.0,-0.00058579514734447
5632.0,0.0013291483046486974
6144.0,-0.0014354482991620898
6656.0,0.0006980159087106586
7168.0,-0.0008470458560623229
7680.0,0.0011418306967243552
8192.0,0.0006734548369422555
9216.0,0.00017433214816264808
10240.0,-0.0018112844554707408
11264.0,-0.0005632690736092627
12288.0,-0.0009118401212617755
13312.0,0.00047661931603215635
14336.0,0.0005785247776657343
end
