version,3.0
numOfCh,1
type,point
parent_name,400-cuts
ch_type,1_1
kcount,1
numberNandB,1
brightnessNandB,1
carpet pos,0
pc,0
Time (ms),CH1 Auto-Correlation
1.0,0.03147897496819496
2.0,0.03033500909805298
3.0,0.029237980023026466
4.0,0.02818046696484089
5.0,0.027164245024323463
6.0,0.02616322785615921
7.0,0.02521534450352192
8.0,0.024280112236738205
9.0,0.02338012307882309
10.0,0.0225073155015707
11.0,0.021727414801716805
12.0,0.020972466096282005
13.0,0.020239802077412605
14.0,0.01953018084168434
15.0,0.018834397196769714
16.0,0.018152184784412384
18.0,0.016866451129317284
20.0,0.015738556161522865
22.0,0.014748292975127697
24.0,0.0138477748259902
26.0,0.013014732860028744
28.0,0.012260978110134602
30.0,0.011523541994392872
32.0,0.01080738939344883
36.0,0.00950596109032631
40.0,0.008408786728978157
44.0,0.007601938676089048
48.0,0.006864781957119703
52.0,0.006033275276422501
56.0,0.0053117601200938225
60.0,0.004777430556714535
64.0,0.004345227964222431
72.0,0.004082202911376953
80.0,0.004152339417487383
88.0,0.00403121393173933
96.0,0.0036389699671417475
104.0,0.003036028239876032
112.0,0.002316048601642251
120.0,0.0015781831461936235
128.0,0.0006869002245366573
144.0,-0.0007876161835156381
160.0,-0.0012677641352638602
176.0,-0.00159690179862082
192.0,-0.002221881179139018
208.0,-0.002554736565798521
224.0,-0.0019908444955945015
240.0,-0.0012666304828599095
256.0,-0.0009234101744368672
288.0,-0.0010929382406175137
320.0,-0.0008731303969398141
352.0,0.00010872757411561906
384.0,0.0006510090315714478
416.0,-0.00011942955461563542
448.0,-0.001744513981975615
480.0,-0.0006971409311518073
512.0,0.0003454263205640018
576.0,0.0006925817579030991
640.0,0.00029749941313639283
704.0,0.0005082099814899266
768.0,0.0021242115180939436
832.0,0.0007847979431971908
896.0,-0.0004296468978282064
960.0,-0.0016141511732712388
1024.0,-0.0010817497968673706
1152.0,-0.00040626374538987875
1280.0,-0.0010303605813533068
1408.0,-0.001301158801652491
1536.0,-0.0017909102607518435
1664.0,-0.0005281066405586898
1792.0,-0.002007450442761183
1920.0,0.00017885718261823058
2048.0,0.000936693511903286
2304.0,-0.001543577411212027
2560.0,-0.00017307279631495476
2816.0,0.0013913889415562153
3072.0,-0.0008086130837909877
3328.0,0.0006736454088240862
3584.0,0.0012250966392457485
3840.0,0.00030088864150457084
4096.0,-0.00042852634214796126
4608.0,-0.0005052663618698716
5120.0,-0.0006443767924793065
5632.0,0.0008437912911176682
6144.0,6.11571958870627e-05
6656.0,0.0007109037833288312
7168.0,-0.0014729764079675078
7680.0,-0.0006053858087398112
8192.0,0.00023323569621425122
9216.0,0.000884177687112242
10240.0,-0.001232345006428659
11264.0,-0.0010521571384742856
12288.0,0.0014797692419961095
13312.0,3.115637446171604e-05
14336.0,-0.0013508134288713336
end
