version,3.0
numOfCh,1
type,point
parent_name,400-cuts
ch_type,1_1
kcount,1
numberNandB,1
brightnessNandB,1
carpet pos,0
pc,0
Time (ms),CH1 Auto-Correlation
1.0,0.03104880452156067
2.0,0.029735885560512543
3.0,0.028481340035796165
4.0,0.027338307350873947
5.0,0.026258058845996857
6.0,0.025225361809134483
7.0,0.024243472144007683
8.0,0.02328142151236534
9.0,0.02235507033765316
10.0,0.021456940099596977
11.0,0.02059706300497055
12.0,0.01977977156639099
13.0,0.01898886077105999
14.0,0.01824158802628517
15.0,0.017543796449899673
16.0,0.016879301518201828
18.0,0.015659291297197342
20.0,0.014503119513392448
22.0,0.013435373082756996
24.0,0.01245507225394249
26.0,0.011578042060136795
28.0,0.010748282074928284
30.0,0.009920710697770119
32.0,0.009084329940378666
36.0,0.007762315217405558
40.0,0.006692482624202967
44.0,0.005785102490335703
48.0,0.004914028104394674
52.0,0.003985205665230751
56.0,0.0030481433495879173
60.0,0.0022110752761363983
64.0,0.001556596951559186
72.0,0.00046534539433196187
80.0,-0.0001559698866913095
88.0,-0.0005057218950241804
96.0,-0.0008814773173071444
104.0,-0.0012834708904847503
112.0,-0.001427849056199193
120.0,-0.0014502329286187887
128.0,-0.0014414386823773384
144.0,-0.0010177151998504996
160.0,-2.9357901439652778e-05
176.0,0.00033867498859763145
192.0,0.0004210644110571593
208.0,0.00012127705849707127
224.0,-0.00023250188678503036
240.0,-0.0004841760382987559
256.0,-0.0009345941944047809
288.0,-0.0013881397899240255
320.0,0.0003210649301763624
352.0,0.0011372335720807314
384.0,0.0011534440563991666
416.0,0.0011267323279753327
448.0,0.001078190398402512
480.0,0.0001266396138817072
512.0,-0.000572057964745909
576.0,0.00044963121763430536
640.0,0.0006406274624168873
704.0,0.00017078900418709964
768.0,0.0005395912448875606
832.0,-0.0015888987109065056
896.0,-0.001896756119094789
960.0,0.00010199442476732656
1024.0,0.0018332060426473618
1152.0,0.0013309495989233255
1280.0,0.00019502200302667916
1408.0,-0.0014893305487930775
1536.0,-0.00017798853514250368
1664.0,0.0005608824430964887
1792.0,0.00015233510930556804
1920.0,-0.0015665210084989667
2048.0,0.0007126691052690148
2304.0,0.0006707730935886502
2560.0,-0.0009559006430208683
2816.0,-0.0011500640539452434
3072.0,-0.0010956934420391917
3328.0,0.0001240907295141369
3584.0,-0.0006990518886595964
3840.0,-0.0014120526611804962
4096.0,0.00039523665327578783
4608.0,-0.0007275552488863468
5120.0,-0.0008510018233209848
5632.0,0.00018173520220443606
6144.0,0.0005809768917970359
6656.0,0.0004725215840153396
7168.0,0.0007635342190042138
7680.0,0.001364499912597239
8192.0,0.00017732662672642618
9216.0,0.00036016470403410494
10240.0,-0.0007132994360290468
11264.0,-0.0009255774202756584
12288.0,-0.0010576341301202774
13312.0,0.0005264892242848873
14336.0,0.0009794404031708837
end
