version,3.0
numOfCh,1
type,point
parent_name,400-cuts
ch_type,1_1
kcount,1
numberNandB,1
brightnessNandB,1
carpet pos,0
pc,0
Time (ms),CH1 Auto-Correlation
1.0,0.06513123959302902
2.0,0.062481589615345
3.0,0.0600491464138031
4.0,0.05773237347602844
5.0,0.05555640533566475
6.0,0.053496453911066055
7.0,0.05148082226514816
8.0,0.049573030322790146
9.0,0.04779152199625969
10.0,0.04607352614402771
11.0,0.04436705261468887
12.0,0.04276447743177414
13.0,0.04124284163117409
14.0,0.03977575898170471
15.0,0.03833440691232681
16.0,0.03696882724761963
18.0,0.03445708379149437
20.0,0.03216352313756943
22.0,0.02991582825779915
24.0,0.027765212580561638
26.0,0.025866255164146423
28.0,0.024000756442546844
30.0,0.022260114550590515
32.0,0.020722541958093643
36.0,0.018146758899092674
40.0,0.015971962362527847
44.0,0.014076639898121357
48.0,0.01289732288569212
52.0,0.012509189546108246
56.0,0.012251263484358788
60.0,0.011697696521878242
64.0,0.010955991223454475
72.0,0.008990638889372349
80.0,0.006648987531661987
88.0,0.004078004043549299
96.0,0.0015252777375280857
104.0,-0.0003851151268463582
112.0,-0.0016281374264508486
120.0,-0.00210475898347795
128.0,-0.002185602206736803
144.0,-0.0014014547923579812
160.0,8.05232411948964e-05
176.0,-0.0001589895400684327
192.0,-0.0009002230362966657
208.0,-0.0022561734076589346
224.0,-0.0031473536510020494
240.0,-0.003444200847297907
256.0,-0.003646161872893572
288.0,-0.004382485058158636
320.0,-0.0022562777157872915
352.0,-0.0016016156878322363
384.0,-0.0008151553338393569
416.0,-0.001604924793355167
448.0,0.00145743228495121
480.0,0.0022510020062327385
512.0,-0.0011378471972420812
576.0,-0.0008177207782864571
640.0,0.0018033655360341072
704.0,0.0030590633396059275
768.0,0.0026372410356998444
832.0,0.00297977845184505
896.0,0.0029101110994815826
960.0,-0.002523835515603423
1024.0,-0.0036369902081787586
1152.0,-0.001780093414708972
1280.0,-0.0017750924453139305
1408.0,-0.0009647795814089477
1536.0,0.00035408762050792575
1664.0,-0.0007973876199685037
1792.0,-0.0005195062258280814
1920.0,0.0030182034242898226
2048.0,0.0012649347772821784
2304.0,-0.003611016785725951
2560.0,0.0026292891707271338
2816.0,-0.00021867346367798746
3072.0,-0.001287398161366582
3328.0,-0.00031391213997267187
3584.0,0.0006621575448662043
3840.0,-0.0013151828898116946
4096.0,-0.0017631283262744546
4608.0,0.0005572772934101522
5120.0,-0.0014393371529877186
5632.0,9.520744788460433e-05
6144.0,-0.001269635045900941
6656.0,0.0020099312532693148
7168.0,-0.001361024216748774
7680.0,0.00025904487119987607
8192.0,0.0004201699630357325
9216.0,0.0009169171680696309
10240.0,0.0014529161853715777
11264.0,-0.0008048388408496976
12288.0,-0.0001046975448844023
13312.0,-0.0040831174701452255
14336.0,-0.002157733077183366
end
