version,3.0
numOfCh,1
type,point
parent_name,400-cuts
ch_type,1_1
kcount,1
numberNandB,1
brightnessNandB,1
carpet pos,0
pc,0
Time (ms),CH1 Auto-Correlation
1.0,0.029309537261724472
2.0,0.027931250631809235
3.0,0.026674719527363777
4.0,0.02551460638642311
5.0,0.02446393109858036
6.0,0.023437809199094772
7.0,0.022422872483730316
8.0,0.021445048972964287
9.0,0.020506035536527634
10.0,0.019623292610049248
11.0,0.01878121867775917
12.0,0.018009211868047714
13.0,0.017287004739046097
14.0,0.016599437221884727
15.0,0.015910472720861435
16.0,0.015285232104361057
18.0,0.01409467589110136
20.0,0.012969104573130608
22.0,0.011926446110010147
24.0,0.010989045724272728
26.0,0.010129880160093307
28.0,0.009383982978761196
30.0,0.008695293217897415
32.0,0.00804580096155405
36.0,0.006715056952089071
40.0,0.0056681158021092415
44.0,0.00468966830521822
48.0,0.004007128067314625
52.0,0.003342461073771119
56.0,0.0026228975038975477
60.0,0.0019899767357856035
64.0,0.0014418084174394608
72.0,0.0010683824075385928
80.0,0.0013120853109285235
88.0,0.0016070760320872068
96.0,0.0017475108616054058
104.0,0.0016816279385238886
112.0,0.0016747004119679332
120.0,0.0015229516429826617
128.0,0.00129717867821455
144.0,0.00031577894696965814
160.0,-0.0008489295141771436
176.0,-0.0012987124500796199
192.0,-0.0010628349846228957
208.0,-0.0002943974395748228
224.0,0.0002282704081153497
240.0,3.8537637010449544e-05
256.0,-0.00019976045587100089
288.0,-0.0007808615919202566
320.0,-0.0006156445015221834
352.0,0.00011963669385295361
384.0,-0.00010201343684457242
416.0,0.0009703190298750997
448.0,0.0013968227431178093
480.0,0.0010662805289030075
512.0,0.001698476611636579
576.0,0.000753353931941092
640.0,-1.734178113110829e-05
704.0,-0.00020460353698581457
768.0,-0.0006052223034203053
832.0,-0.00037742513814009726
896.0,-0.00025117385666817427
960.0,0.00012864301970694214
1024.0,0.00010507646220503375
1152.0,0.00034043597406707704
1280.0,-0.0006610812270082533
1408.0,-0.0015150762628763914
1536.0,-0.0009634158341214061
1664.0,0.0002383374230703339
1792.0,-0.00037618374335579574
1920.0,-0.001080288551747799
2048.0,0.00045786192640662193
2304.0,-0.00021274248138070107
2560.0,-0.0006921228487044573
2816.0,-0.00019505423551891
3072.0,0.00016812981630209833
3328.0,0.0006020271102897823
3584.0,-0.00039403585833497345
3840.0,-0.000262586836470291
4096.0,-7.884005026426166e-05
4608.0,5.380736638471717e-06
5120.0,-0.00017960183322429657
5632.0,-0.00031444511841982603
6144.0,-0.0006179267074912786
6656.0,-0.0010773253161460161
7168.0,0.00011905826977454126
7680.0,0.0007331271190196276
8192.0,0.00017772172577679157
9216.0,0.00047651605564169586
10240.0,-0.0009288692381232977
11264.0,0.0014659867156296968
12288.0,-0.0006384855369105935
13312.0,6.765383295714855e-05
14336.0,0.0002986737817991525
end
