version,3.0
numOfCh,1
type,point
parent_name,400-cuts
ch_type,1_1
kcount,1
numberNandB,1
brightnessNandB,1
carpet pos,0
pc,0
Time (ms),CH1 Auto-Correlation
1.0,0.036322206258773804
2.0,0.03474494814872742
3.0,0.03327392041683197
4.0,0.03183989226818085
5.0,0.030512193217873573
6.0,0.02924240566790104
7.0,0.02805178612470627
8.0,0.026868486776947975
9.0,0.025752274319529533
10.0,0.02468297630548477
11.0,0.023682378232479095
12.0,0.022734805941581726
13.0,0.02187209576368332
14.0,0.021059220656752586
15.0,0.02030695416033268
16.0,0.019581535831093788
18.0,0.018158219754695892
20.0,0.016814133152365685
22.0,0.015574547462165356
24.0,0.014366582967340946
26.0,0.013266339898109436
28.0,0.012258855625987053
30.0,0.011295385658740997
32.0,0.010402735322713852
36.0,0.008724212646484375
40.0,0.007348224055022001
44.0,0.006316026672720909
48.0,0.00543714826926589
52.0,0.004542144946753979
56.0,0.0038080450613051653
60.0,0.003434560727328062
64.0,0.0032576716039329767
72.0,0.0030240167398005724
80.0,0.002939506433904171
88.0,0.003092617029324174
96.0,0.0029106007423251867
104.0,0.002734466688707471
112.0,0.0028869116213172674
120.0,0.0028791881632059813
128.0,0.0024995722342282534
144.0,0.0018057783599942923
160.0,0.001688917400315404
176.0,0.0013801411259919405
192.0,0.0007403884665109217
208.0,-0.0004091259615961462
224.0,-0.0005608182982541621
240.0,-0.0005799332284368575
256.0,0.0001970416633412242
288.0,-4.653198629966937e-05
320.0,0.00013547019625548273
352.0,0.0005148390773683786
384.0,0.0006612297729589045
416.0,0.0006221932708285749
448.0,-0.00014467709115706384
480.0,-0.0012276929337531328
512.0,-0.0002937564568128437
576.0,1.916288056236226e-05
640.0,-0.0004280915600247681
704.0,0.00015071145026013255
768.0,0.0010029426775872707
832.0,0.0014300727052614093
896.0,0.0014891175087541342
960.0,0.0002154648391297087
1024.0,0.0012943532783538103
1152.0,0.002275188686326146
1280.0,-0.0024341638199985027
1408.0,-0.0030143046751618385
1536.0,-0.000541375542525202
1664.0,-0.0010409305104985833
1792.0,-0.0007572691538371146
1920.0,0.0013841470936313272
2048.0,-0.0001632893254281953
2304.0,0.00038132985355332494
2560.0,-0.0006366051384247839
2816.0,0.0001853026042226702
3072.0,0.001176991150714457
3328.0,0.001068444806151092
3584.0,0.00011671296670101583
3840.0,-0.0005727270618081093
4096.0,-0.00030502781737595797
4608.0,-0.00032247373019345105
5120.0,-0.00016119059000629932
5632.0,-0.00012360887194518
6144.0,-0.000976996379904449
6656.0,-0.0008523967117071152
7168.0,-0.00151725800242275
7680.0,4.533468745648861e-05
8192.0,0.00016564886027481407
9216.0,0.0002454125205986202
10240.0,-0.000581046100705862
11264.0,0.0003237830242142081
12288.0,2.8655053029069677e-05
13312.0,8.231675019487739e-05
14336.0,-0.00024895137175917625
end
