version,3.0
numOfCh,1
type,point
parent_name,400-cuts
ch_type,1_1
kcount,1
numberNandB,1
brightnessNandB,1
carpet pos,0
pc,0
Time (ms),CH1 Auto-Correlation
1.0,0.031099628657102585
2.0,0.02981683984398842
3.0,0.02858569473028183
4.0,0.027387332171201706
5.0,0.026237519457936287
6.0,0.02515457011759281
7.0,0.024092435836791992
8.0,0.023055756464600563
9.0,0.022073272615671158
10.0,0.02112276665866375
11.0,0.02020478993654251
12.0,0.01936378888785839
13.0,0.018566859886050224
14.0,0.01779981143772602
15.0,0.017112966626882553
16.0,0.01645132340490818
18.0,0.015173016116023064
20.0,0.014025074429810047
22.0,0.012984992936253548
24.0,0.012008121237158775
26.0,0.01111304759979248
28.0,0.010254980064928532
30.0,0.009518562816083431
32.0,0.008855593390762806
36.0,0.007737915497273207
40.0,0.0069107785820961
44.0,0.00630262540653348
48.0,0.005949904210865498
52.0,0.005823936779052019
56.0,0.005865013226866722
60.0,0.005918174982070923
64.0,0.005968735087662935
72.0,0.00580340251326561
80.0,0.005424967501312494
88.0,0.004955561365932226
96.0,0.004163141828030348
104.0,0.003227355657145381
112.0,0.002183969598263502
120.0,0.0009991743136197329
128.0,0.0001723586901789531
144.0,-0.00031241984106600285
160.0,0.0006889032083563507
176.0,0.00047335182898677886
192.0,-0.00025068482500500977
208.0,-0.00010056050814455375
224.0,0.00034319303813390434
240.0,0.00011896767682628706
256.0,0.0003597844042815268
288.0,0.0006744640413671732
320.0,0.0007292342488653958
352.0,-0.001650195918045938
384.0,-0.001269710948690772
416.0,2.6202860681223683e-06
448.0,-0.00021115153504069895
480.0,-8.85178815224208e-05
512.0,-0.00032377641764469445
576.0,0.0005725478404201567
640.0,-0.0019765666220337152
704.0,-0.0034007474314421415
768.0,-0.0035422968212515116
832.0,-0.0019349117064848542
896.0,-0.0012341284891590476
960.0,-0.0016896154265850782
1024.0,0.0006008162745274603
1152.0,0.0008130598580464721
1280.0,0.0004133395850658417
1408.0,-0.0012580365873873234
1536.0,4.0139537304639816e-05
1664.0,7.97963875811547e-05
1792.0,0.000650754664093256
1920.0,-0.0005982005386613309
2048.0,0.0009498189901933074
2304.0,0.0011031097965314984
2560.0,0.0006292256293818355
2816.0,-0.0005974559462629259
3072.0,-0.002538319444283843
3328.0,-0.0019780567381531
3584.0,0.0009167082025669515
3840.0,0.0008297592285089195
4096.0,0.00024425305309705436
4608.0,-0.0004731354711111635
5120.0,0.00037619139766320586
5632.0,-9.121862967731431e-05
6144.0,0.0009181309724226594
6656.0,0.0003124771756120026
7168.0,0.00019848885131068528
7680.0,0.00018452423682902008
8192.0,-0.000610404065810144
9216.0,-9.813495853450149e-05
10240.0,-0.0004446980601642281
11264.0,0.00019198287918698043
12288.0,0.000360021716915071
13312.0,-0.0001038457703543827
14336.0,0.00030367777799256146
end
