version,3.0
numOfCh,1
type,point
parent_name,400-cuts
ch_type,1_1
kcount,1
numberNandB,1
brightnessNandB,1
carpet pos,0
pc,0
Time (ms),CH1 Auto-Correlation
1.0,0.06934396177530289
2.0,0.06647533178329468
3.0,0.06381522864103317
4.0,0.0613594613969326
5.0,0.05898832902312279
6.0,0.05674402788281441
7.0,0.05455474555492401
8.0,0.052525997161865234
9.0,0.050538524985313416
10.0,0.04854069650173187
11.0,0.04667184129357338
12.0,0.04490824416279793
13.0,0.043265510350465775
14.0,0.04160468652844429
15.0,0.040058035403490067
16.0,0.038591418415308
18.0,0.03584061190485954
20.0,0.03336033597588539
22.0,0.031069770455360413
24.0,0.02894570864737034
26.0,0.027118856087327003
28.0,0.025365730747580528
30.0,0.023597560822963715
32.0,0.022001883015036583
36.0,0.019146628677845
40.0,0.0164706539362669
44.0,0.014233906753361225
48.0,0.012452559545636177
52.0,0.010983667336404324
56.0,0.009596413932740688
60.0,0.008512778207659721
64.0,0.007809046655893326
72.0,0.007582182064652443
80.0,0.007931607775390148
88.0,0.0083087719976902
96.0,0.008911551907658577
104.0,0.009688888676464558
112.0,0.01005484163761139
120.0,0.009058039635419846
128.0,0.007909320294857025
144.0,0.005741693079471588
160.0,0.00431027403101325
176.0,0.002807911019772291
192.0,0.0025924760848283768
208.0,0.0017265244387090206
224.0,0.0011656169081106782
240.0,0.0016602549003437161
256.0,0.0021061275620013475
288.0,0.002881691325455904
320.0,0.0019484664080664515
352.0,-0.00036860868567600846
384.0,0.0010620764223858714
416.0,0.0018323127878829837
448.0,0.002833663485944271
480.0,0.0005861787940375507
512.0,-0.0013378583826124668
576.0,0.0024173802230507135
640.0,0.004698351491242647
704.0,0.003881708951666951
768.0,0.0027497531846165657
832.0,-0.00042047773604281247
896.0,0.0003016332339029759
960.0,-0.0024802833795547485
1024.0,-0.00042088402551598847
1152.0,0.0008827382698655128
1280.0,0.002017716411501169
1408.0,0.001790437730960548
1536.0,0.001185619505122304
1664.0,0.001828188425861299
1792.0,0.0026418925262987614
1920.0,0.0012107095681130886
2048.0,0.0005740495398640633
2304.0,0.001679477747529745
2560.0,0.0017709758831188083
2816.0,-0.00358892441727221
3072.0,-0.0024711645673960447
3328.0,-0.001927416305989027
3584.0,-0.0005179392755962908
3840.0,-0.0014944452559575438
4096.0,-0.0002859745000023395
4608.0,-0.004347058013081551
5120.0,-0.0004392100090626627
5632.0,-0.004360071383416653
6144.0,-0.0007889099069871008
6656.0,-0.0018854750087484717
7168.0,-0.004433939233422279
7680.0,-0.002665621927008033
8192.0,-0.0015074992552399635
9216.0,0.00016036166925914586
10240.0,0.0025956076569855213
11264.0,0.004110627342015505
12288.0,0.0019869913812726736
13312.0,-0.0003171956923324615
14336.0,-0.0035022846423089504
end
