version,3.0
numOfCh,1
type,point
parent_name,400-cuts
ch_type,1_1
kcount,1
numberNandB,1
brightnessNandB,1
carpet pos,0
pc,0
Time (ms),CH1 Auto-Correlation
1.0,0.06435370445251465
2.0,0.0616740807890892
3.0,0.05905068293213844
4.0,0.05650244280695915
5.0,0.05403899773955345
6.0,0.05170544609427452
7.0,0.049484748393297195
8.0,0.04733755439519882
9.0,0.04540381208062172
10.0,0.043543726205825806
11.0,0.04180507734417915
12.0,0.040111735463142395
13.0,0.03855954483151436
14.0,0.037127695977687836
15.0,0.03564845770597458
16.0,0.03424198552966118
18.0,0.03158866614103317
20.0,0.029045751318335533
22.0,0.02680668793618679
24.0,0.02476324699819088
26.0,0.022734709084033966
28.0,0.02080600894987583
30.0,0.018878169357776642
32.0,0.017107052728533745
36.0,0.014219715259969234
40.0,0.011933653615415096
44.0,0.01026833988726139
48.0,0.008906836621463299
52.0,0.007821586914360523
56.0,0.006910174153745174
60.0,0.00626940606161952
64.0,0.005840858910232782
72.0,0.00465233251452446
80.0,0.004182618111371994
88.0,0.0038632694631814957
96.0,0.0031975761521607637
104.0,0.0025769416242837906
112.0,0.0025536438915878534
120.0,0.002402016893029213
128.0,0.002120919758453965
144.0,0.0020340762566775084
160.0,0.0024935193359851837
176.0,0.0037538770120590925
192.0,0.004484741482883692
208.0,0.004926085472106934
224.0,0.004995111376047134
240.0,0.004697886761277914
256.0,0.004208784084767103
288.0,0.0006516918656416237
320.0,-0.0006765022408217192
352.0,-0.0012906938791275024
384.0,-0.0015841363929212093
416.0,-0.0005437485524453223
448.0,0.002171699656173587
480.0,0.0014070684555917978
512.0,0.00023506220895797014
576.0,-0.00130076811183244
640.0,-0.0005094569642096758
704.0,0.003270922228693962
768.0,0.002400315599516034
832.0,0.0026702377945184708
896.0,0.0020243609324097633
960.0,0.0021681904327124357
1024.0,-0.001599611947312951
1152.0,-0.0020223548635840416
1280.0,-7.305349572561681e-05
1408.0,-0.0009328378946520388
1536.0,0.0027774886693805456
1664.0,0.001436004531569779
1792.0,0.001881256583146751
1920.0,-0.0015100250020623207
2048.0,-0.0022041122429072857
2304.0,-0.0004945641267113388
2560.0,0.0022975788451731205
2816.0,-0.0008819267968647182
3072.0,-4.434342190506868e-05
3328.0,0.000425724865635857
3584.0,-0.0007916073082014918
3840.0,8.993785013444722e-05
4096.0,-0.0017797653563320637
4608.0,-0.002138071693480015
5120.0,-0.002264319220557809
5632.0,0.0010348554933443666
6144.0,-0.0021469932980835438
6656.0,-0.001795504940673709
7168.0,0.0011322272475808859
7680.0,-0.0012522423639893532
8192.0,-0.002572825876995921
9216.0,0.00019915704615414143
10240.0,-0.00032389938132837415
11264.0,0.00017974131333176047
12288.0,0.0008741207420825958
13312.0,0.006820535287261009
14336.0,-0.005118110217154026
end
