version,3.0
numOfCh,1
type,point
parent_name,400-cuts
ch_type,1_1
kcount,1
numberNandB,1
brightnessNandB,1
carpet pos,0
pc,0
Time (ms),CH1 Auto-Correlation
1.0,0.03302236646413803
2.0,0.03154433146119118
3.0,0.0301814004778862
4.0,0.028944093734025955
5.0,0.027767669409513474
6.0,0.02659216895699501
7.0,0.025517230853438377
8.0,0.02447766438126564
9.0,0.023492105305194855
10.0,0.022543389350175858
11.0,0.021642638370394707
12.0,0.020788900554180145
13.0,0.019965307787060738
14.0,0.019176209345459938
15.0,0.01844160072505474
16.0,0.01773991994559765
18.0,0.016344934701919556
20.0,0.015057172626256943
22.0,0.013905707746744156
24.0,0.012849940918385983
26.0,0.011902764439582825
28.0,0.011026437394320965
30.0,0.010286722332239151
32.0,0.009543185122311115
36.0,0.008366774767637253
40.0,0.0075855255126953125
44.0,0.006998445373028517
48.0,0.006432454101741314
52.0,0.005842441227287054
56.0,0.00535180140286684
60.0,0.004862083122134209
64.0,0.004324671346694231
72.0,0.0038885525427758694
80.0,0.0038944666739553213
88.0,0.003784794360399246
96.0,0.0034045896027237177
104.0,0.0028874005656689405
112.0,0.002340346109122038
120.0,0.0021537092979997396
128.0,0.0020570335909724236
144.0,0.0015971484826877713
160.0,0.0008661621832288802
176.0,0.0013187136501073837
192.0,0.0013047364773228765
208.0,0.0005371911684051156
224.0,-0.00015457748668268323
240.0,-0.000449719576863572
256.0,-0.0011941005941480398
288.0,-0.0019407994113862514
320.0,-0.001393824233673513
352.0,5.87581998843234e-05
384.0,-0.0007401888142339885
416.0,-0.0005447306321002543
448.0,-0.001133137964643538
480.0,-0.0013446188531816006
512.0,-0.0021530429366976023
576.0,-0.0023394760210067034
640.0,-0.0018248637206852436
704.0,-0.0006354671204462647
768.0,-0.00016321905422955751
832.0,-0.0009915903210639954
896.0,0.00022581811936106533
960.0,-0.0014531246852129698
1024.0,-0.0012922394089400768
1152.0,0.00014059749082662165
1280.0,0.001202455023303628
1408.0,0.0003415320534259081
1536.0,0.0007605034043081105
1664.0,0.0011600131401792169
1792.0,0.00032581007690168917
1920.0,-9.026541374623775e-05
2048.0,0.0004780484887305647
2304.0,-0.0011353397276252508
2560.0,-0.0010883444920182228
2816.0,-0.00013127544661983848
3072.0,-8.391931260121055e-06
3328.0,0.0005748511175625026
3584.0,0.0005503666470758617
3840.0,-7.57862871978432e-05
4096.0,-0.0019746925681829453
4608.0,-0.0009539603488519788
5120.0,0.0011528925970196724
5632.0,0.0001139525993494317
6144.0,-0.0006452800589613616
6656.0,0.0008401668746955693
7168.0,-0.0005311965942382812
7680.0,-0.0008327324758283794
8192.0,0.0004457326722331345
9216.0,-0.0009953042026609182
10240.0,7.689544145250693e-05
11264.0,0.0016523896483704448
12288.0,0.0002079438854707405
13312.0,0.0002620859304443002
14336.0,-0.0014521351549774408
end
