version,3.0
numOfCh,1
type,point
parent_name,400-cuts
ch_type,1_1
kcount,1
numberNandB,1
brightnessNandB,1
carpet pos,0
pc,0
Time (ms),CH1 Auto-Correlation
1.0,0.019268052652478218
2.0,0.018473375588655472
3.0,0.01772216148674488
4.0,0.016989871859550476
5.0,0.016298461705446243
6.0,0.01562302466481924
7.0,0.014973869547247887
8.0,0.014353601261973381
9.0,0.013770496472716331
10.0,0.01318348292261362
11.0,0.012628680095076561
12.0,0.012108785100281239
13.0,0.011606063693761826
14.0,0.011118362657725811
15.0,0.010658148676156998
16.0,0.010218479670584202
18.0,0.009373384527862072
20.0,0.008602872490882874
22.0,0.007950586266815662
24.0,0.007340742740780115
26.0,0.006797934882342815
28.0,0.0062922704964876175
30.0,0.005842209793627262
32.0,0.005395500920712948
36.0,0.004649054724723101
40.0,0.004031171090900898
44.0,0.003467935835942626
48.0,0.0029617424588650465
52.0,0.0025833039544522762
56.0,0.002230855403468013
60.0,0.0018541491590440273
64.0,0.0014514935901388526
72.0,0.0008131421054713428
80.0,0.0004260299610905349
88.0,0.0002309247211087495
96.0,0.0002884550194721669
104.0,0.0004066229739692062
112.0,0.0007681488641537726
120.0,0.0008937612292356789
128.0,0.0006968745146878064
144.0,0.00037193557363934815
160.0,0.0002964898303616792
176.0,0.00011335042654536664
192.0,-9.068928193300962e-05
208.0,0.0002282095665577799
224.0,0.0006576866726391017
240.0,0.0005982778966426849
256.0,0.0003235808399040252
288.0,0.000166311307111755
320.0,0.0004425568622536957
352.0,0.00060423364629969
384.0,0.00035950099118053913
416.0,-0.00018610931874718517
448.0,0.00013127944839652628
480.0,0.00029721605824306607
512.0,0.000613771437201649
576.0,-0.00041624894947744906
640.0,-0.0005143577582202852
704.0,0.0001720771106192842
768.0,-0.00017683141049928963
832.0,-0.0005909202736802399
896.0,0.0008557683904655278
960.0,-0.00015521379827987403
1024.0,-0.0004571618337649852
1152.0,-0.0003185270179528743
1280.0,0.00023713058908469975
1408.0,8.42498047859408e-05
1536.0,-6.330210453597829e-05
1664.0,0.00016447374946437776
1792.0,0.000655544048640877
1920.0,-1.7118611140176654e-05
2048.0,-0.00026418379275128245
2304.0,0.00019558762141969055
2560.0,0.0015182909555733204
2816.0,-0.0004695953393820673
3072.0,-0.00029290380189195275
3328.0,-0.00030473482911475003
3584.0,-0.0007059441995806992
3840.0,-0.0007748721982352436
4096.0,-0.00020769340335391462
4608.0,4.907808488496812e-06
5120.0,0.0001312136882916093
5632.0,-0.00022526878456119448
6144.0,-0.00018235012248624116
6656.0,0.0007597324438393116
7168.0,-0.00034593630698509514
7680.0,0.0005617700517177582
8192.0,0.00041903238161467016
9216.0,4.828378223464824e-05
10240.0,-0.00039274757727980614
11264.0,-0.000873307348228991
12288.0,-0.0005886447615921497
13312.0,-0.0001762652536854148
14336.0,0.00021573895355686545
end
