version,3.0
numOfCh,1
type,point
parent_name,400-cuts
ch_type,1_1
kcount,1
numberNandB,1
brightnessNandB,1
carpet pos,0
pc,0
Time (ms),CH1 Auto-Correlation
1.0,0.021782342344522476
2.0,0.020991578698158264
3.0,0.020242301747202873
4.0,0.019539745524525642
5.0,0.018846305087208748
6.0,0.018168024718761444
7.0,0.01752057671546936
8.0,0.016887743026018143
9.0,0.016282781958580017
10.0,0.015688667073845863
11.0,0.015122898854315281
12.0,0.01456701010465622
13.0,0.014030431397259235
14.0,0.01352569367736578
15.0,0.013044965453445911
16.0,0.012604033574461937
18.0,0.011747683398425579
20.0,0.01093975454568863
22.0,0.010156097821891308
24.0,0.009448974393308163
26.0,0.00878401193767786
28.0,0.00818310771137476
30.0,0.007628961931914091
32.0,0.00714056845754385
36.0,0.006407637614756823
40.0,0.005793288350105286
44.0,0.0052222018130123615
48.0,0.004743184428662062
52.0,0.004338541533797979
56.0,0.0038909881841391325
60.0,0.003374011255800724
64.0,0.0028051906265318394
72.0,0.002044814173132181
80.0,0.0015244001988321543
88.0,0.0011131091741845012
96.0,0.000737710390239954
104.0,0.0005597959388978779
112.0,0.00035797859891317785
120.0,1.1950842235819437e-05
128.0,-0.00041705588228069246
144.0,-4.298304338590242e-05
160.0,0.0003159556654281914
176.0,0.00031253404449671507
192.0,0.0005651312530972064
208.0,0.00067072146339342
224.0,7.390625978587195e-05
240.0,-0.0007722426089458168
256.0,-0.0013892706483602524
288.0,-0.0012244639219716191
320.0,-0.00019558506028261036
352.0,0.0007524060783907771
384.0,0.0007206460577435791
416.0,0.0006538428133353591
448.0,-0.0005700423498637974
480.0,-0.0012978356098756194
512.0,-0.0009168426622636616
576.0,3.447809649514966e-05
640.0,9.19429658097215e-05
704.0,-0.0002787256962619722
768.0,0.0006876654806546867
832.0,7.100933726178482e-05
896.0,3.8887235859874636e-05
960.0,-0.0006174787413328886
1024.0,0.0005862407269887626
1152.0,-0.001374907442368567
1280.0,-0.0010967282578349113
1408.0,-0.00033652305137366056
1536.0,-0.001143295201472938
1664.0,-7.1019894676283e-05
1792.0,-0.00035479984944686294
1920.0,-0.0006211948930285871
2048.0,0.000852928264066577
2304.0,0.00034862197935581207
2560.0,-0.00037260117824189365
2816.0,0.0014041067333891988
3072.0,0.0003511789545882493
3328.0,-0.0008547426550649107
3584.0,-0.0004623275308404118
3840.0,-0.00034604460233822465
4096.0,-0.0007042338256724179
4608.0,-0.0002644686901476234
5120.0,0.0005236464785411954
5632.0,0.0005677533918060362
6144.0,-0.00010815353016369045
6656.0,-0.0005090667400509119
7168.0,5.539888661587611e-05
7680.0,0.0001910627179313451
8192.0,-0.0004496626206673682
9216.0,-0.00041980421519838274
10240.0,-0.00041709322249516845
11264.0,0.00027760452940128744
12288.0,-1.6316069377353415e-05
13312.0,0.00012537064321804792
14336.0,0.0004914329620078206
end
