version,3.0
numOfCh,1
type,point
parent_name,400-cuts
ch_type,1_1
kcount,1
numberNandB,1
brightnessNandB,1
carpet pos,0
pc,0
Time (ms),CH1 Auto-Correlation
1.0,0.019160039722919464
2.0,0.018360761925578117
3.0,0.017634890973567963
4.0,0.016930246725678444
5.0,0.016267452389001846
6.0,0.015645181760191917
7.0,0.015059451572597027
8.0,0.014495904557406902
9.0,0.013962685130536556
10.0,0.013450500555336475
11.0,0.012945061549544334
12.0,0.012472213245928288
13.0,0.012021473608911037
14.0,0.011572246439754963
15.0,0.01114320382475853
16.0,0.010730164125561714
18.0,0.009923004545271397
20.0,0.009182911366224289
22.0,0.00849672220647335
24.0,0.007831196300685406
26.0,0.0071977656334638596
28.0,0.006555976811796427
30.0,0.0059255450032651424
32.0,0.005362521391361952
36.0,0.004376876167953014
40.0,0.0035269621293991804
44.0,0.0028760223649442196
48.0,0.0023978594690561295
52.0,0.002060341415926814
56.0,0.0018586006481200457
60.0,0.001632834319025278
64.0,0.0013804739573970437
72.0,0.0011722412891685963
80.0,0.0011090436019003391
88.0,0.0011094592045992613
96.0,0.001214539515785873
104.0,0.001342492876574397
112.0,0.0014472121838480234
120.0,0.0013921925565227866
128.0,0.001419918262399733
144.0,0.000721363234333694
160.0,9.132743434747681e-05
176.0,-0.0005280607147142291
192.0,-0.000694912625476718
208.0,-0.00027049347409047186
224.0,-0.0001864875666797161
240.0,-0.0002006087452173233
256.0,-0.0005542472354136407
288.0,-0.0005544727900996804
320.0,-0.00019628593872766942
352.0,-0.0001119148000725545
384.0,2.4808607122395188e-05
416.0,-0.0002142297598766163
448.0,-0.0002903894637711346
480.0,-0.0001628138415981084
512.0,0.0003576571471057832
576.0,0.0001474916934967041
640.0,0.0005449035088531673
704.0,0.0002856745559256524
768.0,0.000748574617318809
832.0,0.0006846399046480656
896.0,-0.00030149961821734905
960.0,-0.0001816360600059852
1024.0,-0.00033335466287098825
1152.0,0.0004475581517908722
1280.0,-0.00011276606528554112
1408.0,-0.001029224949888885
1536.0,-0.0006283085676841438
1664.0,-0.0008863722323440015
1792.0,0.0001524857507320121
1920.0,0.0005559423007071018
2048.0,-0.00029051434830762446
2304.0,8.312021964229643e-05
2560.0,-0.00037591528962366283
2816.0,-0.00041248052730225027
3072.0,-0.00022015529975760728
3328.0,-1.1234344128752127e-05
3584.0,-0.0009185264934785664
3840.0,-0.0007302646990865469
4096.0,0.0002263339702039957
4608.0,-2.9596936656162143e-05
5120.0,0.00017890502931550145
5632.0,0.00010136339551536366
6144.0,-0.0002513027284294367
6656.0,-0.00016425024659838527
7168.0,0.00013997827772982419
7680.0,0.00020656274864450097
8192.0,0.0011694160057231784
9216.0,-0.00024717015912756324
10240.0,-2.955373565782793e-05
11264.0,-0.000730598287191242
12288.0,-0.00025322200963273644
13312.0,0.0011777186300605536
14336.0,-0.0003706688294187188
end
