version,3.0
numOfCh,1
type,point
parent_name,400-cuts
ch_type,1_1
kcount,1
numberNandB,1
brightnessNandB,1
carpet pos,0
pc,0
Time (ms),CH1 Auto-Correlation
1.0,0.020362233743071556
2.0,0.019455282017588615
3.0,0.018615826964378357
4.0,0.017794888466596603
5.0,0.017006121575832367
6.0,0.016263408586382866
7.0,0.015523266978561878
8.0,0.014829268679022789
9.0,0.014164824970066547
10.0,0.013514483347535133
11.0,0.012875060550868511
12.0,0.01227992121130228
13.0,0.011697327718138695
14.0,0.011127450503408909
15.0,0.010625995695590973
16.0,0.010150616057217121
18.0,0.009304610081017017
20.0,0.008541862480342388
22.0,0.007880782708525658
24.0,0.007273714989423752
26.0,0.006719067692756653
28.0,0.006228458136320114
30.0,0.005814805161207914
32.0,0.005467323586344719
36.0,0.004796202760189772
40.0,0.004176037851721048
44.0,0.0036308886483311653
48.0,0.003312388900667429
52.0,0.003050109837204218
56.0,0.0028932709246873856
60.0,0.0027492656372487545
64.0,0.0025688335299491882
72.0,0.0023514977656304836
80.0,0.002295440761372447
88.0,0.0022603990510106087
96.0,0.0023427370470017195
104.0,0.002430433640256524
112.0,0.0021887568291276693
120.0,0.0016394518315792084
128.0,0.001260576187632978
144.0,0.0012031327933073044
160.0,0.0010593549814075232
176.0,0.0006315628415904939
192.0,-0.00029021166847087443
208.0,-0.0004497457994148135
224.0,-0.00046508345985785127
240.0,-0.00048609243822284043
256.0,-0.0005411162856034935
288.0,0.0001561238314025104
320.0,0.0007814440177753568
352.0,0.00014996592653915286
384.0,0.00054884422570467
416.0,0.0006004276219755411
448.0,0.0008319627377204597
480.0,0.0009910957887768745
512.0,0.0010867533273994923
576.0,0.0001811246620491147
640.0,-0.0005511735216714442
704.0,0.00039300863863900304
768.0,0.0003785317821893841
832.0,0.00028962877695448697
896.0,0.0007715577958151698
960.0,-7.879249460529536e-05
1024.0,-0.0005719031905755401
1152.0,-0.0008940218831412494
1280.0,0.0001555822091177106
1408.0,-0.00015435798559337854
1536.0,1.419423733750591e-05
1664.0,-0.00012863980373367667
1792.0,0.0012180489720776677
1920.0,0.00047428254038095474
2048.0,0.0011746574891731143
2304.0,0.00043239936348982155
2560.0,0.00012182690988993272
2816.0,0.00033120502484962344
3072.0,-0.00016571040032431483
3328.0,-0.00032737344736233354
3584.0,-0.0005707076634280384
3840.0,-0.00027563018375076354
4096.0,-0.000943189428653568
4608.0,-0.00018673273734748363
5120.0,0.0005416730418801308
5632.0,-0.0006644395762123168
6144.0,-0.00037144377711229026
6656.0,-0.00021942447347100824
7168.0,-3.968263263232075e-05
7680.0,-0.0007064514211378992
8192.0,-0.0001660783018451184
9216.0,-0.00029474589973688126
10240.0,-0.0005532425711862743
11264.0,-0.00032355665462091565
12288.0,0.00037278595846146345
13312.0,-9.261805098503828e-05
14336.0,0.000507004966493696
end
