version,3.0
numOfCh,1
type,point
parent_name,400-cuts
ch_type,1_1
kcount,1
numberNandB,1
brightnessNandB,1
carpet pos,0
pc,0
Time (ms),CH1 Auto-Correlation
1.0,0.030425209552049637
2.0,0.02920094132423401
3.0,0.02803059108555317
4.0,0.026911400258541107
5.0,0.02585037611424923
6.0,0.024878690019249916
7.0,0.023950153961777687
8.0,0.023029571399092674
9.0,0.022139355540275574
10.0,0.0212746299803257
11.0,0.020513618364930153
12.0,0.019811317324638367
13.0,0.01914496161043644
14.0,0.0185039434581995
15.0,0.01790696382522583
16.0,0.017360100522637367
18.0,0.01634412817656994
20.0,0.015304435044527054
22.0,0.01431566383689642
24.0,0.013413765467703342
26.0,0.01260459329932928
28.0,0.011829540133476257
30.0,0.01115474570542574
32.0,0.010570390149950981
36.0,0.009428120218217373
40.0,0.00828231405466795
44.0,0.007246346212923527
48.0,0.006404904183000326
52.0,0.00554434722289443
56.0,0.004655430093407631
60.0,0.0036565179470926523
64.0,0.0027564370539039373
72.0,0.0014146233443170786
80.0,0.0005688284290954471
88.0,-2.6082236217916943e-05
96.0,-0.0006328700692392886
104.0,-0.00089602405205369
112.0,-0.0010880377376452088
120.0,-0.001107838936150074
128.0,-0.0011159819550812244
144.0,-0.00034891508403234184
160.0,0.0002142880839528516
176.0,8.856735075823963e-05
192.0,-2.3980715923244134e-05
208.0,-0.00033728263224475086
224.0,-0.0005767595139332116
240.0,-0.0006319927633740008
256.0,-0.0009455826948396862
288.0,-0.0005039731622673571
320.0,0.000785360112786293
352.0,0.001541081932373345
384.0,0.002284437417984009
416.0,0.0015765337739139795
448.0,0.0008731057750992477
480.0,0.0001100693698390387
512.0,0.00029717604047618806
576.0,0.00011068909225286916
640.0,0.0005568198394030333
704.0,0.00020059364032931626
768.0,-5.4158321290742606e-05
832.0,0.0006775532965548337
896.0,0.00021362061670515686
960.0,0.0010023646755144
1024.0,-0.0003213093732483685
1152.0,-0.0009749096934683621
1280.0,-0.001849317573942244
1408.0,-0.0005932566127739847
1536.0,-0.0012944801710546017
1664.0,0.0008162435260601342
1792.0,0.00033292575972154737
1920.0,-0.0013200660469010472
2048.0,-0.0011901360703632236
2304.0,7.86838136264123e-05
2560.0,0.0005832221359014511
2816.0,-0.0011749104596674442
3072.0,-0.0005347725236788392
3328.0,-0.0006230928120203316
3584.0,-0.0004527168348431587
3840.0,-0.0001282471785089001
4096.0,0.00048400688683614135
4608.0,0.0012995369033887982
5120.0,-0.0009021715959534049
5632.0,0.0009592419373802841
6144.0,0.0006244144169613719
6656.0,-0.00011918814561795443
7168.0,-4.418142270878889e-05
7680.0,-0.000926202570553869
8192.0,6.896252307342365e-05
9216.0,-6.897694402141497e-05
10240.0,-0.00024015938106458634
11264.0,0.000711822125595063
12288.0,0.00030329482979141176
13312.0,-0.0004769244696944952
14336.0,-0.002526255790144205
end
