version,3.0
numOfCh,1
type,point
parent_name,400-cuts
ch_type,1_1
kcount,1
numberNandB,1
brightnessNandB,1
carpet pos,0
pc,0
Time (ms),CH1 Auto-Correlation
1.0,0.05812251195311546
2.0,0.05559359863400459
3.0,0.05313172563910484
4.0,0.05084053426980972
5.0,0.04862414300441742
6.0,0.04650411382317543
7.0,0.044456012547016144
8.0,0.042532920837402344
9.0,0.04061932861804962
10.0,0.03874479979276657
11.0,0.037004485726356506
12.0,0.03530636429786682
13.0,0.033743809908628464
14.0,0.032288745045661926
15.0,0.030903372913599014
16.0,0.02960376814007759
18.0,0.027060749009251595
20.0,0.024830659851431847
22.0,0.02291378192603588
24.0,0.02115149237215519
26.0,0.019471118226647377
28.0,0.01787775754928589
30.0,0.016416508704423904
32.0,0.01517134252935648
36.0,0.013210495933890343
40.0,0.011502524837851524
44.0,0.009990355931222439
48.0,0.008724494837224483
52.0,0.00785529613494873
56.0,0.006911631673574448
60.0,0.006011499557644129
64.0,0.0051872748881578445
72.0,0.0037439141888171434
80.0,0.00232025352306664
88.0,0.000980599201284349
96.0,-0.00023088394664227962
104.0,-0.0011138831032440066
112.0,-0.0017736452864482999
120.0,-0.0019149521831423044
128.0,-0.0017268790397793055
144.0,-0.001214774907566607
160.0,-0.002541901310905814
176.0,-0.005074830260127783
192.0,-0.005001248326152563
208.0,-0.0025966642424464226
224.0,-0.0011957011884078383
240.0,-0.001888242200948298
256.0,-0.001478718826547265
288.0,0.002643356565386057
320.0,0.0006355621153488755
352.0,0.001811040798202157
384.0,-0.0006237358902581036
416.0,-0.0023949265014380217
448.0,-0.0029358614701777697
480.0,-0.001397840678691864
512.0,0.0005791246076114476
576.0,0.00034693663474172354
640.0,-0.001847410574555397
704.0,-0.005421686451882124
768.0,-0.0024615847505629063
832.0,-1.0909963748417795e-05
896.0,-0.003619925584644079
960.0,-0.00016849683015607297
1024.0,0.0006239391514100134
1152.0,0.0032958982046693563
1280.0,0.0015288908034563065
1408.0,-0.0024714588653296232
1536.0,0.0006262100068852305
1664.0,0.0003098021843470633
1792.0,-0.001455593854188919
1920.0,-0.0015503291506320238
2048.0,-0.0018991673132404685
2304.0,-0.00041279930155724287
2560.0,-0.0013824761845171452
2816.0,0.0003632007574196905
3072.0,-0.00024604753707535565
3328.0,0.00045198271982371807
3584.0,-0.0011048555606976151
3840.0,0.00030439550755545497
4096.0,0.0012203261721879244
4608.0,-0.000999281881377101
5120.0,0.0023426020052284002
5632.0,-0.0016652774065732956
6144.0,0.0016315041575580835
6656.0,-0.002531927777454257
7168.0,-0.0006171284476295114
7680.0,-0.0016856741858646274
8192.0,0.0015548429219052196
9216.0,0.0001072711602319032
10240.0,0.0002440775278955698
11264.0,-0.0007565241539850831
12288.0,0.0005226592184044421
13312.0,0.00023354847508016974
14336.0,0.00044229411287233233
end
