version,3.0
numOfCh,1
type,point
parent_name,400-cuts
ch_type,1_1
kcount,1
numberNandB,1
brightnessNandB,1
carpet pos,0
pc,0
Time (ms),CH1 Auto-Correlation
1.0,0.022527815774083138
2.0,0.021632133051753044
3.0,0.020799670368433
4.0,0.019992921501398087
5.0,0.01922866702079773
6.0,0.018495958298444748
7.0,0.01780473254621029
8.0,0.017160221934318542
9.0,0.016538606956601143
10.0,0.01594151183962822
11.0,0.015354602597653866
12.0,0.014810663647949696
13.0,0.014291648752987385
14.0,0.013766443356871605
15.0,0.013287690468132496
16.0,0.012815732508897781
18.0,0.011926316656172276
20.0,0.011123351752758026
22.0,0.010384478606283665
24.0,0.009735975414514542
26.0,0.009156271815299988
28.0,0.008596262894570827
30.0,0.008041050285100937
32.0,0.007523797452449799
36.0,0.0065774135291576385
40.0,0.005777004640549421
44.0,0.005143055226653814
48.0,0.004642103798687458
52.0,0.004180969670414925
56.0,0.0037545973900705576
60.0,0.003294949419796467
64.0,0.002791947452351451
72.0,0.0019363195169717073
80.0,0.0014691547257825732
88.0,0.001203238731250167
96.0,0.000822614470962435
104.0,0.0004805843927897513
112.0,-0.00012165108637418598
120.0,-0.0005878955125808716
128.0,-0.0008060050313360989
144.0,-0.000715456495527178
160.0,-0.00024152839614544064
176.0,-0.00020922382827848196
192.0,-0.0003042815369553864
208.0,-0.0002819495275616646
224.0,2.890692712753662e-06
240.0,0.00020651155500672758
256.0,0.00015974159759934992
288.0,0.00050916220061481
320.0,0.00041665692697279155
352.0,0.00017395109171047807
384.0,0.000987503444775939
416.0,0.0017630431102588773
448.0,0.0014611156657338142
480.0,0.0007800434832461178
512.0,-8.415225602220744e-05
576.0,5.781230720458552e-05
640.0,0.0002910425828304142
704.0,-5.387554210756207e-06
768.0,0.00046767175081185997
832.0,0.001044474309310317
896.0,-0.00011812758020823821
960.0,-0.00016693660290911794
1024.0,0.0007728295749984682
1152.0,-0.0007182059925980866
1280.0,-0.0012066002236679196
1408.0,-0.000753974833060056
1536.0,-0.0001333229010924697
1664.0,-0.0011670144740492105
1792.0,-0.0003313174529466778
1920.0,-0.0003832679067272693
2048.0,-0.0007452413556165993
2304.0,-0.0002796076878439635
2560.0,-0.00021502398885786533
2816.0,0.00021656457101926208
3072.0,-0.0006846167962066829
3328.0,-0.00042995979310944676
3584.0,0.0008141450234688818
3840.0,-0.001698771957308054
4096.0,-0.0009023506427183747
4608.0,-0.0002562722656875849
5120.0,0.0007968933205120265
5632.0,0.0007853849092498422
6144.0,0.00016051868442445993
6656.0,9.987031808122993e-05
7168.0,0.000258831336395815
7680.0,5.112057624501176e-05
8192.0,-0.0006066678906790912
9216.0,-0.001126752351410687
10240.0,0.0002070314803859219
11264.0,0.0011460165260359645
12288.0,0.0003085129428654909
13312.0,-0.00046886419295333326
14336.0,-0.0012193277943879366
end
