version,3.0
numOfCh,1
type,point
parent_name,400-cuts
ch_type,1_1
kcount,1
numberNandB,1
brightnessNandB,1
carpet pos,0
pc,0
Time (ms),CH1 Auto-Correlation
1.0,0.07139281183481216
2.0,0.06818058341741562
3.0,0.06510236859321594
4.0,0.06218292936682701
5.0,0.059453196823596954
6.0,0.056890517473220825
7.0,0.05439937114715576
8.0,0.05203588679432869
9.0,0.04980973154306412
10.0,0.047697972506284714
11.0,0.04577847570180893
12.0,0.04403117671608925
13.0,0.04239672049880028
14.0,0.040782567113637924
15.0,0.039215318858623505
16.0,0.03768109530210495
18.0,0.03464677557349205
20.0,0.03182138502597809
22.0,0.02925635501742363
24.0,0.02673366665840149
26.0,0.024478621780872345
28.0,0.022443294525146484
30.0,0.020447760820388794
32.0,0.01868940331041813
36.0,0.01584487035870552
40.0,0.01326658297330141
44.0,0.01141699030995369
48.0,0.009963887743651867
52.0,0.008565017022192478
56.0,0.007287178188562393
60.0,0.00612489553168416
64.0,0.005025283899158239
72.0,0.003022147575393319
80.0,0.0007205826113931835
88.0,-0.001120246946811676
96.0,-0.002188132144510746
104.0,-0.002661084523424506
112.0,-0.003367627039551735
120.0,-0.00400977348908782
128.0,-0.0037650219164788723
144.0,-0.002961857244372368
160.0,-0.0028934115543961525
176.0,-0.002057172590866685
192.0,-0.0018804477294906974
208.0,-0.001268831780180335
224.0,-0.0007363188778981566
240.0,-0.0014068491291254759
256.0,-0.0017948939930647612
288.0,-0.002152820583432913
320.0,-0.0016679046675562859
352.0,0.002054025651887059
384.0,0.004451815504580736
416.0,0.004208511672914028
448.0,0.00025237927911803126
480.0,-0.00021253927843645215
512.0,-0.0011958277318626642
576.0,-0.006029361858963966
640.0,-0.0035136600490659475
704.0,-0.0011812340235337615
768.0,0.0044851163402199745
832.0,0.0015225212555378675
896.0,0.0010137874633073807
960.0,0.0006291537429206073
1024.0,-0.0010802854085341096
1152.0,-0.000128326122649014
1280.0,0.0015440472634509206
1408.0,0.00013920124911237508
1536.0,-0.005323015619069338
1664.0,0.0019895301666110754
1792.0,-0.0009699038928374648
1920.0,-0.001989256124943495
2048.0,0.0007768664509057999
2304.0,0.0020577346440404654
2560.0,0.002054758369922638
2816.0,-0.0018527234205976129
3072.0,-0.0002858872467186302
3328.0,0.00389005895704031
3584.0,-0.0015818070387467742
3840.0,-0.002694907132536173
4096.0,0.0014153835363686085
4608.0,-0.00029873353196308017
5120.0,0.00017121617565862834
5632.0,0.00046580980415455997
6144.0,-0.0015034773387014866
6656.0,0.0006274283514358103
7168.0,-0.0009781374828889966
7680.0,-0.0014696231810376048
8192.0,0.0016216904623433948
9216.0,-0.0005243715131655335
10240.0,-0.00024027768813539296
11264.0,-0.00020580239652190357
12288.0,-0.00029994428041391075
13312.0,0.00011929804168175906
14336.0,-0.0006065681227482855
end
