version,3.0
numOfCh,1
type,point
parent_name,400-cuts
ch_type,1_1
kcount,1
numberNandB,1
brightnessNandB,1
carpet pos,0
pc,0
Time (ms),CH1 Auto-Correlation
1.0,0.027242161333560944
2.0,0.026043791323900223
3.0,0.024913616478443146
4.0,0.023821020498871803
5.0,0.022788627073168755
6.0,0.021820558235049248
7.0,0.020906073972582817
8.0,0.02007453702390194
9.0,0.01928953267633915
10.0,0.01856076903641224
11.0,0.01790272817015648
12.0,0.0172584168612957
13.0,0.016677333042025566
14.0,0.01614048145711422
15.0,0.01565994694828987
16.0,0.01519485842436552
18.0,0.014255288057029247
20.0,0.01342692319303751
22.0,0.012675518169999123
24.0,0.011972835287451744
26.0,0.011244762688875198
28.0,0.010506168007850647
30.0,0.009812425822019577
32.0,0.009167003445327282
36.0,0.00808799359947443
40.0,0.0070476774126291275
44.0,0.006238836329430342
48.0,0.005467078648507595
52.0,0.004718579817563295
56.0,0.004050486721098423
60.0,0.0033647825475782156
64.0,0.0027293351013213396
72.0,0.0019234481733292341
80.0,0.0014124807203188539
88.0,0.0007695094682276249
96.0,0.00016357997083105147
104.0,0.0001165507928817533
112.0,0.0005258239689283073
120.0,0.00048411384341306984
128.0,0.0006466057384386659
144.0,0.0010966190602630377
160.0,0.001265698461793363
176.0,0.0006708666915073991
192.0,-0.00014493783237412572
208.0,-0.0010451583657413721
224.0,-0.0017728795064613223
240.0,-0.0017427944112569094
256.0,-0.0018791996408253908
288.0,-0.001518173492513597
320.0,-0.0007487557013519108
352.0,-0.0011990572093054652
384.0,-0.0010168706066906452
416.0,-0.00035278734867461026
448.0,-0.00030847129528410733
480.0,-0.000529894488863647
512.0,-0.0015153742861002684
576.0,-0.0004562276881188154
640.0,0.0003528680244926363
704.0,-0.0011862909886986017
768.0,-0.0002752433647401631
832.0,7.785930938553065e-05
896.0,-0.0003693602920975536
960.0,-0.0003250259323976934
1024.0,0.0010885978117585182
1152.0,1.5620111298630945e-05
1280.0,0.000120523342047818
1408.0,-0.001601388561539352
1536.0,-0.00202386686578393
1664.0,-0.00027900654822587967
1792.0,-0.0012573138810694218
1920.0,-0.00020026059064548463
2048.0,-0.00019556315965019166
2304.0,0.0008849867153912783
2560.0,-0.0008830100414343178
2816.0,0.0005274239229038358
3072.0,0.0012286333367228508
3328.0,-0.00014091740013100207
3584.0,-0.000729795137885958
3840.0,-0.0003061173192691058
4096.0,0.0001003609795589
4608.0,0.00014969106996431947
5120.0,5.12672086188104e-05
5632.0,0.0006769269821234047
6144.0,-0.00011621875455603004
6656.0,0.00034776789834722877
7168.0,-0.0009160088375210762
7680.0,-0.00019833666738122702
8192.0,0.0008015750208869576
9216.0,-0.00018677665502764285
10240.0,0.00014541565906256437
11264.0,5.244877320365049e-05
12288.0,-0.0002723888319451362
13312.0,-0.00023237317509483546
14336.0,0.0004902383079752326
end
