version,3.0
numOfCh,1
type,point
parent_name,400-cuts
ch_type,1_1
kcount,1
numberNandB,1
brightnessNandB,1
carpet pos,0
pc,0
Time (ms),CH1 Auto-Correlation
1.0,0.059694308787584305
2.0,0.05693576857447624
3.0,0.054371196776628494
4.0,0.051998935639858246
5.0,0.04979312792420387
6.0,0.047654494643211365
7.0,0.04557899758219719
8.0,0.0436401441693306
9.0,0.04173814132809639
10.0,0.03996996581554413
11.0,0.03834845870733261
12.0,0.036753445863723755
13.0,0.03520907089114189
14.0,0.033790748566389084
15.0,0.03246155381202698
16.0,0.031184904277324677
18.0,0.028841806575655937
20.0,0.026690920814871788
22.0,0.024744344875216484
24.0,0.022946851328015327
26.0,0.02122514322400093
28.0,0.019689515233039856
30.0,0.01835503801703453
32.0,0.01720426417887211
36.0,0.014860158786177635
40.0,0.012837393209338188
44.0,0.011062097735702991
48.0,0.009873754344880581
52.0,0.008742722682654858
56.0,0.0074529750272631645
60.0,0.006184048019349575
64.0,0.004926041234284639
72.0,0.0029373655561357737
80.0,0.0010490452405065298
88.0,-0.0007885175873525441
96.0,-0.0019023955101147294
104.0,-0.0023681805469095707
112.0,-0.0026404689997434616
120.0,-0.0024929987266659737
128.0,-0.0019385131308808923
144.0,-2.9988066671648994e-05
160.0,0.0016912840073928237
176.0,0.0013229057658463717
192.0,7.396777800749987e-05
208.0,-0.0004150164604652673
224.0,0.0002555394603405148
240.0,0.0004812039260286838
256.0,-0.00010487393592484295
288.0,-0.00023995099763851613
320.0,-0.00036425446160137653
352.0,-0.0007770885131321847
384.0,-0.002278384519740939
416.0,-0.00010242624557577074
448.0,0.0020348913967609406
480.0,0.00529245100915432
512.0,0.005331648979336023
576.0,0.0019944016821682453
640.0,0.00077968486584723
704.0,0.0008225505007430911
768.0,-0.0011683942284435034
832.0,-0.0037346375174820423
896.0,-0.0011340794153511524
960.0,-0.001005477039143443
1024.0,-0.0015769206220284104
1152.0,-0.0006817824905738235
1280.0,-0.00027023404254578054
1408.0,-0.0015459373826161027
1536.0,-0.0032275377307087183
1664.0,0.00037468160735443234
1792.0,0.001362824928946793
1920.0,0.00014728098176419735
2048.0,-0.0009383180295117199
2304.0,5.919998875469901e-05
2560.0,-0.0006128388922661543
2816.0,0.0011500244727358222
3072.0,0.00011654179979814216
3328.0,0.0007301770383492112
3584.0,0.0006178681505843997
3840.0,-2.2358897240337683e-06
4096.0,-0.0005091280909255147
4608.0,-0.0011116310488432646
5120.0,-0.0018486164044588804
5632.0,-0.0006182804936543107
6144.0,-0.0008313196012750268
6656.0,0.0015899090794846416
7168.0,-0.0003930246748495847
7680.0,-0.00018533080583438277
8192.0,-0.0017993131186813116
9216.0,0.0004549360310193151
10240.0,0.0034238009247928858
11264.0,-0.0017278646118938923
12288.0,0.0012894035317003727
13312.0,0.001837628660723567
14336.0,-0.005066078156232834
end
