version,3.0
numOfCh,1
type,point
parent_name,400-cuts
ch_type,1_1
kcount,1
numberNandB,1
brightnessNandB,1
carpet pos,0
pc,0
Time (ms),CH1 Auto-Correlation
1.0,0.0228672344237566
2.0,0.021939117461442947
3.0,0.021066730841994286
4.0,0.02025170624256134
5.0,0.019478904083371162
6.0,0.018739383667707443
7.0,0.018042000010609627
8.0,0.017355889081954956
9.0,0.016698122024536133
10.0,0.01608479954302311
11.0,0.015494774095714092
12.0,0.014919710345566273
13.0,0.014358424581587315
14.0,0.013809525407850742
15.0,0.013273936696350574
16.0,0.012765925377607346
18.0,0.01183746661990881
20.0,0.010972696356475353
22.0,0.010134509764611721
24.0,0.0093428585678339
26.0,0.008643490262329578
28.0,0.007968694902956486
30.0,0.007385482545942068
32.0,0.00686222780495882
36.0,0.005948806181550026
40.0,0.005075606983155012
44.0,0.004257229156792164
48.0,0.0035507308784872293
52.0,0.0031482400372624397
56.0,0.003008324885740876
60.0,0.0028530280105769634
64.0,0.002639561425894499
72.0,0.002103477017953992
80.0,0.0017120137345045805
88.0,0.0014186033513396978
96.0,0.0010070776334032416
104.0,0.0006383927538990974
112.0,0.0003343726275488734
120.0,0.0001729723735479638
128.0,-1.2202426660223864e-05
144.0,0.00021316937636584044
160.0,0.0005607752245850861
176.0,0.00090395612642169
192.0,0.0008655543206259608
208.0,0.00022029224783182144
224.0,-0.0002238346787635237
240.0,-0.0005780402570962906
256.0,-2.3742873963783495e-05
288.0,0.000153365166625008
320.0,-0.000143635697895661
352.0,-0.0005699443863704801
384.0,-0.0012404932640492916
416.0,-0.0014296999434009194
448.0,-0.0008743936778046191
480.0,-0.0011797624174505472
512.0,-0.001572820357978344
576.0,-0.0006954008713364601
640.0,-0.0005687212105840445
704.0,-0.0002563931921031326
768.0,-0.00044459672062657773
832.0,-0.0016475210431963205
896.0,0.0003332373162265867
960.0,0.0007972009479999542
1024.0,-0.0004795160493813455
1152.0,-0.0005114172236062586
1280.0,-9.781138942344114e-05
1408.0,-6.779321847716346e-05
1536.0,-0.0006570935947820544
1664.0,0.0006005726172588766
1792.0,-0.0009023534366860986
1920.0,-9.748523007147014e-05
2048.0,-0.0014042858965694904
2304.0,0.0009850398637354374
2560.0,0.000995539128780365
2816.0,-0.0010649494361132383
3072.0,-3.0378918381757103e-05
3328.0,0.0002389384462730959
3584.0,-0.0007650681654922664
3840.0,-0.0005748452385887504
4096.0,0.0005116884713061154
4608.0,0.00022058449394535273
5120.0,0.00020499735546763986
5632.0,-0.00012678706843871623
6144.0,-0.0010957816848531365
6656.0,0.0004894912126474082
7168.0,0.00041605401202104986
7680.0,-0.00026963037089444697
8192.0,0.00048227611114270985
9216.0,-5.00732749060262e-05
10240.0,0.0002949416812043637
11264.0,-0.0006100737955421209
12288.0,7.06663413438946e-05
13312.0,0.00030948553467169404
14336.0,-0.0003507725486997515
end
