version,3.0
numOfCh,1
type,point
parent_name,400-cuts
ch_type,1_1
kcount,1
numberNandB,1
brightnessNandB,1
carpet pos,0
pc,0
Time (ms),CH1 Auto-Correlation
1.0,0.020889412611722946
2.0,0.02005956694483757
3.0,0.01926705427467823
4.0,0.018517179414629936
5.0,0.01779056526720524
6.0,0.017134977504611015
7.0,0.016522906720638275
8.0,0.01592431776225567
9.0,0.015362105332314968
10.0,0.01483322773128748
11.0,0.014316434040665627
12.0,0.013819724321365356
13.0,0.013338971883058548
14.0,0.012882891111075878
15.0,0.012457272969186306
16.0,0.012046859599649906
18.0,0.011278422549366951
20.0,0.010563855990767479
22.0,0.009886539541184902
24.0,0.009221917018294334
26.0,0.00857808068394661
28.0,0.007997218519449234
30.0,0.00748389633372426
32.0,0.007029040716588497
36.0,0.006179298739880323
40.0,0.005398671142756939
44.0,0.004767117090523243
48.0,0.004144774749875069
52.0,0.0034742821007966995
56.0,0.0028534564189612865
60.0,0.002417860087007284
64.0,0.0021594262216240168
72.0,0.0017386069521307945
80.0,0.0013269721530377865
88.0,0.0010675103403627872
96.0,0.0006461836164817214
104.0,0.0004522167728282511
112.0,0.00027680923813022673
120.0,0.00026238890131935477
128.0,0.00020535163639578968
144.0,0.00020955799845978618
160.0,0.00018440870917402208
176.0,0.0002516870736144483
192.0,-0.0002539246343076229
208.0,6.620939529966563e-05
224.0,9.561167098581791e-05
240.0,-7.736408588243648e-05
256.0,-0.00036644612555392087
288.0,-0.0010594032937660813
320.0,-0.0012666666880249977
352.0,-0.0003076828725170344
384.0,-0.00036919445847161114
416.0,-0.0010945609537884593
448.0,-0.0010748433414846659
480.0,-0.00018690794240683317
512.0,0.0005234820418991148
576.0,0.00030944737954996526
640.0,-0.001427891431376338
704.0,-0.0005706341471523046
768.0,-0.0002824717084877193
832.0,-0.0005861623212695122
896.0,-0.0007199655519798398
960.0,-7.828369416529313e-05
1024.0,-1.1964786608587019e-05
1152.0,-0.0009615838644094765
1280.0,-0.0005490724579431117
1408.0,-0.0011853821342810988
1536.0,-9.771532495506108e-05
1664.0,0.0012684520334005356
1792.0,0.0015404693549498916
1920.0,0.0013263113796710968
2048.0,0.0011995959794148803
2304.0,-0.00031277487869374454
2560.0,-0.0009126968798227608
2816.0,-0.0003019156865775585
3072.0,-0.0008017490617930889
3328.0,-0.0003369356272742152
3584.0,0.0008865160052664578
3840.0,0.0015874500386416912
4096.0,-3.5922665119869635e-05
4608.0,-0.0008504523430019617
5120.0,-0.0007154995109885931
5632.0,0.0005608567735180259
6144.0,9.05243905435782e-06
6656.0,-0.0008351991418749094
7168.0,0.00052275275811553
7680.0,0.0009400096023455262
8192.0,-0.0005090393242426217
9216.0,2.0831799702136777e-05
10240.0,0.00011881891987286508
11264.0,8.390756556764245e-05
12288.0,-0.0001477222249377519
13312.0,-0.0002986721519846469
14336.0,0.000150295440107584
end
