version,3.0
numOfCh,1
type,point
parent_name,400-cuts
ch_type,1_1
kcount,1
numberNandB,1
brightnessNandB,1
carpet pos,0
pc,0
Time (ms),CH1 Auto-Correlation
1.0,0.05693946033716202
2.0,0.05459623038768768
3.0,0.052304886281490326
4.0,0.05007379502058029
5.0,0.04790749400854111
6.0,0.045880042016506195
7.0,0.043931324034929276
8.0,0.04208654537796974
9.0,0.040276769548654556
10.0,0.03854583948850632
11.0,0.03685145080089569
12.0,0.035248562693595886
13.0,0.0337049774825573
14.0,0.032190967351198196
15.0,0.030732639133930206
16.0,0.02931920997798443
18.0,0.026678090915083885
20.0,0.024247292429208755
22.0,0.022171983495354652
24.0,0.020336201414465904
26.0,0.018638532608747482
28.0,0.01711762696504593
30.0,0.01575651206076145
32.0,0.014388536103069782
36.0,0.012169345282018185
40.0,0.010603208094835281
44.0,0.009345917962491512
48.0,0.008465401828289032
52.0,0.008044932968914509
56.0,0.007679963484406471
60.0,0.007278492208570242
64.0,0.007005720864981413
72.0,0.006869853939861059
80.0,0.006510254926979542
88.0,0.005323117598891258
96.0,0.0029837738256901503
104.0,0.0009215195314027369
112.0,-0.00025446421932429075
120.0,-0.0008824685937725008
128.0,-0.0009512145188637078
144.0,-0.0004982225364074111
160.0,0.0005477658123709261
176.0,6.717291398672387e-05
192.0,-0.0013450236292555928
208.0,-0.001921642804518342
224.0,-0.0003628326812759042
240.0,0.0008931890479288995
256.0,0.0011717691086232662
288.0,0.0005370642174966633
320.0,0.00022576043556910008
352.0,-0.0010228822939097881
384.0,-0.000858222832903266
416.0,0.0009454698301851749
448.0,0.001213531126268208
480.0,0.003795483848080039
512.0,0.004113525617867708
576.0,0.0013003628700971603
640.0,0.0003667848068289459
704.0,0.00215598801150918
768.0,-0.0003442908637225628
832.0,-0.004012730438262224
896.0,-0.002444107783958316
960.0,-0.0008136790129356086
1024.0,0.0001757041027303785
1152.0,-0.0003044374461751431
1280.0,0.0008156055700965226
1408.0,0.00024791370378807187
1536.0,-0.0012523663463070989
1664.0,0.0002778529596980661
1792.0,-0.001556883449666202
1920.0,0.0013059459161013365
2048.0,-0.00016476218297611922
2304.0,-0.0005502712447196245
2560.0,-0.00023936774232424796
2816.0,-0.001316476846113801
3072.0,-0.003094071988016367
3328.0,0.0006205043755471706
3584.0,-0.0020234480034559965
3840.0,0.00021018704865127802
4096.0,0.0014235734706744552
4608.0,0.0008655128185637295
5120.0,-0.0007232578936964273
5632.0,-0.0010958677157759666
6144.0,1.9704724763869308e-05
6656.0,0.0012669441057369113
7168.0,0.0010215301299467683
7680.0,-0.0003522188635542989
8192.0,0.001555087510496378
9216.0,0.0004944519605487585
10240.0,-0.00228920578956604
11264.0,-0.0015052658272907138
12288.0,-0.0012266526464372873
13312.0,0.002111823996528983
14336.0,-0.0019721740391105413
end
