version,3.0
numOfCh,1
type,point
parent_name,400-cuts
ch_type,1_1
kcount,1
numberNandB,1
brightnessNandB,1
carpet pos,0
pc,0
Time (ms),CH1 Auto-Correlation
1.0,0.022992707788944244
2.0,0.02203609235584736
3.0,0.021159732714295387
4.0,0.020320221781730652
5.0,0.019527819007635117
6.0,0.018779003992676735
7.0,0.01807420141994953
8.0,0.01742684096097946
9.0,0.016837742179632187
10.0,0.01628340594470501
11.0,0.015752140432596207
12.0,0.015262411907315254
13.0,0.014776153489947319
14.0,0.01430524606257677
15.0,0.01385408267378807
16.0,0.013430455699563026
18.0,0.012563436292111874
20.0,0.011715478263795376
22.0,0.010946190916001797
24.0,0.010274654254317284
26.0,0.0096855778247118
28.0,0.009132790379226208
30.0,0.008618528954684734
32.0,0.00818053912371397
36.0,0.007347337435930967
40.0,0.006617350038141012
44.0,0.006019090302288532
48.0,0.0053831711411476135
52.0,0.0048711104318499565
56.0,0.004446004517376423
60.0,0.004098357167094946
64.0,0.0038482327945530415
72.0,0.0033105749171227217
80.0,0.00254012830555439
88.0,0.0017426718259230256
96.0,0.0012102741748094559
104.0,0.0009484700276516378
112.0,0.0006010218057781458
120.0,0.00024007151660043746
128.0,-3.7568286643363535e-05
144.0,-0.000765772070735693
160.0,-0.001057226792909205
176.0,-0.0014247650979086757
192.0,-0.0010874716099351645
208.0,-0.0006612536963075399
224.0,-0.0002904532302636653
240.0,-0.0006299855886027217
256.0,-0.000423347984906286
288.0,-0.0010050470009446144
320.0,-0.0019157934002578259
352.0,-0.0017552569042891264
384.0,-0.002370546106249094
416.0,-0.0017453569453209639
448.0,-0.0010722888400778174
480.0,-0.0009056336130015552
512.0,-0.00021069851936772466
576.0,1.1511202501424123e-05
640.0,0.0008581445435993373
704.0,0.002002028049901128
768.0,0.0007460149354301393
832.0,0.0007655170629732311
896.0,-0.00010386821668362245
960.0,0.00031100912019610405
1024.0,-0.0010744851315394044
1152.0,-0.00027628778479993343
1280.0,-0.0003713039041031152
1408.0,0.0009193685837090015
1536.0,0.0011522071436047554
1664.0,-0.0009934292174875736
1792.0,-0.0005513834184966981
1920.0,-0.0005145550239831209
2048.0,-0.0005896015791222453
2304.0,-0.0010238377144560218
2560.0,-0.0003726340946741402
2816.0,0.00041346336365677416
3072.0,0.00010065560491057113
3328.0,-0.0003385814488865435
3584.0,0.00012274447362869978
3840.0,-0.0005955835222266614
4096.0,-0.0004058021877426654
4608.0,5.981381764286198e-05
5120.0,0.00017192831728607416
5632.0,0.00039332735468633473
6144.0,4.7263005399145186e-05
6656.0,-0.0002921704144682735
7168.0,-0.0004980825469829142
7680.0,-0.0003148175310343504
8192.0,-0.0004424075304996222
9216.0,7.397298759315163e-05
10240.0,-0.00017383605882059783
11264.0,0.0001224257139256224
12288.0,0.00014059980458114296
13312.0,4.9493100959807634e-05
14336.0,-2.391402085777372e-05
end
