version,3.0
numOfCh,1
type,point
parent_name,400-cuts
ch_type,1_1
kcount,1
numberNandB,1
brightnessNandB,1
carpet pos,0
pc,0
Time (ms),CH1 Auto-Correlation
1.0,0.06282602250576019
2.0,0.06029872968792915
3.0,0.05793152377009392
4.0,0.05576436221599579
5.0,0.053704164922237396
6.0,0.051713455468416214
7.0,0.049811579287052155
8.0,0.04803037643432617
9.0,0.046306341886520386
10.0,0.0446559339761734
11.0,0.04302728921175003
12.0,0.04144712910056114
13.0,0.03996087610721588
14.0,0.03850821778178215
15.0,0.03714383393526077
16.0,0.03591032698750496
18.0,0.03355824202299118
20.0,0.031368594616651535
22.0,0.02931496500968933
24.0,0.027492236346006393
26.0,0.025713736191391945
28.0,0.024079440161585808
30.0,0.02260119654238224
32.0,0.02129562757909298
36.0,0.01900920271873474
40.0,0.01690252311527729
44.0,0.0150671461597085
48.0,0.013454485684633255
52.0,0.01197479572147131
56.0,0.010715761221945286
60.0,0.009715499356389046
64.0,0.008726623840630054
72.0,0.007175172213464975
80.0,0.005581199191510677
88.0,0.004584864713251591
96.0,0.0037052431143820286
104.0,0.00396012794226408
112.0,0.004518556408584118
120.0,0.004580522887408733
128.0,0.0033947613555938005
144.0,0.0010555546032264829
160.0,0.0005051576299592853
176.0,0.0010780581505969167
192.0,-0.0004905458772554994
208.0,-0.0020078427623957396
224.0,-0.0017280809115618467
240.0,-0.0010464061051607132
256.0,-0.000685301551129669
288.0,-0.0022822637110948563
320.0,-0.00381601694971323
352.0,-0.0012407760368660092
384.0,0.001527819549664855
416.0,6.0590940847760066e-05
448.0,0.0008368362323381007
480.0,0.0022903436329215765
512.0,0.0017691272078081965
576.0,0.0050217630341649055
640.0,0.002585852053016424
704.0,0.001095046754926443
768.0,-0.0006344424327835441
832.0,0.0008180533768609166
896.0,-0.00033006604644469917
960.0,0.002264338778331876
1024.0,0.0015689380234107375
1152.0,-0.00037163557135500014
1280.0,0.0003857147239614278
1408.0,0.00022605372942052782
1536.0,0.002026150468736887
1664.0,0.0019645250868052244
1792.0,0.0004660960694309324
1920.0,0.0017741844058036804
2048.0,-0.0018108589574694633
2304.0,-0.00018870561325456947
2560.0,-0.00034205667907372117
2816.0,-0.0006777672679163516
3072.0,-0.0005680244648829103
3328.0,-0.0013147688005119562
3584.0,-0.00025060365442186594
3840.0,0.0005834929761476815
4096.0,-0.0005881456308998168
4608.0,0.0005927656893618405
5120.0,-0.002475378569215536
5632.0,-0.00032886004191823304
6144.0,-0.000601288047619164
6656.0,-0.003157626837491989
7168.0,-0.0009741562535054982
7680.0,-0.000540665234439075
8192.0,-0.0008963681175373495
9216.0,-0.000919062178581953
10240.0,-0.002211728598922491
11264.0,0.0010270426282659173
12288.0,0.00039658835157752037
13312.0,0.004654962103813887
14336.0,-0.0007431057747453451
end
