version,3.0
numOfCh,1
type,point
parent_name,400-cuts
ch_type,1_1
kcount,1
numberNandB,1
brightnessNandB,1
carpet pos,0
pc,0
Time (ms),CH1 Auto-Correlation
1.0,0.04073740541934967
2.0,0.039157938212156296
3.0,0.03765349090099335
4.0,0.03620321676135063
5.0,0.03484506160020828
6.0,0.03351467102766037
7.0,0.03225487098097801
8.0,0.03106379695236683
9.0,0.02989715151488781
10.0,0.028766702860593796
11.0,0.02766355313360691
12.0,0.026579169556498528
13.0,0.025583578273653984
14.0,0.0245937742292881
15.0,0.023656656965613365
16.0,0.022778790444135666
18.0,0.02113707922399044
20.0,0.019694693386554718
22.0,0.01831882633268833
24.0,0.017127862200140953
26.0,0.01603885367512703
28.0,0.015097076073288918
30.0,0.01417374424636364
32.0,0.013395767658948898
36.0,0.011940152384340763
40.0,0.010596603155136108
44.0,0.009389323182404041
48.0,0.008279427886009216
52.0,0.007005555089563131
56.0,0.005871289875358343
60.0,0.0050040618516504765
64.0,0.004234814550727606
72.0,0.0034102769568562508
80.0,0.002620996441692114
88.0,0.0018049427308142185
96.0,0.0010623892303556204
104.0,0.00038739360752515495
112.0,-0.0002981517172884196
120.0,-0.00018900344730354846
128.0,0.00014615021063946187
144.0,-0.00014448993897531182
160.0,-0.00048395953490398824
176.0,-8.237794099841267e-05
192.0,-0.0005203352775424719
208.0,-0.0016176151111721992
224.0,-0.002060414059087634
240.0,-0.0017363426741212606
256.0,-0.0018468989292159677
288.0,-0.002337916288524866
320.0,-0.0013696925016120076
352.0,-0.0010807114886119962
384.0,-0.002303911605849862
416.0,-0.0008538560359738767
448.0,-0.0003271775203756988
480.0,-0.0007837496232241392
512.0,2.7684878659783863e-05
576.0,0.0017856870545074344
640.0,0.00026967201847583055
704.0,0.0011782455258071423
768.0,0.0024061130825430155
832.0,5.5379739933414385e-05
896.0,-0.0006823144503869116
960.0,-0.001135978614911437
1024.0,-0.0015432642539963126
1152.0,-0.0017355408053845167
1280.0,-0.00072146748425439
1408.0,0.0008003851398825645
1536.0,0.0011442129034548998
1664.0,-0.0004480237257666886
1792.0,1.3612171642307658e-05
1920.0,0.0003129438846372068
2048.0,-0.0013614303898066282
2304.0,-0.00038005050737410784
2560.0,0.001556036644615233
2816.0,0.00014608152559958398
3072.0,-0.000792170874774456
3328.0,0.0012814040528610349
3584.0,-0.0024264100939035416
3840.0,-0.001497582532465458
4096.0,4.490050741878804e-06
4608.0,0.0001906117395265028
5120.0,0.0002867818402592093
5632.0,0.0010527571430429816
6144.0,-0.0009849324123933911
6656.0,-0.0015413605142384768
7168.0,0.0007442333735525608
7680.0,0.00023754323774483055
8192.0,-0.0006415668176487088
9216.0,-0.0007931726868264377
10240.0,0.0016761297592893243
11264.0,-0.0008922053384594619
12288.0,-0.0005313738365657628
13312.0,0.0009546318906359375
14336.0,-0.0029507563449442387
end
