version,3.0
numOfCh,1
type,point
parent_name,400-cuts
ch_type,1_1
kcount,1
numberNandB,1
brightnessNandB,1
carpet pos,0
pc,0
Time (ms),CH1 Auto-Correlation
1.0,0.06270022690296173
2.0,0.059988923370838165
3.0,0.057429105043411255
4.0,0.05490365996956825
5.0,0.05248815938830376
6.0,0.05019071698188782
7.0,0.047993339598178864
8.0,0.04588362202048302
9.0,0.04385419189929962
10.0,0.04195551574230194
11.0,0.04018145799636841
12.0,0.03842595964670181
13.0,0.03677518293261528
14.0,0.03519493713974953
15.0,0.0335938036441803
16.0,0.031990326941013336
18.0,0.028983227908611298
20.0,0.026346759870648384
22.0,0.024034615606069565
24.0,0.021968059241771698
26.0,0.020050982013344765
28.0,0.018379008397459984
30.0,0.01678558439016342
32.0,0.01535129826515913
36.0,0.012458163313567638
40.0,0.009789279662072659
44.0,0.0077870492823421955
48.0,0.006483383011072874
52.0,0.005556877236813307
56.0,0.00492140743881464
60.0,0.004382416605949402
64.0,0.003974024672061205
72.0,0.0032092879991978407
80.0,0.0023592303041368723
88.0,0.0019365346524864435
96.0,0.0009369921172037721
104.0,3.108310193056241e-05
112.0,-2.9702716346946545e-05
120.0,0.0006688824505545199
128.0,0.0017447210848331451
144.0,0.004215018358081579
160.0,0.004126872401684523
176.0,0.0032687773928046227
192.0,0.0020258729346096516
208.0,0.0009035993134602904
224.0,0.0002494317013770342
240.0,-0.0008564951713196933
256.0,-0.0006479174480773509
288.0,-0.00011815458856290206
320.0,0.00027771099121309817
352.0,-0.0010864641517400742
384.0,0.00022266781888902187
416.0,0.001168487942777574
448.0,0.0035708339419215918
480.0,0.004279327113181353
512.0,0.0022095264866948128
576.0,-0.0006985007785260677
640.0,0.000863131252117455
704.0,-0.0009479172294959426
768.0,-0.0005766998510807753
832.0,-0.0009791150223463774
896.0,-0.004550423473119736
960.0,-0.0034727705642580986
1024.0,-0.0020602105651050806
1152.0,-0.0012345223221927881
1280.0,-0.0020065545104444027
1408.0,0.0022458352614194155
1536.0,0.0011002091923728585
1664.0,0.0007434674771502614
1792.0,0.0024690539576113224
1920.0,0.004533112049102783
2048.0,0.0017051445320248604
2304.0,0.0013111133594065905
2560.0,0.0014747247332707047
2816.0,0.00018941900634672493
3072.0,2.9324733986868523e-05
3328.0,0.0022597473580390215
3584.0,-0.0007362932083196938
3840.0,-0.001826808089390397
4096.0,-0.001549777458421886
4608.0,-0.0006241715746000409
5120.0,0.002414837246760726
5632.0,-0.0015109905507415533
6144.0,-0.0031214754562824965
6656.0,-0.0010081619257107377
7168.0,-0.000560856016818434
7680.0,-0.0017311571864411235
8192.0,-0.0005330731510184705
9216.0,-0.0021278690546751022
10240.0,0.0009003343293443322
11264.0,-0.0005294595030136406
12288.0,0.0006151993293315172
13312.0,0.0007090750732459128
14336.0,6.900480366311967e-05
end
