version,3.0
numOfCh,1
type,point
parent_name,400-cuts
ch_type,1_1
kcount,1
numberNandB,1
brightnessNandB,1
carpet pos,0
pc,0
Time (ms),CH1 Auto-Correlation
1.0,0.017948796972632408
2.0,0.017099177464842796
3.0,0.01630302704870701
4.0,0.015559304505586624
5.0,0.01484289113432169
6.0,0.014181019738316536
7.0,0.013559814542531967
8.0,0.012963652610778809
9.0,0.012393668293952942
10.0,0.011866379529237747
11.0,0.01137248333543539
12.0,0.010904581286013126
13.0,0.010439271107316017
14.0,0.010003655217587948
15.0,0.009567863307893276
16.0,0.009177286177873611
18.0,0.00847340002655983
20.0,0.00786543358117342
22.0,0.007352092768996954
24.0,0.0069372751750051975
26.0,0.006539540830999613
28.0,0.006175076123327017
30.0,0.005853954702615738
32.0,0.005540297366678715
36.0,0.004981030244380236
40.0,0.004386928863823414
44.0,0.0037170075811445713
48.0,0.003078063251450658
52.0,0.002550218952819705
56.0,0.002181099494919181
60.0,0.0018533426336944103
64.0,0.0015879671555012465
72.0,0.0009900261647999287
80.0,0.0004960999940522015
88.0,6.0471480537671596e-05
96.0,-0.00023791129933670163
104.0,-0.0005221271421760321
112.0,-0.0005985320312902331
120.0,-0.0005549805355258286
128.0,-0.000546271214261651
144.0,-0.0003960306057706475
160.0,-0.00040097092278301716
176.0,-0.0002556908584665507
192.0,-0.00019825359049718827
208.0,0.00025042943889275193
224.0,0.00035962750553153455
240.0,5.560761201195419e-05
256.0,0.00010089305578731
288.0,-0.0005916939117014408
320.0,-0.001087512937374413
352.0,-0.0011861062375828624
384.0,-0.0009935880079865456
416.0,-7.899628690211102e-05
448.0,-7.907443068688735e-05
480.0,-0.001047629863023758
512.0,-0.0009849031921476126
576.0,0.00025523771182633936
640.0,-0.00010115814075106755
704.0,-0.0004210964252706617
768.0,0.0002508088946342468
832.0,-0.00011046464351238683
896.0,-0.0007951217703521252
960.0,-0.0006697806529700756
1024.0,0.00026095594512298703
1152.0,8.775328751653433e-05
1280.0,0.00033361618989147246
1408.0,0.00015130343672353774
1536.0,0.000645327556412667
1664.0,6.617020699195564e-05
1792.0,-0.0003922116884496063
1920.0,-0.0003241560480091721
2048.0,0.0009420630522072315
2304.0,0.00010911232675425708
2560.0,0.0003460119478404522
2816.0,-0.0006022907909937203
3072.0,-0.0002724108344409615
3328.0,0.0003443221503403038
3584.0,-7.472992001567036e-05
3840.0,-3.759169703698717e-05
4096.0,0.00040130200795829296
4608.0,2.6455893021193333e-05
5120.0,-0.0002773710584733635
5632.0,0.00012604129733517766
6144.0,-0.00033942260779440403
6656.0,-0.00023398210760205984
7168.0,-0.00018899008864536881
7680.0,0.00011504376016091555
8192.0,-4.738222560263239e-05
9216.0,-0.00019140711810905486
10240.0,-3.5120825486956164e-05
11264.0,-0.00019159464864060283
12288.0,3.4556192986201495e-05
13312.0,-0.00017428529099561274
14336.0,-0.00019454343419056386
end
