version,3.0
numOfCh,1
type,point
parent_name,400-cuts
ch_type,1_1
kcount,1
numberNandB,1
brightnessNandB,1
carpet pos,0
pc,0
Time (ms),CH1 Auto-Correlation
1.0,0.03642952814698219
2.0,0.03501281887292862
3.0,0.03367326036095619
4.0,0.032404325902462006
5.0,0.031129606068134308
6.0,0.029910413548350334
7.0,0.02875720150768757
8.0,0.027650678530335426
9.0,0.02661469206213951
10.0,0.02565779536962509
11.0,0.02477654442191124
12.0,0.023930419236421585
13.0,0.023077869787812233
14.0,0.022262487560510635
15.0,0.02147628925740719
16.0,0.020774181932210922
18.0,0.01946353353559971
20.0,0.018232859671115875
22.0,0.01703239046037197
24.0,0.0158722884953022
26.0,0.01476043090224266
28.0,0.013725129887461662
30.0,0.012775971554219723
32.0,0.011903948150575161
36.0,0.010263670235872269
40.0,0.008872960694134235
44.0,0.007654058281332254
48.0,0.006363063585013151
52.0,0.00519911665469408
56.0,0.004181536380201578
60.0,0.0034195655025541782
64.0,0.0029189749620854855
72.0,0.002016884507611394
80.0,0.0014162012375891209
88.0,0.0009246912086382508
96.0,0.0003131703706458211
104.0,-0.0001800248573999852
112.0,-0.0003740372776519507
120.0,-0.00021916290279477835
128.0,-7.126640412025154e-05
144.0,0.0006587838870473206
160.0,0.001336288871243596
176.0,0.0013193866470828652
192.0,0.000998615170828998
208.0,0.0005842610844410956
224.0,0.001270363456569612
240.0,0.0006904156180098653
256.0,-0.0005394143518060446
288.0,-0.0014476748183369637
320.0,-0.0011295938165858388
352.0,-0.0004376238794066012
384.0,0.0013227680465206504
416.0,0.002378707518801093
448.0,0.0011031407630071044
480.0,0.0008705673972144723
512.0,0.0017994856461882591
576.0,0.001293569104745984
640.0,-0.0011988827027380466
704.0,0.00016416229482274503
768.0,0.0006996490992605686
832.0,-0.00035174371441826224
896.0,-0.00025759212439879775
960.0,0.00016912954743020236
1024.0,0.0024051140062510967
1152.0,-0.002184917451813817
1280.0,0.00011473915219539776
1408.0,0.0010692729847505689
1536.0,0.0011712791165336967
1664.0,-0.00025464670034125447
1792.0,0.0013230184558779001
1920.0,0.0020007810089737177
2048.0,0.00124169432092458
2304.0,0.0008884996641427279
2560.0,-0.0015467109624296427
2816.0,-0.00043170101707801223
3072.0,0.0009329670574516058
3328.0,-0.001214895281009376
3584.0,0.0011501467088237405
3840.0,-0.0011946936137974262
4096.0,-0.0004609072639141232
4608.0,-0.0006345387664623559
5120.0,-0.0001980842207558453
5632.0,-8.132229413604364e-05
6144.0,0.00013580042286776006
6656.0,-0.0023061251267790794
7168.0,-0.0012664120877161622
7680.0,0.0005781447398476303
8192.0,0.00041662433068268
9216.0,-0.00033873377833515406
10240.0,9.282723476644605e-05
11264.0,0.0005496901576407254
12288.0,-0.0012455431278795004
13312.0,0.0011262453626841307
14336.0,-0.001245142542757094
end
