version,3.0
numOfCh,1
type,point
parent_name,400-cuts
ch_type,1_1
kcount,1
numberNandB,1
brightnessNandB,1
carpet pos,0
pc,0
Time (ms),CH1 Auto-Correlation
1.0,0.03090689145028591
2.0,0.029483119025826454
3.0,0.028133047744631767
4.0,0.026816867291927338
5.0,0.025556568056344986
6.0,0.024390889331698418
7.0,0.02328449673950672
8.0,0.022240065038204193
9.0,0.02126016467809677
10.0,0.020357854664325714
11.0,0.01946457102894783
12.0,0.018653880804777145
13.0,0.017899304628372192
14.0,0.017181923612952232
15.0,0.016521360725164413
16.0,0.015869345515966415
18.0,0.01459905318915844
20.0,0.013373484835028648
22.0,0.012172378599643707
24.0,0.011065814644098282
26.0,0.00999622605741024
28.0,0.009000536054372787
30.0,0.008094613440334797
32.0,0.00723165413364768
36.0,0.005793482530862093
40.0,0.004495625384151936
44.0,0.0034517862368375063
48.0,0.002553082536906004
52.0,0.001833985443226993
56.0,0.0013123280368745327
60.0,0.000926395645365119
64.0,0.000961434911005199
72.0,0.001146433176472783
80.0,0.0010596404317766428
88.0,0.0011735199950635433
96.0,0.0012484182370826602
104.0,0.0012026727199554443
112.0,0.0009682364761829376
120.0,0.0007131046731956303
128.0,0.0002941056154668331
144.0,0.0006059256265871227
160.0,0.0006968019879423082
176.0,-0.0002942662686109543
192.0,-0.0011521012056618929
208.0,-0.0014325262745842338
224.0,-0.0006042845197953284
240.0,0.0008424725965596735
256.0,0.0013817205326631665
288.0,0.0009065088233910501
320.0,-0.0007519041537307203
352.0,-0.0010611426550894976
384.0,-0.0009898013668134809
416.0,-0.00016404828056693077
448.0,0.0006172414869070053
480.0,0.00016158516518771648
512.0,-0.0009359076502732933
576.0,0.0005833437899127603
640.0,0.0009352370980195701
704.0,-0.0011234565172344446
768.0,-0.00030670533305965364
832.0,0.0009280731319449842
896.0,0.001042841817252338
960.0,-0.0005202702595852315
1024.0,0.0011150473728775978
1152.0,-5.7740027841646224e-05
1280.0,-0.0011378402123227715
1408.0,-0.00036420865217223763
1536.0,-0.00143482128623873
1664.0,-0.0009765627328306437
1792.0,-0.001086910953745246
1920.0,-0.0001985423150472343
2048.0,0.0007812523399479687
2304.0,-0.0007539179059676826
2560.0,-0.00033974245889112353
2816.0,-0.0010089452844113111
3072.0,-0.00013734742242377251
3328.0,9.619779302738607e-05
3584.0,-0.00020760744519066066
3840.0,0.0009544666390866041
4096.0,0.00078267214121297
4608.0,0.0004931213916279376
5120.0,-0.0005434145568870008
5632.0,-0.00023807966499589384
6144.0,6.78899887134321e-05
6656.0,0.00016605395649094135
7168.0,-0.0005025550490245223
7680.0,-5.843563485541381e-06
8192.0,-0.0002325925015611574
9216.0,0.0002292364661116153
10240.0,0.0006749598542228341
11264.0,0.0006941599422134459
12288.0,-0.0010248278267681599
13312.0,-0.0007637906819581985
14336.0,0.00041723327012732625
end
