version,3.0
numOfCh,1
type,point
parent_name,400-cuts
ch_type,1_1
kcount,1
numberNandB,1
brightnessNandB,1
carpet pos,0
pc,0
Time (ms),CH1 Auto-Correlation
1.0,0.040926914662122726
2.0,0.03933372348546982
3.0,0.037798505276441574
4.0,0.03630936145782471
5.0,0.03489125147461891
6.0,0.03353826701641083
7.0,0.032249484211206436
8.0,0.031063346192240715
9.0,0.029910612851381302
10.0,0.028793253004550934
11.0,0.027694590389728546
12.0,0.026658864691853523
13.0,0.025691905990242958
14.0,0.024770213291049004
15.0,0.02388143166899681
16.0,0.022998638451099396
18.0,0.021299296990036964
20.0,0.019791824743151665
22.0,0.018350845202803612
24.0,0.016990814357995987
26.0,0.015761563554406166
28.0,0.014682824723422527
30.0,0.013728111051023006
32.0,0.012833727523684502
36.0,0.011195526458323002
40.0,0.009799670428037643
44.0,0.008627776987850666
48.0,0.007535131182521582
52.0,0.006533400621265173
56.0,0.005714867264032364
60.0,0.005090130027383566
64.0,0.004691229201853275
72.0,0.004232918843626976
80.0,0.004180941730737686
88.0,0.0038474875036627054
96.0,0.002517600078135729
104.0,0.0005775183672085404
112.0,-0.000938963727094233
120.0,-0.002481054048985243
128.0,-0.0035841220524162054
144.0,-0.004517220892012119
160.0,-0.003630989696830511
176.0,-0.0023661546874791384
192.0,-0.0014047352597117424
208.0,-0.000579036888666451
224.0,-0.0004231513012200594
240.0,-0.0005092944484204054
256.0,-0.0007277722470462322
288.0,-0.0009434238309040666
320.0,-0.0012534994166344404
352.0,-0.001863538520410657
384.0,-0.0009327412699349225
416.0,-0.002809603698551655
448.0,-0.0021216170862317085
480.0,-0.002861941233277321
512.0,-0.0029485595878213644
576.0,0.00247984123416245
640.0,0.0032359252218157053
704.0,0.000497687142342329
768.0,-2.5133226699836086e-06
832.0,-0.0006849030032753944
896.0,-0.0010490712011232972
960.0,-0.0013036171440035105
1024.0,-0.002851843135431409
1152.0,7.364049815805629e-05
1280.0,0.0009986583609133959
1408.0,1.0123987522092648e-05
1536.0,-0.00169708754401654
1664.0,-4.7098201321205124e-05
1792.0,0.0009703108225949109
1920.0,-0.0013087221886962652
2048.0,-0.0017051899340003729
2304.0,0.00170686945784837
2560.0,-0.0007879615877754986
2816.0,-0.0005085292505100369
3072.0,0.0003199592756573111
3328.0,8.25681199785322e-05
3584.0,0.0015364084392786026
3840.0,-0.00201665167696774
4096.0,0.000385464692953974
4608.0,-0.00022221807739697397
5120.0,0.0005420030793175101
5632.0,7.860950427129865e-05
6144.0,-0.0007007305976003408
6656.0,0.0004603098495863378
7168.0,0.00046856296830810606
7680.0,-0.00020158826373517513
8192.0,-0.0007625867146998644
9216.0,-0.0005219421000219882
10240.0,0.001624521566554904
11264.0,-0.0001836357405409217
12288.0,-0.0006647072150371969
13312.0,-0.0007420235779136419
14336.0,1.33179937620298e-05
end
