version,3.0
numOfCh,1
type,point
parent_name,400-cuts
ch_type,1_1
kcount,1
numberNandB,1
brightnessNandB,1
carpet pos,0
pc,0
Time (ms),CH1 Auto-Correlation
1.0,0.05294402688741684
2.0,0.05056428164243698
3.0,0.0482582151889801
4.0,0.04604801908135414
5.0,0.043871983885765076
6.0,0.041841037571430206
7.0,0.03991524502635002
8.0,0.038063161075115204
9.0,0.036252301186323166
10.0,0.03455695882439613
11.0,0.03294388949871063
12.0,0.03139304742217064
13.0,0.029923655092716217
14.0,0.028537021949887276
15.0,0.027190495282411575
16.0,0.025840556249022484
18.0,0.023431286215782166
20.0,0.02122454345226288
22.0,0.019333666190505028
24.0,0.0175581444054842
26.0,0.015884092077612877
28.0,0.014487656764686108
30.0,0.013382134027779102
32.0,0.012492629699409008
36.0,0.010903574526309967
40.0,0.009147198870778084
44.0,0.007489985786378384
48.0,0.005861247889697552
52.0,0.004684788174927235
56.0,0.003946167416870594
60.0,0.003622365416958928
64.0,0.003030297812074423
72.0,0.00216659321449697
80.0,0.002069117734208703
88.0,0.0021716884803026915
96.0,0.002620679559186101
104.0,0.0034589101560413837
112.0,0.003762506879866123
120.0,0.003774328390136361
128.0,0.004349651746451855
144.0,0.005542451981455088
160.0,0.004097328521311283
176.0,0.002777044428512454
192.0,0.0011908538872376084
208.0,0.000353058276232332
224.0,0.0012176928576081991
240.0,0.0013813991099596024
256.0,0.00043435662519186735
288.0,0.0006189598352648318
320.0,0.003877648152410984
352.0,0.00498497299849987
384.0,0.0033841021358966827
416.0,0.002026914618909359
448.0,0.001025945763103664
480.0,0.0021398791577667
512.0,0.0007596721989102662
576.0,-0.0026612048968672752
640.0,0.0009008566266857088
704.0,0.00041067309211939573
768.0,-0.002256769919767976
832.0,-0.0009552641422487795
896.0,-0.0028957773465663195
960.0,-0.000945195322856307
1024.0,-5.3699430281994864e-05
1152.0,-8.826447447063401e-05
1280.0,0.001538373762741685
1408.0,0.0012830699561163783
1536.0,0.0025163774844259024
1664.0,0.0004021749191451818
1792.0,0.00015645631356164813
1920.0,-0.00020988938922528177
2048.0,-0.0021612506825476885
2304.0,-0.002223979914560914
2560.0,-0.0031044399365782738
2816.0,-0.0007581777172163129
3072.0,-0.0018080781446769834
3328.0,-0.0013241617707535625
3584.0,-0.0009271129383705556
3840.0,-0.0022369225043803453
4096.0,0.0001868554827524349
4608.0,-0.001320897601544857
5120.0,0.001920025679282844
5632.0,0.0022362812887877226
6144.0,0.000339909311151132
6656.0,0.0016656770603731275
7168.0,0.0023597620893269777
7680.0,-0.0030894309747964144
8192.0,-0.0014459312660619617
9216.0,-0.0013546280097216368
10240.0,-7.999907393241301e-05
11264.0,0.00046245576231740415
12288.0,0.0007854304276406765
13312.0,-0.0007281037396751344
14336.0,-0.0012407879112288356
end
