version,3.0
numOfCh,1
type,point
parent_name,400-cuts
ch_type,1_1
kcount,1
numberNandB,1
brightnessNandB,1
carpet pos,0
pc,0
Time (ms),CH1 Auto-Correlation
1.0,0.034484781324863434
2.0,0.033131420612335205
3.0,0.03183235973119736
4.0,0.030564431101083755
5.0,0.029336534440517426
6.0,0.02815818414092064
7.0,0.02702879160642624
8.0,0.025965237990021706
9.0,0.02497236430644989
10.0,0.024035530164837837
11.0,0.023177223280072212
12.0,0.022336682304739952
13.0,0.021550588309764862
14.0,0.02076135203242302
15.0,0.01999966986477375
16.0,0.019276326522231102
18.0,0.017964612692594528
20.0,0.016750657930970192
22.0,0.015648921951651573
24.0,0.014674518257379532
26.0,0.013767114840447903
28.0,0.012906075455248356
30.0,0.012070560827851295
32.0,0.011311834678053856
36.0,0.009879146702587605
40.0,0.008573082275688648
44.0,0.007424758281558752
48.0,0.006521601229906082
52.0,0.005862731486558914
56.0,0.00537926284596324
60.0,0.005044631659984589
64.0,0.004754223860800266
72.0,0.004303259309381247
80.0,0.003895707195624709
88.0,0.003865916980430484
96.0,0.0037819661665707827
104.0,0.003396090818569064
112.0,0.002762863179668784
120.0,0.0023253236431628466
128.0,0.0018566420767456293
144.0,0.0011853002943098545
160.0,0.0016083769733086228
176.0,0.0008656657882966101
192.0,0.00048675970174372196
208.0,0.0003194650635123253
224.0,-3.954632120439783e-05
240.0,-0.00048590978258289397
256.0,-0.0007226021843962371
288.0,-0.0010022101923823357
320.0,-7.848210952943191e-05
352.0,0.00010386689245933667
384.0,0.0003859171411022544
416.0,0.00021293725876603276
448.0,0.00035599846160039306
480.0,0.0004129207809455693
512.0,-0.00015207775868475437
576.0,-0.0004140764067415148
640.0,0.0013690702617168427
704.0,0.0026362529024481773
768.0,0.00026843606610782444
832.0,0.000598302751313895
896.0,-0.000451168161816895
960.0,-0.002420613542199135
1024.0,-0.0009698653593659401
1152.0,-0.0015146408695727587
1280.0,-0.0027921798173338175
1408.0,-0.00046450106310658157
1536.0,-0.002160114236176014
1664.0,-0.0020497580990195274
1792.0,-0.0020382970105856657
1920.0,0.0003432897210586816
2048.0,0.0009274865151382983
2304.0,0.0002716276503633708
2560.0,0.0008824125397950411
2816.0,0.001518775476142764
3072.0,0.001083028968423605
3328.0,0.0006721651297993958
3584.0,-7.133006147341803e-05
3840.0,-0.001005961443297565
4096.0,-0.001290979329496622
4608.0,0.0003085607022512704
5120.0,0.0014821365475654602
5632.0,-0.0003004400059580803
6144.0,-0.0014304696815088391
6656.0,-0.0006051081581972539
7168.0,0.0006540689500980079
7680.0,0.0005599170108325779
8192.0,0.0003065484343096614
9216.0,-0.0007730319048278034
10240.0,0.0010767009807750583
11264.0,-0.0018481230363249779
12288.0,0.0006528457743115723
13312.0,0.00045716718886978924
14336.0,6.37264529359527e-05
end
