version,3.0
numOfCh,1
type,point
parent_name,400-cuts
ch_type,1_1
kcount,1
numberNandB,1
brightnessNandB,1
carpet pos,0
pc,0
Time (ms),CH1 Auto-Correlation
1.0,0.02384752407670021
2.0,0.022930845618247986
3.0,0.02207830175757408
4.0,0.02125474438071251
5.0,0.02048005722463131
6.0,0.01975301280617714
7.0,0.019061822444200516
8.0,0.018399393185973167
9.0,0.017756067216396332
10.0,0.017139796167612076
11.0,0.0165437962859869
12.0,0.015985073521733284
13.0,0.015448551625013351
14.0,0.01494239829480648
15.0,0.014460764825344086
16.0,0.013959331437945366
18.0,0.012993370182812214
20.0,0.012117395177483559
22.0,0.011319075711071491
24.0,0.010605326853692532
26.0,0.009972210973501205
28.0,0.009350482374429703
30.0,0.008738099597394466
32.0,0.008177489042282104
36.0,0.007265664637088776
40.0,0.006456716451793909
44.0,0.00579367158934474
48.0,0.0051879193633794785
52.0,0.004720982164144516
56.0,0.004383735824376345
60.0,0.004181242082268
64.0,0.0040083578787744045
72.0,0.003431625897064805
80.0,0.002852636855095625
88.0,0.002240814734250307
96.0,0.0016974987229332328
104.0,0.0013171237660571933
112.0,0.0009990717517212033
120.0,0.0006258185021579266
128.0,0.00022994144819676876
144.0,-0.0006089834496378899
160.0,-0.0013279723934829235
176.0,-0.0014923063572496176
192.0,-0.001877205679193139
208.0,-0.0023052552714943886
224.0,-0.0023134700022637844
240.0,-0.0016986035043373704
256.0,-0.0006568353273905814
288.0,-0.0012045379262417555
320.0,-0.0007611593464389443
352.0,9.2422869784059e-06
384.0,0.00023133201466407627
416.0,0.0009327504085376859
448.0,0.0011117197573184967
480.0,0.0010135875781998038
512.0,0.001762626226991415
576.0,-0.00012128437811043113
640.0,8.65875044837594e-05
704.0,0.0005584238097071648
768.0,8.747606443648692e-06
832.0,0.0005215223063714802
896.0,0.00046305893920361996
960.0,-0.0003374628722667694
1024.0,-0.00013411458348855376
1152.0,-0.0005120177520439029
1280.0,-0.00013607087021227926
1408.0,-6.412593211280182e-05
1536.0,6.455437687691301e-05
1664.0,-0.0009096829453483224
1792.0,-1.0653918252501171e-05
1920.0,7.162521796999499e-05
2048.0,-0.0008113784133456647
2304.0,0.00107429304625839
2560.0,-0.00019528463599272072
2816.0,-0.0012643560767173767
3072.0,0.00029456373886205256
3328.0,-0.001485370798036456
3584.0,-0.001348597346805036
3840.0,-0.0007664929144084454
4096.0,4.4374202843755484e-05
4608.0,9.959625458577648e-06
5120.0,0.00025942406500689685
5632.0,-0.0001043624070007354
6144.0,0.0013164269039407372
6656.0,0.0002858250809367746
7168.0,0.0011968383332714438
7680.0,-0.0005687819793820381
8192.0,0.00027158582815900445
9216.0,-0.00037816609255969524
10240.0,-0.00035776180448010564
11264.0,-4.014811565866694e-05
12288.0,0.00024670237326063216
13312.0,0.0002799565263558179
14336.0,-0.0006442531594075263
end
