version,3.0
numOfCh,1
type,point
parent_name,400-cuts
ch_type,1_1
kcount,1
numberNandB,1
brightnessNandB,1
carpet pos,0
pc,0
Time (ms),CH1 Auto-Correlation
1.0,0.023772848770022392
2.0,0.02285776659846306
3.0,0.021993344649672508
4.0,0.02117004804313183
5.0,0.020394325256347656
6.0,0.01963266357779503
7.0,0.018895568326115608
8.0,0.018173087388277054
9.0,0.01747310161590576
10.0,0.0167950838804245
11.0,0.016163788735866547
12.0,0.015577775426208973
13.0,0.014997358433902264
14.0,0.014456916600465775
15.0,0.013931356370449066
16.0,0.013428575359284878
18.0,0.012498262338340282
20.0,0.011601862497627735
22.0,0.010757437907159328
24.0,0.009973729960620403
26.0,0.009246712550520897
28.0,0.008561484515666962
30.0,0.007956531830132008
32.0,0.0074343872256577015
36.0,0.0066195144318044186
40.0,0.006034015212208033
44.0,0.005530060268938541
48.0,0.005003044381737709
52.0,0.004487717058509588
56.0,0.003969758749008179
60.0,0.0035085987765341997
64.0,0.003112155944108963
72.0,0.0026319585740566254
80.0,0.0021869803313165903
88.0,0.0020114826038479805
96.0,0.0018613837892189622
104.0,0.0015584657667204738
112.0,0.0012556321453303099
120.0,0.0009072506218217313
128.0,0.0006931015523150563
144.0,0.00039243020000867546
160.0,0.00020683991897385567
176.0,-9.364775178255513e-05
192.0,2.2660660761175677e-05
208.0,1.4933811144146603e-05
224.0,0.0005222055478952825
240.0,0.00029723247280344367
256.0,-0.00021558337903115898
288.0,8.126004104269668e-05
320.0,0.00037620298098772764
352.0,-0.00019016694568563253
384.0,-0.0003652219893410802
416.0,0.0005587597843259573
448.0,0.0007892808062024415
480.0,0.0008928808383643627
512.0,-8.334753147209994e-06
576.0,-0.0007555580814369023
640.0,-0.0011003045365214348
704.0,-0.0007264807936735451
768.0,-0.0008543426520191133
832.0,-0.0003042006865143776
896.0,0.0008276334265246987
960.0,0.00119012501090765
1024.0,0.0003331527695991099
1152.0,-0.00042225877405144274
1280.0,0.000572635792195797
1408.0,0.00030327888089232147
1536.0,-0.0006067026406526566
1664.0,-0.0018888532649725676
1792.0,-0.0023563550785183907
1920.0,-0.0017116041854023933
2048.0,-0.0004065951507072896
2304.0,-0.00027925323229283094
2560.0,-0.00010172207839787006
2816.0,-1.604278622835409e-05
3072.0,3.1793402740731835e-05
3328.0,0.0008727146196179092
3584.0,0.0004108658467885107
3840.0,-0.00037501685437746346
4096.0,0.00014689925592392683
4608.0,-0.0007884387159720063
5120.0,-0.0006477527203969657
5632.0,0.0002956384851131588
6144.0,0.0008701893384568393
6656.0,0.0011261148611083627
7168.0,0.00023972115013748407
7680.0,-0.00019969342974945903
8192.0,-0.0010014120489358902
9216.0,0.00024138172739185393
10240.0,0.0003466902126092464
11264.0,-0.0006629713461734354
12288.0,0.0002600149600766599
13312.0,0.00040090776747092605
14336.0,-0.000253832433372736
end
