version,3.0
numOfCh,1
type,point
parent_name,400-cuts
ch_type,1_1
kcount,1
numberNandB,1
brightnessNandB,1
carpet pos,0
pc,0
Time (ms),CH1 Auto-Correlation
1.0,0.03138456866145134
2.0,0.029951179400086403
3.0,0.028627166524529457
4.0,0.027370408177375793
5.0,0.02627205103635788
6.0,0.02522190660238266
7.0,0.0241701677441597
8.0,0.02322465553879738
9.0,0.02233329974114895
10.0,0.021488552913069725
11.0,0.020643210038542747
12.0,0.019859809428453445
13.0,0.01914397068321705
14.0,0.018400322645902634
15.0,0.017659448087215424
16.0,0.016902755945920944
18.0,0.015485748648643494
20.0,0.014214636757969856
22.0,0.013105970807373524
24.0,0.012047217227518559
26.0,0.011113685555756092
28.0,0.010233813896775246
30.0,0.009364258497953415
32.0,0.008589325472712517
36.0,0.007506328169256449
40.0,0.006742740981280804
44.0,0.006026578135788441
48.0,0.005386370699852705
52.0,0.004985735286027193
56.0,0.004605285357683897
60.0,0.004085090942680836
64.0,0.0035214978270232677
72.0,0.0028596902266144753
80.0,0.002583910943940282
88.0,0.0024096095003187656
96.0,0.002345944056287408
104.0,0.0021220671478658915
112.0,0.0014987902250140905
120.0,0.0008203167235478759
128.0,8.841032831696793e-05
144.0,-0.000982015859335661
160.0,-0.000657497497741133
176.0,-0.0002717644674703479
192.0,7.97145112301223e-05
208.0,0.00018285699479747564
224.0,0.0006913939141668379
240.0,0.0010759185533970594
256.0,0.0008356987964361906
288.0,0.000787557743024081
320.0,0.0007750795921310782
352.0,-0.0002454720961395651
384.0,-0.0003304205310996622
416.0,-0.0008280735928565264
448.0,-0.0006884320755489171
480.0,-0.0009809934999793768
512.0,-0.0005651818937622011
576.0,0.00035346709773875773
640.0,0.0003441820153966546
704.0,-0.00029412758885882795
768.0,-0.00033268745755776763
832.0,-0.0013191233156248927
896.0,0.002064591506496072
960.0,0.0022509677801281214
1024.0,0.0014657981228083372
1152.0,0.001567814964801073
1280.0,0.00010432810813654214
1408.0,-0.0013451776467263699
1536.0,0.0009878602577373385
1664.0,-0.0011516775703057647
1792.0,-0.00031968977418728173
1920.0,0.0010386642534285784
2048.0,0.000548569776583463
2304.0,-0.0006564008654095232
2560.0,-0.0006080554448999465
2816.0,-0.0002931608760263771
3072.0,-0.00023225230688694865
3328.0,-0.0008004081901162863
3584.0,-0.001514298957772553
3840.0,-0.0007757772691547871
4096.0,-2.7018224500352517e-05
4608.0,-8.647814684081823e-05
5120.0,0.0007776303100399673
5632.0,-0.0001987465948332101
6144.0,0.0005590158398263156
6656.0,0.00039911200292408466
7168.0,-0.0001416795130353421
7680.0,0.0008797807386144996
8192.0,-0.0015999627066776156
9216.0,-0.0002269218530273065
10240.0,-5.571735164267011e-05
11264.0,-0.0005447220173664391
12288.0,-0.00014806981198489666
13312.0,-0.0005885123391635716
14336.0,0.00039949186611920595
end
