version,3.0
numOfCh,1
type,point
parent_name,400-cuts
ch_type,1_1
kcount,1
numberNandB,1
brightnessNandB,1
carpet pos,0
pc,0
Time (ms),CH1 Auto-Correlation
1.0,0.021192625164985657
2.0,0.020305171608924866
3.0,0.019446229562163353
4.0,0.018649162724614143
5.0,0.017910923808813095
6.0,0.0172138549387455
7.0,0.016517536714673042
8.0,0.015854233875870705
9.0,0.015198884531855583
10.0,0.01457316242158413
11.0,0.01398020051419735
12.0,0.013415614143013954
13.0,0.012872439809143543
14.0,0.012351589277386665
15.0,0.011847209185361862
16.0,0.011347952298820019
18.0,0.010427662171423435
20.0,0.009544326923787594
22.0,0.008720166981220245
24.0,0.007923363707959652
26.0,0.00724446726962924
28.0,0.0066780811175704
30.0,0.006194501183927059
32.0,0.005751085001975298
36.0,0.004948018584400415
40.0,0.004155599977821112
44.0,0.003518208395689726
48.0,0.0028826200868934393
52.0,0.002322233747690916
56.0,0.0018856236711144447
60.0,0.001508326386101544
64.0,0.0012296185595914721
72.0,0.0007288745255209506
80.0,0.0003666940610855818
88.0,0.0003203956875950098
96.0,0.0004511766310315579
104.0,0.0005518468678928912
112.0,0.0006048833602108061
120.0,0.0003402541042305529
128.0,-8.861978858476505e-05
144.0,-0.0006649162387475371
160.0,-0.0007498452323488891
176.0,-0.00038702113670296967
192.0,-0.00035809996188618243
208.0,-0.00017039052909240127
224.0,-0.0003869820502586663
240.0,-0.0004005617229267955
256.0,-0.0006197148468345404
288.0,-0.0004983393591828644
320.0,-0.0006145131774246693
352.0,-0.00018799804092850536
384.0,-0.0011986008612439036
416.0,-0.0015321556711569428
448.0,-0.0003163300279993564
480.0,0.0010230605257675052
512.0,0.0006404805462807417
576.0,0.0005083755822852254
640.0,-0.00013139772636350244
704.0,0.0009186110692098737
768.0,-0.0003300706157460809
832.0,0.0007897623581811786
896.0,-0.00034040698665194213
960.0,-0.000858453509863466
1024.0,-0.0007441944908350706
1152.0,-0.0009452461963519454
1280.0,-0.0005497146630659699
1408.0,0.00146610161755234
1536.0,0.0004506156546995044
1664.0,-0.00036634455318562686
1792.0,-0.0005489902687259018
1920.0,0.00012813240755349398
2048.0,0.00028922787168994546
2304.0,0.0007641466800123453
2560.0,-0.00123595108743757
2816.0,-0.00024898885749280453
3072.0,-0.0005460346001200378
3328.0,-0.00016283734294120222
3584.0,2.9106780857546255e-05
3840.0,0.0006072839023545384
4096.0,0.0003072191320825368
4608.0,-0.00012175910524092615
5120.0,-0.0004223667492624372
5632.0,0.00012547182268463075
6144.0,0.00021990288223605603
6656.0,-0.0004638989339582622
7168.0,-0.00040273397462442517
7680.0,0.00033491523936390877
8192.0,7.209360774140805e-05
9216.0,-0.00020867142302449793
10240.0,-3.2614658266538754e-05
11264.0,0.0006762894336134195
12288.0,-0.00044774910202249885
13312.0,0.0001991015305975452
14336.0,-9.874713214230724e-06
end
