version,3.0
numOfCh,1
type,point
parent_name,400-cuts
ch_type,1_1
kcount,1
numberNandB,1
brightnessNandB,1
carpet pos,0
pc,0
Time (ms),CH1 Auto-Correlation
1.0,0.019899286329746246
2.0,0.019115734845399857
3.0,0.01837168075144291
4.0,0.017672233283519745
5.0,0.016994567587971687
6.0,0.016330746933817863
7.0,0.01568552851676941
8.0,0.015096750110387802
9.0,0.01452451292425394
10.0,0.013984655030071735
11.0,0.013462639413774014
12.0,0.01296114083379507
13.0,0.012491610832512379
14.0,0.012030523270368576
15.0,0.01162947341799736
16.0,0.011232494376599789
18.0,0.010505800135433674
20.0,0.009850764647126198
22.0,0.009242482483386993
24.0,0.008669903501868248
26.0,0.008118211291730404
28.0,0.007596717216074467
30.0,0.007126903161406517
32.0,0.006708851084113121
36.0,0.005892466753721237
40.0,0.005137113854289055
44.0,0.004485595505684614
48.0,0.003896397305652499
52.0,0.0033247368410229683
56.0,0.0028463632334023714
60.0,0.002406936837360263
64.0,0.002042097970843315
72.0,0.0016050037229433656
80.0,0.0012746810680255294
88.0,0.0008187704370357096
96.0,0.000471290695713833
104.0,8.840775262797251e-05
112.0,-0.0003607178805395961
120.0,-0.0006845013704150915
128.0,-0.0007876246236264706
144.0,-0.0008357280166819692
160.0,-0.0007581006502732635
176.0,-0.00045905308797955513
192.0,-0.000338012381689623
208.0,0.00012605793017428368
224.0,0.00013587792636826634
240.0,0.00012231810251250863
256.0,-0.0001669722405495122
288.0,-0.0005888700834475458
320.0,-0.0006423822487704456
352.0,-0.00011394022294552997
384.0,6.638295599259436e-05
416.0,-4.460820127860643e-05
448.0,-2.4100119844661094e-05
480.0,5.3551935707218945e-05
512.0,-0.000574262987356633
576.0,0.00015939133299980313
640.0,0.0001912705338327214
704.0,0.0017387312836945057
768.0,0.001913472660817206
832.0,0.00012891166261397302
896.0,0.00015271375013981014
960.0,0.0010512802982702851
1024.0,-0.00019696717208717018
1152.0,-0.00023746091756038368
1280.0,0.00017765919619705528
1408.0,0.00045827447320334613
1536.0,-0.0009550449321977794
1664.0,0.0003917257417924702
1792.0,-7.056145841488615e-05
1920.0,-0.0004175754729658365
2048.0,-0.001046909368596971
2304.0,0.00020361471979413182
2560.0,-0.00022109609562903643
2816.0,-0.0005530322669073939
3072.0,7.910406566224992e-05
3328.0,-0.000594767858274281
3584.0,2.865365331672365e-06
3840.0,0.0008978318073786795
4096.0,0.0004952802555635571
4608.0,0.00024477497208863497
5120.0,0.0007004280341789126
5632.0,-0.0003137175226584077
6144.0,0.00014231583918444812
6656.0,-0.0003729773743543774
7168.0,-0.0001189248141599819
7680.0,0.00011482841364340857
8192.0,0.00034942981437779963
9216.0,-0.0003942273906432092
10240.0,-0.0008936501108109951
11264.0,-1.1374445421097334e-05
12288.0,0.0005036083748564124
13312.0,-0.00042340741492807865
14336.0,-0.0021418039686977863
end
