version,3.0
numOfCh,1
type,point
parent_name,400-cuts
ch_type,1_1
kcount,1
numberNandB,1
brightnessNandB,1
carpet pos,0
pc,0
Time (ms),CH1 Auto-Correlation
1.0,0.06352845579385757
2.0,0.06087036803364754
3.0,0.058266859501600266
4.0,0.05578184127807617
5.0,0.05340533331036568
6.0,0.05115576833486557
7.0,0.048997052013874054
8.0,0.046921826899051666
9.0,0.04494131729006767
10.0,0.043065499514341354
11.0,0.04121410846710205
12.0,0.03950027748942375
13.0,0.03795938566327095
14.0,0.03645145148038864
15.0,0.034968920052051544
16.0,0.03355196863412857
18.0,0.030971510335803032
20.0,0.02861339971423149
22.0,0.026404820382595062
24.0,0.024450011551380157
26.0,0.022797519341111183
28.0,0.02131516858935356
30.0,0.02003033272922039
32.0,0.018841784447431564
36.0,0.016434933990240097
40.0,0.014516825787723064
44.0,0.01286641787737608
48.0,0.011286497116088867
52.0,0.009438016451895237
56.0,0.007960501126945019
60.0,0.006943234242498875
64.0,0.0064245727844536304
72.0,0.006252397317439318
80.0,0.006063240580260754
88.0,0.005030919332057238
96.0,0.003955872263759375
104.0,0.0023509070742875338
112.0,0.0016216807998716831
120.0,0.0017643577884882689
128.0,0.0024039156269282103
144.0,0.002263148780912161
160.0,0.002427090657874942
176.0,0.0009856378892436624
192.0,-0.0006523679476231337
208.0,-0.0016701937420293689
224.0,-0.0018990262178704143
240.0,-0.0020567618776112795
256.0,-0.0019031434785574675
288.0,0.0007995708147063851
320.0,-0.000986937782727182
352.0,-0.001792361494153738
384.0,-5.9279311244608834e-05
416.0,0.001280461554415524
448.0,0.002720980904996395
480.0,0.002826824551448226
512.0,0.0037906328216195107
576.0,0.001541868899948895
640.0,-0.001514960778877139
704.0,-0.0013215908547863364
768.0,-0.006921464577317238
832.0,-0.0021950528025627136
896.0,0.002181337447836995
960.0,0.0036465891171246767
1024.0,-0.0003506485663820058
1152.0,-0.0019193445332348347
1280.0,-0.002819169545546174
1408.0,-0.0011350008426234126
1536.0,-0.000625752320047468
1664.0,-0.00125478848349303
1792.0,-0.0005073173088021576
1920.0,0.0008976535173133016
2048.0,-0.0020086413715034723
2304.0,-0.0006055833655409515
2560.0,-0.0022323476150631905
2816.0,0.0016475642332807183
3072.0,-0.0012281856033951044
3328.0,0.003611926920711994
3584.0,0.0014818069757893682
3840.0,0.0022210751194506884
4096.0,0.0012174012372270226
4608.0,-0.0011212354293093085
5120.0,-0.0005382504314184189
5632.0,-0.001294363639317453
6144.0,-0.0011944520520046353
6656.0,-0.0005476361839100718
7168.0,0.002433903981000185
7680.0,0.0006163757061585784
8192.0,0.00180333002936095
9216.0,-0.000560462474822998
10240.0,-0.0017740302719175816
11264.0,-0.00040007405914366245
12288.0,-0.0007771417149342597
13312.0,-0.002911659423261881
14336.0,0.00177525426261127
end
