version,3.0
numOfCh,1
type,point
parent_name,400-cuts
ch_type,1_1
kcount,1
numberNandB,1
brightnessNandB,1
carpet pos,0
pc,0
Time (ms),CH1 Auto-Correlation
1.0,0.06086952984333038
2.0,0.057941436767578125
3.0,0.05513953045010567
4.0,0.052581802010536194
5.0,0.05014292150735855
6.0,0.04784442111849785
7.0,0.04568254202604294
8.0,0.043660718947649
9.0,0.04173220694065094
10.0,0.039884742349386215
11.0,0.03810395300388336
12.0,0.036434073001146317
13.0,0.03488852083683014
14.0,0.033392757177352905
15.0,0.031916867941617966
16.0,0.030512524768710136
18.0,0.027903499081730843
20.0,0.025569379329681396
22.0,0.02351674810051918
24.0,0.021599408239126205
26.0,0.01970352604985237
28.0,0.01810532435774803
30.0,0.016529805958271027
32.0,0.015146416611969471
36.0,0.012450858019292355
40.0,0.010104828514158726
44.0,0.008744972757995129
48.0,0.007848902605473995
52.0,0.006633134558796883
56.0,0.005264795385301113
60.0,0.004025587346404791
64.0,0.003243437735363841
72.0,0.002878911793231964
80.0,0.0032524277921766043
88.0,0.004013389348983765
96.0,0.004382882732897997
104.0,0.003814835101366043
112.0,0.002467719605192542
120.0,0.0018947257194668055
128.0,0.0023899883963167667
144.0,0.0026420133654028177
160.0,0.0007801963365636766
176.0,-0.00024033416411839426
192.0,0.0005336173344403505
208.0,-0.00224150693975389
224.0,-0.003445893758907914
240.0,-0.0025908651296049356
256.0,-0.0015653128502890468
288.0,0.0004096715128980577
320.0,1.3958550880488474e-05
352.0,-0.0007262477884069085
384.0,0.0023847073316574097
416.0,0.004205917939543724
448.0,0.0018995138816535473
480.0,-0.00022115412866696715
512.0,-0.0017704891506582499
576.0,0.0033522953744977713
640.0,0.0017506454605609179
704.0,-0.000781810435000807
768.0,-0.002585315378382802
832.0,0.0007232915377244353
896.0,-0.0009853173978626728
960.0,0.0018161737825721502
1024.0,0.0017090891487896442
1152.0,0.0017141818534582853
1280.0,0.0015370382461696863
1408.0,-0.00041591149056330323
1536.0,-0.0005443750414997339
1664.0,-0.0010597668588161469
1792.0,3.042916887352476e-06
1920.0,-0.002535030711442232
2048.0,-0.0009796320227906108
2304.0,8.322330359078478e-06
2560.0,-0.002564145252108574
2816.0,-0.0012566142249852419
3072.0,0.0016120189102366567
3328.0,0.002098649740219116
3584.0,-0.0008267649682238698
3840.0,-0.000790908292401582
4096.0,0.0011674301931634545
4608.0,0.001370190060697496
5120.0,-0.0002914966898970306
5632.0,-0.000910994247533381
6144.0,0.001246982836164534
6656.0,-0.0027927642222493887
7168.0,-0.002303113229572773
7680.0,0.0008670980460010469
8192.0,-0.0006757635273970664
9216.0,0.0011507536983117461
10240.0,0.000586504815146327
11264.0,-0.00177201465703547
12288.0,-0.002136317314580083
13312.0,-0.0008428763248957694
14336.0,-0.002313045784831047
end
