version,3.0
numOfCh,1
type,point
parent_name,400-cuts
ch_type,1_1
kcount,1
numberNandB,1
brightnessNandB,1
carpet pos,0
pc,0
Time (ms),CH1 Auto-Correlation
1.0,0.0556526705622673
2.0,0.053210530430078506
3.0,0.05088074132800102
4.0,0.04864858463406563
5.0,0.04656853526830673
6.0,0.044612377882003784
7.0,0.042696889489889145
8.0,0.04090671241283417
9.0,0.03923853859305382
10.0,0.03760058432817459
11.0,0.036061715334653854
12.0,0.03458628058433533
13.0,0.03313271701335907
14.0,0.03180146589875221
15.0,0.030518172308802605
16.0,0.029304293915629387
18.0,0.027105987071990967
20.0,0.024994147941470146
22.0,0.023106340318918228
24.0,0.02138136886060238
26.0,0.019835175946354866
28.0,0.018414804711937904
30.0,0.01706531085073948
32.0,0.015799803659319878
36.0,0.013531840406358242
40.0,0.011675842106342316
44.0,0.009871724992990494
48.0,0.008157662115991116
52.0,0.0065486980602145195
56.0,0.0050977966748178005
60.0,0.003787787863984704
64.0,0.0025847558863461018
72.0,0.0013485602103173733
80.0,0.0016878716414794326
88.0,0.0030050661880522966
96.0,0.003046736354008317
104.0,0.0030840220861136913
112.0,0.003984632436186075
120.0,0.005370230879634619
128.0,0.006522967480123043
144.0,0.007598722353577614
160.0,0.006748084910213947
176.0,0.005054318346083164
192.0,0.0021588713862001896
208.0,-0.0010021873749792576
224.0,-0.002165453275665641
240.0,-0.0030231361743062735
256.0,-0.002372695365920663
288.0,-0.001943807816132903
320.0,0.0016326674958691
352.0,0.0004285472386982292
384.0,-0.0016228725435212255
416.0,-0.0007569962763227522
448.0,-0.0005255869473330677
480.0,0.0004491930012591183
512.0,0.00410170154646039
576.0,0.0004625528526958078
640.0,0.0007398673333227634
704.0,0.0001431694981874898
768.0,8.950866322265938e-05
832.0,-0.0006785343284718692
896.0,0.00027043907903134823
960.0,-2.6406389224575832e-05
1024.0,0.0015686007682234049
1152.0,4.913861630484462e-05
1280.0,-0.0015732722822576761
1408.0,-0.0015026262262836099
1536.0,-0.0010635239304974675
1664.0,0.0020583542063832283
1792.0,-0.00021635330631397665
1920.0,-0.0020422006491571665
2048.0,-0.002214563312008977
2304.0,0.0004882525245193392
2560.0,-0.0007718938868492842
2816.0,0.0007020720513537526
3072.0,-0.000984841026365757
3328.0,0.0007117628701962531
3584.0,-0.0015893743839114904
3840.0,-0.0016361206071451306
4096.0,0.0002568290219642222
4608.0,-0.00029389772680588067
5120.0,-0.0017423565732315183
5632.0,0.000995867419987917
6144.0,-0.001109505072236061
6656.0,0.002262686612084508
7168.0,0.0015264544636011124
7680.0,-0.0009840975981205702
8192.0,-0.00048097255057655275
9216.0,-0.0003790276241488755
10240.0,-0.0010798508301377296
11264.0,-0.0016931219724938273
12288.0,0.0005141966394148767
13312.0,0.0020732656121253967
14336.0,0.0020472428295761347
end
