version,3.0
numOfCh,1
type,point
parent_name,400-cuts
ch_type,1_1
kcount,1
numberNandB,1
brightnessNandB,1
carpet pos,0
pc,0
Time (ms),CH1 Auto-Correlation
1.0,0.02733054757118225
2.0,0.026123540475964546
3.0,0.025011936202645302
4.0,0.023944465443491936
5.0,0.022950297221541405
6.0,0.022003861144185066
7.0,0.021107856184244156
8.0,0.020248157903552055
9.0,0.01945287361741066
10.0,0.018677592277526855
11.0,0.01794450916349888
12.0,0.017247775569558144
13.0,0.016572728753089905
14.0,0.01591288298368454
15.0,0.01528080739080906
16.0,0.014690600335597992
18.0,0.013688039034605026
20.0,0.012864193879067898
22.0,0.012076250277459621
24.0,0.011315625160932541
26.0,0.010646757669746876
28.0,0.009984495118260384
30.0,0.009352144785225391
32.0,0.008766628801822662
36.0,0.007659208495169878
40.0,0.006643455941230059
44.0,0.005746816284954548
48.0,0.005064666736871004
52.0,0.004408341832458973
56.0,0.003837421303614974
60.0,0.0034420927986502647
64.0,0.003144019516184926
72.0,0.0028128311969339848
80.0,0.002519183326512575
88.0,0.002007017843425274
96.0,0.0019984901882708073
104.0,0.002018773229792714
112.0,0.0021572106052190065
120.0,0.0020861593075096607
128.0,0.0016428235685452819
144.0,0.00026223852182738483
160.0,5.515849989023991e-05
176.0,-0.00031332799699157476
192.0,-0.0001549928419990465
208.0,-0.0007328984211198986
224.0,-0.001068891491740942
240.0,-0.001476903329603374
256.0,-0.001640785951167345
288.0,-0.0016412085387855768
320.0,-0.0013861135812476277
352.0,-0.0011588115012273192
384.0,-0.0002516713284421712
416.0,0.0009700119844637811
448.0,0.0010851696133613586
480.0,6.670845323242247e-05
512.0,-0.000597768637817353
576.0,-0.0012641227804124355
640.0,-0.0012330061290413141
704.0,-0.0005234237178228796
768.0,-0.001332272426225245
832.0,-0.0008965852903202176
896.0,-0.00013527896953746676
960.0,0.00021468887280207127
1024.0,-0.00031607766868546605
1152.0,-0.0002772084262687713
1280.0,0.0005976700922474265
1408.0,0.00010132367606274784
1536.0,0.00019010817050002515
1664.0,0.0014902034308761358
1792.0,0.000237893225857988
1920.0,-0.0013057086616754532
2048.0,-0.0006299131200648844
2304.0,-0.001339814974926412
2560.0,0.00022250268375501037
2816.0,0.0008627082570455968
3072.0,-0.00014231733803171664
3328.0,0.0003388842160347849
3584.0,-0.001525165163911879
3840.0,0.0012392639182507992
4096.0,-0.0001116121347877197
4608.0,-0.0012428195914253592
5120.0,0.0004676370299421251
5632.0,0.0004824268107768148
6144.0,-0.0006750047323293984
6656.0,0.0012175898300483823
7168.0,-0.0003056555287912488
7680.0,-0.001331120845861733
8192.0,0.0003674226172734052
9216.0,-0.00010410074173705652
10240.0,0.00021123085753060877
11264.0,0.0002241268812213093
12288.0,0.00027363680419512093
13312.0,-0.001192159834317863
14336.0,-0.0007529646391049027
end
