version,3.0
numOfCh,1
type,point
parent_name,400-cuts
ch_type,1_1
kcount,1
numberNandB,1
brightnessNandB,1
carpet pos,0
pc,0
Time (ms),CH1 Auto-Correlation
1.0,0.05717915669083595
2.0,0.05483586713671684
3.0,0.052581869065761566
4.0,0.050374604761600494
5.0,0.04823717474937439
6.0,0.04621203988790512
7.0,0.04425022378563881
8.0,0.04233633354306221
9.0,0.040565941482782364
10.0,0.0388338640332222
11.0,0.037206247448921204
12.0,0.03565939515829086
13.0,0.03417392075061798
14.0,0.032784633338451385
15.0,0.03147874400019646
16.0,0.030241833999753
18.0,0.027943331748247147
20.0,0.025820866227149963
22.0,0.023791976273059845
24.0,0.02190309762954712
26.0,0.020187297835946083
28.0,0.01860717311501503
30.0,0.0171150341629982
32.0,0.015729963779449463
36.0,0.013255405239760876
40.0,0.011106356047093868
44.0,0.009383385069668293
48.0,0.008158079348504543
52.0,0.0071311830542981625
56.0,0.006477456074208021
60.0,0.006429810542613268
64.0,0.00673614302650094
72.0,0.006694480776786804
80.0,0.005505822133272886
88.0,0.0037852884270250797
96.0,0.0018925395561382174
104.0,0.0006289168377406895
112.0,0.0003699784283526242
120.0,0.0004814928106497973
128.0,0.0005083506111986935
144.0,0.0006905266200192273
160.0,0.0010104022221639752
176.0,0.0003684268449433148
192.0,0.0005190305528230965
208.0,0.0008782322402112186
224.0,0.0003330277104396373
240.0,-7.626957085449249e-05
256.0,-0.0006960252649150789
288.0,-0.001806844025850296
320.0,-0.0018855079542845488
352.0,-0.0014417466009035707
384.0,-0.000607813592068851
416.0,-0.0015063623432070017
448.0,-0.002789279678836465
480.0,-0.0032489493023604155
512.0,-0.002399999648332596
576.0,-7.860791811253875e-05
640.0,0.00025236833607777953
704.0,0.0006232389714568853
768.0,0.000696752336807549
832.0,-0.0026786532253026962
896.0,-0.002394269686192274
960.0,-0.002242309506982565
1024.0,-0.0003734974889084697
1152.0,0.000791735656093806
1280.0,0.0004394607967697084
1408.0,0.0003083984775003046
1536.0,-0.0017408973071724176
1664.0,-0.0010761694284155965
1792.0,4.7547913709422573e-05
1920.0,0.0031231287866830826
2048.0,0.0007155230268836021
2304.0,-0.001253342954441905
2560.0,-0.00023150729248300195
2816.0,-0.0005088743637315929
3072.0,0.002987408544868231
3328.0,0.0019295550882816315
3584.0,-0.0015472735976800323
3840.0,0.0005015970673412085
4096.0,0.001202653511427343
4608.0,-0.001761007821187377
5120.0,0.0020900985691696405
5632.0,-0.0021040572319179773
6144.0,0.0006795897497795522
6656.0,-0.0014127461472526193
7168.0,0.0011298952158540487
7680.0,-0.0020479972008615732
8192.0,0.0017591346986591816
9216.0,-0.0015098120784386992
10240.0,0.0005883253179490566
11264.0,-0.0018633666913956404
12288.0,0.0006024940521456301
13312.0,-0.0005813547177240252
14336.0,-0.0013013267889618874
end
