version,3.0
numOfCh,1
type,point
parent_name,400-cuts
ch_type,1_1
kcount,1
numberNandB,1
brightnessNandB,1
carpet pos,0
pc,0
Time (ms),CH1 Auto-Correlation
1.0,0.02538483217358589
2.0,0.024400057271122932
3.0,0.023493066430091858
4.0,0.022618796676397324
5.0,0.02180517092347145
6.0,0.021022895351052284
7.0,0.020276736468076706
8.0,0.019562749192118645
9.0,0.018880819901823997
10.0,0.01820402778685093
11.0,0.017547806724905968
12.0,0.016906529664993286
13.0,0.016283700242638588
14.0,0.015691326931118965
15.0,0.015121127478778362
16.0,0.014584832824766636
18.0,0.013565070927143097
20.0,0.012622281908988953
22.0,0.011704814620316029
24.0,0.010808009654283524
26.0,0.009923993609845638
28.0,0.009083994664251804
30.0,0.008279235102236271
32.0,0.007552288006991148
36.0,0.00627565011382103
40.0,0.005039867479354143
44.0,0.0039047591853886843
48.0,0.0028885037172585726
52.0,0.002116586547344923
56.0,0.0015683104284107685
60.0,0.00112187082413584
64.0,0.0006995673174969852
72.0,4.77689754916355e-05
80.0,-0.0003510558744892478
88.0,-0.00034780276473611593
96.0,-0.0003349967300891876
104.0,-0.0002622753381729126
112.0,-1.9365426851436496e-05
120.0,9.42294136621058e-05
128.0,-6.390827184077352e-05
144.0,-0.00021178473252803087
160.0,-9.282091923523694e-05
176.0,9.075384696188848e-06
192.0,-9.871570910036098e-06
208.0,-0.00016699061961844563
224.0,-0.0007463836809620261
240.0,-0.000706041231751442
256.0,0.00026938304654322565
288.0,0.0011075197253376245
320.0,0.00035203996230848134
352.0,-0.0006012679077684879
384.0,-0.0011453708866611123
416.0,-0.0010751135414466262
448.0,-0.0005020137177780271
480.0,0.00014475260104518384
512.0,0.0004669005866162479
576.0,0.0005162048619240522
640.0,-0.0004854776489082724
704.0,-0.0005948481848463416
768.0,-0.0007846487569622695
832.0,-0.0004659248807001859
896.0,-0.0009921934688463807
960.0,0.0009603247162885964
1024.0,0.0008365606190636754
1152.0,-0.00033814922790043056
1280.0,-9.196490282192826e-05
1408.0,-0.0013024535728618503
1536.0,0.00045532122021541
1664.0,0.0003560182231012732
1792.0,0.0004944266402162611
1920.0,-0.00011567914771148935
2048.0,0.00017508427845314145
2304.0,-0.0001371661783196032
2560.0,-0.0007878711330704391
2816.0,5.851794048794545e-05
3072.0,-2.6633444576873444e-05
3328.0,0.00031730253249406815
3584.0,-0.0005184793844819069
3840.0,0.00030150747625157237
4096.0,0.000385904626455158
4608.0,-0.00011268098023720086
5120.0,0.0006346904556266963
5632.0,-9.642324585001916e-05
6144.0,0.0003558077441994101
6656.0,0.0004349664377514273
7168.0,0.00020164465240668505
7680.0,-0.0007332340464927256
8192.0,-0.0002125991159118712
9216.0,-5.3286104957805946e-05
10240.0,0.00017643948376644403
11264.0,-0.00010351141827413812
12288.0,-0.000184848511707969
13312.0,1.7134663721662946e-05
14336.0,-0.0006137083983048797
end
