version,3.0
numOfCh,1
type,point
parent_name,400-cuts
ch_type,1_1
kcount,1
numberNandB,1
brightnessNandB,1
carpet pos,0
pc,0
Time (ms),CH1 Auto-Correlation
1.0,0.055034201592206955
2.0,0.05264844000339508
3.0,0.050355058163404465
4.0,0.04819776862859726
5.0,0.04616425558924675
6.0,0.04421462491154671
7.0,0.0423920638859272
8.0,0.04065033048391342
9.0,0.0389113686978817
10.0,0.03729824349284172
11.0,0.035707585513591766
12.0,0.03422338515520096
13.0,0.03286302834749222
14.0,0.03155086189508438
15.0,0.03031248413026333
16.0,0.029126089066267014
18.0,0.026882188394665718
20.0,0.024750934913754463
22.0,0.022823939099907875
24.0,0.021018657833337784
26.0,0.019313372671604156
28.0,0.017762308940291405
30.0,0.01628723368048668
32.0,0.014904778450727463
36.0,0.012565131299197674
40.0,0.010712023824453354
44.0,0.00942672323435545
48.0,0.008646585047245026
52.0,0.008004734292626381
56.0,0.007108640857040882
60.0,0.0063196029514074326
64.0,0.005371871404349804
72.0,0.0033277668990194798
80.0,0.001254166243597865
88.0,-0.0005255858413875103
96.0,-0.0012958776205778122
104.0,-0.0021463599987328053
112.0,-0.003416834631934762
120.0,-0.004342574626207352
128.0,-0.004362666979432106
144.0,-0.0030039867851883173
160.0,-0.0015879174461588264
176.0,-0.0006444717873819172
192.0,9.595992014510557e-05
208.0,2.7313817554386333e-05
224.0,0.00025665690191090107
240.0,0.0001888945116661489
256.0,-2.9350338081712835e-05
288.0,-0.0010009243851527572
320.0,-0.002609914867207408
352.0,-0.002887043636292219
384.0,-0.0033867224119603634
416.0,-0.0010220753028988838
448.0,0.00035383470822125673
480.0,-0.003444557311013341
512.0,-0.004291283432394266
576.0,-0.0016605990240350366
640.0,-0.0010607989970594645
704.0,0.000536014442332089
768.0,-0.0007754559628665447
832.0,-0.0013750657672062516
896.0,-0.0005284897633828223
960.0,-0.002512443345040083
1024.0,0.0008047748124226928
1152.0,0.0007068635313771665
1280.0,0.00214716256596148
1408.0,0.0007669373881071806
1536.0,-0.00039509887574240565
1664.0,-0.0011200527660548687
1792.0,-0.0008488813182339072
1920.0,-0.0005306578241288662
2048.0,-0.0005575728719122708
2304.0,-0.0011209960794076324
2560.0,0.00013017255696468055
2816.0,0.0022031674161553383
3072.0,-4.964235813531559e-06
3328.0,-0.0009680657531134784
3584.0,-0.0007058040355332196
3840.0,-0.0003185886307619512
4096.0,0.0008448907756246626
4608.0,0.0006807313766330481
5120.0,-0.0011662759352475405
5632.0,0.0013942425139248371
6144.0,-0.0015704381512477994
6656.0,-3.626001489465125e-05
7168.0,0.0012763987760990858
7680.0,-0.0003907141799572855
8192.0,-0.0010792886605486274
9216.0,-0.0001667170727159828
10240.0,0.0003917474823538214
11264.0,-0.0005484648863784969
12288.0,-7.940527575556189e-05
13312.0,1.565777711221017e-05
14336.0,0.00018349455785937607
end
