version,3.0
numOfCh,1
type,point
parent_name,400-cuts
ch_type,1_1
kcount,1
numberNandB,1
brightnessNandB,1
carpet pos,0
pc,0
Time (ms),CH1 Auto-Correlation
1.0,0.01950489915907383
2.0,0.01867806538939476
3.0,0.017886074259877205
4.0,0.017143212258815765
5.0,0.01643252559006214
6.0,0.015751097351312637
7.0,0.015136366710066795
8.0,0.014557679183781147
9.0,0.014003218151628971
10.0,0.013456507585942745
11.0,0.012934772297739983
12.0,0.012437243945896626
13.0,0.011978205293416977
14.0,0.011546799913048744
15.0,0.011132649146020412
16.0,0.010707066394388676
18.0,0.009936973452568054
20.0,0.009209356270730495
22.0,0.008538120426237583
24.0,0.007915184833109379
26.0,0.007328314241021872
28.0,0.0067584761418402195
30.0,0.0062163881957530975
32.0,0.005718606989830732
36.0,0.004833913873881102
40.0,0.003963974770158529
44.0,0.003235612064599991
48.0,0.002684979233890772
52.0,0.002263493137434125
56.0,0.001956135733053088
60.0,0.0017468973528593779
64.0,0.0014993337681517005
72.0,0.0010161863174289465
80.0,0.0006008786731399596
88.0,0.0004242745926603675
96.0,0.0002577851410023868
104.0,-5.703864189854357e-06
112.0,-0.00010100966755999252
120.0,-2.6993446226697415e-05
128.0,-7.989788718987256e-05
144.0,-0.0003467702481430024
160.0,-0.0004890586715191603
176.0,-0.0006185879465192556
192.0,-0.00011138107947772369
208.0,0.0007720571593381464
224.0,0.0011603774037212133
240.0,0.0012112942058593035
256.0,0.0009955152636393905
288.0,0.0006580746849067509
320.0,0.0006003140588290989
352.0,0.0012824275763705373
384.0,0.001136937877163291
416.0,0.0008336477912962437
448.0,0.00042942631989717484
480.0,-2.4669951017131098e-05
512.0,-0.0006688894354738295
576.0,-0.0011871408205479383
640.0,0.0002962581638712436
704.0,-5.255443738860777e-06
768.0,0.00042781216325238347
832.0,-0.0003601324569899589
896.0,0.00017153930093627423
960.0,-0.00010018855391535908
1024.0,-0.0001480982027715072
1152.0,-0.0002670586691237986
1280.0,0.0007049519335851073
1408.0,0.0010815452551469207
1536.0,0.0008282941998913884
1664.0,7.616844231961295e-05
1792.0,0.0006488479557447135
1920.0,-0.00021095547708682716
2048.0,4.748647552332841e-05
2304.0,-0.00026951474137604237
2560.0,-0.00013413888518698514
2816.0,0.0003170270938426256
3072.0,0.00043861259473487735
3328.0,-7.778377766953781e-05
3584.0,-0.00022679880203213543
3840.0,0.00012076549319317564
4096.0,0.000358905439497903
4608.0,-0.0002884471323341131
5120.0,0.0003076418361160904
5632.0,0.0005602670134976506
6144.0,-0.00035332993138581514
6656.0,6.740610115230083e-05
7168.0,-0.00036279732012189925
7680.0,-0.000764771772082895
8192.0,0.0006030861986801028
9216.0,-2.398000106040854e-05
10240.0,4.272314617992379e-05
11264.0,-0.00031124273664318025
12288.0,-0.0005968775367364287
13312.0,-0.001797412522137165
14336.0,-0.0011322393547743559
end
