version,3.0
numOfCh,1
type,point
parent_name,400-cuts
ch_type,1_1
kcount,1
numberNandB,1
brightnessNandB,1
carpet pos,0
pc,0
Time (ms),CH1 Auto-Correlation
1.0,0.028604954481124878
2.0,0.027396705001592636
3.0,0.02624894119799137
4.0,0.025150718167424202
5.0,0.024090714752674103
6.0,0.02305791713297367
7.0,0.022080209106206894
8.0,0.021157654002308846
9.0,0.020308036357164383
10.0,0.01949218660593033
11.0,0.018722297623753548
12.0,0.01799924485385418
13.0,0.017353376373648643
14.0,0.016774697229266167
15.0,0.016194501891732216
16.0,0.015627631917595863
18.0,0.014587833546102047
20.0,0.013554339297115803
22.0,0.012621697038412094
24.0,0.011727746576070786
26.0,0.010883393697440624
28.0,0.010146904736757278
30.0,0.009521500207483768
32.0,0.008896355517208576
36.0,0.007600643206387758
40.0,0.006321912165731192
44.0,0.005206554662436247
48.0,0.00435160007327795
52.0,0.0036958728451281786
56.0,0.0032646681647747755
60.0,0.0028996963519603014
64.0,0.0025757348630577326
72.0,0.0018047901103273034
80.0,0.0013551482697948813
88.0,0.0010817813454195857
96.0,0.0005663407500833273
104.0,8.789869025349617e-05
112.0,-0.00024465282331220806
120.0,-0.0005826421547681093
128.0,-0.0007721176370978355
144.0,-0.0015771366888657212
160.0,-0.001887797610834241
176.0,-0.001548372209072113
192.0,-0.0015563714550808072
208.0,-0.0015809792093932629
224.0,-0.0023084005806595087
240.0,-0.0029742768965661526
256.0,-0.002771648345515132
288.0,-0.00021019189443904907
320.0,0.0005776460748165846
352.0,0.0008578045526519418
384.0,0.0019918475300073624
416.0,0.0014698926825076342
448.0,0.0005444021080620587
480.0,-0.00010625654977047816
512.0,-1.6818521544337273e-05
576.0,0.0006166502134874463
640.0,0.0010288626654073596
704.0,7.835913129383698e-05
768.0,0.00022202497348189354
832.0,0.000710195570718497
896.0,0.0012738469522446394
960.0,0.001218725461512804
1024.0,-0.0009725886047817767
1152.0,0.0009200398926623166
1280.0,0.0017276696162298322
1408.0,-0.0012902949238196015
1536.0,-0.0007709916681051254
1664.0,0.0009007510379888117
1792.0,0.0010221024276688695
1920.0,-0.0009691271698102355
2048.0,-0.0005325738457031548
2304.0,0.0009640437201596797
2560.0,0.0008180125732906163
2816.0,-0.0008946602465584874
3072.0,0.00033780306694097817
3328.0,0.00013965759717393667
3584.0,-0.00032142462441697717
3840.0,0.0006301708635874093
4096.0,-0.0007315155817195773
4608.0,7.901111530372873e-05
5120.0,-0.0004682459111791104
5632.0,-0.0003801879065576941
6144.0,-0.0008834713371470571
6656.0,-0.0006692813476547599
7168.0,-0.0007712483638897538
7680.0,-0.0007316259434446692
8192.0,-0.0004193326167296618
9216.0,-0.00028569609276019037
10240.0,-0.0007025883533060551
11264.0,7.147889846237376e-05
12288.0,0.0004909501294605434
13312.0,0.0009984117932617664
14336.0,0.0011317013995721936
end
