version,3.0
numOfCh,1
type,point
parent_name,400-cuts
ch_type,1_1
kcount,1
numberNandB,1
brightnessNandB,1
carpet pos,0
pc,0
Time (ms),CH1 Auto-Correlation
1.0,0.06055226922035217
2.0,0.057851508259773254
3.0,0.055236972868442535
4.0,0.05277007818222046
5.0,0.05043984577059746
6.0,0.04823549464344978
7.0,0.0461750254034996
8.0,0.04422064125537872
9.0,0.04238286241889
10.0,0.04066050797700882
11.0,0.03895452991127968
12.0,0.03729105368256569
13.0,0.03574422374367714
14.0,0.03423741087317467
15.0,0.03277020901441574
16.0,0.03140537068247795
18.0,0.028874019160866737
20.0,0.02651372179389
22.0,0.02442140132188797
24.0,0.022460566833615303
26.0,0.020534921437501907
28.0,0.018772760406136513
30.0,0.017154473811388016
32.0,0.015622670762240887
36.0,0.012702037580311298
40.0,0.009974125772714615
44.0,0.007575517520308495
48.0,0.005790351890027523
52.0,0.0045128073543310165
56.0,0.0035921919625252485
60.0,0.003030612599104643
64.0,0.0024711175356060266
72.0,0.00187490729149431
80.0,0.001822124351747334
88.0,0.00137417227961123
96.0,0.00104699342045933
104.0,0.0006123227649368346
112.0,0.00030088398489169776
120.0,-0.0005490421317517757
128.0,-0.0010986776323989034
144.0,-0.0015498792054131627
160.0,-0.003327953862026334
176.0,-0.0042827557772397995
192.0,-0.0039743478409945965
208.0,-0.0047333696857094765
224.0,-0.003632426029071212
240.0,-0.002944363048300147
256.0,-0.001363316085189581
288.0,0.003824871964752674
320.0,0.004665191750973463
352.0,0.003650492522865534
384.0,0.0034557096660137177
416.0,0.0007546834531240165
448.0,-0.0012243702076375484
480.0,-0.0047814492136240005
512.0,-0.005390486679971218
576.0,-0.002824825933203101
640.0,-0.00043163824011571705
704.0,0.0019481079652905464
768.0,0.0017888288712128997
832.0,0.0006445439648814499
896.0,-0.00042868356104008853
960.0,0.0027032748330384493
1024.0,-0.0005124842864461243
1152.0,-0.001051894505508244
1280.0,-0.0010999524965882301
1408.0,-0.0031696308869868517
1536.0,0.00025287416065111756
1664.0,0.000740896153729409
1792.0,-0.0024713038001209497
1920.0,0.002002794062718749
2048.0,0.0012015090323984623
2304.0,-0.000272452540230006
2560.0,0.001593929948285222
2816.0,0.0005386295379139483
3072.0,-0.001938463537953794
3328.0,9.516115096630529e-05
3584.0,-0.000440598203567788
3840.0,-0.001267536892555654
4096.0,-0.0001812378759495914
4608.0,0.0011774831218644977
5120.0,0.001389960991218686
5632.0,-0.00029061883105896413
6144.0,-4.911571886623278e-05
6656.0,-0.0026547140441834927
7168.0,0.0011747311800718307
7680.0,0.0007858632015995681
8192.0,-0.0012643988011404872
9216.0,0.0007113090832717717
10240.0,0.0005009741289541125
11264.0,-0.0010944405803456903
12288.0,-0.0012986490037292242
13312.0,-0.0008134708623401821
14336.0,-0.0008236106368713081
end
