version,3.0
numOfCh,1
type,point
parent_name,400-cuts
ch_type,1_1
kcount,1
numberNandB,1
brightnessNandB,1
carpet pos,0
pc,0
Time (ms),CH1 Auto-Correlation
1.0,0.021613528952002525
2.0,0.02071669138967991
3.0,0.019881578162312508
4.0,0.019082892686128616
5.0,0.018316220492124557
6.0,0.017580339685082436
7.0,0.01687874272465706
8.0,0.01620582304894924
9.0,0.01558110024780035
10.0,0.01498706080019474
11.0,0.014408932067453861
12.0,0.013855407945811749
13.0,0.013315778225660324
14.0,0.012797752395272255
15.0,0.0122640710324049
16.0,0.011745654046535492
18.0,0.010792015120387077
20.0,0.009951663203537464
22.0,0.009183748625218868
24.0,0.008460653014481068
26.0,0.007775480393320322
28.0,0.007176091894507408
30.0,0.0066562313586473465
32.0,0.006121217738837004
36.0,0.005066191777586937
40.0,0.0041131507605314255
44.0,0.003306529251858592
48.0,0.0025654437486082315
52.0,0.001981988549232483
56.0,0.0015895527321845293
60.0,0.0012720082886517048
64.0,0.0009775562211871147
72.0,2.8180735171190463e-05
80.0,-0.0009913857793435454
88.0,-0.0014151938958093524
96.0,-0.001518493052572012
104.0,-0.0016979309730231762
112.0,-0.0018080426380038261
120.0,-0.0014791596913710237
128.0,-0.0010554753243923187
144.0,-0.0006119926692917943
160.0,-0.0003939110320061445
176.0,-0.00043033590191043913
192.0,2.3214826796902344e-05
208.0,0.0003587074170354754
224.0,0.00024189523537643254
240.0,-0.00025041683693416417
256.0,-0.0004142453835811466
288.0,0.0008000915986485779
320.0,0.0002336914330953732
352.0,0.00013794907135888934
384.0,-2.4315821065101773e-05
416.0,-0.0004350369272287935
448.0,-0.00031964274239726365
480.0,-8.903309208108112e-05
512.0,-6.022645902703516e-05
576.0,0.0001721419394016266
640.0,0.000657350814435631
704.0,0.0005919578834436834
768.0,0.0010793824912980199
832.0,0.00024699734058231115
896.0,-0.0004579444066621363
960.0,-0.0010685569141060114
1024.0,-0.0004645891604013741
1152.0,-0.00047826796071603894
1280.0,-0.0001323407341260463
1408.0,-0.00012908756616525352
1536.0,0.0010532746091485023
1664.0,-0.0006113162962719798
1792.0,-0.00047110955347307026
1920.0,0.00039948924677446485
2048.0,9.403270814800635e-05
2304.0,-0.00023653838434256613
2560.0,-0.000682138605043292
2816.0,-0.00013717888214159757
3072.0,-0.000512991042342037
3328.0,-0.0007117509376257658
3584.0,6.98344229022041e-05
3840.0,-6.407428372767754e-06
4096.0,-0.00011102389544248581
4608.0,0.00014866181300021708
5120.0,0.00012570229591801763
5632.0,0.0005685624200850725
6144.0,0.00027202427736483514
6656.0,-0.0004269727796781808
7168.0,-0.00042117660632357
7680.0,-9.774005593499169e-05
8192.0,0.0002793815510813147
9216.0,0.000133491528686136
10240.0,0.000316434568958357
11264.0,0.00010213701898464933
12288.0,-0.0007064779638312757
13312.0,-0.0007875018054619431
14336.0,-0.00011593120143515989
end
