version,3.0
numOfCh,1
type,point
parent_name,400-cuts
ch_type,1_1
kcount,1
numberNandB,1
brightnessNandB,1
carpet pos,0
pc,0
Time (ms),CH1 Auto-Correlation
1.0,0.0641307532787323
2.0,0.061282072216272354
3.0,0.05861014500260353
4.0,0.05604468286037445
5.0,0.053523316979408264
6.0,0.05106301233172417
7.0,0.04868851974606514
8.0,0.04643137753009796
9.0,0.04428454861044884
10.0,0.04222092777490616
11.0,0.04020870476961136
12.0,0.03840862214565277
13.0,0.03676161915063858
14.0,0.035165831446647644
15.0,0.033607956022024155
16.0,0.032125454396009445
18.0,0.02931581623852253
20.0,0.026870664209127426
22.0,0.02453075908124447
24.0,0.022319471463561058
26.0,0.02018878236413002
28.0,0.018214065581560135
30.0,0.016400212422013283
32.0,0.014799953438341618
36.0,0.011946390382945538
40.0,0.009806131944060326
44.0,0.008101528510451317
48.0,0.006851604208350182
52.0,0.005923525895923376
56.0,0.005239312071353197
60.0,0.004941648803651333
64.0,0.00481037050485611
72.0,0.004783631768077612
80.0,0.004015087150037289
88.0,0.0034051663242280483
96.0,0.002999713411554694
104.0,0.0024045307654887438
112.0,0.001228433451615274
120.0,0.00021102438040543348
128.0,-0.00020586825849022716
144.0,0.0009186490206047893
160.0,0.0033987308852374554
176.0,0.0047015477903187275
192.0,0.004674079362303019
208.0,0.00337023613974452
224.0,0.0015127869555726647
240.0,0.0004951435839757323
256.0,-0.0008673909469507635
288.0,0.000814637285657227
320.0,-0.00011541880667209625
352.0,-0.0027830281760543585
384.0,-0.0009937174618244171
416.0,-0.0003573492867872119
448.0,0.0007857452146708965
480.0,0.0023234239779412746
512.0,0.001077034859918058
576.0,-0.00013962213415652514
640.0,-0.0022581664379686117
704.0,-0.0028708502650260925
768.0,-0.0007958561182022095
832.0,0.0005814543692395091
896.0,-0.001097262604162097
960.0,-0.0018076736014336348
1024.0,-0.002119777025654912
1152.0,-0.000729016843251884
1280.0,-0.002978785429149866
1408.0,-0.0016485124360769987
1536.0,0.0011811746517196298
1664.0,0.002043292624875903
1792.0,0.0021798156667500734
1920.0,0.001390779041685164
2048.0,-0.0002940924314316362
2304.0,0.00028958480106666684
2560.0,0.00028994129388593137
2816.0,-0.0001302760501857847
3072.0,0.00021904830646235496
3328.0,0.0007985921110957861
3584.0,-0.001737693091854453
3840.0,-0.0014197363052517176
4096.0,0.0016173013718798757
4608.0,0.001365173258818686
5120.0,-0.00031695934012532234
5632.0,-0.0007501564105041325
6144.0,-0.002031166572123766
6656.0,0.0017164418241009116
7168.0,-0.0006443005986511707
7680.0,0.002280644839629531
8192.0,0.0012417915277183056
9216.0,0.0008599706343375146
10240.0,-0.003456774400547147
11264.0,0.0003663341049104929
12288.0,-3.481826206552796e-05
13312.0,-0.0026008698623627424
14336.0,-0.003517724107950926
end
