version,3.0
numOfCh,1
type,point
parent_name,400-cuts
ch_type,1_1
kcount,1
numberNandB,1
brightnessNandB,1
carpet pos,0
pc,0
Time (ms),CH1 Auto-Correlation
1.0,0.07429157197475433
2.0,0.07127184420824051
3.0,0.06837039440870285
4.0,0.0655442476272583
5.0,0.0627579391002655
6.0,0.06015205383300781
7.0,0.057638850063085556
8.0,0.05527038127183914
9.0,0.05299161374568939
10.0,0.050827756524086
11.0,0.04883250966668129
12.0,0.04697712883353233
13.0,0.04516437649726868
14.0,0.043461333960294724
15.0,0.04195268452167511
16.0,0.040453679859638214
18.0,0.037471696734428406
20.0,0.034852877259254456
22.0,0.03230632469058037
24.0,0.030005790293216705
26.0,0.027707809582352638
28.0,0.02555127441883087
30.0,0.02363574504852295
32.0,0.02191573940217495
36.0,0.01876154914498329
40.0,0.015896033495664597
44.0,0.01348787546157837
48.0,0.011132054030895233
52.0,0.008812944404780865
56.0,0.007166692521423101
60.0,0.006103155668824911
64.0,0.005470873322337866
72.0,0.005399618297815323
80.0,0.005346720572561026
88.0,0.004721726756542921
96.0,0.004200605675578117
104.0,0.0035625011660158634
112.0,0.0018990699900314212
120.0,0.0004939567297697067
128.0,-0.0006550444522872567
144.0,-0.0018480044091120362
160.0,-0.002921776846051216
176.0,-0.0025191318709403276
192.0,0.0006685377447865903
208.0,0.004274113103747368
224.0,0.004218773916363716
240.0,0.0036427618470042944
256.0,0.0025342856533825397
288.0,-0.002456521848216653
320.0,-0.005471034906804562
352.0,-0.005882543511688709
384.0,-0.004380523227155209
416.0,-0.004120946396142244
448.0,-6.932746327947825e-05
480.0,0.0017400899669155478
512.0,-0.00042306288378313184
576.0,0.0011165975593030453
640.0,0.0005587786436080933
704.0,0.00032859263592399657
768.0,-0.0002413391921436414
832.0,0.002636449411511421
896.0,0.0009089203667826951
960.0,0.0022051483392715454
1024.0,0.0015752585604786873
1152.0,-0.0038369842804968357
1280.0,-0.0019083055667579174
1408.0,-0.005628481972962618
1536.0,0.0022977872285991907
1664.0,0.0005191026139073074
1792.0,-0.0017255874117836356
1920.0,-0.0013153974432498217
2048.0,0.0009303242550231516
2304.0,0.004367360379546881
2560.0,0.0012549509992823005
2816.0,-0.003111073048785329
3072.0,0.0023476521018892527
3328.0,-0.000255399412708357
3584.0,-0.0032312958501279354
3840.0,-0.0006430530338548124
4096.0,0.0018981220200657845
4608.0,0.00145500258076936
5120.0,8.300373883685097e-05
5632.0,0.00017754343571141362
6144.0,0.0004804631171282381
6656.0,-0.00039616116555407643
7168.0,0.0002059081307379529
7680.0,0.0006299951346591115
8192.0,-0.001992852194234729
9216.0,-0.0004491692816372961
10240.0,-0.0002464888384565711
11264.0,-0.00022372840612661093
12288.0,0.0018023144220933318
13312.0,-0.002010249299928546
14336.0,-0.004700818099081516
end
