version,3.0
numOfCh,1
type,point
parent_name,400-cuts
ch_type,1_1
kcount,1
numberNandB,1
brightnessNandB,1
carpet pos,0
pc,0
Time (ms),CH1 Auto-Correlation
1.0,0.05770981311798096
2.0,0.055257927626371384
3.0,0.05292588844895363
4.0,0.05078160762786865
5.0,0.04872053489089012
6.0,0.04671365022659302
7.0,0.044772032648324966
8.0,0.042993705719709396
9.0,0.04130179435014725
10.0,0.03959055617451668
11.0,0.03791080787777901
12.0,0.03629257529973984
13.0,0.03472340852022171
14.0,0.03319366276264191
15.0,0.03173878416419029
16.0,0.030345479026436806
18.0,0.027954431250691414
20.0,0.025776274502277374
22.0,0.023809390142560005
24.0,0.021932322531938553
26.0,0.020384423434734344
28.0,0.018921151757240295
30.0,0.017535340040922165
32.0,0.01624453067779541
36.0,0.014008536003530025
40.0,0.011636380106210709
44.0,0.009553047828376293
48.0,0.007914505898952484
52.0,0.006708572618663311
56.0,0.005814866162836552
60.0,0.005278384778648615
64.0,0.005180956330150366
72.0,0.004698003176599741
80.0,0.0039414349012076855
88.0,0.0029047501739114523
96.0,0.0008497326052747667
104.0,-0.00010956529149552807
112.0,-0.0003554484574124217
120.0,-0.0006435298710130155
128.0,-0.0008207322098314762
144.0,0.0005260296748019755
160.0,0.002425730461254716
176.0,0.002002630615606904
192.0,0.0011854555923491716
208.0,0.0015232365112751722
224.0,0.002676040166988969
240.0,0.0019064554944634438
256.0,0.0008691349066793919
288.0,-0.0007306043989956379
320.0,-0.0027424448635429144
352.0,-0.0019591960590332747
384.0,-0.00040875375270843506
416.0,0.001526741893030703
448.0,0.002267325995489955
480.0,8.451446774415672e-05
512.0,0.000509976118337363
576.0,-0.001388420583680272
640.0,-0.0019059927435591817
704.0,-0.0010363656328991055
768.0,0.0009261576342396438
832.0,-5.057762245996855e-05
896.0,0.003451801370829344
960.0,0.0009256140328943729
1024.0,0.0005093025392852724
1152.0,-0.00021605494839604944
1280.0,-0.001784582156687975
1408.0,-0.00080248829908669
1536.0,0.002503165975213051
1664.0,0.0033626507502049208
1792.0,0.0004223274008836597
1920.0,0.0006105724023655057
2048.0,-0.0005160259897820652
2304.0,-0.0010949065908789635
2560.0,-0.0013687319587916136
2816.0,-0.0008442310499958694
3072.0,-0.001777469296939671
3328.0,0.0005655450513586402
3584.0,0.00020474668417591602
3840.0,-0.002303697867318988
4096.0,-0.0015488198259845376
4608.0,9.221938671544194e-05
5120.0,-0.0004126866697333753
5632.0,-0.0001302760501857847
6144.0,0.0008020216482691467
6656.0,0.0005056326626800001
7168.0,-0.0007024367223493755
7680.0,-0.0004283107991795987
8192.0,0.0003573497524484992
9216.0,-0.0013709224294871092
10240.0,6.716633652104065e-05
11264.0,0.0009365100413560867
12288.0,0.001579094910994172
13312.0,0.0008717735181562603
14336.0,-2.5144399842247367e-05
end
