version,3.0
numOfCh,1
type,point
parent_name,400-cuts
ch_type,1_1
kcount,1
numberNandB,1
brightnessNandB,1
carpet pos,0
pc,0
Time (ms),CH1 Auto-Correlation
1.0,0.03265970200300217
2.0,0.03130996972322464
3.0,0.02999855950474739
4.0,0.028736168518662453
5.0,0.02753428928554058
6.0,0.026395035907626152
7.0,0.025337256491184235
8.0,0.024307813495397568
9.0,0.023344483226537704
10.0,0.02242082729935646
11.0,0.021512454375624657
12.0,0.020622240379452705
13.0,0.019774822518229485
14.0,0.01901485025882721
15.0,0.018293781206011772
16.0,0.0176501777023077
18.0,0.0164432805031538
20.0,0.015302106738090515
22.0,0.014172584749758244
24.0,0.013172474689781666
26.0,0.01227752398699522
28.0,0.011423504911363125
30.0,0.01061074435710907
32.0,0.009824157692492008
36.0,0.008343163877725601
40.0,0.007050658576190472
44.0,0.00596694927662611
48.0,0.005092131905257702
52.0,0.004322316963225603
56.0,0.003747500479221344
60.0,0.003212176961824298
64.0,0.0027399156242609024
72.0,0.002109215594828129
80.0,0.0018767762230709195
88.0,0.0015704950783401728
96.0,0.0014002581592649221
104.0,0.0011396693298593163
112.0,0.0009143789648078382
120.0,0.000935975753236562
128.0,0.0011867135763168335
144.0,0.0007750567165203393
160.0,0.0004443421494215727
176.0,0.0005322671495378017
192.0,0.00027557945577427745
208.0,0.00021206231031101197
224.0,0.00012994580902159214
240.0,-0.00012952204269822687
256.0,-3.9936494431458414e-05
288.0,0.0011607742635533214
320.0,0.0008046115399338305
352.0,0.00022735855600330979
384.0,-0.0004333993711043149
416.0,-0.001266170758754015
448.0,-0.0008657900616526604
480.0,-0.0006060025189071894
512.0,-0.001090214354917407
576.0,-0.00040582308429293334
640.0,-0.00014635050320066512
704.0,-0.0008257736917585135
768.0,-0.0010868831304833293
832.0,-0.0019297527614980936
896.0,-0.00011712928971974179
960.0,-0.000529397395439446
1024.0,-0.0030119544826447964
1152.0,-0.00011487981100799516
1280.0,-0.0004941762308590114
1408.0,2.3272081307368353e-05
1536.0,-0.0013406743528321385
1664.0,-0.0008658214937895536
1792.0,0.000979921780526638
1920.0,0.000955345225520432
2048.0,0.00040654733311384916
2304.0,0.0004620988911483437
2560.0,0.0005129515193402767
2816.0,-0.00039573872345499694
3072.0,-0.001760966028086841
3328.0,-0.0016400989843532443
3584.0,5.0364440539851785e-05
3840.0,0.0013528179842978716
4096.0,6.180605123518035e-05
4608.0,-0.00029280371381901205
5120.0,7.741439731034916e-06
5632.0,0.0008459602831862867
6144.0,0.0004835196887142956
6656.0,-0.0003438495332375169
7168.0,-7.723170710960403e-05
7680.0,0.0008571405778639019
8192.0,-0.0008171755471266806
9216.0,0.00032576112425886095
10240.0,-0.000767960213124752
11264.0,0.0009748237207531929
12288.0,6.39915160718374e-05
13312.0,0.0001443416258553043
14336.0,-0.0016627374570816755
end
