version,3.0
numOfCh,1
type,point
parent_name,400-cuts
ch_type,1_1
kcount,1
numberNandB,1
brightnessNandB,1
carpet pos,0
pc,0
Time (ms),CH1 Auto-Correlation
1.0,0.05031077563762665
2.0,0.048122599720954895
3.0,0.04595387727022171
4.0,0.044007308781147
5.0,0.04218298941850662
6.0,0.040403127670288086
7.0,0.03872767835855484
8.0,0.037082087248563766
9.0,0.035489775240421295
10.0,0.03399199619889259
11.0,0.03260044381022453
12.0,0.03131034970283508
13.0,0.030000630766153336
14.0,0.028689317405223846
15.0,0.027389902621507645
16.0,0.026164593175053596
18.0,0.02389492094516754
20.0,0.02187105268239975
22.0,0.02009624056518078
24.0,0.018518107011914253
26.0,0.017217488959431648
28.0,0.016146467998623848
30.0,0.0151921845972538
32.0,0.014429161325097084
36.0,0.013377238065004349
40.0,0.012325719930231571
44.0,0.011463905684649944
48.0,0.010924781672656536
52.0,0.010418560355901718
56.0,0.00954438466578722
60.0,0.008227434940636158
64.0,0.007191232405602932
72.0,0.005998639855533838
80.0,0.005043223965913057
88.0,0.0041153086349368095
96.0,0.0037913499400019646
104.0,0.003443594789132476
112.0,0.002481374889612198
120.0,0.0017748625250533223
128.0,0.002418871968984604
144.0,0.002218447858467698
160.0,0.001998710911720991
176.0,0.002354241209104657
192.0,0.002051130635663867
208.0,0.002182013588026166
224.0,0.003104934236034751
240.0,0.0029423092491924763
256.0,0.00166041636839509
288.0,-0.0012619365006685257
320.0,-0.0015175958396866918
352.0,-0.0014642700552940369
384.0,0.0011963133001700044
416.0,0.00045139194116927683
448.0,-0.0015393182402476668
480.0,-0.0003220487560611218
512.0,0.0005412010941654444
576.0,-0.00037510364199988544
640.0,-0.0020032916218042374
704.0,-0.00307886628434062
768.0,-0.00039867302984930575
832.0,-0.0008847549324855208
896.0,-0.004179215524345636
960.0,-0.0032287845388054848
1024.0,-0.002371168229728937
1152.0,-0.0024780724197626114
1280.0,-0.0017103833379223943
1408.0,-0.003798001678660512
1536.0,-0.0014370557619258761
1664.0,0.0012430043425410986
1792.0,0.002458223607391119
1920.0,0.0007679065456613898
2048.0,0.0027023828588426113
2304.0,0.0021148736122995615
2560.0,0.000555938808247447
2816.0,-0.002327889436855912
3072.0,-0.001512980437837541
3328.0,-0.0007234893855638802
3584.0,-0.002175673143938184
3840.0,-0.0003330626350361854
4096.0,0.003373868530616164
4608.0,0.0016060021007433534
5120.0,-0.00172482430934906
5632.0,-0.0031665521673858166
6144.0,0.0011720152106136084
6656.0,0.0025548411067575216
7168.0,-0.0014437736244872212
7680.0,-0.001408798503689468
8192.0,0.0017836152110248804
9216.0,-0.00016643574053887278
10240.0,-0.00032588568865321577
11264.0,-0.00016673412756063044
12288.0,1.4208242646418512e-05
13312.0,-0.0004039489140268415
14336.0,-1.522668117104331e-05
end
