version,3.0
numOfCh,1
type,point
parent_name,400-cuts
ch_type,1_1
kcount,1
numberNandB,1
brightnessNandB,1
carpet pos,0
pc,0
Time (ms),CH1 Auto-Correlation
1.0,0.03513571619987488
2.0,0.033705275505781174
3.0,0.03232502192258835
4.0,0.031017392873764038
5.0,0.029769057407975197
6.0,0.028572384268045425
7.0,0.027471860870718956
8.0,0.02643718756735325
9.0,0.025477498769760132
10.0,0.024558361619710922
11.0,0.023704979568719864
12.0,0.02287496067583561
13.0,0.022095937281847
14.0,0.021370548754930496
15.0,0.02067520096898079
16.0,0.019961180165410042
18.0,0.018565816804766655
20.0,0.017324872314929962
22.0,0.016127850860357285
24.0,0.015038407407701015
26.0,0.0139589449390769
28.0,0.012959477491676807
30.0,0.012059398926794529
32.0,0.011233766563236713
36.0,0.009766404516994953
40.0,0.008594123646616936
44.0,0.007505449000746012
48.0,0.006540050730109215
52.0,0.005604394245892763
56.0,0.004822927061468363
60.0,0.004170555155724287
64.0,0.0036273812875151634
72.0,0.0029455451294779778
80.0,0.0025522783398628235
88.0,0.0023825454991310835
96.0,0.0020438460633158684
104.0,0.0018308915896341205
112.0,0.001178810023702681
120.0,0.0006322896224446595
128.0,0.0007214720244519413
144.0,0.00019437787705101073
160.0,-0.0004710816137958318
176.0,-0.0008931760094128549
192.0,-0.0011306247906759381
208.0,-0.0015658738557249308
224.0,-0.0011883832048624754
240.0,-0.0010718116536736488
256.0,-0.001219042926095426
288.0,-0.0006154635921120644
320.0,-0.0018573518609628081
352.0,-0.001650569261983037
384.0,-0.0005450266180559993
416.0,-0.0007213210919871926
448.0,-0.0010354106780141592
480.0,-0.0017638524295762181
512.0,-0.0009434290695935488
576.0,0.0011263398919254541
640.0,-0.00045534659875556827
704.0,-0.0009116068831644952
768.0,-0.001585654797963798
832.0,-0.0011874950723722577
896.0,-0.0018683625385165215
960.0,-0.0015722147654742002
1024.0,0.0022228711750358343
1152.0,0.0017502701375633478
1280.0,0.0018967377254739404
1408.0,0.00026459095533937216
1536.0,-0.00269687594845891
1664.0,-0.000905227439943701
1792.0,-0.0006385999149642885
1920.0,0.0005947051686234772
2048.0,0.00031038167071528733
2304.0,-0.0004851013654842973
2560.0,0.001545099774375558
2816.0,-0.0015069409273564816
3072.0,-0.0009468968492001295
3328.0,0.000857711595017463
3584.0,-0.00045676619629375637
3840.0,-0.00028095912421122193
4096.0,-0.001553083537146449
4608.0,0.000392470188671723
5120.0,-0.0006641861982643604
5632.0,0.0008910892647691071
6144.0,-0.0007799178711138666
6656.0,-0.00013179269444663078
7168.0,-0.0014736253069713712
7680.0,0.0005429389420896769
8192.0,-0.001042328542098403
9216.0,0.00010771210509119555
10240.0,0.0005903459968976676
11264.0,0.00033919161069206893
12288.0,0.0002329180424567312
13312.0,0.00015164360229391605
14336.0,-0.0007712219376116991
end
