version,3.0
numOfCh,1
type,point
parent_name,400-cuts
ch_type,1_1
kcount,1
numberNandB,1
brightnessNandB,1
carpet pos,0
pc,0
Time (ms),CH1 Auto-Correlation
1.0,0.020419340580701828
2.0,0.019515687599778175
3.0,0.01863970048725605
4.0,0.017799479886889458
5.0,0.01699761487543583
6.0,0.016248289495706558
7.0,0.01550231035798788
8.0,0.014811687171459198
9.0,0.014146245084702969
10.0,0.013507787138223648
11.0,0.012898842804133892
12.0,0.012311672791838646
13.0,0.01177132222801447
14.0,0.011240638792514801
15.0,0.010768565349280834
16.0,0.010327138006687164
18.0,0.009516177698969841
20.0,0.00883675180375576
22.0,0.00825970247387886
24.0,0.007734526880085468
26.0,0.007254731375724077
28.0,0.006847770418971777
30.0,0.006443790625780821
32.0,0.006118416786193848
36.0,0.005378481931984425
40.0,0.0047182561829686165
44.0,0.004148752428591251
48.0,0.0037194883916527033
52.0,0.003346018958836794
56.0,0.0028995780739933252
60.0,0.0023714937269687653
64.0,0.002008589217439294
72.0,0.0017353090224787593
80.0,0.0015319102676585317
88.0,0.0013980275252833962
96.0,0.0015171280829235911
104.0,0.0015129843959584832
112.0,0.0012917181011289358
120.0,0.0010360851883888245
128.0,0.000977807678282261
144.0,0.0008320474880747497
160.0,0.00026973389321938157
176.0,-0.0004070086870342493
192.0,-0.0008129061316139996
208.0,-0.0009103976772166789
224.0,-0.0006781062693335116
240.0,-0.001125354552641511
256.0,-0.0013560582883656025
288.0,-0.0013394999550655484
320.0,-0.0006535081774927676
352.0,-0.00018698774510994554
384.0,-0.0012424333253875375
416.0,-0.0011459914967417717
448.0,-0.0015999226598069072
480.0,-0.002242473652586341
512.0,-0.0018944598268717527
576.0,-3.734584242920391e-05
640.0,0.0010340824956074357
704.0,0.0006758990930393338
768.0,0.0001267915649805218
832.0,0.0005737426108680665
896.0,0.0012929753866046667
960.0,0.0012464147293940187
1024.0,-4.94231608172413e-06
1152.0,-0.0010061853099614382
1280.0,-0.0014552264474332333
1408.0,-0.0007454273290932178
1536.0,0.00037711544428020716
1664.0,0.0008479997632093728
1792.0,0.000847086135763675
1920.0,2.8297288736212067e-05
2048.0,-0.00041687453631311655
2304.0,0.0009449745994061232
2560.0,-0.0005836106720380485
2816.0,1.7047090295818634e-05
3072.0,-0.0003433653910178691
3328.0,0.0006664587999694049
3584.0,-0.0007224982255138457
3840.0,-0.0002038480743067339
4096.0,-1.5815770893823355e-05
4608.0,-9.729927114676684e-05
5120.0,-1.7445416233385913e-05
5632.0,-0.00037450555828399956
6144.0,0.0004273064841981977
6656.0,-0.00016907982353586704
7168.0,0.0006699986406601965
7680.0,-0.0003078852023463696
8192.0,0.00022085696400608867
9216.0,-0.0004167550359852612
10240.0,3.8572516132262535e-06
11264.0,-0.00034444115590304136
12288.0,-5.991334546706639e-06
13312.0,0.0003260901430621743
14336.0,0.00022610605810768902
end
