version,3.0
numOfCh,1
type,point
parent_name,34a6d_3dot0-1dot0
ch_type,1_1
kcount,1
numberNandB,1
brightnessNandB,1
carpet pos,0
pc,0
Time (ms),CH1 Auto-Correlation
1.0,0.01706271804869175
2.0,0.014040453359484673
3.0,0.011996660381555557
4.0,0.010400914587080479
5.0,0.009158805012702942
6.0,0.008188403211534023
7.0,0.007379334885627031
8.0,0.006922443397343159
9.0,0.006521093659102917
10.0,0.006066009867936373
11.0,0.005608837120234966
12.0,0.005176939070224762
13.0,0.0048126899637281895
14.0,0.004526470322161913
15.0,0.004213123116642237
16.0,0.0039381952956318855
18.0,0.003418328007683158
20.0,0.003159107407554984
22.0,0.0029574474319815636
24.0,0.0026516239158809185
26.0,0.002645248081535101
28.0,0.0024244908709079027
30.0,0.00226410198956728
32.0,0.002140286611393094
36.0,0.0019157326314598322
40.0,0.0016477849567309022
44.0,0.00164276291616261
48.0,0.001657326822169125
52.0,0.0014537834795191884
56.0,0.0013185645220801234
60.0,0.001024364959448576
64.0,0.0007348760846070945
72.0,0.000845612958073616
80.0,0.0007153581245802343
88.0,0.0007023359066806734
96.0,0.00109663640614599
104.0,0.0010335880797356367
112.0,0.0007236482342705131
120.0,0.0005730125703848898
128.0,0.0003616041212808341
144.0,0.00046062932233326137
160.0,0.00025495761656202376
176.0,4.7223053115885705e-05
192.0,-4.779413575306535e-05
208.0,-0.00021406715677585453
224.0,3.258423748775385e-05
240.0,0.0005032880580984056
256.0,0.0005852039321325719
288.0,0.00036180869210511446
320.0,-6.45006075501442e-05
352.0,0.0004058753838762641
384.0,0.0003875295806210488
416.0,6.652237061643973e-05
448.0,0.00015752727631479502
480.0,0.0002115474344464019
512.0,0.0002112064539687708
576.0,-2.5244869448215468e-06
640.0,7.638178794877604e-05
704.0,1.2727722605632152e-05
768.0,0.00011972003994742408
832.0,6.929990922799334e-05
896.0,0.00025370880030095577
960.0,0.00010280333663104102
1024.0,0.00027834478532895446
1152.0,-0.00043627849663607776
1280.0,-0.0002796097833197564
1408.0,-0.00014113436918705702
1536.0,-0.00020976293308194727
1664.0,-0.0003024660109076649
1792.0,-0.00048587151104584336
1920.0,-0.0005059624090790749
2048.0,-0.00040036815335042775
2304.0,0.00034303509164601564
2560.0,0.00024445337476208806
2816.0,0.00018944237672258168
3072.0,7.926026592031121e-05
3328.0,0.00010259178816340864
3584.0,-0.0002595109399408102
3840.0,-0.00026198968407697976
4096.0,5.244015483185649e-05
4608.0,-0.0004572130274027586
5120.0,1.811861147871241e-05
5632.0,0.00014947897579986602
6144.0,-0.00017793533334042877
6656.0,8.549808262614533e-05
7168.0,-0.000226921183639206
7680.0,0.0003126714436803013
8192.0,0.0007610390312038362
end
