version,3.0
numOfCh,1
type,point
parent_name,34a6d_3dot0-1dot0
ch_type,1_1
kcount,1
numberNandB,1
brightnessNandB,1
carpet pos,0
pc,0
Time (ms),CH1 Auto-Correlation
1.0,0.017068173736333847
2.0,0.013990329578518867
3.0,0.011792181059718132
4.0,0.010110709816217422
5.0,0.00879058986902237
6.0,0.007757068611681461
7.0,0.006880572065711021
8.0,0.006232187617570162
9.0,0.005636702291667461
10.0,0.0051853954792022705
11.0,0.004767189268022776
12.0,0.0044842674396932125
13.0,0.004239371046423912
14.0,0.003951140213757753
15.0,0.0037034354172647
16.0,0.003431644756346941
18.0,0.003163849003612995
20.0,0.003051851410418749
22.0,0.0030374263878911734
24.0,0.002873642137274146
26.0,0.002689556684345007
28.0,0.0025488133542239666
30.0,0.0026502658147364855
32.0,0.0024453552905470133
36.0,0.0019840977620333433
40.0,0.0015911844093352556
44.0,0.0011784089729189873
48.0,0.0009128881501965225
52.0,0.0008590200450271368
56.0,0.0006476632552221417
60.0,0.0007268234621733427
64.0,0.0008024153066799045
72.0,0.0005850389716215432
80.0,0.0004837741726078093
88.0,0.0004299016436561942
96.0,0.0001353350526187569
104.0,0.0003957209992222488
112.0,0.0006455132970586419
120.0,0.0006496341666206717
128.0,0.0007409644895233214
144.0,0.0005977306864224374
160.0,0.0006720343371853232
176.0,-0.00046560700866393745
192.0,-0.0002357860212214291
208.0,-0.00041046072146855295
224.0,-0.00022544452804140747
240.0,-0.00022208038717508316
256.0,-0.00018146284855902195
288.0,-0.000394021044485271
320.0,-0.0003697311331052333
352.0,-1.7253491023438983e-05
384.0,-8.30304270493798e-05
416.0,0.0004492611042223871
448.0,0.00011083327262895182
480.0,-0.000499062123708427
512.0,-7.371125576582926e-08
576.0,-4.2587715142872185e-05
640.0,-0.0002711435663513839
704.0,0.000512867933139205
768.0,-0.00010861527698580176
832.0,-0.0002451869659125805
896.0,-0.00022858161537442356
960.0,5.1524086302379146e-05
1024.0,-0.00017298715829383582
1152.0,0.00024235375167336315
1280.0,-0.00013097282499074936
1408.0,-3.536952499416657e-05
1536.0,-0.00020338008471298963
1664.0,-0.0002303258515894413
1792.0,-0.0002623126783873886
1920.0,-0.00018206628737971187
2048.0,0.00017148889310192317
2304.0,5.213435088080587e-06
2560.0,-5.8915360568789765e-05
2816.0,0.0001973265752894804
3072.0,0.0005392938619479537
3328.0,0.00021948273933958262
3584.0,-0.00017824459064286202
3840.0,0.000323556101648137
4096.0,-0.0002310514246346429
4608.0,-0.0003742622211575508
5120.0,0.00015551512478850782
5632.0,0.00023575309023726732
6144.0,0.00023159367265179753
6656.0,-0.00012366328155621886
7168.0,-0.0002587971102911979
7680.0,-0.0004334175318945199
8192.0,-8.493935456499457e-05
end
