version,3.0
numOfCh,1
type,point
parent_name,34a6d_3dot0-1dot0
ch_type,1_1
kcount,1
numberNandB,1
brightnessNandB,1
carpet pos,0
pc,0
Time (ms),CH1 Auto-Correlation
1.0,0.016237597912549973
2.0,0.013116318732500076
3.0,0.010997315868735313
4.0,0.009406902827322483
5.0,0.008092973381280899
6.0,0.007062152959406376
7.0,0.0062694791704416275
8.0,0.005639613140374422
9.0,0.005037395283579826
10.0,0.0045679653994739056
11.0,0.004212597385048866
12.0,0.0040487744845449924
13.0,0.0038295970298349857
14.0,0.0036939021665602922
15.0,0.003561581252142787
16.0,0.003450586926192045
18.0,0.0030710892751812935
20.0,0.002700145822018385
22.0,0.002444568555802107
24.0,0.0022992636077106
26.0,0.0022803356405347586
28.0,0.0021520829759538174
30.0,0.0020620638970285654
32.0,0.0020620422437787056
36.0,0.002018864033743739
40.0,0.0017621490405872464
44.0,0.001802448183298111
48.0,0.0017770443810150027
52.0,0.0016414630226790905
56.0,0.0014432086609303951
60.0,0.0012289205333217978
64.0,0.0011930341133847833
72.0,0.0011019285302609205
80.0,0.0005514483200386167
88.0,0.00021457174443639815
96.0,-0.00013644200225826353
104.0,-0.00022476563754025847
112.0,-0.00029235018882900476
120.0,-6.106040382292122e-05
128.0,-8.248793164966628e-05
144.0,-0.00045619803131558
160.0,-0.0005739533226005733
176.0,-0.00041957246139645576
192.0,-0.000533554470166564
208.0,-0.0004519685753621161
224.0,-0.00021302051027305424
240.0,-0.000168072190717794
256.0,-0.00011516646918607876
288.0,-0.0002344499371247366
320.0,0.0003729143354576081
352.0,0.0001147784132626839
384.0,-0.0001972283498616889
416.0,-0.0003839304263237864
448.0,9.842048893915489e-05
480.0,0.00040544194052927196
512.0,2.544663402659353e-05
576.0,3.694539191201329e-05
640.0,0.00031414677505381405
704.0,-0.00011376370093785226
768.0,-0.0005336695467121899
832.0,-0.00024601008044555783
896.0,-0.0001475773169659078
960.0,0.0005372109590098262
1024.0,0.0004112964670639485
1152.0,0.0001979847438633442
1280.0,0.0003596582682803273
1408.0,0.00035277975257486105
1536.0,-0.00033623541821725667
1664.0,-0.00017449363076593727
1792.0,-0.00015372417692560703
1920.0,0.0001662494905758649
2048.0,-0.00018201919738203287
2304.0,0.0002644434862304479
2560.0,5.085633529233746e-05
2816.0,0.0002885448921006173
3072.0,-0.0002730169508140534
3328.0,0.0003233874449506402
3584.0,-0.0002079435216728598
3840.0,1.3899250006943475e-05
4096.0,-4.35382935393136e-05
4608.0,-2.2345600882545114e-05
5120.0,0.0001086475676856935
5632.0,-0.00021761418611276895
6144.0,-0.00011416712368372828
6656.0,-4.62071257061325e-05
7168.0,-8.690404501976445e-05
7680.0,-0.000211769001907669
8192.0,-0.00024499776191078126
end
