version,3.0
numOfCh,1
type,point
parent_name,34a6d_3dot0-1dot0
ch_type,1_1
kcount,1
numberNandB,1
brightnessNandB,1
carpet pos,0
pc,0
Time (ms),CH1 Auto-Correlation
1.0,0.016260899603366852
2.0,0.013333041220903397
3.0,0.011392459273338318
4.0,0.009907945990562439
5.0,0.008678993210196495
6.0,0.007765805348753929
7.0,0.007023554760962725
8.0,0.006289292126893997
9.0,0.0056383851915597916
10.0,0.005075572524219751
11.0,0.004716093651950359
12.0,0.004340487066656351
13.0,0.0039687068201601505
14.0,0.0037663050461560488
15.0,0.0035919593647122383
16.0,0.0034665276762098074
18.0,0.0031133752781897783
20.0,0.002883095992729068
22.0,0.002683413214981556
24.0,0.002398792654275894
26.0,0.0021352453622967005
28.0,0.002074524061754346
30.0,0.0020247348584234715
32.0,0.0018987812800332904
36.0,0.0018184587825089693
40.0,0.0016432260163128376
44.0,0.0014501480618491769
48.0,0.0012966329231858253
52.0,0.0012477244017645717
56.0,0.0011097178794443607
60.0,0.0010574214393272996
64.0,0.0008751854184083641
72.0,0.0008911797776818275
80.0,0.0009828107431530952
88.0,0.0010031843557953835
96.0,0.0004938451456837356
104.0,0.0004597243096213788
112.0,0.0004288403724785894
120.0,0.0006926783826202154
128.0,0.0008289042743854225
144.0,0.00077108817640692
160.0,0.0008150129579007626
176.0,0.0005230008973740041
192.0,1.2007597433694173e-05
208.0,-0.0003440451982896775
224.0,-0.000315710756694898
240.0,-0.00021937863493803889
256.0,7.903812365839258e-05
288.0,0.00027840316761285067
320.0,0.0004813735431525856
352.0,0.0006632339209318161
384.0,0.00015481396985705942
416.0,0.00014220237790141255
448.0,-0.00014977155660744756
480.0,0.00036657534656114876
512.0,0.00013405951904132962
576.0,-1.881432945083361e-05
640.0,-0.000383114063879475
704.0,-2.8888704036944546e-05
768.0,-0.00034902174957096577
832.0,0.0003425424511078745
896.0,-0.0002052692580036819
960.0,0.00015527264622505754
1024.0,0.0001759654114721343
1152.0,-0.0003180572239216417
1280.0,-0.00032672996167093515
1408.0,-0.0005060596740804613
1536.0,-4.3770593038061634e-05
1664.0,-0.00013719822163693607
1792.0,-0.00030966949998401105
1920.0,-0.0001254834933206439
2048.0,-0.000518650864250958
2304.0,-0.00021092424867674708
2560.0,-3.3548240025993437e-05
2816.0,0.0002014623605646193
3072.0,1.5192006230790867e-06
3328.0,-0.00010459305485710502
3584.0,4.873866419075057e-05
3840.0,0.00025513058062642813
4096.0,-0.00016389733355026692
4608.0,-0.00017944637511391193
5120.0,0.00011641696619335562
5632.0,0.00041176986997015774
6144.0,-0.0002593104145489633
6656.0,-2.503711039025802e-05
7168.0,-0.00022687859018333256
7680.0,0.0003110326360911131
8192.0,0.0004976107738912106
end
