version,3.0
numOfCh,1
type,point
parent_name,34a6d_3dot0-1dot0
ch_type,1_1
kcount,1
numberNandB,1
brightnessNandB,1
carpet pos,0
pc,0
Time (ms),CH1 Auto-Correlation
1.0,0.015967708081007004
2.0,0.012932456098496914
3.0,0.010824897326529026
4.0,0.009195578284561634
5.0,0.007853777147829533
6.0,0.00692768394947052
7.0,0.006259797140955925
8.0,0.005651040002703667
9.0,0.005073599983006716
10.0,0.004649837501347065
11.0,0.004211349878460169
12.0,0.0038514244370162487
13.0,0.0036295587196946144
14.0,0.0033923652954399586
15.0,0.003280776087194681
16.0,0.0031506074592471123
18.0,0.002928799483925104
20.0,0.002697047544643283
22.0,0.002541030291467905
24.0,0.002465088851749897
26.0,0.002301163272932172
28.0,0.0020468139555305243
30.0,0.0019663041457533836
32.0,0.0019527445547282696
36.0,0.001707774237729609
40.0,0.0012294562766328454
44.0,0.0008822740637697279
48.0,0.0005623310571536422
52.0,0.0003983769565820694
56.0,0.00017528279568068683
60.0,0.00021832776837982237
64.0,0.00038818427128717303
72.0,0.0005972376093268394
80.0,0.0005253765266388655
88.0,0.0004067344416398555
96.0,0.0002708285755943507
104.0,0.0002915075165219605
112.0,0.0005026531871408224
120.0,0.000604774453677237
128.0,0.0008534713415428996
144.0,0.00030347006395459175
160.0,0.0002817352069541812
176.0,0.00017466055578552186
192.0,0.000254545797361061
208.0,1.804846579034347e-05
224.0,-0.00021650832786690444
240.0,0.00024908993509598076
256.0,0.000546455557923764
288.0,0.0007326894556172192
320.0,0.0004054541059304029
352.0,-2.7176793082617223e-05
384.0,-0.00018739128427114338
416.0,0.0004399661847855896
448.0,0.00022716990497428924
480.0,-3.235780241084285e-05
512.0,-0.000311160838464275
576.0,7.876360177760944e-05
640.0,-0.0003558198222890496
704.0,0.00039528365596197546
768.0,-0.0005364876706153154
832.0,-0.0004663890867959708
896.0,-0.0005265644285827875
960.0,-0.0004781191237270832
1024.0,-0.0004890416748821735
1152.0,-0.00016396156570408493
1280.0,-0.00019099682685919106
1408.0,-0.00013281650899443775
1536.0,0.00022968275879975408
1664.0,0.00010843895870493725
1792.0,8.394179167225957e-05
1920.0,-4.872025238000788e-05
2048.0,-0.0002166645717807114
2304.0,-0.0003272491740062833
2560.0,-0.00018800080579239875
2816.0,-2.4344657504116185e-05
3072.0,0.0002630699600558728
3328.0,5.96982026763726e-05
3584.0,0.00033834041096270084
3840.0,0.00017047672008629888
4096.0,2.503587893443182e-05
4608.0,-0.00010457156895427033
5120.0,4.624555367627181e-05
5632.0,8.15647654235363e-05
6144.0,-4.018463005195372e-05
6656.0,-2.0534816940198652e-05
7168.0,1.847040948632639e-05
7680.0,-0.00018238693883176893
8192.0,-0.00010599832603475079
end
