version,3.0
numOfCh,1
type,point
parent_name,34a6d_3dot0-1dot0
ch_type,1_1
kcount,1
numberNandB,1
brightnessNandB,1
carpet pos,0
pc,0
Time (ms),CH1 Auto-Correlation
1.0,0.01737792231142521
2.0,0.014211781322956085
3.0,0.012109390459954739
4.0,0.010533652268350124
5.0,0.009311716072261333
6.0,0.00834199320524931
7.0,0.007599308155477047
8.0,0.006907838862389326
9.0,0.006407303735613823
10.0,0.0059729889035224915
11.0,0.005538779776543379
12.0,0.004977382719516754
13.0,0.0046016196720302105
14.0,0.004356782417744398
15.0,0.004110035486519337
16.0,0.003921056631952524
18.0,0.0034553271252661943
20.0,0.0029714470729231834
22.0,0.0027208130341023207
24.0,0.002452131826430559
26.0,0.0022886062506586313
28.0,0.002165305195376277
30.0,0.002143421210348606
32.0,0.0020580745767802
36.0,0.00189596985001117
40.0,0.0015373011119663715
44.0,0.0013301685685291886
48.0,0.0015311434399336576
52.0,0.0013882028870284557
56.0,0.001013751607388258
60.0,0.0008599388529546559
64.0,0.0006044434849172831
72.0,0.0007256302633322775
80.0,0.0009247760172002017
88.0,0.0011708444217219949
96.0,0.001113011152483523
104.0,0.0008057834929786623
112.0,0.0004320086445659399
120.0,0.0004486517864279449
128.0,0.0007123121176846325
144.0,0.0003868558269459754
160.0,0.0004802907642442733
176.0,0.0003834004746749997
192.0,0.0005448604351840913
208.0,0.0004674555384553969
224.0,0.0007449259865097702
240.0,0.0004290819924790412
256.0,4.450749474926852e-05
288.0,8.536259701941162e-05
320.0,0.00022573396563529968
352.0,4.795357017428614e-05
384.0,-2.533390943426639e-05
416.0,0.00040671229362487793
448.0,-0.0002767662808764726
480.0,3.200431092409417e-05
512.0,0.00044566087308339775
576.0,-0.00042731736903078854
640.0,-8.174094546120614e-05
704.0,-4.6582266804762185e-05
768.0,-9.18125660973601e-05
832.0,0.00019001078908331692
896.0,9.047674393514171e-05
960.0,-0.00013848120579496026
1024.0,5.210785457165912e-05
1152.0,-0.00020701793255284429
1280.0,-6.62354432279244e-05
1408.0,-0.0006538998568430543
1536.0,-0.00017908186418935657
1664.0,0.00033193969284184277
1792.0,0.00010673896031221375
1920.0,-6.210320862010121e-05
2048.0,4.863954927714076e-06
2304.0,-0.00018840683333110064
2560.0,-0.00013438276073429734
2816.0,0.0004478736373130232
3072.0,0.0002662156766746193
3328.0,-0.0003792597271967679
3584.0,-0.0003288723819423467
3840.0,0.00013818089792039245
4096.0,3.2722411560826004e-05
4608.0,0.00016204899293370545
5120.0,-0.00020426642731763422
5632.0,-0.00012099555897293612
6144.0,-0.00014468017616309226
6656.0,3.196138277417049e-05
7168.0,-0.00016072850849013776
7680.0,0.00021746517450083047
8192.0,-0.00013962271623313427
end
