version,3.0
numOfCh,1
type,point
parent_name,34a6d_3dot0-1dot0
ch_type,1_1
kcount,1
numberNandB,1
brightnessNandB,1
carpet pos,0
pc,0
Time (ms),CH1 Auto-Correlation
1.0,0.015941930934786797
2.0,0.012892492115497589
3.0,0.010740084573626518
4.0,0.009210576303303242
5.0,0.008018692955374718
6.0,0.007117851637303829
7.0,0.0063005127012729645
8.0,0.005613514222204685
9.0,0.005082877818495035
10.0,0.004648185335099697
11.0,0.004311309661716223
12.0,0.003932492341846228
13.0,0.0036555796395987272
14.0,0.0033939476124942303
15.0,0.0032919575460255146
16.0,0.0033337187487632036
18.0,0.0030383553821593523
20.0,0.0027061819564551115
22.0,0.0024597086012363434
24.0,0.002198000205680728
26.0,0.0018112831749022007
28.0,0.0016535358736291528
30.0,0.0017626566113904119
32.0,0.0016608181176707149
36.0,0.0013154813786968589
40.0,0.0010627319570630789
44.0,0.0011197194689884782
48.0,0.0009409183403477073
52.0,0.0005231522955000401
56.0,0.00044504847028292716
60.0,0.00041828464600257576
64.0,0.00018103374168276787
72.0,0.00010412888514110819
80.0,0.00015911762602627277
88.0,-0.00023723469348624349
96.0,-0.00017058549565263093
104.0,-7.61915507609956e-05
112.0,0.00014173169620335102
120.0,0.0004933001473546028
128.0,0.0002894775243476033
144.0,0.0003031706437468529
160.0,0.0003877058334182948
176.0,0.0002223748597316444
192.0,5.9130867157364264e-05
208.0,-0.00024652795400470495
224.0,-0.0001808846282074228
240.0,0.0001567322324262932
256.0,-0.00014330433623399585
288.0,-8.145617903210223e-05
320.0,0.0006833110237494111
352.0,0.0003311659675091505
384.0,5.1322691433597356e-05
416.0,2.886539505198016e-07
448.0,0.00023391289869323373
480.0,0.00023341260384768248
512.0,4.377941877464764e-05
576.0,9.748728189151734e-05
640.0,0.00029634119709953666
704.0,0.0006300254026427865
768.0,0.00011482500121928751
832.0,-0.00040628371061757207
896.0,0.00030270754359662533
960.0,0.0005946274613961577
1024.0,-0.0002288090909132734
1152.0,4.545579577097669e-05
1280.0,-0.00014936327352188528
1408.0,0.0002185815537814051
1536.0,-0.0004145755374338478
1664.0,-0.00018713160534389317
1792.0,9.819676051847637e-05
1920.0,-0.00015057540440466255
2048.0,-0.00018651835853233933
2304.0,-6.363660213537514e-05
2560.0,-7.565310625068378e-06
2816.0,6.854831735836342e-05
3072.0,-0.0001596237561898306
3328.0,4.594656729750568e-06
3584.0,3.8780472095822915e-05
3840.0,-2.4593507987447083e-05
4096.0,-7.832253322703764e-05
4608.0,-0.00026540522230789065
5120.0,-0.0001323875185335055
5632.0,-4.363034531706944e-05
6144.0,-0.0001558708754600957
6656.0,4.0604212699690834e-05
7168.0,-0.0003430003998801112
7680.0,-0.000423483521444723
8192.0,7.888297113822773e-05
end
