version,3.0
numOfCh,1
type,point
parent_name,34a6d_3dot0-1dot0
ch_type,1_1
kcount,1
numberNandB,1
brightnessNandB,1
carpet pos,0
pc,0
Time (ms),CH1 Auto-Correlation
1.0,0.01583133265376091
2.0,0.012768685817718506
3.0,0.010625313967466354
4.0,0.009173675440251827
5.0,0.008044149726629257
6.0,0.007185548078268766
7.0,0.006439696066081524
8.0,0.005732249468564987
9.0,0.005194239318370819
10.0,0.00474760914221406
11.0,0.004403780214488506
12.0,0.004126701503992081
13.0,0.003848327323794365
14.0,0.0036617505829781294
15.0,0.0034566400572657585
16.0,0.0031660154927521944
18.0,0.002640950260683894
20.0,0.0021054588723927736
22.0,0.0017729257233440876
24.0,0.0015729558654129505
26.0,0.0014880773378536105
28.0,0.0013982306700199842
30.0,0.0011539286933839321
32.0,0.0009580437908880413
36.0,0.000769318372476846
40.0,0.0006864784518256783
44.0,0.0009135964210145175
48.0,0.0009591490379534662
52.0,0.0004974402254447341
56.0,0.00031718594254925847
60.0,0.0002516586391720921
64.0,0.00013861431216355413
72.0,4.0978768083732575e-05
80.0,-0.00015047159104142338
88.0,5.93010954617057e-05
96.0,0.000362056540325284
104.0,0.000615747005213052
112.0,0.00043185619870200753
120.0,-4.227016688673757e-05
128.0,-4.892808647127822e-05
144.0,-1.979604894586373e-05
160.0,-0.0002153319655917585
176.0,4.6852637751726434e-05
192.0,0.0002621343592181802
208.0,4.2864387069130316e-05
224.0,0.00016823495388962328
240.0,-0.00010212139750365168
256.0,-0.0006568205426447093
288.0,-0.0005091861239634454
320.0,-0.0001483901432948187
352.0,0.00014641796587966383
384.0,0.0002487685706000775
416.0,-0.00016959506319835782
448.0,-1.0375989404565189e-05
480.0,-6.832004146417603e-05
512.0,0.00019028494716621935
576.0,6.960667815292254e-05
640.0,-8.333988080266863e-05
704.0,1.8786331565934233e-05
768.0,-0.0004061718354932964
832.0,-6.422752630896866e-05
896.0,0.00030890406924299896
960.0,-0.00011463152623036876
1024.0,-0.0004146994324401021
1152.0,-4.390752224026073e-07
1280.0,-0.00030885578598827124
1408.0,-2.1820018446305767e-05
1536.0,0.0002806904667522758
1664.0,-0.0002936923992820084
1792.0,2.275771475979127e-05
1920.0,0.00020253566617611796
2048.0,0.00012465902545955032
2304.0,8.040874672587961e-05
2560.0,0.00017667583597358316
2816.0,-5.5808348406571895e-05
3072.0,-0.00012697205238509923
3328.0,-0.00026828766567632556
3584.0,4.7901015932438895e-05
3840.0,3.298924639238976e-05
4096.0,-0.00020131855853833258
4608.0,-0.0001857504394138232
5120.0,-2.3688195142312907e-05
5632.0,0.00021962006576359272
6144.0,4.9213613237952814e-05
6656.0,-0.00022428340162150562
7168.0,6.324483547359705e-05
7680.0,0.0003807324974332005
8192.0,8.912620251066983e-05
end
