version,3.0
numOfCh,1
type,point
parent_name,34a6d_3dot0-1dot0
ch_type,1_1
kcount,1
numberNandB,1
brightnessNandB,1
carpet pos,0
pc,0
Time (ms),CH1 Auto-Correlation
1.0,0.017849430441856384
2.0,0.014651501551270485
3.0,0.012518161907792091
4.0,0.010990208014845848
5.0,0.009788217954337597
6.0,0.008773152716457844
7.0,0.007963156327605247
8.0,0.007249064743518829
9.0,0.006569248624145985
10.0,0.006034107878804207
11.0,0.005592759232968092
12.0,0.005261813290417194
13.0,0.004872937221080065
14.0,0.004671076778322458
15.0,0.004476682282984257
16.0,0.004268561955541372
18.0,0.0038039404898881912
20.0,0.003557107876986265
22.0,0.003288104897364974
24.0,0.0029852220322936773
26.0,0.0028380185831338167
28.0,0.00275266170501709
30.0,0.0025769933126866817
32.0,0.0025425669737160206
36.0,0.0024633118882775307
40.0,0.0022377383429557085
44.0,0.0018412339268252254
48.0,0.0016042528441175818
52.0,0.0014765390660613775
56.0,0.0015646766405552626
60.0,0.0016573144821450114
64.0,0.0018152809934690595
72.0,0.001356611493974924
80.0,0.0009156574378721416
88.0,0.0007021502824500203
96.0,0.00025667459703981876
104.0,0.00024971127277240157
112.0,2.4368669983232394e-05
120.0,-0.00022177428763825446
128.0,-0.0003159198968205601
144.0,0.0004319703148212284
160.0,0.0002687595842871815
176.0,0.0007891117711551487
192.0,0.00017858271894510835
208.0,-0.0003654944885056466
224.0,-0.00034450466046109796
240.0,-0.00015187507960945368
256.0,-6.96795032126829e-05
288.0,-1.2856083230872173e-05
320.0,2.165486876037903e-05
352.0,-0.0005510933697223663
384.0,-0.0007615464273840189
416.0,-0.0004465678648557514
448.0,-0.00021451743668876588
480.0,-0.0005882817786186934
512.0,-0.0008003952098079026
576.0,-0.0006463364115916193
640.0,-0.0004320507578086108
704.0,-0.00038658964331261814
768.0,0.0003256448544561863
832.0,-3.6847930459771305e-05
896.0,0.0003633628075476736
960.0,0.0005673621781170368
1024.0,0.0005879926611669362
1152.0,0.0004324924375396222
1280.0,-2.3380780476145446e-05
1408.0,-0.00033906835597008467
1536.0,-0.00022713498037774116
1664.0,-0.0005359578644856811
1792.0,0.00021265310351736844
1920.0,-0.00023020239314064384
2048.0,0.00015591921692248434
2304.0,-4.9377078539691865e-05
2560.0,-0.0004225494049023837
2816.0,-5.5346714361803606e-05
3072.0,-0.00013094172754790634
3328.0,0.00013616069918498397
3584.0,1.8531317209635745e-06
3840.0,-2.9170869311201386e-05
4096.0,-9.024783503264189e-05
4608.0,0.00017140286217909306
5120.0,6.154800212243572e-05
5632.0,1.8409734536817268e-07
6144.0,-0.0002597604470793158
6656.0,5.542614235309884e-05
7168.0,-0.00017378645134158432
7680.0,-0.00016630046593490988
8192.0,0.00040286226430907845
end
