version,3.0
numOfCh,1
type,point
parent_name,34a6d_3dot0-1dot0
ch_type,1_1
kcount,1
numberNandB,1
brightnessNandB,1
carpet pos,0
pc,0
Time (ms),CH1 Auto-Correlation
1.0,0.016458785161376
2.0,0.013548306189477444
3.0,0.011546061374247074
4.0,0.010036127641797066
5.0,0.008760550059378147
6.0,0.007723482325673103
7.0,0.007010721601545811
8.0,0.006489896215498447
9.0,0.006048219744116068
10.0,0.0055703637190163136
11.0,0.005228877067565918
12.0,0.005029173102229834
13.0,0.004708233289420605
14.0,0.004436424467712641
15.0,0.004212359432131052
16.0,0.00407780334353447
18.0,0.0035649787168949842
20.0,0.003212960669770837
22.0,0.0029408258851617575
24.0,0.0027646818198263645
26.0,0.002442417899146676
28.0,0.0021600709296762943
30.0,0.0018913865787908435
32.0,0.001695132814347744
36.0,0.0015225011156871915
40.0,0.0014744766522198915
44.0,0.0013828115770593286
48.0,0.001378525048494339
52.0,0.0012073396937921643
56.0,0.0008092480711638927
60.0,0.0008821015362627804
64.0,0.001159985433332622
72.0,0.0011819679057225585
80.0,0.0005827530403621495
88.0,9.005938773043454e-05
96.0,2.914456490543671e-05
104.0,0.0002841314417310059
112.0,0.0006183048826642334
120.0,0.00014165147149469703
128.0,-0.0002702841011341661
144.0,0.0002548588963691145
160.0,0.00038832068094052374
176.0,0.0005937594105489552
192.0,0.000862537999637425
208.0,0.000736233894713223
224.0,0.0008848808938637376
240.0,0.0007486683316528797
256.0,-4.5261702325660735e-05
288.0,0.000522294023539871
320.0,0.0006250128499232233
352.0,0.00030518564744852483
384.0,0.0005233921110630035
416.0,0.0008234971901401877
448.0,6.800855044275522e-05
480.0,0.00016639468958601356
512.0,0.00035742411273531616
576.0,-9.96655217022635e-05
640.0,-0.0007103351526893675
704.0,8.111509669106454e-05
768.0,-0.0005171825177967548
832.0,-0.00011652251123450696
896.0,7.8015131293796e-05
960.0,-0.0002489717153366655
1024.0,0.00010715549433371052
1152.0,0.00011937659292016178
1280.0,0.0004315130354370922
1408.0,-1.5838804756640457e-05
1536.0,0.00027898570988327265
1664.0,6.922577085788362e-06
1792.0,-0.00018423231085762382
1920.0,-0.00034088254324160516
2048.0,-0.00026846613036468625
2304.0,-0.00035488116554915905
2560.0,-9.409416816197336e-05
2816.0,2.819920155161526e-05
3072.0,3.093890700256452e-05
3328.0,-3.790957634919323e-05
3584.0,2.1938278223387897e-05
3840.0,-0.00016416845028288662
4096.0,0.00012878314009867609
4608.0,7.7581855293829e-05
5120.0,0.0003148301038891077
5632.0,-0.00020386087999213487
6144.0,3.111713158432394e-05
6656.0,3.173892037011683e-05
7168.0,-0.0005004277918487787
7680.0,-0.0003119211469311267
8192.0,-0.0004043017979711294
end
