version,3.0
numOfCh,1
type,point
parent_name,34a6d_3dot0-1dot0
ch_type,1_1
kcount,1
numberNandB,1
brightnessNandB,1
carpet pos,0
pc,0
Time (ms),CH1 Auto-Correlation
1.0,0.0162639357149601
2.0,0.0132339121773839
3.0,0.011107082478702068
4.0,0.00963805802166462
5.0,0.00849323533475399
6.0,0.007546131499111652
7.0,0.006828524637967348
8.0,0.00606995215639472
9.0,0.005413138773292303
10.0,0.0049906400963664055
11.0,0.0047026751562952995
12.0,0.004413939081132412
13.0,0.004169132560491562
14.0,0.0038509101141244173
15.0,0.0035368481185287237
16.0,0.003422683570533991
18.0,0.0031169368885457516
20.0,0.002997731324285269
22.0,0.002837635111063719
24.0,0.002702584955841303
26.0,0.0025613002944737673
28.0,0.002493054373189807
30.0,0.00227248203009367
32.0,0.0021515744738280773
36.0,0.0018639503978192806
40.0,0.0017745902296155691
44.0,0.0018086255295202136
48.0,0.0017921901308000088
52.0,0.0017180506838485599
56.0,0.0016438791062682867
60.0,0.0014688015216961503
64.0,0.0012947097420692444
72.0,0.0009709279984235764
80.0,0.001013498054817319
88.0,0.00143251265399158
96.0,0.0012775250943377614
104.0,0.0006302881520241499
112.0,0.0009395643137395382
120.0,0.000988375162705779
128.0,0.0009177647880278528
144.0,0.0005837094504386187
160.0,0.0004716490220744163
176.0,0.0004940021899528801
192.0,0.0004917338374070823
208.0,0.00035609141923487186
224.0,0.00020198608399368823
240.0,0.00016282412980217487
256.0,5.955922097200528e-05
288.0,-6.972671690164134e-05
320.0,-0.00014747776731383055
352.0,0.00015675624308642
384.0,-8.085847366601229e-05
416.0,0.0006018821732141078
448.0,9.084650810109451e-05
480.0,0.000168668178957887
512.0,8.553174120606855e-05
576.0,0.00037471562973223627
640.0,0.00014902303519193083
704.0,0.0003905460180249065
768.0,-2.6987163437297568e-05
832.0,-0.00039651626138947904
896.0,4.149742380832322e-05
960.0,-0.00015376044029835612
1024.0,-0.00010405624925624579
1152.0,-0.00046224764082580805
1280.0,-0.00010436675074743107
1408.0,-8.223373151849955e-05
1536.0,0.00010251456842524931
1664.0,-0.000250904617132619
1792.0,0.0002078059478662908
1920.0,0.00036613622796721756
2048.0,4.2263643990736455e-05
2304.0,-0.0004359192680567503
2560.0,-1.5159370377659798e-05
2816.0,3.810950829574722e-06
3072.0,-0.0003135406004730612
3328.0,0.0001581420801812783
3584.0,-0.0002654259733390063
3840.0,-0.00029748378437943757
4096.0,0.00016347253404092044
4608.0,8.309858094435185e-05
5120.0,0.00036565324990078807
5632.0,0.0004927131230942905
6144.0,-0.00020750465046148747
6656.0,-0.0004123712715227157
7168.0,6.580122862942517e-05
7680.0,-0.00040080558392219245
8192.0,-0.00030853934003971517
end
