version,3.0
numOfCh,1
type,point
parent_name,34a6d_3dot0-1dot0
ch_type,1_1
kcount,1
numberNandB,1
brightnessNandB,1
carpet pos,0
pc,0
Time (ms),CH1 Auto-Correlation
1.0,0.01554074976593256
2.0,0.012533897534012794
3.0,0.010429073125123978
4.0,0.008966001681983471
5.0,0.007805204950273037
6.0,0.006840763613581657
7.0,0.006026729941368103
8.0,0.005378096830099821
9.0,0.004959546495229006
10.0,0.004645743407309055
11.0,0.004332974553108215
12.0,0.004045277368277311
13.0,0.0037893219850957394
14.0,0.0037388093769550323
15.0,0.0035032927989959717
16.0,0.0033461079001426697
18.0,0.002976689487695694
20.0,0.002675477182492614
22.0,0.0024216054007411003
24.0,0.0022161139640957117
26.0,0.002078060759231448
28.0,0.0019483508076518774
30.0,0.0018210289999842644
32.0,0.0015911547234281898
36.0,0.001488186651840806
40.0,0.0011698695598170161
44.0,0.0010568108409643173
48.0,0.0007474928861483932
52.0,0.00042139238212257624
56.0,0.00040308188181370497
60.0,0.00043444280163384974
64.0,0.0004647737951017916
72.0,0.00026318797608837485
80.0,9.859584679361433e-05
88.0,0.0004664712178055197
96.0,0.0005439104861579835
104.0,0.0005470968317240477
112.0,0.00034449974191375077
120.0,0.0002937345125246793
128.0,6.977973043831298e-06
144.0,4.9886955821421e-05
160.0,0.00014308851677924395
176.0,0.0004098234639968723
192.0,0.0003404821327421814
208.0,0.0006290157907642424
224.0,0.00042216762085445225
240.0,0.00016442558262497187
256.0,0.0005152563680894673
288.0,-4.862373316427693e-06
320.0,-0.00021392000780906528
352.0,-0.00018786819418892264
384.0,0.00017316998855676502
416.0,0.00013041515194345266
448.0,0.0002519813133403659
480.0,0.00019610856543295085
512.0,-0.00011214122059755027
576.0,-0.00025382451713085175
640.0,-0.00031126083922572434
704.0,-8.19650012999773e-05
768.0,-0.00020969157048966736
832.0,4.925158282276243e-05
896.0,-0.0001325474731856957
960.0,-0.00024109451624099165
1024.0,-0.000527203141245991
1152.0,-0.0006246274570003152
1280.0,-0.0006467330385930836
1408.0,-0.0004015824815724045
1536.0,-3.419260247028433e-05
1664.0,0.00030927860643714666
1792.0,0.0002244171337224543
1920.0,-0.00020144006703048944
2048.0,-5.6311149819521233e-05
2304.0,0.0003589630941860378
2560.0,0.00025315387756563723
2816.0,-5.564047387451865e-05
3072.0,-4.932018055114895e-05
3328.0,-0.00034299964318051934
3584.0,-0.0007391044637188315
3840.0,0.00019052175048273057
4096.0,-9.006628715724219e-06
4608.0,0.0004473332373891026
5120.0,-0.00017686578212305903
5632.0,8.82716994965449e-05
6144.0,0.00028847911744378507
6656.0,-0.0003508256049826741
7168.0,-7.67658420954831e-05
7680.0,0.0003360251139383763
8192.0,-0.00021479715360328555
end
