version,3.0
numOfCh,1
type,point
parent_name,34a6d_3dot0-1dot0
ch_type,1_1
kcount,1
numberNandB,1
brightnessNandB,1
carpet pos,0
pc,0
Time (ms),CH1 Auto-Correlation
1.0,0.016436917707324028
2.0,0.0133300069719553
3.0,0.011188197880983353
4.0,0.0095432223752141
5.0,0.008373755030333996
6.0,0.0074797747656702995
7.0,0.006672145798802376
8.0,0.00599988317117095
9.0,0.005496830679476261
10.0,0.00491414126008749
11.0,0.004520295653492212
12.0,0.0042362823151052
13.0,0.003906275145709515
14.0,0.003642785595729947
15.0,0.003612815635278821
16.0,0.0035362974740564823
18.0,0.0032201469875872135
20.0,0.0029167491011321545
22.0,0.0026114622596651316
24.0,0.0024859393015503883
26.0,0.002523125847801566
28.0,0.002333729760721326
30.0,0.0020875083282589912
32.0,0.0017430988373234868
36.0,0.001460942905396223
40.0,0.001138425199314952
44.0,0.0008727449458092451
48.0,0.0008832744788378477
52.0,0.0007666827877983451
56.0,0.0004475274181459099
60.0,0.00015073805116117
64.0,-7.846014341339469e-05
72.0,-0.00012683770910371095
80.0,0.00020657370623666793
88.0,0.0004774327389895916
96.0,0.0006287448923103511
104.0,0.0007157318759709597
112.0,0.0009295474155806005
120.0,0.0006356345256790519
128.0,0.0002168359496863559
144.0,0.0004475393798202276
160.0,0.00021355920762289315
176.0,-0.0003865063190460205
192.0,-0.00023924412380438298
208.0,-0.00040494685526937246
224.0,0.00014607340563088655
240.0,-4.541586895356886e-05
256.0,-0.00018737054779194295
288.0,-0.0008024157141335309
320.0,-0.00036341440863907337
352.0,0.00026862332015298307
384.0,0.0005653024418279529
416.0,7.06492064637132e-05
448.0,3.8353946365532465e-06
480.0,0.0001209432739415206
512.0,-8.09754419606179e-05
576.0,0.000216782558709383
640.0,0.0003024333855137229
704.0,0.0002639644080772996
768.0,-0.0002867041912395507
832.0,-0.00015143949713092297
896.0,0.0002852286270353943
960.0,-0.0005370774306356907
1024.0,-6.59605793771334e-05
1152.0,4.796495340997353e-05
1280.0,0.0002079504047287628
1408.0,-0.00016930334095377475
1536.0,-0.0001112929530791007
1664.0,-0.0003588113759178668
1792.0,7.99935805844143e-05
1920.0,8.088699360087048e-06
2048.0,3.605036181397736e-05
2304.0,-0.0002639118174556643
2560.0,-0.00036648812238126993
2816.0,-0.00011360599455656484
3072.0,-0.00025622855173423886
3328.0,0.0001378983142785728
3584.0,8.998328848974779e-05
3840.0,-0.00026336105656810105
4096.0,-7.382011244772002e-05
4608.0,0.00027851262711919844
5120.0,0.0001686413015704602
5632.0,5.195179983275011e-05
6144.0,0.0001108909782487899
6656.0,-0.00013451864651869982
7168.0,-0.0002015788049902767
7680.0,-0.00011234721023356542
8192.0,-9.046251943800598e-05
end
