version,3.0
numOfCh,1
type,point
parent_name,34a6d_3dot0-1dot0
ch_type,1_1
kcount,1
numberNandB,1
brightnessNandB,1
carpet pos,0
pc,0
Time (ms),CH1 Auto-Correlation
1.0,0.015777315944433212
2.0,0.012826819904148579
3.0,0.010894663631916046
4.0,0.009379781782627106
5.0,0.008041851222515106
6.0,0.007157677784562111
7.0,0.006477499846369028
8.0,0.005831015296280384
9.0,0.005249515641480684
10.0,0.004699429031461477
11.0,0.004238653928041458
12.0,0.0039596292190253735
13.0,0.003670253325253725
14.0,0.003405817784368992
15.0,0.003082434181123972
16.0,0.0028229535091668367
18.0,0.0022954351734369993
20.0,0.002168855629861355
22.0,0.0018781160470098257
24.0,0.0014757204335182905
26.0,0.0009875065879896283
28.0,0.0007687198230996728
30.0,0.0008633974357508123
32.0,0.0008717246237210929
36.0,0.0012668102281168103
40.0,0.0011308434186503291
44.0,0.0012878471752628684
48.0,0.0014060133835300803
52.0,0.0013251701602712274
56.0,0.0012373302597552538
60.0,0.0013576734345406294
64.0,0.0013330618385225534
72.0,0.0010208128951489925
80.0,0.0008978730184026062
88.0,0.0009725829004310071
96.0,0.0009044686448760331
104.0,0.00048051399062387645
112.0,0.00031829948420636356
120.0,0.0002531017526052892
128.0,0.0006664505926892161
144.0,0.0005454779602587223
160.0,0.00011575436656130478
176.0,-5.2471445087576285e-05
192.0,0.00015686188999097794
208.0,-0.00014823651872575283
224.0,2.6630500542523805e-06
240.0,0.00042229113751091063
256.0,0.00044436773168854415
288.0,-3.700807792483829e-05
320.0,0.00021520511654671282
352.0,0.0003642165975179523
384.0,9.756473446032032e-05
416.0,-0.00019009770767297596
448.0,0.0001291801017941907
480.0,-0.0001199126782012172
512.0,0.0006611024728044868
576.0,2.6310810426366515e-05
640.0,0.00013513906742446125
704.0,-0.00013132448657415807
768.0,8.426645217696205e-05
832.0,0.00016469278489239514
896.0,-0.00027187407249584794
960.0,-0.0004899073974229395
1024.0,-0.0006663758540526032
1152.0,-0.0003763145359698683
1280.0,-0.0004729442298412323
1408.0,-0.00036945752799510956
1536.0,-0.0004017447936348617
1664.0,-0.00019886363588739187
1792.0,-4.078036727150902e-05
1920.0,-0.0002529377525206655
2048.0,-1.1203207577636931e-05
2304.0,-0.00018939314759336412
2560.0,-0.0001538892393000424
2816.0,0.0003174993908032775
3072.0,0.00010002213821280748
3328.0,-0.00016477769531775266
3584.0,0.0002064601721940562
3840.0,-4.886114766122773e-05
4096.0,0.00016360179870389402
4608.0,0.0002875975042115897
5120.0,-0.00024002755526453257
5632.0,-0.0003731680626515299
6144.0,-8.52131488500163e-05
6656.0,-1.0226879567198921e-05
7168.0,0.00021506212942767888
7680.0,0.00014848266437184066
8192.0,-0.00011753825674531981
end
