version,3.0
numOfCh,1
type,point
parent_name,34a6d_3dot0-1dot0
ch_type,1_1
kcount,1
numberNandB,1
brightnessNandB,1
carpet pos,0
pc,0
Time (ms),CH1 Auto-Correlation
1.0,0.016602128744125366
2.0,0.013604490086436272
3.0,0.011561591178178787
4.0,0.009944334626197815
5.0,0.008655991405248642
6.0,0.007697048131376505
7.0,0.006914309225976467
8.0,0.0063249715603888035
9.0,0.005801885388791561
10.0,0.005314293317496777
11.0,0.0049874261021614075
12.0,0.004639511462301016
13.0,0.004394820425659418
14.0,0.004214362241327763
15.0,0.00400200393050909
16.0,0.0037404599133878946
18.0,0.003361027454957366
20.0,0.003071607556194067
22.0,0.0029206499457359314
24.0,0.0027441494166851044
26.0,0.002590455114841461
28.0,0.0025252774357795715
30.0,0.0023764183279126883
32.0,0.0020424348767846823
36.0,0.0018935296684503555
40.0,0.0017041247338056564
44.0,0.0015060490695759654
48.0,0.0011311633279547095
52.0,0.0007012077257968485
56.0,0.0005464588757604361
60.0,0.0003682849637698382
64.0,0.00031992371077649295
72.0,0.00014829552674200386
80.0,0.00016973268066067249
88.0,0.0001037367110257037
96.0,0.000235899438848719
104.0,0.00045968088670633733
112.0,0.00046247371938079596
120.0,0.0003011399821843952
128.0,0.00017556195962242782
144.0,0.0007841950282454491
160.0,0.0008527376921847463
176.0,0.0009249569848179817
192.0,0.0010544402757659554
208.0,0.000904243323020637
224.0,0.00023524103744421154
240.0,-0.00013035460142418742
256.0,-0.00041442361543886364
288.0,-0.00037626305129379034
320.0,-0.00023080843675415963
352.0,-8.715122385183349e-05
384.0,0.0006163981161080301
416.0,0.00040627692942507565
448.0,-7.019374606898054e-05
480.0,5.946604869677685e-05
512.0,0.0005130723584443331
576.0,0.0009157115709967911
640.0,0.0003927774087060243
704.0,-0.0002785245014820248
768.0,-0.00018888787599280477
832.0,-0.00026702595641836524
896.0,-0.0008996243122965097
960.0,-0.00019271108612883836
1024.0,5.3750252845929936e-05
1152.0,9.78316802502377e-06
1280.0,-1.412797428201884e-05
1408.0,4.962043385603465e-05
1536.0,-2.7081381631433032e-05
1664.0,8.970835915533826e-05
1792.0,7.634987014171202e-06
1920.0,2.263761416543275e-05
2048.0,0.00013357600255403668
2304.0,4.825182259082794e-05
2560.0,-6.710802699672058e-05
2816.0,-0.00010728716006269678
3072.0,-0.0003994865983258933
3328.0,-0.00015372720372397453
3584.0,0.00010484249651199207
3840.0,-0.0001008066683425568
4096.0,0.00027995032723993063
4608.0,-0.00022387388162314892
5120.0,8.84214969119057e-05
5632.0,0.00013327486522030085
6144.0,-5.757316102972254e-05
6656.0,-2.627961839607451e-05
7168.0,0.0001736395643092692
7680.0,6.827915785834193e-05
8192.0,-0.0004554539918899536
end
