version,3.0
numOfCh,1
type,point
parent_name,34a6d_3dot0-1dot0
ch_type,1_1
kcount,1
numberNandB,1
brightnessNandB,1
carpet pos,0
pc,0
Time (ms),CH1 Auto-Correlation
1.0,0.016352642327547073
2.0,0.013296094723045826
3.0,0.01118122972548008
4.0,0.009715546853840351
5.0,0.008642970584332943
6.0,0.007736380212008953
7.0,0.0070131500251591206
8.0,0.006404625251889229
9.0,0.005821215454488993
10.0,0.005264683626592159
11.0,0.0048647429794073105
12.0,0.00459438469260931
13.0,0.004188756458461285
14.0,0.0038096532225608826
15.0,0.003490598639473319
16.0,0.003195561468601227
18.0,0.002797178691253066
20.0,0.0023456686176359653
22.0,0.0020633277017623186
24.0,0.001841967343352735
26.0,0.0015167006058618426
28.0,0.0014176183613017201
30.0,0.0011869152076542377
32.0,0.0009344288846477866
36.0,0.000863063323777169
40.0,0.0009165944647975266
44.0,0.0006492899265140295
48.0,0.0007120808004401624
52.0,0.0007841638289391994
56.0,0.0006257554050534964
60.0,0.000523456372320652
64.0,0.0005377893103286624
72.0,0.0002510916965547949
80.0,3.438553540036082e-05
88.0,-0.0003796805103775114
96.0,-0.0005666225915774703
104.0,-0.00013108972052577883
112.0,0.0002354133321205154
120.0,0.0002624138433020562
128.0,0.0001562539691803977
144.0,-8.075350342551246e-05
160.0,-1.1046880899812095e-05
176.0,-4.280691882740939e-06
192.0,0.0004217323730699718
208.0,0.000525127921719104
224.0,0.0009152161655947566
240.0,0.0008642098982818425
256.0,0.0003540927718859166
288.0,5.214378688833676e-05
320.0,-0.00012215830793138593
352.0,0.00012190003326395527
384.0,-0.0002301668282598257
416.0,-0.00037809141213074327
448.0,-0.00020139517437200993
480.0,3.1287490855902433e-05
512.0,-0.00014110672054812312
576.0,8.732639253139496e-05
640.0,0.0004973060567863286
704.0,5.1284252549521625e-05
768.0,-0.00021412743080873042
832.0,-4.930805152980611e-05
896.0,0.0001523286773590371
960.0,0.0003834562376141548
1024.0,-5.058181341155432e-05
1152.0,-0.00017735396977514029
1280.0,-3.511370960040949e-05
1408.0,-0.0002284427173435688
1536.0,-0.0001788166118785739
1664.0,-0.00039760282379575074
1792.0,-0.0001371831021970138
1920.0,-7.58800670155324e-05
2048.0,-0.00022223062114790082
2304.0,-0.00014589561033062637
2560.0,7.733135134913027e-05
2816.0,-0.0001778353616828099
3072.0,-4.1501356463413686e-05
3328.0,0.0002707223466131836
3584.0,-0.00010724044113885611
3840.0,0.00015466922195628285
4096.0,0.00012342305853962898
4608.0,-0.00024041396682150662
5120.0,-8.337743201991543e-05
5632.0,-0.00031638387008570135
6144.0,-2.964280611195136e-05
6656.0,1.5935529518174008e-05
7168.0,0.00031488080276176333
7680.0,9.336767834611237e-05
8192.0,0.00026901974342763424
end
