version,3.0
numOfCh,1
type,point
parent_name,34a6d_3dot0-1dot0
ch_type,1_1
kcount,1
numberNandB,1
brightnessNandB,1
carpet pos,0
pc,0
Time (ms),CH1 Auto-Correlation
1.0,0.01621941849589348
2.0,0.013299332931637764
3.0,0.011293936520814896
4.0,0.009726651944220066
5.0,0.008511560969054699
6.0,0.0076211243867874146
7.0,0.0069261835888028145
8.0,0.0062773204408586025
9.0,0.0057509723119437695
10.0,0.005188280250877142
11.0,0.004756852053105831
12.0,0.00429333234205842
13.0,0.00399631867185235
14.0,0.00383552722632885
15.0,0.0037471908144652843
16.0,0.0034727954771369696
18.0,0.0031307267490774393
20.0,0.002768290927633643
22.0,0.0025303694419562817
24.0,0.0022477228194475174
26.0,0.0021116433199495077
28.0,0.0018549716332927346
30.0,0.00166883144993335
32.0,0.0016018985770642757
36.0,0.0017074778443202376
40.0,0.001607331563718617
44.0,0.001605106284841895
48.0,0.001357184024527669
52.0,0.0012748070294037461
56.0,0.0009081688476726413
60.0,0.0006003926391713321
64.0,0.0005279268370941281
72.0,0.0005117226392030716
80.0,0.00027323156245984137
88.0,0.00011942016863031313
96.0,0.00017996538372244686
104.0,0.00013716635294258595
112.0,1.9240158508182503e-05
120.0,6.63165410514921e-05
128.0,-7.264189480338246e-05
144.0,-0.00075170723721385
160.0,-0.0004460620984900743
176.0,-0.00020262922043912113
192.0,-0.0002421245735604316
208.0,-0.0005104688461869955
224.0,-0.0004119713557884097
240.0,0.00033254901063628495
256.0,0.0007496842881664634
288.0,7.857576565584168e-05
320.0,-0.00026768111274577677
352.0,-0.0005710597615689039
384.0,-0.0004829253302887082
416.0,0.00036782969255000353
448.0,0.00011369019921403378
480.0,0.0006888314383104444
512.0,0.0004459054907783866
576.0,0.0003752305929083377
640.0,-0.0001589117746334523
704.0,0.0004176216316409409
768.0,0.0004692667571362108
832.0,0.00041138153756037354
896.0,-0.00010430569818709046
960.0,-0.00045044219586998224
1024.0,-0.0003751126059796661
1152.0,-0.00022032222477719188
1280.0,0.000347178807714954
1408.0,0.0004588777956087142
1536.0,-0.0002492629864718765
1664.0,-0.00032803270732983947
1792.0,-6.793036300223321e-05
1920.0,0.0002905246219597757
2048.0,0.00023459055228158832
2304.0,-0.0002821017988026142
2560.0,3.7934914871584624e-05
2816.0,0.00022881192853674293
3072.0,-7.743556489003822e-05
3328.0,0.0001804403873393312
3584.0,7.062838903948432e-06
3840.0,-0.00013933425361756235
4096.0,-5.0589966122061014e-05
4608.0,2.8638189178309403e-05
5120.0,-0.0002809487341437489
5632.0,-0.00019149170839227736
6144.0,-0.00018141533655580133
6656.0,-0.000133407287648879
7168.0,-0.00018482125597074628
7680.0,-0.00015298239304684103
8192.0,-0.0002948004403151572
end
