version,3.0
numOfCh,1
type,point
parent_name,34a6d_3dot0-1dot0
ch_type,1_1
kcount,1
numberNandB,1
brightnessNandB,1
carpet pos,0
pc,0
Time (ms),CH1 Auto-Correlation
1.0,0.016970664262771606
2.0,0.013934584334492683
3.0,0.01168298814445734
4.0,0.010128729045391083
5.0,0.0089197289198637
6.0,0.00798427127301693
7.0,0.007177559193223715
8.0,0.006464830134063959
9.0,0.0060566929168999195
10.0,0.005667048506438732
11.0,0.005328448489308357
12.0,0.005039433017373085
13.0,0.004729229491204023
14.0,0.004448580089956522
15.0,0.004095394164323807
16.0,0.0039018066599965096
18.0,0.0036874799989163876
20.0,0.003511738497763872
22.0,0.003352215513586998
24.0,0.0031393670942634344
26.0,0.0028479767497628927
28.0,0.002640609862282872
30.0,0.0026015574112534523
32.0,0.002547463634982705
36.0,0.0019506817916408181
40.0,0.0019187090219929814
44.0,0.0017756113084033132
48.0,0.0018183691427111626
52.0,0.0017103684367612004
56.0,0.0014550124760717154
60.0,0.0011599715799093246
64.0,0.0010520272189751267
72.0,0.0007150154560804367
80.0,0.0008541098795831203
88.0,0.001342464005574584
96.0,0.0011815156321972609
104.0,0.0007378090522252023
112.0,0.0008341846405528486
120.0,0.0006396998651325703
128.0,0.000568763876799494
144.0,0.0002801288210321218
160.0,0.00027892275829799473
176.0,0.00015124135825317353
192.0,-0.0002429445885354653
208.0,-0.00044092422467656434
224.0,0.0001348965597571805
240.0,0.00026690002414397895
256.0,0.00016295000386890024
288.0,3.103687731709215e-06
320.0,-0.00019879179308190942
352.0,4.09783206123393e-05
384.0,0.0001911051367642358
416.0,7.014155562501401e-05
448.0,-5.329619307303801e-05
480.0,-0.00027288225828669965
512.0,-0.0001961608650162816
576.0,-0.0003812208888120949
640.0,-0.0004013014258816838
704.0,-0.0001298188726650551
768.0,9.104792115977034e-05
832.0,-0.0006495990674011409
896.0,-0.00028011819813400507
960.0,-0.0007399989990517497
1024.0,-0.0007690173806622624
1152.0,-0.000294491124805063
1280.0,-0.00016545421385671943
1408.0,-0.00019425901700742543
1536.0,0.0001679581037024036
1664.0,0.00024798786034807563
1792.0,1.7890282833832316e-05
1920.0,-7.572129834443331e-05
2048.0,2.910577313741669e-05
2304.0,-0.00011122844443889335
2560.0,2.061484156001825e-05
2816.0,-6.554539868375286e-05
3072.0,-6.596845923922956e-05
3328.0,-0.00019454614084679633
3584.0,6.532708357553929e-05
3840.0,0.0004902773653157055
4096.0,-2.026305446634069e-05
4608.0,-0.0001791946415323764
5120.0,-0.00033488214830867946
5632.0,0.00021045967878308147
6144.0,0.00015473878011107445
6656.0,-9.859212150331587e-05
7168.0,-0.00016694820078555495
7680.0,0.00024810005561448634
8192.0,7.974408799782395e-05
end
