version,3.0
numOfCh,1
type,point
parent_name,ff67b_0dot4-1dot0
ch_type,1_1
kcount,1
numberNandB,1
brightnessNandB,1
carpet pos,0
pc,0
Time (ms),CH1 Auto-Correlation
1.0,0.1100136786699295
2.0,0.10566789656877518
3.0,0.10167355090379715
4.0,0.09841755777597427
5.0,0.09543780237436295
6.0,0.09233032166957855
7.0,0.08941347151994705
8.0,0.08692748099565506
9.0,0.08449582010507584
10.0,0.08226044476032257
11.0,0.07999234646558762
12.0,0.07770410925149918
13.0,0.07550997287034988
14.0,0.07341709733009338
15.0,0.07159168273210526
16.0,0.06981374323368073
18.0,0.0665382668375969
20.0,0.06374702602624893
22.0,0.06119132414460182
24.0,0.05864843353629112
26.0,0.05637626722455025
28.0,0.054110463708639145
30.0,0.051655493676662445
32.0,0.049574945122003555
36.0,0.04607018083333969
40.0,0.043123792856931686
44.0,0.040252044796943665
48.0,0.03746207058429718
52.0,0.03516208380460739
56.0,0.0323004424571991
60.0,0.02969593182206154
64.0,0.02801404520869255
72.0,0.025122759863734245
80.0,0.022794771939516068
88.0,0.020658310502767563
96.0,0.019014708697795868
104.0,0.017558902502059937
112.0,0.01651311106979847
120.0,0.01698620803654194
128.0,0.017164260149002075
144.0,0.01406761072576046
160.0,0.01040754746645689
176.0,0.009034298360347748
192.0,0.01045939326286316
208.0,0.010856720618903637
224.0,0.008245273493230343
240.0,0.007223936729133129
256.0,0.009245926514267921
288.0,0.010203732177615166
320.0,0.008411220274865627
352.0,0.0051982467994093895
384.0,0.003775637364014983
416.0,0.001703527756035328
448.0,0.001717192237265408
480.0,-0.00011196289415238425
512.0,-0.0024329896550625563
576.0,-0.003772187978029251
640.0,-0.001917955931276083
704.0,-0.002240273403003812
768.0,-0.0029388517141342163
832.0,0.004508179146796465
896.0,-0.005485480185598135
960.0,-0.002433488378301263
1024.0,0.0018256019102409482
1152.0,-0.0019490838749334216
1280.0,-0.0007032213034108281
1408.0,-0.0011721326736733317
1536.0,-0.007806349080055952
1664.0,-0.0029738470911979675
1792.0,-0.0003244148101657629
1920.0,-0.01058545894920826
2048.0,-0.00504004443064332
2304.0,-0.0021081003360450268
2560.0,-0.003747703041881323
2816.0,-0.002540946938097477
3072.0,-0.0010222167475149035
3328.0,-0.004588955081999302
3584.0,0.0006998993922024965
3840.0,-0.0015606408705934882
4096.0,0.0044960579834878445
4608.0,0.0027599898166954517
5120.0,0.00032654020469635725
5632.0,-0.0017723602941259742
6144.0,-0.01113976165652275
6656.0,-0.003912803716957569
7168.0,-0.00436171842738986
7680.0,-0.0026179507840424776
8192.0,0.004863607231527567
end
