version,3.0
numOfCh,1
type,point
parent_name,ff67b_0dot4-1dot0
ch_type,1_1
kcount,1
numberNandB,1
brightnessNandB,1
carpet pos,0
pc,0
Time (ms),CH1 Auto-Correlation
1.0,0.11151576042175293
2.0,0.10781607776880264
3.0,0.10441470146179199
4.0,0.10118257999420166
5.0,0.09812568873167038
6.0,0.09523164480924606
7.0,0.09258880466222763
8.0,0.09012668579816818
9.0,0.08775519579648972
10.0,0.0856272503733635
11.0,0.08365646749734879
12.0,0.08179360628128052
13.0,0.080133818089962
14.0,0.07854056358337402
15.0,0.07701176404953003
16.0,0.07552430033683777
18.0,0.07293921709060669
20.0,0.07056231051683426
22.0,0.06828369200229645
24.0,0.06603385508060455
26.0,0.06388022750616074
28.0,0.06164177507162094
30.0,0.059423938393592834
32.0,0.05722266063094139
36.0,0.053773798048496246
40.0,0.05062783509492874
44.0,0.047588050365448
48.0,0.0451589897274971
52.0,0.043194953352212906
56.0,0.041109342128038406
60.0,0.03916951268911362
64.0,0.03745457902550697
72.0,0.034533966332674026
80.0,0.030975377187132835
88.0,0.028694676235318184
96.0,0.026283135637640953
104.0,0.024848608300089836
112.0,0.023569198325276375
120.0,0.022599630057811737
128.0,0.021658271551132202
144.0,0.020129507407546043
160.0,0.020099341869354248
176.0,0.01782919280230999
192.0,0.01618683710694313
208.0,0.014123953878879547
224.0,0.010653290897607803
240.0,0.005891974084079266
256.0,0.003065073397010565
288.0,0.0018419554689899087
320.0,0.0018679784843698144
352.0,7.732774247415364e-05
384.0,-0.001114675891585648
416.0,-0.00019341394363436848
448.0,0.0019887543749064207
480.0,0.0012733557960018516
512.0,-0.00044166750740259886
576.0,-0.0030229524709284306
640.0,-0.0011766130337491632
704.0,-0.006069199647754431
768.0,-0.003898855997249484
832.0,0.006094283424317837
896.0,0.00514098210260272
960.0,0.005912662949413061
1024.0,0.004281606059521437
1152.0,-0.0006945589557290077
1280.0,-0.0028524710796773434
1408.0,-0.013759646564722061
1536.0,-0.011241814121603966
1664.0,-0.003230280475690961
1792.0,0.005369723308831453
1920.0,0.013019504025578499
2048.0,0.01509057730436325
2304.0,0.002990617183968425
2560.0,0.0001355230197077617
2816.0,0.003990589641034603
3072.0,0.0006333647179417312
3328.0,-0.003470866708084941
3584.0,-0.004133675713092089
3840.0,0.0016345317708328366
4096.0,0.007867061533033848
4608.0,0.007356223650276661
5120.0,-0.005188643932342529
5632.0,-0.0035481711383908987
6144.0,-0.006313725840300322
6656.0,-0.0018130677053704858
7168.0,-0.0005317424074746668
7680.0,0.007755426224321127
8192.0,-0.003685550531372428
end
