version,3.0
numOfCh,1
type,point
parent_name,ff67b_0dot4-1dot0
ch_type,1_1
kcount,1
numberNandB,1
brightnessNandB,1
carpet pos,0
pc,0
Time (ms),CH1 Auto-Correlation
1.0,0.12410307675600052
2.0,0.12004852294921875
3.0,0.11650063842535019
4.0,0.11317716538906097
5.0,0.11009711027145386
6.0,0.10724283009767532
7.0,0.10468551516532898
8.0,0.10227084904909134
9.0,0.09988909214735031
10.0,0.0976099967956543
11.0,0.09549697488546371
12.0,0.09344510734081268
13.0,0.09151636064052582
14.0,0.08957681804895401
15.0,0.08777894079685211
16.0,0.08604858815670013
18.0,0.08248525112867355
20.0,0.07929939776659012
22.0,0.07629407942295074
24.0,0.07347381860017776
26.0,0.07072637230157852
28.0,0.0683271661400795
30.0,0.06627816706895828
32.0,0.0642881914973259
36.0,0.06056734174489975
40.0,0.058254439383745193
44.0,0.05627380684018135
48.0,0.053611110895872116
52.0,0.05092949420213699
56.0,0.04877518117427826
60.0,0.04679455980658531
64.0,0.04459569603204727
72.0,0.04051290825009346
80.0,0.03733855113387108
88.0,0.03536473959684372
96.0,0.03351971134543419
104.0,0.032234374433755875
112.0,0.031080732122063637
120.0,0.02919798530638218
128.0,0.027409153059124947
144.0,0.022571809589862823
160.0,0.01689903996884823
176.0,0.014887779951095581
192.0,0.013816689141094685
208.0,0.012646898627281189
224.0,0.013868735171854496
240.0,0.015726439654827118
256.0,0.015399894677102566
288.0,0.017827851697802544
320.0,0.018021324649453163
352.0,0.019042788073420525
384.0,0.022214461117982864
416.0,0.018584368750452995
448.0,0.014223204925656319
480.0,0.015267386101186275
512.0,0.015954958274960518
576.0,0.012562128715217113
640.0,0.012357126921415329
704.0,0.012374731712043285
768.0,0.014106621034443378
832.0,0.008683010004460812
896.0,0.0013853624695912004
960.0,-0.0004513442690949887
1024.0,0.001846728497184813
1152.0,0.005490351002663374
1280.0,0.0024130677338689566
1408.0,0.0032777285668998957
1536.0,0.0024912096560001373
1664.0,-0.007589115295559168
1792.0,-0.005883417557924986
1920.0,0.001980922417715192
2048.0,0.006606786511838436
2304.0,-0.007865055464208126
2560.0,0.0015633166767656803
2816.0,0.004516948480159044
3072.0,0.002053949749097228
3328.0,0.013225558213889599
3584.0,0.004396040923893452
3840.0,0.0023568421602249146
4096.0,0.0013732087099924684
4608.0,-0.00537098478525877
5120.0,-0.0006234738393686712
5632.0,0.004953925032168627
6144.0,0.001957023050636053
6656.0,0.0028497371822595596
7168.0,-0.005398067645728588
7680.0,-0.005753615405410528
8192.0,-0.0065612648613750935
end
