version,3.0
numOfCh,1
type,point
parent_name,ff67b_0dot4-1dot0
ch_type,1_1
kcount,1
numberNandB,1
brightnessNandB,1
carpet pos,0
pc,0
Time (ms),CH1 Auto-Correlation
1.0,0.10270092636346817
2.0,0.09881982207298279
3.0,0.09505593031644821
4.0,0.09168057888746262
5.0,0.08846285194158554
6.0,0.0854097306728363
7.0,0.08246560394763947
8.0,0.07966454327106476
9.0,0.07701820880174637
10.0,0.07444849610328674
11.0,0.07214955985546112
12.0,0.07008226960897446
13.0,0.06815145164728165
14.0,0.06621420383453369
15.0,0.06437061727046967
16.0,0.06276188045740128
18.0,0.06000480428338051
20.0,0.057500727474689484
22.0,0.05528546869754791
24.0,0.053184740245342255
26.0,0.0511760450899601
28.0,0.049212612211704254
30.0,0.047359686344861984
32.0,0.04569993168115616
36.0,0.04260160028934479
40.0,0.03987361490726471
44.0,0.03774605318903923
48.0,0.03612159565091133
52.0,0.03475039079785347
56.0,0.03357379510998726
60.0,0.03294770047068596
64.0,0.03241636976599693
72.0,0.03136320784687996
80.0,0.03093784675002098
88.0,0.028904784470796585
96.0,0.02592490054666996
104.0,0.024422498419880867
112.0,0.023627111688256264
120.0,0.021828757598996162
128.0,0.020026477053761482
144.0,0.014765641652047634
160.0,0.01055184192955494
176.0,0.007517433259636164
192.0,0.008925559930503368
208.0,0.008379390463232994
224.0,0.00745000084862113
240.0,0.0067209419794380665
256.0,0.005039735697209835
288.0,0.005303296726197004
320.0,0.006315099075436592
352.0,0.008692190982401371
384.0,0.006664184387773275
416.0,0.006066625937819481
448.0,0.007663510274142027
480.0,0.007306313142180443
512.0,0.0025006956420838833
576.0,-0.0015476978151127696
640.0,-0.0027270775754004717
704.0,0.00032985545112751424
768.0,-0.0017323024803772569
832.0,-0.0005459703388623893
896.0,-0.004167852457612753
960.0,-0.003674577921628952
1024.0,-0.011921503581106663
1152.0,-0.017025373876094818
1280.0,-0.012675927020609379
1408.0,-0.0019396791467443109
1536.0,-0.0006605134112760425
1664.0,0.00015150613035075366
1792.0,0.0048652999103069305
1920.0,0.00875325407832861
2048.0,0.0012879814021289349
2304.0,0.010962859727442265
2560.0,0.0027573537081480026
2816.0,-0.00864332914352417
3072.0,-0.009036688134074211
3328.0,-0.005878988187760115
3584.0,-0.01006544753909111
3840.0,-0.0008656400023028255
4096.0,0.006648768670856953
4608.0,-0.0015586181543767452
5120.0,-0.0030059474520385265
5632.0,0.004413530230522156
6144.0,0.006550626829266548
6656.0,0.0016447649104520679
7168.0,-0.0031805168837308884
7680.0,-0.009217220358550549
8192.0,-0.004168061539530754
end
