version,3.0
numOfCh,1
type,point
parent_name,ff67b_0dot4-1dot0
ch_type,1_1
kcount,1
numberNandB,1
brightnessNandB,1
carpet pos,0
pc,0
Time (ms),CH1 Auto-Correlation
1.0,0.0972115620970726
2.0,0.09359835088253021
3.0,0.09039044380187988
4.0,0.08740465342998505
5.0,0.08454810082912445
6.0,0.08187545090913773
7.0,0.07934091240167618
8.0,0.076871357858181
9.0,0.07452459633350372
10.0,0.07234939187765121
11.0,0.07032887637615204
12.0,0.06835676729679108
13.0,0.06666997820138931
14.0,0.06496981531381607
15.0,0.06337304413318634
16.0,0.061825625598430634
18.0,0.05933361127972603
20.0,0.056982118636369705
22.0,0.054639969021081924
24.0,0.05244038254022598
26.0,0.05053829774260521
28.0,0.048887547105550766
30.0,0.047435443848371506
32.0,0.045995283871889114
36.0,0.04311256483197212
40.0,0.04062537103891373
44.0,0.03823024034500122
48.0,0.03602244332432747
52.0,0.03416227176785469
56.0,0.03226165845990181
60.0,0.030868958681821823
64.0,0.029893280938267708
72.0,0.027508819475769997
80.0,0.024984750896692276
88.0,0.022598152980208397
96.0,0.020527072250843048
104.0,0.018972711637616158
112.0,0.01677818037569523
120.0,0.015001019462943077
128.0,0.014669778756797314
144.0,0.015422762371599674
160.0,0.01525088120251894
176.0,0.013464832678437233
192.0,0.011591769754886627
208.0,0.009907216764986515
224.0,0.009493540972471237
240.0,0.009889812208712101
256.0,0.01179377268999815
288.0,0.014826810918748379
320.0,0.010714288800954819
352.0,0.004965160507708788
384.0,0.00442914292216301
416.0,0.007287542801350355
448.0,0.008147936314344406
480.0,0.003788970410823822
512.0,0.0007785120978951454
576.0,0.00332332169637084
640.0,0.000888030044734478
704.0,0.0008393535972572863
768.0,0.0021805516444146633
832.0,-0.001875641057267785
896.0,-0.0010538214119151235
960.0,-0.009449613280594349
1024.0,-0.0013615756761282682
1152.0,0.0017536685336381197
1280.0,0.0013263326836749911
1408.0,0.0007348256767727435
1536.0,0.0019001290202140808
1664.0,-0.002201606286689639
1792.0,-0.0062995366752147675
1920.0,-0.009176908060908318
2048.0,0.0013178082881495357
2304.0,-0.00020599660638254136
2560.0,0.0009468634380027652
2816.0,0.003316859481856227
3072.0,-0.00041218523983843625
3328.0,0.006093840580433607
3584.0,0.005902208387851715
3840.0,-0.0009742040419951081
4096.0,-0.0004771086969412863
4608.0,-0.004518644418567419
5120.0,-0.0036764596588909626
5632.0,-0.0029706470668315887
6144.0,0.0048195491544902325
6656.0,0.0036063105799257755
7168.0,-0.010142441838979721
7680.0,-0.011445482261478901
8192.0,-0.009194165468215942
end
