version,3.0
numOfCh,1
type,point
parent_name,ff67b_0dot4-1dot0
ch_type,1_1
kcount,1
numberNandB,1
brightnessNandB,1
carpet pos,0
pc,0
Time (ms),CH1 Auto-Correlation
1.0,0.10394714772701263
2.0,0.09990479052066803
3.0,0.09621699899435043
4.0,0.09284748136997223
5.0,0.08978592604398727
6.0,0.08691830933094025
7.0,0.08428613096475601
8.0,0.08184384554624557
9.0,0.07946623116731644
10.0,0.07724016904830933
11.0,0.07512781769037247
12.0,0.07302317023277283
13.0,0.0711626261472702
14.0,0.06938685476779938
15.0,0.06769438832998276
16.0,0.06607681512832642
18.0,0.06293851137161255
20.0,0.06008100509643555
22.0,0.05751531198620796
24.0,0.054993096739053726
26.0,0.05263080820441246
28.0,0.050414662808179855
30.0,0.04838365688920021
32.0,0.04647302255034447
36.0,0.042441342025995255
40.0,0.03809633478522301
44.0,0.034868769347667694
48.0,0.03215561434626579
52.0,0.029975008219480515
56.0,0.027944881469011307
60.0,0.025297017768025398
64.0,0.022509045898914337
72.0,0.019975759088993073
80.0,0.01927732676267624
88.0,0.018104312941432
96.0,0.016340309754014015
104.0,0.01571972481906414
112.0,0.013628858141601086
120.0,0.012262172065675259
128.0,0.010953009128570557
144.0,0.008232129737734795
160.0,0.007751198019832373
176.0,0.00845270324498415
192.0,0.008756126277148724
208.0,0.008638325147330761
224.0,0.006153310649096966
240.0,0.001992281526327133
256.0,-0.0012667591217905283
288.0,-0.0059320321306586266
320.0,-0.0007248169276863337
352.0,0.0033318642526865005
384.0,0.004373690579086542
416.0,0.0032258564606308937
448.0,0.00256926822476089
480.0,0.004013089928776026
512.0,0.005494559183716774
576.0,0.008492532186210155
640.0,0.004841246642172337
704.0,0.0030307841952890158
768.0,0.007410456892102957
832.0,0.0015741103561595082
896.0,-0.0021585223730653524
960.0,0.002606484107673168
1024.0,0.004208906553685665
1152.0,0.00306791253387928
1280.0,0.0034945709630846977
1408.0,0.006399654783308506
1536.0,0.006735458504408598
1664.0,-0.0023803142830729485
1792.0,-0.0038697945419698954
1920.0,0.003982439171522856
2048.0,0.010829881764948368
2304.0,0.004259157460182905
2560.0,0.004324555862694979
2816.0,-0.0030428506433963776
3072.0,0.0016580462688580155
3328.0,-0.000739419599995017
3584.0,-0.004530292470008135
3840.0,-0.004122757352888584
4096.0,0.0014687988441437483
4608.0,-0.002621633466333151
5120.0,-0.004573507234454155
5632.0,-0.002222268143668771
6144.0,-0.0010832336265593767
6656.0,-0.007215444464236498
7168.0,-0.008484968915581703
7680.0,-0.0038618766702711582
8192.0,-0.0020027703139930964
end
