version,3.0
numOfCh,1
type,point
parent_name,ff67b_0dot4-1dot0
ch_type,1_1
kcount,1
numberNandB,1
brightnessNandB,1
carpet pos,0
pc,0
Time (ms),CH1 Auto-Correlation
1.0,0.10711991786956787
2.0,0.10214994847774506
3.0,0.09810948371887207
4.0,0.09453985840082169
5.0,0.09115109592676163
6.0,0.0881180688738823
7.0,0.08542033284902573
8.0,0.08281836658716202
9.0,0.08042260259389877
10.0,0.07802596688270569
11.0,0.07599011808633804
12.0,0.07391710579395294
13.0,0.07193119823932648
14.0,0.07015441358089447
15.0,0.06860792636871338
16.0,0.06682956218719482
18.0,0.06403596699237823
20.0,0.06115485727787018
22.0,0.05851902812719345
24.0,0.05599377304315567
26.0,0.0536344088613987
28.0,0.051523733884096146
30.0,0.04951874539256096
32.0,0.04777972027659416
36.0,0.04437040910124779
40.0,0.04132930189371109
44.0,0.03864757716655731
48.0,0.036424364894628525
52.0,0.03457677736878395
56.0,0.03298141434788704
60.0,0.03179962560534477
64.0,0.030647670850157738
72.0,0.02825140953063965
80.0,0.02688170224428177
88.0,0.02509259060025215
96.0,0.02426723577082157
104.0,0.024200668558478355
112.0,0.022449152544140816
120.0,0.02055654115974903
128.0,0.019062897190451622
144.0,0.018398385494947433
160.0,0.01759197749197483
176.0,0.015914497897028923
192.0,0.013645191676914692
208.0,0.010632183402776718
224.0,0.008568321354687214
240.0,0.0060449461452662945
256.0,0.003842851147055626
288.0,0.0022764720488339663
320.0,-0.0005235490389168262
352.0,-0.0026927143335342407
384.0,-0.0016623589908704162
416.0,-0.00479062320664525
448.0,-0.007832775823771954
480.0,-0.008956968784332275
512.0,-0.007172156125307083
576.0,-0.000983638921752572
640.0,-0.0016796410782262683
704.0,-0.002997926902025938
768.0,-0.0029366598464548588
832.0,-0.00487820478156209
896.0,0.0016210791654884815
960.0,-0.003255681600421667
1024.0,0.0031602929811924696
1152.0,0.0046289898455142975
1280.0,0.004892180673778057
1408.0,0.008197802118957043
1536.0,0.006855961866676807
1664.0,-0.0011388687416911125
1792.0,-0.0020977987442165613
1920.0,0.0017408636631444097
2048.0,0.003406896023079753
2304.0,0.002214073669165373
2560.0,-0.005614633671939373
2816.0,-0.0041390820406377316
3072.0,-0.002175286179408431
3328.0,-0.0037854579277336597
3584.0,0.004397343844175339
3840.0,-0.007484172470867634
4096.0,-0.014171449467539787
4608.0,-0.0027708697598427534
5120.0,-0.004249447491019964
5632.0,-0.0032623130828142166
6144.0,0.002781601855531335
6656.0,0.0004406104562804103
7168.0,-0.004906808957457542
7680.0,0.003260031808167696
8192.0,-0.003700569737702608
end
