version,3.0
numOfCh,1
type,point
parent_name,ff67b_0dot4-1dot0
ch_type,1_1
kcount,1
numberNandB,1
brightnessNandB,1
carpet pos,0
pc,0
Time (ms),CH1 Auto-Correlation
1.0,0.11674480885267258
2.0,0.11237896233797073
3.0,0.10864861309528351
4.0,0.10518894344568253
5.0,0.10191932320594788
6.0,0.09884943813085556
7.0,0.09579706937074661
8.0,0.0929495245218277
9.0,0.09030382335186005
10.0,0.08791784197092056
11.0,0.08558617532253265
12.0,0.08321239054203033
13.0,0.08079247921705246
14.0,0.07840409874916077
15.0,0.0762941986322403
16.0,0.07431004196405411
18.0,0.07063063979148865
20.0,0.06685697287321091
22.0,0.06337470561265945
24.0,0.060078177601099014
26.0,0.05693155154585838
28.0,0.053951967507600784
30.0,0.0512346550822258
32.0,0.048958152532577515
36.0,0.04556583985686302
40.0,0.042776551097631454
44.0,0.03986864909529686
48.0,0.036330562084913254
52.0,0.032653700560331345
56.0,0.029342424124479294
60.0,0.025602102279663086
64.0,0.022505344823002815
72.0,0.019200313836336136
80.0,0.017288941890001297
88.0,0.01636449061334133
96.0,0.015225597657263279
104.0,0.013360527344048023
112.0,0.012604238465428352
120.0,0.012468439526855946
128.0,0.011588444001972675
144.0,0.009903526864945889
160.0,0.009289588779211044
176.0,0.005676839966326952
192.0,0.0023274708073586226
208.0,0.0014661344466730952
224.0,0.002138664945960045
240.0,0.0004801377945113927
256.0,0.0001047488403855823
288.0,0.0008793236338533461
320.0,7.921835640445352e-05
352.0,-0.0011731705162674189
384.0,-0.004404888488352299
416.0,-0.0045440602116286755
448.0,-0.003996178507804871
480.0,-0.0038995968643575907
512.0,8.887773583410308e-05
576.0,0.009228923358023167
640.0,0.010547501966357231
704.0,0.008069904521107674
768.0,0.0021386758890002966
832.0,0.0034548004623502493
896.0,0.004256351850926876
960.0,0.001154330326244235
1024.0,-0.002470726380124688
1152.0,-0.004492019768804312
1280.0,-0.006868294440209866
1408.0,-0.006679618265479803
1536.0,-0.0020605591125786304
1664.0,0.003145056078210473
1792.0,0.007508805952966213
1920.0,3.0213977879611775e-05
2048.0,-0.006401451770216227
2304.0,-0.004678607918322086
2560.0,-0.00546695152297616
2816.0,0.0017428002320230007
3072.0,-0.003189024981111288
3328.0,0.0036131555680185556
3584.0,-0.0035489313304424286
3840.0,-0.0017474712803959846
4096.0,-0.008414060808718204
4608.0,-0.002078824210911989
5120.0,-0.002443718258291483
5632.0,-0.00438652653247118
6144.0,-0.00277144112624228
6656.0,0.003860282711684704
7168.0,0.004315144848078489
7680.0,0.01414394099265337
8192.0,0.008274218067526817
end
