version,3.0
numOfCh,1
type,point
parent_name,ff67b_0dot4-1dot0
ch_type,1_1
kcount,1
numberNandB,1
brightnessNandB,1
carpet pos,0
pc,0
Time (ms),CH1 Auto-Correlation
1.0,0.1061919555068016
2.0,0.10184019804000854
3.0,0.09814354032278061
4.0,0.09484858065843582
5.0,0.09194007515907288
6.0,0.08902791887521744
7.0,0.08635593205690384
8.0,0.08389896899461746
9.0,0.08167126029729843
10.0,0.0794249176979065
11.0,0.0773124098777771
12.0,0.07532718032598495
13.0,0.07337211817502975
14.0,0.07139242440462112
15.0,0.06941398978233337
16.0,0.06759754568338394
18.0,0.06401360034942627
20.0,0.06052868813276291
22.0,0.05733734741806984
24.0,0.054427530616521835
26.0,0.05189060792326927
28.0,0.04943149536848068
30.0,0.04717697203159332
32.0,0.045205727219581604
36.0,0.041939977556467056
40.0,0.03860980272293091
44.0,0.03645266965031624
48.0,0.03461581841111183
52.0,0.033324986696243286
56.0,0.0320817306637764
60.0,0.030655279755592346
64.0,0.029334839433431625
72.0,0.026446565985679626
80.0,0.02310335822403431
88.0,0.02015760913491249
96.0,0.01816393993794918
104.0,0.015476792119443417
112.0,0.013229736126959324
120.0,0.012093517929315567
128.0,0.011789720505475998
144.0,0.01153813861310482
160.0,0.010222009383141994
176.0,0.009340694174170494
192.0,0.008178935386240482
208.0,0.00628934521228075
224.0,0.0026143284048885107
240.0,0.0005664665950462222
256.0,-0.0009401486022397876
288.0,-0.0007032424327917397
320.0,0.0006120392354205251
352.0,0.003617234528064728
384.0,0.007826155051589012
416.0,0.010498003102838993
448.0,0.007963107898831367
480.0,0.005666057113558054
512.0,0.0027496619150042534
576.0,-0.005850051064044237
640.0,-0.006968321278691292
704.0,-0.002480686642229557
768.0,-0.0057228305377066135
832.0,-0.004678896628320217
896.0,-0.00027684253291226923
960.0,-0.0040160901844501495
1024.0,-0.010068927891552448
1152.0,-0.006257201544940472
1280.0,-0.004307713359594345
1408.0,0.0015184114454314113
1536.0,0.005337268114089966
1664.0,0.0037768122274428606
1792.0,0.0006954905111342669
1920.0,-0.006287615746259689
2048.0,-0.005546582862734795
2304.0,-0.008341607637703419
2560.0,0.0019746320322155952
2816.0,0.0010344075271859765
3072.0,0.00403430825099349
3328.0,-0.003650043159723282
3584.0,-0.004659326281398535
3840.0,-0.013405494391918182
4096.0,-0.001167332287877798
4608.0,0.0022706217132508755
5120.0,0.003344109049066901
5632.0,0.0031085119117051363
6144.0,0.0002262091002194211
6656.0,-0.00384231167845428
7168.0,-0.0017154337838292122
7680.0,0.0044102659448981285
8192.0,0.0053469520062208176
end
