version,3.0
numOfCh,1
type,point
parent_name,ff67b_0dot4-1dot0
ch_type,1_1
kcount,1
numberNandB,1
brightnessNandB,1
carpet pos,0
pc,0
Time (ms),CH1 Auto-Correlation
1.0,0.09258728474378586
2.0,0.08870361000299454
3.0,0.08513189852237701
4.0,0.08179782330989838
5.0,0.07863318920135498
6.0,0.07569493353366852
7.0,0.07289698719978333
8.0,0.07024340331554413
9.0,0.06784246116876602
10.0,0.06554707139730453
11.0,0.06341458112001419
12.0,0.06135484576225281
13.0,0.05945645645260811
14.0,0.05777699872851372
15.0,0.05621004104614258
16.0,0.054634660482406616
18.0,0.0519142784178257
20.0,0.049339767545461655
22.0,0.04694440960884094
24.0,0.0448264479637146
26.0,0.04265505447983742
28.0,0.04071832448244095
30.0,0.03908834233880043
32.0,0.037531156092882156
36.0,0.03409181162714958
40.0,0.03136550635099411
44.0,0.0290614552795887
48.0,0.02717534638941288
52.0,0.025631994009017944
56.0,0.024224286898970604
60.0,0.02325199916958809
64.0,0.022001923993229866
72.0,0.019660232588648796
80.0,0.01823449693620205
88.0,0.017189068719744682
96.0,0.016236169263720512
104.0,0.014836977235972881
112.0,0.014911494217813015
120.0,0.014835757203400135
128.0,0.01313026063144207
144.0,0.01015685498714447
160.0,0.008121451362967491
176.0,0.008549835532903671
192.0,0.009243744425475597
208.0,0.00949898548424244
224.0,0.00811672117561102
240.0,0.009170306846499443
256.0,0.008934220299124718
288.0,0.008705118671059608
320.0,0.008386303670704365
352.0,0.008092908188700676
384.0,0.007547065149992704
416.0,0.004372396972030401
448.0,0.0009783769492059946
480.0,0.0012758051743730903
512.0,0.005647687241435051
576.0,0.004461894277483225
640.0,-0.0009955753339454532
704.0,-0.000948858680203557
768.0,-0.0005880843964405358
832.0,-0.003495189594104886
896.0,-0.006797384936362505
960.0,-0.0023661116138100624
1024.0,0.0018824548460543156
1152.0,0.0005445241695269942
1280.0,0.001566242310218513
1408.0,0.003389896359294653
1536.0,0.001655152766034007
1664.0,-0.0006482514436356723
1792.0,0.004717183765023947
1920.0,0.0003594621375668794
2048.0,0.0019130174769088626
2304.0,0.0006970333633944392
2560.0,0.0012825722806155682
2816.0,0.0003559559700079262
3072.0,-0.005031256005167961
3328.0,-0.007899479940533638
3584.0,-0.01058790273964405
3840.0,-0.005377218127250671
4096.0,-0.0031102809589356184
4608.0,-0.0046852040104568005
5120.0,-0.005151649005711079
5632.0,-0.0026493461336940527
6144.0,-0.0005438937805593014
6656.0,-0.002724055200815201
7168.0,0.0024596727453172207
7680.0,0.008230927400290966
8192.0,0.0028760454151779413
end
