version,3.0
numOfCh,1
type,point
parent_name,ff67b_0dot4-1dot0
ch_type,1_1
kcount,1
numberNandB,1
brightnessNandB,1
carpet pos,0
pc,0
Time (ms),CH1 Auto-Correlation
1.0,0.10845019668340683
2.0,0.10414908081293106
3.0,0.10030151158571243
4.0,0.09682907909154892
5.0,0.09357614815235138
6.0,0.09068258106708527
7.0,0.08804875612258911
8.0,0.08557233214378357
9.0,0.08329327404499054
10.0,0.08111442625522614
11.0,0.07905486971139908
12.0,0.07717059552669525
13.0,0.07545513659715652
14.0,0.07387670874595642
15.0,0.0723862275481224
16.0,0.07075688987970352
18.0,0.06793148070573807
20.0,0.06539835780858994
22.0,0.06323102116584778
24.0,0.06125760078430176
26.0,0.05915196239948273
28.0,0.05688682198524475
30.0,0.05495860427618027
32.0,0.05314911529421806
36.0,0.04972777143120766
40.0,0.046528201550245285
44.0,0.04372962936758995
48.0,0.04203367605805397
52.0,0.040413375943899155
56.0,0.03913728520274162
60.0,0.03850102424621582
64.0,0.03771846741437912
72.0,0.03526134043931961
80.0,0.03323117643594742
88.0,0.031521912664175034
96.0,0.030742503702640533
104.0,0.03042275458574295
112.0,0.030946381390094757
120.0,0.02874368615448475
128.0,0.027295148000121117
144.0,0.02549895830452442
160.0,0.022709811106324196
176.0,0.020411433652043343
192.0,0.017945274710655212
208.0,0.015018679201602936
224.0,0.013658485375344753
240.0,0.012717676348984241
256.0,0.010446462780237198
288.0,0.010079189203679562
320.0,0.008934777230024338
352.0,0.009633120149374008
384.0,0.006696454714983702
416.0,0.00575265334919095
448.0,0.0050257365219295025
480.0,0.007886559702455997
512.0,0.00530041242018342
576.0,0.0036472738720476627
640.0,0.0028856643475592136
704.0,-0.0023572843056172132
768.0,-0.0072641074657440186
832.0,-0.006553070619702339
896.0,-0.004935158416628838
960.0,0.0004931511357426643
1024.0,-0.0015642257640138268
1152.0,-0.004621987696737051
1280.0,-0.0045240470208227634
1408.0,0.0012114380951970816
1536.0,0.008628735318779945
1664.0,0.010607296600937843
1792.0,0.010073686018586159
1920.0,0.012076212093234062
2048.0,0.010414344258606434
2304.0,-0.0006849159835837781
2560.0,0.004523688927292824
2816.0,0.0012780188117176294
3072.0,0.0036507542245090008
3328.0,-0.0006056780694052577
3584.0,-0.004933767486363649
3840.0,-0.007291246671229601
4096.0,-0.003971596714109182
4608.0,0.003488586051389575
5120.0,0.007706948556005955
5632.0,0.0030724965035915375
6144.0,-0.008615517988801003
6656.0,-0.00047564200940541923
7168.0,-0.006792131811380386
7680.0,-0.003907760605216026
8192.0,-0.00407874071970582
end
