version,3.0
numOfCh,1
type,point
parent_name,ff67b_0dot4-1dot0
ch_type,1_1
kcount,1
numberNandB,1
brightnessNandB,1
carpet pos,0
pc,0
Time (ms),CH1 Auto-Correlation
1.0,0.10579518228769302
2.0,0.10201071202754974
3.0,0.0987454280257225
4.0,0.095725879073143
5.0,0.09291277825832367
6.0,0.09023112803697586
7.0,0.08778798580169678
8.0,0.0856657475233078
9.0,0.08356120437383652
10.0,0.0815819799900055
11.0,0.07958794385194778
12.0,0.07765668630599976
13.0,0.075703464448452
14.0,0.07397070527076721
15.0,0.07220972329378128
16.0,0.07053416967391968
18.0,0.06709498912096024
20.0,0.06377344578504562
22.0,0.060647282749414444
24.0,0.05800497531890869
26.0,0.0554799847304821
28.0,0.053011659532785416
30.0,0.05041920766234398
32.0,0.04814201593399048
36.0,0.04443645477294922
40.0,0.041320398449897766
44.0,0.038653664290905
48.0,0.0359773151576519
52.0,0.03393378481268883
56.0,0.03202614188194275
60.0,0.029901374131441116
64.0,0.028641462326049805
72.0,0.02673933655023575
80.0,0.025814302265644073
88.0,0.025692498311400414
96.0,0.025130076333880424
104.0,0.024478349834680557
112.0,0.02310592122375965
120.0,0.021150829270482063
128.0,0.01959691196680069
144.0,0.01698436215519905
160.0,0.016197245568037033
176.0,0.01736092008650303
192.0,0.01689033955335617
208.0,0.01433581206947565
224.0,0.011360019445419312
240.0,0.009518852457404137
256.0,0.008664804510772228
288.0,0.007208225782960653
320.0,0.00644975109025836
352.0,0.007981478236615658
384.0,0.008998914621770382
416.0,0.002861026907339692
448.0,0.0003501455648802221
480.0,0.001797909615561366
512.0,0.0003678271605167538
576.0,-0.00017469462181907147
640.0,0.00195658253505826
704.0,-0.0029266108758747578
768.0,-0.002134277718141675
832.0,0.003662465838715434
896.0,0.003584241261705756
960.0,0.0005206236965022981
1024.0,-0.00221999897621572
1152.0,-0.004756919573992491
1280.0,-0.007178081199526787
1408.0,-0.011667625978589058
1536.0,-0.009491067379713058
1664.0,-0.012880661524832249
1792.0,-0.005226640030741692
1920.0,-0.0009896185947582126
2048.0,0.0012554973363876343
2304.0,-0.0034316801466047764
2560.0,-0.004994886461645365
2816.0,-0.003158886916935444
3072.0,0.005254771094769239
3328.0,-0.004617162048816681
3584.0,-3.611749707488343e-05
3840.0,0.002792735816910863
4096.0,-0.0031392641831189394
4608.0,0.0005672709085047245
5120.0,0.006260709371417761
5632.0,0.0074723586440086365
6144.0,-0.0025053885765373707
6656.0,-0.006982146296650171
7168.0,-0.0022977949120104313
7680.0,-0.003063369309529662
8192.0,-0.0031840146984905005
end
