version,3.0
numOfCh,1
type,point
parent_name,ff67b_0dot4-1dot0
ch_type,1_1
kcount,1
numberNandB,1
brightnessNandB,1
carpet pos,0
pc,0
Time (ms),CH1 Auto-Correlation
1.0,0.09927433729171753
2.0,0.09536076337099075
3.0,0.0918806865811348
4.0,0.08873506635427475
5.0,0.08575765043497086
6.0,0.08292083442211151
7.0,0.0801326185464859
8.0,0.07755906134843826
9.0,0.07530193030834198
10.0,0.07322001457214355
11.0,0.07118771970272064
12.0,0.0693020299077034
13.0,0.06753759831190109
14.0,0.06591708958148956
15.0,0.0644884780049324
16.0,0.06307801604270935
18.0,0.06045759469270706
20.0,0.058073122054338455
22.0,0.055998723953962326
24.0,0.05382687970995903
26.0,0.05162424221634865
28.0,0.04970041662454605
30.0,0.047801218926906586
32.0,0.0459609292447567
36.0,0.042834654450416565
40.0,0.04024554044008255
44.0,0.03799876198172569
48.0,0.03604700043797493
52.0,0.033731695264577866
56.0,0.03153744712471962
60.0,0.02968708798289299
64.0,0.02831815741956234
72.0,0.02702200412750244
80.0,0.026047006249427795
88.0,0.02467832900583744
96.0,0.02430860325694084
104.0,0.02389013208448887
112.0,0.022552043199539185
120.0,0.021383991464972496
128.0,0.020302778109908104
144.0,0.017191147431731224
160.0,0.016448132693767548
176.0,0.017737556248903275
192.0,0.01898287609219551
208.0,0.017377173528075218
224.0,0.01640227809548378
240.0,0.013593919575214386
256.0,0.012084385380148888
288.0,0.01092319842427969
320.0,0.007496215868741274
352.0,0.005446044262498617
384.0,0.007679813075810671
416.0,0.009229853749275208
448.0,0.009253788739442825
480.0,0.007373690139502287
512.0,0.008472473360598087
576.0,0.0038796397857367992
640.0,0.0015064027393236756
704.0,0.0015909133944660425
768.0,-0.0013300215359777212
832.0,-0.0022550635039806366
896.0,-0.0017153120134025812
960.0,-0.006726651918143034
1024.0,-0.0135099608451128
1152.0,-0.009651689790189266
1280.0,-0.01469136867672205
1408.0,-0.009505774825811386
1536.0,-0.009769969619810581
1664.0,-0.013181833550333977
1792.0,-0.011931787244975567
1920.0,-0.013967814855277538
2048.0,-0.009654898196458817
2304.0,0.008138840086758137
2560.0,0.009764185175299644
2816.0,0.01658240519464016
3072.0,0.011263302527368069
3328.0,0.009028800763189793
3584.0,0.001470693270675838
3840.0,-0.00246595311909914
4096.0,-0.010297119617462158
4608.0,-0.01310461200773716
5120.0,-0.0039362977258861065
5632.0,0.009891651570796967
6144.0,0.011421707458794117
6656.0,0.0015111465472728014
7168.0,-0.0070290351286530495
7680.0,-0.005853457376360893
8192.0,-0.002418448682874441
end
