version,3.0
numOfCh,1
type,point
parent_name,ff67b_0dot4-1dot0
ch_type,1_1
kcount,1
numberNandB,1
brightnessNandB,1
carpet pos,0
pc,0
Time (ms),CH1 Auto-Correlation
1.0,0.10474646836519241
2.0,0.09999941289424896
3.0,0.0958971455693245
4.0,0.09219156205654144
5.0,0.08882682770490646
6.0,0.08580479025840759
7.0,0.08300308138132095
8.0,0.08035292476415634
9.0,0.07784871011972427
10.0,0.07559306919574738
11.0,0.07348532229661942
12.0,0.07136356085538864
13.0,0.06930650025606155
14.0,0.0673818588256836
15.0,0.06545533984899521
16.0,0.0637565478682518
18.0,0.06069904565811157
20.0,0.05778517574071884
22.0,0.05508536845445633
24.0,0.05248255282640457
26.0,0.0498058907687664
28.0,0.04770766571164131
30.0,0.045701101422309875
32.0,0.043905094265937805
36.0,0.04034797102212906
40.0,0.03740215674042702
44.0,0.03478964790701866
48.0,0.03285129368305206
52.0,0.03142126649618149
56.0,0.029636824503540993
60.0,0.02772141993045807
64.0,0.02639820985496044
72.0,0.023681888356804848
80.0,0.021580416709184647
88.0,0.019996915012598038
96.0,0.0184431541711092
104.0,0.016587989404797554
112.0,0.01652390882372856
120.0,0.016549181193113327
128.0,0.01680048182606697
144.0,0.01842198520898819
160.0,0.019734475761651993
176.0,0.01784815825521946
192.0,0.014355713501572609
208.0,0.010830661281943321
224.0,0.008462567813694477
240.0,0.006366074550896883
256.0,0.004791774787008762
288.0,0.004014561418443918
320.0,0.005969429388642311
352.0,0.006351029966026545
384.0,0.0036527204792946577
416.0,-0.0004362375184427947
448.0,-0.0006465719197876751
480.0,0.00013688180479221046
512.0,0.0009706950513646007
576.0,0.00504219438880682
640.0,0.00549276964738965
704.0,-0.00024567224318161607
768.0,-0.002170742955058813
832.0,0.0001991540630115196
896.0,0.00216628797352314
960.0,-0.000470970815513283
1024.0,-0.0011777851032093167
1152.0,-0.0015939949080348015
1280.0,-0.0014086912851780653
1408.0,-0.004834906198084354
1536.0,-0.007994085550308228
1664.0,-0.005773655138909817
1792.0,0.0019101676298305392
1920.0,0.0008287490927614272
2048.0,0.005577883217483759
2304.0,-0.0036375068593770266
2560.0,-0.007818697020411491
2816.0,-0.004849583841860294
3072.0,-0.004695983603596687
3328.0,-0.003687794553115964
3584.0,0.0028959892224520445
3840.0,-0.005136317573487759
4096.0,0.0026305876672267914
4608.0,0.001473673153668642
5120.0,-0.007986274547874928
5632.0,0.000919546524528414
6144.0,0.0014828989515081048
6656.0,0.00865965150296688
7168.0,0.005492174066603184
7680.0,0.0011389352148398757
8192.0,0.005867640953511
end
