version,3.0
numOfCh,1
type,point
parent_name,ff67b_0dot4-1dot0
ch_type,1_1
kcount,1
numberNandB,1
brightnessNandB,1
carpet pos,0
pc,0
Time (ms),CH1 Auto-Correlation
1.0,0.09610902518033981
2.0,0.09189029783010483
3.0,0.0881308987736702
4.0,0.08460140973329544
5.0,0.08115506172180176
6.0,0.07798739522695541
7.0,0.07505812495946884
8.0,0.07231369614601135
9.0,0.06991229951381683
10.0,0.06773407757282257
11.0,0.0657227486371994
12.0,0.0639994814991951
13.0,0.062397368252277374
14.0,0.06084458902478218
15.0,0.059234119951725006
16.0,0.05768471956253052
18.0,0.05478762835264206
20.0,0.052161805331707
22.0,0.04966957867145538
24.0,0.04708804562687874
26.0,0.04477233439683914
28.0,0.042837630957365036
30.0,0.04118570312857628
32.0,0.0395454503595829
36.0,0.037032097578048706
40.0,0.0346568301320076
44.0,0.032338496297597885
48.0,0.03003985807299614
52.0,0.02782309800386429
56.0,0.025502676144242287
60.0,0.022663407027721405
64.0,0.02028932236135006
72.0,0.017720354720950127
80.0,0.016858350485563278
88.0,0.015792058780789375
96.0,0.014629690907895565
104.0,0.014479954726994038
112.0,0.014442282728850842
120.0,0.014133181422948837
128.0,0.013089202344417572
144.0,0.011172669008374214
160.0,0.008646011352539062
176.0,0.007308111060410738
192.0,0.006529597565531731
208.0,0.0026114473585039377
224.0,0.003470724681392312
240.0,0.005316064227372408
256.0,0.006425910163670778
288.0,0.006873584818094969
320.0,0.005656183231621981
352.0,0.006208690349012613
384.0,0.005032846704125404
416.0,0.0021911701187491417
448.0,0.0036695566959679127
480.0,0.0036595093552023172
512.0,0.005047480575740337
576.0,0.003076708409935236
640.0,-0.001503746141679585
704.0,-0.0012029404751956463
768.0,-0.003886934369802475
832.0,0.0003302844415884465
896.0,-0.004613297060132027
960.0,-0.0031599318608641624
1024.0,0.00032995734363794327
1152.0,-0.007243337109684944
1280.0,0.0004825330397579819
1408.0,0.007020535413175821
1536.0,0.007819253019988537
1664.0,0.0013868841342628002
1792.0,0.0039357575587928295
1920.0,-0.0024540128652006388
2048.0,-0.005082759074866772
2304.0,-0.010012885555624962
2560.0,-0.008372082374989986
2816.0,-0.0041585578583180904
3072.0,0.002372081158682704
3328.0,0.0020796924363821745
3584.0,-0.0030998154543340206
3840.0,-0.007722089532762766
4096.0,-0.004475411493331194
4608.0,0.005211468320339918
5120.0,0.001766194705851376
5632.0,-0.0008173462701961398
6144.0,0.013831344433128834
6656.0,-0.0013919277116656303
7168.0,-0.008287833072245121
7680.0,0.0012351623736321926
8192.0,-0.009837272576987743
end
