version,3.0
numOfCh,1
type,point
parent_name,ff67b_0dot4-1dot0
ch_type,1_1
kcount,1
numberNandB,1
brightnessNandB,1
carpet pos,0
pc,0
Time (ms),CH1 Auto-Correlation
1.0,0.10902378708124161
2.0,0.10493037104606628
3.0,0.10141682624816895
4.0,0.09822198748588562
5.0,0.09531623870134354
6.0,0.09251399338245392
7.0,0.08994857221841812
8.0,0.08743482083082199
9.0,0.08501827716827393
10.0,0.08287987112998962
11.0,0.0807485356926918
12.0,0.07864004373550415
13.0,0.07659202069044113
14.0,0.07463980466127396
15.0,0.07274018973112106
16.0,0.07097479701042175
18.0,0.067806676030159
20.0,0.06477395445108414
22.0,0.06208769977092743
24.0,0.05958421528339386
26.0,0.057345420122146606
28.0,0.05521897226572037
30.0,0.05333288758993149
32.0,0.05168749764561653
36.0,0.04816285893321037
40.0,0.04419088363647461
44.0,0.04026030749082565
48.0,0.0370955727994442
52.0,0.03458692133426666
56.0,0.03215407952666283
60.0,0.029969580471515656
64.0,0.028142521157860756
72.0,0.02669406868517399
80.0,0.025018151849508286
88.0,0.023459168151021004
96.0,0.022533541545271873
104.0,0.022173618897795677
112.0,0.022301793098449707
120.0,0.022157743573188782
128.0,0.02152262069284916
144.0,0.021535828709602356
160.0,0.022343851625919342
176.0,0.021480398252606392
192.0,0.021819330751895905
208.0,0.021013211458921432
224.0,0.01888432167470455
240.0,0.016797415912151337
256.0,0.01717124693095684
288.0,0.017572298645973206
320.0,0.015403815545141697
352.0,0.010962067171931267
384.0,0.0072146225720644
416.0,0.007360775955021381
448.0,0.008760702796280384
480.0,0.010529866442084312
512.0,0.014444869942963123
576.0,0.011714122258126736
640.0,0.005426246207207441
704.0,0.0043488554656505585
768.0,0.009984182193875313
832.0,0.0062896800227463245
896.0,0.0011559135746210814
960.0,0.003699277527630329
1024.0,0.004436185583472252
1152.0,0.006004029419273138
1280.0,0.004520072601735592
1408.0,0.002638988196849823
1536.0,-0.0012807630700990558
1664.0,-0.008375589735805988
1792.0,-0.005044962279498577
1920.0,-0.004766400903463364
2048.0,-0.009177029132843018
2304.0,-0.00701685668900609
2560.0,-0.014235193841159344
2816.0,-0.011035389266908169
3072.0,-0.010218033567070961
3328.0,-0.005495472811162472
3584.0,-0.00970457587391138
3840.0,-0.007054260931909084
4096.0,-0.006322211120277643
4608.0,-0.007259683217853308
5120.0,0.001777095370925963
5632.0,0.0029868753626942635
6144.0,0.0057469927705824375
6656.0,0.007179905194789171
7168.0,0.007527092471718788
7680.0,0.003497775411233306
8192.0,0.0009506592759862542
end
