version,3.0
numOfCh,1
type,point
parent_name,ff67b_0dot6-1dot0
ch_type,1_1
kcount,1
numberNandB,1
brightnessNandB,1
carpet pos,0
pc,0
Time (ms),CH1 Auto-Correlation
1.0,0.04266190528869629
2.0,0.04044978693127632
3.0,0.038439348340034485
4.0,0.036654047667980194
5.0,0.03501436114311218
6.0,0.03352276235818863
7.0,0.03210465982556343
8.0,0.030746769160032272
9.0,0.02958444319665432
10.0,0.028529474511742592
11.0,0.027573371306061745
12.0,0.02672363817691803
13.0,0.02595142275094986
14.0,0.025108592584729195
15.0,0.02430308237671852
16.0,0.023489005863666534
18.0,0.022138722240924835
20.0,0.02107705920934677
22.0,0.02008722350001335
24.0,0.019203204661607742
26.0,0.01831725426018238
28.0,0.017451414838433266
30.0,0.01665538176894188
32.0,0.01589525118470192
36.0,0.01487160474061966
40.0,0.013777105137705803
44.0,0.012611588463187218
48.0,0.011543258093297482
52.0,0.010713531635701656
56.0,0.009943113662302494
60.0,0.00931420736014843
64.0,0.008753773756325245
72.0,0.007561100646853447
80.0,0.006569928023964167
88.0,0.0052069444209337234
96.0,0.004425380378961563
104.0,0.004154503345489502
112.0,0.0035249211359769106
120.0,0.0029099846724420786
128.0,0.0025655338540673256
144.0,0.0022479782346636057
160.0,0.0030277944169938564
176.0,0.002175638685002923
192.0,0.0018282824894413352
208.0,0.0014292291598394513
224.0,0.0018561964388936758
240.0,0.001562599092721939
256.0,0.00035775869037024677
288.0,-0.001406621653586626
320.0,-0.0004996717907488346
352.0,-0.00037246409920044243
384.0,-0.0015241012442857027
416.0,-0.0014788780827075243
448.0,-0.0022936821915209293
480.0,-0.0028510878328233957
512.0,-0.0032523286063224077
576.0,-0.0028034618590027094
640.0,-0.0012385186273604631
704.0,0.0015654887538403273
768.0,0.003160389605909586
832.0,0.0025550806894898415
896.0,0.0010999514488503337
960.0,0.0009123510681092739
1024.0,0.0007882834761403501
1152.0,3.736626240424812e-05
1280.0,-0.00258687068708241
1408.0,-0.0010051950812339783
1536.0,-0.0007604187121614814
1664.0,0.0014101695269346237
1792.0,-0.0004327390342950821
1920.0,-0.0009898861171677709
2048.0,-0.0019434947753325105
2304.0,-0.003763075452297926
2560.0,-0.0017635909607633948
2816.0,0.00162399560213089
3072.0,0.000711646571289748
3328.0,8.051281474763528e-05
3584.0,0.0007273338851518929
3840.0,0.0014349465491250157
4096.0,3.6146984712104313e-06
4608.0,0.0029952300246804953
5120.0,-0.0039366865530610085
5632.0,-0.0010869352845475078
6144.0,-0.0003055980778299272
6656.0,-0.0010141277452930808
7168.0,-0.000829975469969213
7680.0,0.003745188470929861
8192.0,-0.0005202477914281189
end
