version,3.0
numOfCh,1
type,point
parent_name,ff67b_0dot6-1dot0
ch_type,1_1
kcount,1
numberNandB,1
brightnessNandB,1
carpet pos,0
pc,0
Time (ms),CH1 Auto-Correlation
1.0,0.042468100786209106
2.0,0.04009571671485901
3.0,0.03807428479194641
4.0,0.036276523023843765
5.0,0.034552380442619324
6.0,0.033012229949235916
7.0,0.03154737502336502
8.0,0.03018486127257347
9.0,0.028967129066586494
10.0,0.02785181812942028
11.0,0.026800474151968956
12.0,0.02578750252723694
13.0,0.024867329746484756
14.0,0.02394838072359562
15.0,0.023161673918366432
16.0,0.02243833988904953
18.0,0.02116849273443222
20.0,0.01982966437935829
22.0,0.018639732152223587
24.0,0.017661668360233307
26.0,0.016854410991072655
28.0,0.016008291393518448
30.0,0.01533894520252943
32.0,0.01463585626333952
36.0,0.0134670315310359
40.0,0.01216222532093525
44.0,0.010936655104160309
48.0,0.009655110538005829
52.0,0.008550652302801609
56.0,0.00775533402338624
60.0,0.007180134300142527
64.0,0.006610258016735315
72.0,0.005583511665463448
80.0,0.005171865690499544
88.0,0.004790563136339188
96.0,0.0036472429055720568
104.0,0.003502822248265147
112.0,0.0036249924451112747
120.0,0.003649345599114895
128.0,0.0032178203109651804
144.0,0.001128262490965426
160.0,-0.00023398500343319029
176.0,-0.00037510276888497174
192.0,-0.0009035052498802543
208.0,-0.002429255982860923
224.0,-0.003569278633221984
240.0,-0.0028231097385287285
256.0,-0.002192552899941802
288.0,-2.567829506006092e-05
320.0,-0.0002070295886369422
352.0,-0.0006318637169897556
384.0,-0.0004700759891420603
416.0,-0.0005271657137200236
448.0,-0.0013050164561718702
480.0,-0.000333137548295781
512.0,-0.0009601979982107878
576.0,-0.0012845088494941592
640.0,-0.0014231203822419047
704.0,-0.0008034564671106637
768.0,-0.0008560950518585742
832.0,-0.0010245380690321326
896.0,0.0009722438990138471
960.0,0.0014491357142105699
1024.0,0.001907335128635168
1152.0,0.0011240228777751327
1280.0,-8.020191307878122e-05
1408.0,0.0002987154002767056
1536.0,0.0010866544907912612
1664.0,0.0018442751606926322
1792.0,-0.001409872667863965
1920.0,-0.001595831592567265
2048.0,0.0013476843014359474
2304.0,0.0011930896434932947
2560.0,-0.002116747898980975
2816.0,-0.0010701455175876617
3072.0,-0.0019691206980496645
3328.0,-0.0004112913447897881
3584.0,0.0010152541799470782
3840.0,0.0017901220126077533
4096.0,-0.001067635603249073
4608.0,-0.0003527514636516571
5120.0,-0.0005585688631981611
5632.0,-0.00019917890313081443
6144.0,0.0006761846016161144
6656.0,-0.002131705405190587
7168.0,0.001194580807350576
7680.0,-9.134638094110414e-05
8192.0,0.0007818601443432271
end
