version,3.0
numOfCh,1
type,point
parent_name,ff67b_0dot6-1dot0
ch_type,1_1
kcount,1
numberNandB,1
brightnessNandB,1
carpet pos,0
pc,0
Time (ms),CH1 Auto-Correlation
1.0,0.04630523547530174
2.0,0.044065579771995544
3.0,0.04210042580962181
4.0,0.04033175855875015
5.0,0.0387190617620945
6.0,0.037244219332933426
7.0,0.03588886186480522
8.0,0.03468875214457512
9.0,0.033570729196071625
10.0,0.03260548412799835
11.0,0.03165603056550026
12.0,0.03079930879175663
13.0,0.029941348358988762
14.0,0.029091985896229744
15.0,0.028261717408895493
16.0,0.027609484270215034
18.0,0.026500828564167023
20.0,0.025454284623265266
22.0,0.024438273161649704
24.0,0.023271720856428146
26.0,0.022215360775589943
28.0,0.021373024210333824
30.0,0.02066458761692047
32.0,0.020081985741853714
36.0,0.019058000296354294
40.0,0.01810707151889801
44.0,0.017254069447517395
48.0,0.01635749265551567
52.0,0.015439098700881004
56.0,0.01444607600569725
60.0,0.013626707717776299
64.0,0.012733365409076214
72.0,0.010911699384450912
80.0,0.009567555040121078
88.0,0.008717373013496399
96.0,0.007975765503942966
104.0,0.007063150405883789
112.0,0.005660402588546276
120.0,0.005025597754865885
128.0,0.004691637121140957
144.0,0.004044614266604185
160.0,0.0037338908296078444
176.0,0.004222729708999395
192.0,0.004854753613471985
208.0,0.005335585214197636
224.0,0.00474969670176506
240.0,0.0038559557870030403
256.0,0.003731091972440481
288.0,0.003011547029018402
320.0,0.002350621623918414
352.0,0.0020994863007217646
384.0,0.0017538216197863221
416.0,0.0006973697454668581
448.0,0.0017340974882245064
480.0,0.0020999410189688206
512.0,0.00016685729497112334
576.0,-0.0013778697466477752
640.0,-0.0012488606153056026
704.0,0.003420491237193346
768.0,0.0017015652265399694
832.0,5.611723827314563e-05
896.0,-0.0011835253098979592
960.0,-0.0005365541437640786
1024.0,-0.001999956788495183
1152.0,-0.003022057469934225
1280.0,-0.0015408021863549948
1408.0,-0.0019694394432008266
1536.0,-0.0006543229683302343
1664.0,-0.0011798545019701123
1792.0,0.0009244122193194926
1920.0,0.0010068455012515187
2048.0,-0.000981533550657332
2304.0,-0.0026831389404833317
2560.0,-0.0006507938960567117
2816.0,0.0017778475303202868
3072.0,6.294406193774194e-05
3328.0,-0.0010231832275167108
3584.0,-0.002291341545060277
3840.0,-0.004147480241954327
4096.0,-0.0028240540996193886
4608.0,-0.0007345707272179425
5120.0,0.00024779513478279114
5632.0,0.0024030476342886686
6144.0,0.004608759190887213
6656.0,-0.0004221977142151445
7168.0,-0.0001574279594933614
7680.0,0.0013569550355896354
8192.0,0.0016537108458578587
end
