version,3.0
numOfCh,1
type,point
parent_name,ff67b_0dot6-1dot0
ch_type,1_1
kcount,1
numberNandB,1
brightnessNandB,1
carpet pos,0
pc,0
Time (ms),CH1 Auto-Correlation
1.0,0.04724019393324852
2.0,0.04462514817714691
3.0,0.04233581945300102
4.0,0.0403224341571331
5.0,0.03847837820649147
6.0,0.036753661930561066
7.0,0.03526727110147476
8.0,0.033991266041994095
9.0,0.03273222967982292
10.0,0.0315559059381485
11.0,0.03039253130555153
12.0,0.02930329740047455
13.0,0.028300339356064796
14.0,0.027384670451283455
15.0,0.026432616636157036
16.0,0.025517648085951805
18.0,0.02394387498497963
20.0,0.02244567684829235
22.0,0.020964650437235832
24.0,0.019729694351553917
26.0,0.018681416288018227
28.0,0.017551809549331665
30.0,0.016455786302685738
32.0,0.015400884672999382
36.0,0.013375603593885899
40.0,0.011504636146128178
44.0,0.009686028584837914
48.0,0.008300617337226868
52.0,0.007194358389824629
56.0,0.006168651394546032
60.0,0.005387363955378532
64.0,0.004748522769659758
72.0,0.003628489328548312
80.0,0.002876805607229471
88.0,0.002218964509665966
96.0,0.0013237256789579988
104.0,0.000712328648660332
112.0,0.0005939764087088406
120.0,0.0006156048038974404
128.0,0.0008626239141449332
144.0,0.0014656123239547014
160.0,0.0021121336612850428
176.0,0.002717961324378848
192.0,0.0020608939230442047
208.0,0.0021141930483281612
224.0,0.0008542065043002367
240.0,0.0005017006187699735
256.0,0.0005768117844127119
288.0,-0.0004593025369103998
320.0,0.0004031069402117282
352.0,0.00205022725276649
384.0,0.0014384653186425567
416.0,-4.165446080151014e-05
448.0,-0.00011789153359131888
480.0,0.0005292308633215725
512.0,0.0012011427897959948
576.0,-0.0009219776256941259
640.0,0.002005046233534813
704.0,0.001983447466045618
768.0,0.0031263872515410185
832.0,0.0003459304280113429
896.0,0.0006028355564922094
960.0,0.0020264519844204187
1024.0,0.00044762794277630746
1152.0,0.001528025371953845
1280.0,-0.00019124741083942354
1408.0,-0.0008499316172674298
1536.0,-0.0002090571215376258
1664.0,0.0005653704865835607
1792.0,-0.0008438688237220049
1920.0,0.001043994096107781
2048.0,-0.0009145791409537196
2304.0,-0.002540791407227516
2560.0,-0.0011785649694502354
2816.0,-0.0008889215532690287
3072.0,-0.0025383136235177517
3328.0,-0.0028811374213546515
3584.0,-0.0024830547627061605
3840.0,-0.0002706296509131789
4096.0,-0.0024427238386124372
4608.0,-0.002062444807961583
5120.0,-0.0007234280346892774
5632.0,-3.249097790103406e-05
6144.0,0.002293239114806056
6656.0,0.0007842944469302893
7168.0,0.002705285092815757
7680.0,0.0015202169306576252
8192.0,0.0017678774893283844
end
