version,3.0
numOfCh,1
type,point
parent_name,ff67b_0dot6-1dot0
ch_type,1_1
kcount,1
numberNandB,1
brightnessNandB,1
carpet pos,0
pc,0
Time (ms),CH1 Auto-Correlation
1.0,0.0397130586206913
2.0,0.037429578602313995
3.0,0.03541434183716774
4.0,0.033548738807439804
5.0,0.03185470402240753
6.0,0.03022029437124729
7.0,0.028661813586950302
8.0,0.027220826596021652
9.0,0.025934958830475807
10.0,0.02469109557569027
11.0,0.02365974336862564
12.0,0.022640181705355644
13.0,0.021712124347686768
14.0,0.020897598937153816
15.0,0.020039647817611694
16.0,0.01926136016845703
18.0,0.01788070797920227
20.0,0.016553526744246483
22.0,0.015409774146974087
24.0,0.014322028495371342
26.0,0.013417837209999561
28.0,0.012568430975079536
30.0,0.011872548609972
32.0,0.011218295432627201
36.0,0.010211817920207977
40.0,0.009283763356506824
44.0,0.00866770464926958
48.0,0.008451532572507858
52.0,0.00797555036842823
56.0,0.0074323974549770355
60.0,0.0072393533773720264
64.0,0.007178873755037785
72.0,0.006701312493532896
80.0,0.006313436198979616
88.0,0.005390254780650139
96.0,0.004322581458836794
104.0,0.003467935835942626
112.0,0.002819582587108016
120.0,0.0026506942231208086
128.0,0.0027637332677841187
144.0,0.0024972741957753897
160.0,0.002712975488975644
176.0,0.0031494218856096268
192.0,0.0026567585300654173
208.0,0.00186735310126096
224.0,0.0015695170732215047
240.0,0.002171987434849143
256.0,0.0018497646087780595
288.0,0.0026301511097699404
320.0,0.001091070706024766
352.0,0.0006204508244991302
384.0,0.0013862461782991886
416.0,0.0026545878499746323
448.0,0.0013782166643068194
480.0,0.0027853401843458414
512.0,0.0018127145012840629
576.0,0.0005077659734524786
640.0,0.0007500427309423685
704.0,0.001325549790635705
768.0,0.000556133221834898
832.0,0.0008038121741265059
896.0,0.0022207589354366064
960.0,0.0015354248462244868
1024.0,-0.0006188622210174799
1152.0,-7.355042907875031e-05
1280.0,0.0005455697537399828
1408.0,0.0007968585123308003
1536.0,0.0006628024275414646
1664.0,0.00012251062435097992
1792.0,-0.0010213617933914065
1920.0,-0.0017096410738304257
2048.0,-0.00291708973236382
2304.0,-0.002021159278228879
2560.0,-0.0007462410721927881
2816.0,-0.0018034548265859485
3072.0,-0.001964311581104994
3328.0,-0.0008715519215911627
3584.0,-0.0020689391531050205
3840.0,-0.00030927613261155784
4096.0,0.0004272432124707848
4608.0,-0.0009585727821104228
5120.0,0.001385977491736412
5632.0,0.0016113504534587264
6144.0,-0.0007288534543476999
6656.0,0.0005499916733242571
7168.0,-0.0017797838663682342
7680.0,-0.0015075491974130273
8192.0,-0.00036696289316751063
end
