version,3.0
numOfCh,1
type,point
parent_name,ff67b_0dot6-1dot0
ch_type,1_1
kcount,1
numberNandB,1
brightnessNandB,1
carpet pos,0
pc,0
Time (ms),CH1 Auto-Correlation
1.0,0.044709157198667526
2.0,0.042431190609931946
3.0,0.04035693407058716
4.0,0.03850189596414566
5.0,0.03685839846730232
6.0,0.035338498651981354
7.0,0.03385878726840019
8.0,0.03254401311278343
9.0,0.03141970559954643
10.0,0.030360091477632523
11.0,0.029361886903643608
12.0,0.028508318588137627
13.0,0.02763991430401802
14.0,0.026846449822187424
15.0,0.026101820170879364
16.0,0.025402525439858437
18.0,0.023995254188776016
20.0,0.02266066148877144
22.0,0.021405283361673355
24.0,0.02017519623041153
26.0,0.019004516303539276
28.0,0.018071655184030533
30.0,0.017175862565636635
32.0,0.016469806432724
36.0,0.0153413787484169
40.0,0.014556381851434708
44.0,0.014138949103653431
48.0,0.013573314994573593
52.0,0.013064444065093994
56.0,0.012553875334560871
60.0,0.012073040939867496
64.0,0.011395512148737907
72.0,0.010116660967469215
80.0,0.008714117109775543
88.0,0.007628318853676319
96.0,0.006764227524399757
104.0,0.006769760511815548
112.0,0.006783111020922661
120.0,0.0060667674988508224
128.0,0.004919477738440037
144.0,0.003352183848619461
160.0,0.0025867566000670195
176.0,0.0030786641873419285
192.0,0.00250524771399796
208.0,0.002503331284970045
224.0,0.0023391807917505503
240.0,0.002644388936460018
256.0,0.0032870876602828503
288.0,0.003055561101064086
320.0,0.0030955197289586067
352.0,0.001200857455842197
384.0,-7.847242522984743e-05
416.0,-0.0014914453495293856
448.0,-0.0006588305695913732
480.0,2.5213641492882743e-05
512.0,0.0010533668100833893
576.0,4.681237260228954e-05
640.0,0.002995019080117345
704.0,0.002195339882746339
768.0,0.001516740769147873
832.0,0.0001711257064016536
896.0,-0.0014346025418490171
960.0,-0.00028286920860409737
1024.0,6.163088255561888e-05
1152.0,0.003332224441692233
1280.0,2.45020510192262e-05
1408.0,-0.0014697348233312368
1536.0,-0.0034298852551728487
1664.0,-0.003151095239445567
1792.0,-0.00024100241716951132
1920.0,-0.0020441911183297634
2048.0,-0.005688793491572142
2304.0,0.0011548199690878391
2560.0,0.0032435550820082426
2816.0,0.0008666197536513209
3072.0,4.210544648231007e-05
3328.0,-0.00025974007439799607
3584.0,0.002497185254469514
3840.0,0.00037466251524165273
4096.0,-0.0015977205475792289
4608.0,-0.0014072818448767066
5120.0,-0.0005501506966538727
5632.0,-0.004623864311724901
6144.0,-0.0009701052913442254
6656.0,-0.0016574058681726456
7168.0,0.001419474370777607
7680.0,0.0013412234839051962
8192.0,-0.0006721776444464922
end
