version,3.0
numOfCh,1
type,point
parent_name,ff67b_0dot6-1dot0
ch_type,1_1
kcount,1
numberNandB,1
brightnessNandB,1
carpet pos,0
pc,0
Time (ms),CH1 Auto-Correlation
1.0,0.041924066841602325
2.0,0.03959617391228676
3.0,0.037519700825214386
4.0,0.03561699017882347
5.0,0.03390614315867424
6.0,0.03233729675412178
7.0,0.03091275878250599
8.0,0.02967192605137825
9.0,0.02848941832780838
10.0,0.027439726516604424
11.0,0.026397326961159706
12.0,0.025415752083063126
13.0,0.024415364488959312
14.0,0.023449914529919624
15.0,0.022510264068841934
16.0,0.02162497490644455
18.0,0.02006402797996998
20.0,0.0187296811491251
22.0,0.01750490628182888
24.0,0.01637859456241131
26.0,0.015407872386276722
28.0,0.014536544680595398
30.0,0.013837575912475586
32.0,0.01322023943066597
36.0,0.01185485441237688
40.0,0.010372449643909931
44.0,0.009229433722794056
48.0,0.008088230155408382
52.0,0.007033154834061861
56.0,0.006296294275671244
60.0,0.005703540984541178
64.0,0.004921815823763609
72.0,0.003769932547584176
80.0,0.0028772575315088034
88.0,0.002578710438683629
96.0,0.0023546451702713966
104.0,0.0019173469627276063
112.0,0.0015694451285526156
120.0,0.0017345889937132597
128.0,0.001840784098021686
144.0,0.0015830866759642959
160.0,0.0007113876636140049
176.0,0.00025253300555050373
192.0,-0.00029356780578382313
208.0,-0.0007346451166085899
224.0,-0.0009698047651909292
240.0,-0.0010513957822695374
256.0,-0.0007048039115034044
288.0,0.00019450804393272847
320.0,-0.0010668131290003657
352.0,-0.002189730992540717
384.0,-0.0010496644536033273
416.0,-0.0010699046542868018
448.0,-0.0013595499331131577
480.0,-0.0017017642967402935
512.0,-9.215911268256605e-05
576.0,-0.0013857001904398203
640.0,-0.0031987044494599104
704.0,0.0007771837990731001
768.0,-9.921912351273932e-06
832.0,0.000841316650621593
896.0,-0.0007881821948103607
960.0,-0.0006783577264286578
1024.0,-3.055016350117512e-05
1152.0,-0.0003899532894138247
1280.0,-0.0006062572938390076
1408.0,-0.0028325209859758615
1536.0,-0.0005679443129338324
1664.0,0.002134531270712614
1792.0,-0.0005650300881825387
1920.0,-0.00012233297456987202
2048.0,0.000890251190867275
2304.0,-0.0014662116300314665
2560.0,0.00043834871030412614
2816.0,0.0012843272415921092
3072.0,-0.0012551173567771912
3328.0,0.0014228798681870103
3584.0,-0.0017274650745093822
3840.0,-0.0004954877076670527
4096.0,-0.0005487063899636269
4608.0,0.0007641409174539149
5120.0,0.0004117107018828392
5632.0,-0.0008115721866488457
6144.0,0.001297502312809229
6656.0,-0.0008875993080437183
7168.0,0.0012774112401530147
7680.0,-0.0026208350900560617
8192.0,0.00023943516134750098
end
