version,3.0
numOfCh,1
type,point
parent_name,ff67b_0dot6-1dot0
ch_type,1_1
kcount,1
numberNandB,1
brightnessNandB,1
carpet pos,0
pc,0
Time (ms),CH1 Auto-Correlation
1.0,0.057362787425518036
2.0,0.05281542241573334
3.0,0.0491972379386425
4.0,0.04551585391163826
5.0,0.04218682646751404
6.0,0.0383482500910759
7.0,0.03461194783449173
8.0,0.03321707248687744
9.0,0.03193853050470352
10.0,0.030752010643482208
11.0,0.029668860137462616
12.0,0.028719423338770866
13.0,0.027758514508605003
14.0,0.026914380490779877
15.0,0.026063891127705574
16.0,0.02530517615377903
18.0,0.02403979003429413
20.0,0.022864067927002907
22.0,0.021768758073449135
24.0,0.020861206576228142
26.0,0.01983989030122757
28.0,0.01896042749285698
30.0,0.01807195320725441
32.0,0.017311379313468933
36.0,0.016041386872529984
40.0,0.015299629420042038
44.0,0.014703609049320221
48.0,0.014216450043022633
52.0,0.0134505033493042
56.0,0.012500092387199402
60.0,0.011826969683170319
64.0,0.011725367046892643
72.0,0.010616299696266651
80.0,0.009930779226124287
88.0,0.009506524540483952
96.0,0.009321019053459167
104.0,0.00887826457619667
112.0,0.008380557410418987
120.0,0.007881084457039833
128.0,0.0073441932909190655
144.0,0.005745787639170885
160.0,0.0046305241994559765
176.0,0.004165033344179392
192.0,0.00503620645031333
208.0,0.004570343531668186
224.0,0.0036727406550198793
240.0,0.00415872223675251
256.0,0.003406875068321824
288.0,0.0021447360049933195
320.0,0.001404689159244299
352.0,0.0016649366589263082
384.0,0.0018025570316240191
416.0,0.004480631556361914
448.0,0.005025744903832674
480.0,0.005345548503100872
512.0,0.005566209089010954
576.0,0.003565689781680703
640.0,0.0033856325317174196
704.0,0.0008143939776346087
768.0,0.0007504226523451507
832.0,0.0007625733269378543
896.0,0.0008976421086117625
960.0,-0.0001696951949270442
1024.0,0.000254382990533486
1152.0,-0.00028108482365496457
1280.0,0.00010427844244986773
1408.0,-0.0007009862456470728
1536.0,-0.0003250660956837237
1664.0,-0.00024164096976164728
1792.0,0.0002666193468030542
1920.0,-0.0013742366572842002
2048.0,-0.004417491611093283
2304.0,-0.003815136617049575
2560.0,-0.0008718110038898885
2816.0,-0.0011150154750794172
3072.0,0.0012762908590957522
3328.0,0.00014143412408884615
3584.0,0.0030547166243195534
3840.0,0.0005831423914059997
4096.0,0.0001993129262700677
4608.0,-0.0017597796395421028
5120.0,-0.0017799991182982922
5632.0,-0.002362737199291587
6144.0,0.00026592559879645705
6656.0,0.003161420812830329
7168.0,0.0002223028859589249
7680.0,-0.0019181675743311644
8192.0,-0.002415715716779232
end
