version,3.0
numOfCh,1
type,point
parent_name,ff67b_0dot6-1dot0
ch_type,1_1
kcount,1
numberNandB,1
brightnessNandB,1
carpet pos,0
pc,0
Time (ms),CH1 Auto-Correlation
1.0,0.04103093966841698
2.0,0.03867398202419281
3.0,0.03648702800273895
4.0,0.034472495317459106
5.0,0.03265422210097313
6.0,0.03096703439950943
7.0,0.029425764456391335
8.0,0.028007755056023598
9.0,0.026733217760920525
10.0,0.025533467531204224
11.0,0.024457337334752083
12.0,0.023620855063199997
13.0,0.02277958393096924
14.0,0.0219340231269598
15.0,0.02121097780764103
16.0,0.02059687115252018
18.0,0.01945822313427925
20.0,0.018422383815050125
22.0,0.01733335107564926
24.0,0.01634788326919079
26.0,0.015503942035138607
28.0,0.014659807085990906
30.0,0.013927644118666649
32.0,0.013128885999321938
36.0,0.011559292674064636
40.0,0.010248441249132156
44.0,0.009281713515520096
48.0,0.008278300054371357
52.0,0.0073624406941235065
56.0,0.006507968530058861
60.0,0.00542791560292244
64.0,0.004601136781275272
72.0,0.003292052773758769
80.0,0.0022484133951365948
88.0,0.0012960212770849466
96.0,0.0004996556090191007
104.0,-0.00014707080845255405
112.0,0.00017812583246268332
120.0,0.000977656221948564
128.0,0.0013960037613287568
144.0,0.0014392591547220945
160.0,0.0012406143359839916
176.0,0.00030979857547208667
192.0,0.0002028814924415201
208.0,-0.00041771834366954863
224.0,0.0003552913840394467
240.0,0.0010951176518574357
256.0,0.0012158062309026718
288.0,0.0018412754870951176
320.0,-0.0007285886676982045
352.0,-0.000850379467010498
384.0,-0.0008786911494098604
416.0,-0.0011574947275221348
448.0,-0.0020117321982979774
480.0,-0.0018049756763502955
512.0,-0.0009075075504370034
576.0,8.64608446136117e-05
640.0,0.0020773436408489943
704.0,0.0009208301780745387
768.0,0.0008385421242564917
832.0,0.0016820953460410237
896.0,0.0014469916932284832
960.0,-0.000221386639168486
1024.0,-0.0009179413318634033
1152.0,0.0004576013598125428
1280.0,0.0011994463857263327
1408.0,-0.0004421271733008325
1536.0,0.0002881418913602829
1664.0,0.00027212416171096265
1792.0,-0.000453865883173421
1920.0,-0.001285748789086938
2048.0,-0.0006729122833348811
2304.0,-0.00041940752998925745
2560.0,-0.0003607203543651849
2816.0,0.0006403737934306264
3072.0,0.0009369509061798453
3328.0,-0.00047148781595751643
3584.0,-0.00017736903100740165
3840.0,-0.0006589579861611128
4096.0,-0.0014046095311641693
4608.0,-0.0009274343610741198
5120.0,-0.0009950142120942473
5632.0,-0.00029991447809152305
6144.0,-0.0006729279411956668
6656.0,0.0004786458157468587
7168.0,0.0002266936789965257
7680.0,-0.0011842213571071625
8192.0,-0.000251474033575505
end
