version,3.0
numOfCh,1
type,point
parent_name,ff67b_0dot6-1dot0
ch_type,1_1
kcount,1
numberNandB,1
brightnessNandB,1
carpet pos,0
pc,0
Time (ms),CH1 Auto-Correlation
1.0,0.03961765766143799
2.0,0.03725152090191841
3.0,0.0351492315530777
4.0,0.033195964992046356
5.0,0.0314582884311676
6.0,0.029943298548460007
7.0,0.028533685952425003
8.0,0.027170782908797264
9.0,0.025910625234246254
10.0,0.02475571446120739
11.0,0.023730002343654633
12.0,0.02278968133032322
13.0,0.021989259868860245
14.0,0.021187711507081985
15.0,0.02042405493557453
16.0,0.01971861720085144
18.0,0.018461745232343674
20.0,0.017348237335681915
22.0,0.016365446150302887
24.0,0.015513439662754536
26.0,0.01467894483357668
28.0,0.014015644788742065
30.0,0.013452869839966297
32.0,0.01280773151665926
36.0,0.011534234508872032
40.0,0.01045910269021988
44.0,0.009482231922447681
48.0,0.008789981715381145
52.0,0.00854572094976902
56.0,0.008185087703168392
60.0,0.007509214803576469
64.0,0.006967052351683378
72.0,0.006160068791359663
80.0,0.006349063012748957
88.0,0.006336611229926348
96.0,0.00595879415050149
104.0,0.005594123620539904
112.0,0.005699502304196358
120.0,0.006308130454272032
128.0,0.006356921978294849
144.0,0.00695411954075098
160.0,0.005813197698444128
176.0,0.00496692955493927
192.0,0.0034288447350263596
208.0,0.0022919722832739353
224.0,0.0030061271972954273
240.0,0.0029012132436037064
256.0,0.002659297315403819
288.0,0.0025870753452181816
320.0,0.0027910976205021143
352.0,0.0009871743386611342
384.0,2.8911648769280873e-05
416.0,-0.0009482907480560243
448.0,0.0005228497320786119
480.0,-0.0008671166142448783
512.0,-0.0015180348418653011
576.0,0.0003142964269500226
640.0,-0.00014148138870950788
704.0,-0.001031655934639275
768.0,0.00048727114335633814
832.0,-0.0010365507332608104
896.0,-0.0005533254588954151
960.0,-0.0005623743636533618
1024.0,-0.001379254157654941
1152.0,-0.0008871228201314807
1280.0,-0.0016706532333046198
1408.0,-0.0004135878989472985
1536.0,-0.0007609911262989044
1664.0,-0.0006327005685307086
1792.0,0.0008766783284954727
1920.0,0.00010585264681139961
2048.0,-0.001957998378202319
2304.0,-0.0021691133733838797
2560.0,-0.0012547660153359175
2816.0,-0.0011015580967068672
3072.0,-0.0002135076210834086
3328.0,0.002141838427633047
3584.0,0.0005924697616137564
3840.0,-0.0031125310342758894
4096.0,-0.0016142930835485458
4608.0,0.0019855801947414875
5120.0,0.0036161006428301334
5632.0,4.186884325463325e-05
6144.0,-0.001344254589639604
6656.0,-0.003797756740823388
7168.0,-0.0027794523630291224
7680.0,-0.0006187228136695921
8192.0,0.0005400729714892805
end
