version,3.0
numOfCh,1
type,point
parent_name,ff67b_0dot6-1dot0
ch_type,1_1
kcount,1
numberNandB,1
brightnessNandB,1
carpet pos,0
pc,0
Time (ms),CH1 Auto-Correlation
1.0,0.04432283341884613
2.0,0.04187363386154175
3.0,0.039660029113292694
4.0,0.03767738863825798
5.0,0.035933006554841995
6.0,0.03432605415582657
7.0,0.03289421275258064
8.0,0.031629372388124466
9.0,0.030407778918743134
10.0,0.029275696724653244
11.0,0.02824818156659603
12.0,0.027206551283597946
13.0,0.026195447891950607
14.0,0.025289002805948257
15.0,0.024437153711915016
16.0,0.02362767979502678
18.0,0.02231738530099392
20.0,0.02114999108016491
22.0,0.02020234428346157
24.0,0.01934048905968666
26.0,0.0185970701277256
28.0,0.01788964867591858
30.0,0.017234686762094498
32.0,0.016455423086881638
36.0,0.01484758872538805
40.0,0.013547997921705246
44.0,0.01268400065600872
48.0,0.011914141476154327
52.0,0.011171171441674232
56.0,0.010685162618756294
60.0,0.010296018794178963
64.0,0.009740849956870079
72.0,0.009103531017899513
80.0,0.008868478238582611
88.0,0.008397305384278297
96.0,0.007882250472903252
104.0,0.0071909986436367035
112.0,0.006802018731832504
120.0,0.0061708479188382626
128.0,0.005090122576802969
144.0,0.0041165780276060104
160.0,0.0037381493020802736
176.0,0.00419203657656908
192.0,0.0035694828256964684
208.0,0.0034114785958081484
224.0,0.0034110345877707005
240.0,0.003449078882113099
256.0,0.0019410206004977226
288.0,0.0014108162140473723
320.0,0.00011813954188255593
352.0,-0.000591563992202282
384.0,-0.001680145156569779
416.0,-0.00044368996168486774
448.0,0.0025590904988348484
480.0,0.002370608737692237
512.0,0.0018931773956865072
576.0,0.0007099831709638238
640.0,-0.0010211357148364186
704.0,0.0008871788159012794
768.0,-0.0006082791951484978
832.0,-0.0027810786850750446
896.0,-0.004658811260014772
960.0,-0.001804121769964695
1024.0,-0.0017395070753991604
1152.0,-0.0017441429663449526
1280.0,-0.0008507675374858081
1408.0,-0.0017943595303222537
1536.0,0.0004643274296540767
1664.0,0.0029139325488358736
1792.0,0.0013857572339475155
1920.0,-0.000540897948667407
2048.0,0.00027733013848774135
2304.0,-0.0008346259128302336
2560.0,-0.0029003038071095943
2816.0,-0.002640453865751624
3072.0,-0.0008553740917704999
3328.0,0.0008546506287530065
3584.0,0.001514363451860845
3840.0,0.0006078531732782722
4096.0,-0.0016629481688141823
4608.0,0.0007469147676602006
5120.0,-0.0017222369788214564
5632.0,-0.0008603911846876144
6144.0,-0.0019034568686038256
6656.0,0.0012757228687405586
7168.0,0.00107403879519552
7680.0,0.0011572845978662372
8192.0,0.002051545074209571
end
