version,3.0
numOfCh,1
type,point
parent_name,ff67b_0dot6-1dot0
ch_type,1_1
kcount,1
numberNandB,1
brightnessNandB,1
carpet pos,0
pc,0
Time (ms),CH1 Auto-Correlation
1.0,0.04770548269152641
2.0,0.04538823664188385
3.0,0.04320669546723366
4.0,0.04121728241443634
5.0,0.03941193222999573
6.0,0.03771936520934105
7.0,0.036200959235429764
8.0,0.03482560068368912
9.0,0.033534176647663116
10.0,0.032316192984580994
11.0,0.03111807070672512
12.0,0.029911579564213753
13.0,0.028774939477443695
14.0,0.027756525203585625
15.0,0.026755841448903084
16.0,0.025784440338611603
18.0,0.02402646839618683
20.0,0.022712258622050285
22.0,0.021560033783316612
24.0,0.020576929673552513
26.0,0.019728897139430046
28.0,0.019053976982831955
30.0,0.01842120662331581
32.0,0.017759911715984344
36.0,0.01681419275701046
40.0,0.016152068972587585
44.0,0.015347479842603207
48.0,0.014559750445187092
52.0,0.013979736715555191
56.0,0.013441587798297405
60.0,0.012854148633778095
64.0,0.012186072766780853
72.0,0.010919761843979359
80.0,0.009995716623961926
88.0,0.009302418678998947
96.0,0.008545943535864353
104.0,0.007434367667883635
112.0,0.006275329273194075
120.0,0.005101522896438837
128.0,0.004503969568759203
144.0,0.0047277105040848255
160.0,0.005203649867326021
176.0,0.004342726431787014
192.0,0.003350868821144104
208.0,0.002620687708258629
224.0,0.0026265084743499756
240.0,0.002125189872458577
256.0,0.0013145972043275833
288.0,0.000696602975949645
320.0,0.00014566669415216893
352.0,-0.0003146788221783936
384.0,0.000254571670666337
416.0,-0.0003531477996148169
448.0,-0.0013070800341665745
480.0,0.0005040899850428104
512.0,0.0015585495857521892
576.0,0.0011535030789673328
640.0,0.0021820412948727608
704.0,0.0018349289894104004
768.0,0.0006056132260710001
832.0,0.0007937930058687925
896.0,2.3353801225312054e-05
960.0,0.00033123884350061417
1024.0,0.0022686661686748266
1152.0,0.0014971288619562984
1280.0,-0.0001637499954085797
1408.0,-0.0006423662416636944
1536.0,-0.0008887856383807957
1664.0,0.0001904809905681759
1792.0,0.0016567641869187355
1920.0,0.0002448434242978692
2048.0,0.0025239151436835527
2304.0,-8.238848386099562e-05
2560.0,-0.0018684867536649108
2816.0,-0.00037242326652631164
3072.0,-0.0004108005086891353
3328.0,0.0021558734588325024
3584.0,0.0006263592513278127
3840.0,-0.0012335448991507292
4096.0,0.0022365115582942963
4608.0,-0.0041417283937335014
5120.0,-0.0012277675559744239
5632.0,-0.0010285564931109548
6144.0,0.0006669802824035287
6656.0,-0.0030264335218816996
7168.0,-0.0015313455369323492
7680.0,-0.0019634796772152185
8192.0,-0.002429294167086482
end
