version,3.0
numOfCh,1
type,point
parent_name,ff67b_0dot6-1dot0
ch_type,1_1
kcount,1
numberNandB,1
brightnessNandB,1
carpet pos,0
pc,0
Time (ms),CH1 Auto-Correlation
1.0,0.04933186620473862
2.0,0.04693631827831268
3.0,0.04481199011206627
4.0,0.042917702347040176
5.0,0.04121353104710579
6.0,0.039604540914297104
7.0,0.038166217505931854
8.0,0.03679388016462326
9.0,0.035475436598062515
10.0,0.03424336016178131
11.0,0.033157676458358765
12.0,0.03205033019185066
13.0,0.031011370941996574
14.0,0.02999803237617016
15.0,0.029138367623090744
16.0,0.028334198519587517
18.0,0.02690059132874012
20.0,0.025696108117699623
22.0,0.02452499233186245
24.0,0.02332584373652935
26.0,0.02231280691921711
28.0,0.02138659730553627
30.0,0.020511841401457787
32.0,0.01976897567510605
36.0,0.018561219796538353
40.0,0.017563095316290855
44.0,0.016481997445225716
48.0,0.01526232436299324
52.0,0.01414593867957592
56.0,0.012940590269863605
60.0,0.011895393021404743
64.0,0.011074015870690346
72.0,0.009408965706825256
80.0,0.007950128056108952
88.0,0.006783511023968458
96.0,0.006358915474265814
104.0,0.0057651931419968605
112.0,0.005433826241642237
120.0,0.005564405117183924
128.0,0.005861547309905291
144.0,0.005311035085469484
160.0,0.003734798403456807
176.0,0.001231991103850305
192.0,0.001172092743217945
208.0,0.002157259965315461
224.0,0.003886890597641468
240.0,0.005812099203467369
256.0,0.006525856908410788
288.0,0.006460355594754219
320.0,0.005705175455659628
352.0,0.004111395217478275
384.0,0.005775883793830872
416.0,0.005186567548662424
448.0,0.0048986924812197685
480.0,0.003425824688747525
512.0,0.0022878849413245916
576.0,0.0007918368792161345
640.0,-7.359431037912145e-06
704.0,0.000816394982393831
768.0,0.0017559697153046727
832.0,0.0005831767339259386
896.0,0.0010188673622906208
960.0,-0.001529539586044848
1024.0,-0.0015292797470465302
1152.0,-0.0018340559909120202
1280.0,0.001374948536977172
1408.0,0.00035352518898434937
1536.0,0.0015524756163358688
1664.0,0.0007373786065727472
1792.0,0.00025486040976829827
1920.0,0.0014284178614616394
2048.0,0.00141490763053298
2304.0,0.0015069592045620084
2560.0,-0.0002532027428969741
2816.0,-0.0006106693763285875
3072.0,-0.00016420190513599664
3328.0,0.0011428642319515347
3584.0,0.0015101616736501455
3840.0,-0.0001699655840639025
4096.0,-0.00046055519487708807
4608.0,-0.00019336843979544938
5120.0,-0.0020757345482707024
5632.0,0.0006582015776075423
6144.0,8.967098983703181e-05
6656.0,-0.0034472187981009483
7168.0,-0.0006564397481270134
7680.0,0.002767399186268449
8192.0,0.001973547739908099
end
