version,3.0
numOfCh,1
type,point
parent_name,ff67b_0dot6-1dot0
ch_type,1_1
kcount,1
numberNandB,1
brightnessNandB,1
carpet pos,0
pc,0
Time (ms),CH1 Auto-Correlation
1.0,0.04083092510700226
2.0,0.03837550804018974
3.0,0.03615956008434296
4.0,0.034171756356954575
5.0,0.032416585832834244
6.0,0.030806975439190865
7.0,0.02943631075322628
8.0,0.028161203488707542
9.0,0.026955679059028625
10.0,0.02578267641365528
11.0,0.0247141495347023
12.0,0.023680292069911957
13.0,0.02261114865541458
14.0,0.02161596529185772
15.0,0.020714547485113144
16.0,0.01988106034696102
18.0,0.018341705203056335
20.0,0.01706499420106411
22.0,0.016058577224612236
24.0,0.015231621451675892
26.0,0.014471380971372128
28.0,0.013869536109268665
30.0,0.013337933458387852
32.0,0.012902961112558842
36.0,0.012279476970434189
40.0,0.011556414887309074
44.0,0.010682529769837856
48.0,0.009708062745630741
52.0,0.009254385717213154
56.0,0.008874393068253994
60.0,0.008387388661503792
64.0,0.0079745352268219
72.0,0.00715788546949625
80.0,0.006246088072657585
88.0,0.005421995185315609
96.0,0.004966420121490955
104.0,0.004442480392754078
112.0,0.0038077037315815687
120.0,0.003100144909694791
128.0,0.0022207628935575485
144.0,0.0004057001497130841
160.0,0.0008753453730605543
176.0,0.0034584617242217064
192.0,0.0030869157053530216
208.0,0.0018894437234848738
224.0,0.0011088564060628414
240.0,0.0002372093586018309
256.0,0.0012542207259684801
288.0,0.0015642560319975019
320.0,0.0006604372174479067
352.0,0.0013005969813093543
384.0,0.0015637805918231606
416.0,0.0019429097883403301
448.0,0.001645795302465558
480.0,0.0006461336161009967
512.0,-0.001102522830478847
576.0,-0.002225713338702917
640.0,-0.0031478183809667826
704.0,-0.0005220517050474882
768.0,0.001195340882986784
832.0,0.0015257534105330706
896.0,0.0018509643850848079
960.0,-0.0003972422273363918
1024.0,-0.0018225997919216752
1152.0,0.00017916619253810495
1280.0,0.0015690233558416367
1408.0,0.0011047427542507648
1536.0,-0.0006223759846761823
1664.0,0.0011557562975212932
1792.0,0.001344014541245997
1920.0,0.0007173276972025633
2048.0,-0.001647289376705885
2304.0,0.0013890867121517658
2560.0,-0.0012101309839636087
2816.0,-0.002699545118957758
3072.0,0.0017690964741632342
3328.0,0.000255895167356357
3584.0,-0.002169139916077256
3840.0,-0.0019685421139001846
4096.0,-0.0014815586619079113
4608.0,0.0007133102626539767
5120.0,0.0002037956437561661
5632.0,0.0010862598428502679
6144.0,0.00045582602615468204
6656.0,-0.0011365226237103343
7168.0,-0.0020605341996997595
7680.0,-0.00018083916802424937
8192.0,-0.003367120400071144
end
