version,3.0
numOfCh,1
type,point
parent_name,ff67b_0dot6-1dot0
ch_type,1_1
kcount,1
numberNandB,1
brightnessNandB,1
carpet pos,0
pc,0
Time (ms),CH1 Auto-Correlation
1.0,0.04262373596429825
2.0,0.04028654098510742
3.0,0.03817394748330116
4.0,0.036303531378507614
5.0,0.0346040353178978
6.0,0.03302739933133125
7.0,0.03158408775925636
8.0,0.030234690755605698
9.0,0.028968119993805885
10.0,0.027815159410238266
11.0,0.026845552027225494
12.0,0.025996847078204155
13.0,0.025234997272491455
14.0,0.02449992299079895
15.0,0.02374362386763096
16.0,0.023062916472554207
18.0,0.02168780378997326
20.0,0.020393209531903267
22.0,0.019261140376329422
24.0,0.01823265664279461
26.0,0.017228567972779274
28.0,0.01643507182598114
30.0,0.01574169658124447
32.0,0.014992427080869675
36.0,0.013550612144172192
40.0,0.012106607668101788
44.0,0.011125476099550724
48.0,0.010504184290766716
52.0,0.009821275249123573
56.0,0.009067744947969913
60.0,0.008314639329910278
64.0,0.007615198381245136
72.0,0.007200709078460932
80.0,0.0066446904093027115
88.0,0.005685360636562109
96.0,0.0050532096065580845
104.0,0.00443302234634757
112.0,0.004197780974209309
120.0,0.0044494024477899075
128.0,0.0041840216144919395
144.0,0.004359997808933258
160.0,0.003654015948995948
176.0,0.0026695067062973976
192.0,0.0018502278253436089
208.0,0.0013678903924301267
224.0,0.0009817949030548334
240.0,0.00113206566311419
256.0,0.0009755155188031495
288.0,0.0017050611786544323
320.0,0.0027587292715907097
352.0,0.001292909262701869
384.0,-0.0009875911055132747
416.0,-0.002731782617047429
448.0,-0.0021064358297735453
480.0,-0.0012372320052236319
512.0,-0.0018121391767635942
576.0,0.001361600705422461
640.0,-9.691878949524835e-05
704.0,-0.0028541074134409428
768.0,-0.003546128747984767
832.0,-0.0035750623792409897
896.0,-0.0027332715690135956
960.0,-0.0028011531103402376
1024.0,-0.0012291374150663614
1152.0,-0.00027789719752036035
1280.0,-0.0016307958867400885
1408.0,-0.000980804325081408
1536.0,0.0014709171373397112
1664.0,0.002056604716926813
1792.0,0.0008300637127831578
1920.0,-0.000599852588493377
2048.0,-0.001168031943961978
2304.0,-0.0001495456090196967
2560.0,-0.0004963065148331225
2816.0,-0.0019004394998773932
3072.0,-0.0016130054136738181
3328.0,0.001269942382350564
3584.0,-0.00034144235542044044
3840.0,0.0023653057869523764
4096.0,0.0011812003795057535
4608.0,0.0001376085274387151
5120.0,0.0018649246776476502
5632.0,0.0006577502354048193
6144.0,-0.0010836562141776085
6656.0,-0.0012704918626695871
7168.0,-0.0024220594204962254
7680.0,0.0002454329514876008
8192.0,0.0005442493129521608
end
