version,3.0
numOfCh,1
type,point
parent_name,ff67b_0dot6-1dot0
ch_type,1_1
kcount,1
numberNandB,1
brightnessNandB,1
carpet pos,0
pc,0
Time (ms),CH1 Auto-Correlation
1.0,0.04374420642852783
2.0,0.04149053618311882
3.0,0.03942221403121948
4.0,0.03755512088537216
5.0,0.035826072096824646
6.0,0.034254126250743866
7.0,0.032801155000925064
8.0,0.031499721109867096
9.0,0.030317476019263268
10.0,0.02925208956003189
11.0,0.028262296691536903
12.0,0.027343494817614555
13.0,0.02652359940111637
14.0,0.025722038000822067
15.0,0.025012126192450523
16.0,0.024302776902914047
18.0,0.023029807955026627
20.0,0.021912310272455215
22.0,0.021021205931901932
24.0,0.02023150958120823
26.0,0.01950039342045784
28.0,0.018783222883939743
30.0,0.017981138080358505
32.0,0.017171585932374
36.0,0.015939103439450264
40.0,0.015202914364635944
44.0,0.014360342174768448
48.0,0.013581054285168648
52.0,0.013000299222767353
56.0,0.012538759037852287
60.0,0.012086151167750359
64.0,0.011520524509251118
72.0,0.010638998821377754
80.0,0.009893610142171383
88.0,0.009608117863535881
96.0,0.009502909146249294
104.0,0.008881164714694023
112.0,0.008294220082461834
120.0,0.0076043251901865005
128.0,0.0068910750560462475
144.0,0.005582095589488745
160.0,0.0051078349351882935
176.0,0.004542464856058359
192.0,0.0034267762675881386
208.0,0.0021881693974137306
224.0,0.0018463237211108208
240.0,0.0012241620570421219
256.0,0.0005601425073109567
288.0,0.0004827191005460918
320.0,0.00025323303998447955
352.0,0.0016472628340125084
384.0,0.0002607503265608102
416.0,-0.0003696490020956844
448.0,-0.001964421709999442
480.0,-0.001489931484684348
512.0,-0.0008921824628487229
576.0,-0.002283408772200346
640.0,-0.001990457298234105
704.0,0.000646385655272752
768.0,0.0006908999639563262
832.0,0.0008857981883920729
896.0,0.0018549398519098759
960.0,0.0010876829037442803
1024.0,0.0022792944218963385
1152.0,-0.000486798002384603
1280.0,-0.0018500778824090958
1408.0,-0.0005141551373526454
1536.0,-0.0018969541415572166
1664.0,-0.00020242335449438542
1792.0,0.0012567214434966445
1920.0,0.0004276388499420136
2048.0,-0.0008373840828426182
2304.0,-0.004379968158900738
2560.0,0.00016501022037118673
2816.0,0.003289110492914915
3072.0,0.0011530691990628839
3328.0,-0.002698394702747464
3584.0,0.0010811989195644855
3840.0,0.006188406143337488
4096.0,0.00020974430663045496
4608.0,-0.0005059902905486524
5120.0,0.0023052431643009186
5632.0,0.0009839747799560428
6144.0,-0.0025647201109677553
6656.0,-0.001379751251079142
7168.0,-0.0020688900258392096
7680.0,0.0009910155786201358
8192.0,6.269465666264296e-05
end
