version,3.0
numOfCh,1
type,point
parent_name,ff67b_0dot6-1dot0
ch_type,1_1
kcount,1
numberNandB,1
brightnessNandB,1
carpet pos,0
pc,0
Time (ms),CH1 Auto-Correlation
1.0,0.044959813356399536
2.0,0.04260874539613724
3.0,0.040459245443344116
4.0,0.038517020642757416
5.0,0.036777228116989136
6.0,0.03518632426857948
7.0,0.033641230314970016
8.0,0.032210368663072586
9.0,0.030850762501358986
10.0,0.02960842475295067
11.0,0.028411975130438805
12.0,0.027204548940062523
13.0,0.026107795536518097
14.0,0.025093242526054382
15.0,0.024135030806064606
16.0,0.023234542459249496
18.0,0.02164442650973797
20.0,0.02019193395972252
22.0,0.019122648984193802
24.0,0.0181102454662323
26.0,0.017195263877511024
28.0,0.016511065885424614
30.0,0.01592503860592842
32.0,0.01534473616629839
36.0,0.013903656043112278
40.0,0.012573526240885258
44.0,0.011399836279451847
48.0,0.01014114823192358
52.0,0.008961194194853306
56.0,0.007874837145209312
60.0,0.006848300341516733
64.0,0.006030240096151829
72.0,0.005443444941192865
80.0,0.005044883117079735
88.0,0.004482396878302097
96.0,0.0037775083910673857
104.0,0.0036876758094877005
112.0,0.004188974387943745
120.0,0.005028951913118362
128.0,0.0058564599603414536
144.0,0.006030079443007708
160.0,0.005928039085119963
176.0,0.004591408185660839
192.0,0.0033806588035076857
208.0,0.0034202290698885918
224.0,0.0041302102617919445
240.0,0.004498883616179228
256.0,0.004683673847466707
288.0,0.0020322571508586407
320.0,0.00050264538731426
352.0,0.003058065427467227
384.0,0.005313195288181305
416.0,0.005990484729409218
448.0,0.0034129612613469362
480.0,0.0029612837824970484
512.0,0.003165383357554674
576.0,0.002317991340532899
640.0,0.0001328606012975797
704.0,0.00014535382797475904
768.0,0.0013349215732887387
832.0,-0.0003814832307398319
896.0,-0.0004938672645948827
960.0,0.0008519532857462764
1024.0,0.001847226289100945
1152.0,-0.0012706649722531438
1280.0,-0.0008293348946608603
1408.0,0.00042921517160721123
1536.0,0.00023530388716608286
1664.0,-0.0025991140864789486
1792.0,-0.0026240732986479998
1920.0,-0.0021617389284074306
2048.0,-0.0009263971005566418
2304.0,-0.0020881718955934048
2560.0,-0.0004294958198443055
2816.0,-0.00269836513325572
3072.0,-0.0016367457574233413
3328.0,-0.00127620087005198
3584.0,-7.216451922431588e-05
3840.0,-0.0008739497279748321
4096.0,-0.0014214793918654323
4608.0,-0.0012461378937587142
5120.0,-9.216038961312734e-06
5632.0,0.001211104216054082
6144.0,0.0002168311330024153
6656.0,-0.0005566191393882036
7168.0,0.0007103309617377818
7680.0,0.0016513674054294825
8192.0,0.0015537440776824951
end
