version,3.0
numOfCh,1
type,point
parent_name,ff67b_0dot6-1dot0
ch_type,1_1
kcount,1
numberNandB,1
brightnessNandB,1
carpet pos,0
pc,0
Time (ms),CH1 Auto-Correlation
1.0,0.042260024696588516
2.0,0.040098339319229126
3.0,0.03819473087787628
4.0,0.03644532337784767
5.0,0.03483882546424866
6.0,0.03335156291723251
7.0,0.03199497237801552
8.0,0.030735423788428307
9.0,0.02960098348557949
10.0,0.028534768149256706
11.0,0.027614017948508263
12.0,0.02674442157149315
13.0,0.025930462405085564
14.0,0.025087643414735794
15.0,0.024282751604914665
16.0,0.023475177586078644
18.0,0.0219899769872427
20.0,0.020693210884928703
22.0,0.019605837762355804
24.0,0.018620073795318604
26.0,0.01780766248703003
28.0,0.01699826493859291
30.0,0.016371451318264008
32.0,0.01572304591536522
36.0,0.014594939537346363
40.0,0.013663601130247116
44.0,0.012838739901781082
48.0,0.011815777979791164
52.0,0.010990910232067108
56.0,0.010316742584109306
60.0,0.009763892740011215
64.0,0.009390649385750294
72.0,0.008854466490447521
80.0,0.00814567320048809
88.0,0.007258446421474218
96.0,0.006700847297906876
104.0,0.006088694091886282
112.0,0.005319306626915932
120.0,0.004458688665181398
128.0,0.0038831664714962244
144.0,0.0036292599979788065
160.0,0.0038423670921474695
176.0,0.0032699659932404757
192.0,0.002553501632064581
208.0,0.0020455524791032076
224.0,0.0025292118079960346
240.0,0.0017908058362081647
256.0,0.0006377493846230209
288.0,-0.0005645664059557021
320.0,2.1377112716436386e-05
352.0,-0.0004899749765172601
384.0,-0.0005990415811538696
416.0,-0.0007711560465395451
448.0,-0.0013209247263148427
480.0,-0.0006673369207419455
512.0,-0.001511204638518393
576.0,-0.0023143510334193707
640.0,-0.0027157370932400227
704.0,-0.0014598736306652427
768.0,-0.0010452632559463382
832.0,-0.002043036511167884
896.0,-0.00038966734427958727
960.0,-0.0005425252602435648
1024.0,-0.0011798988562077284
1152.0,-0.0003420508000999689
1280.0,-0.000247010902967304
1408.0,-0.0001719985593808815
1536.0,-0.0016969232819974422
1664.0,-0.002253240440040827
1792.0,0.0008380241924896836
1920.0,0.00294004799798131
2048.0,0.001567668979987502
2304.0,0.0011890724999830127
2560.0,-0.0010013881837949157
2816.0,-0.003298961790278554
3072.0,-0.0015107750659808517
3328.0,-0.0004436770104803145
3584.0,0.00017075864889193326
3840.0,0.0010088133858516812
4096.0,0.0036630318500101566
4608.0,-0.0016432536067441106
5120.0,0.0011064620921388268
5632.0,0.00036313783493824303
6144.0,-0.0006533726118505001
6656.0,-0.0029063511174172163
7168.0,-0.002410632325336337
7680.0,0.0023781496565788984
8192.0,0.00020500493701547384
end
