version,3.0
numOfCh,1
type,point
parent_name,ff67b_0dot6-1dot0
ch_type,1_1
kcount,1
numberNandB,1
brightnessNandB,1
carpet pos,0
pc,0
Time (ms),CH1 Auto-Correlation
1.0,0.042260099202394485
2.0,0.03993604704737663
3.0,0.037832602858543396
4.0,0.03592101112008095
5.0,0.03421011194586754
6.0,0.03264572471380234
7.0,0.031207585707306862
8.0,0.029814338311553
9.0,0.0284896157681942
10.0,0.0272234920412302
11.0,0.02603990025818348
12.0,0.02495185099542141
13.0,0.02399563044309616
14.0,0.023092705756425858
15.0,0.02223227545619011
16.0,0.021438458934426308
18.0,0.019928794354200363
20.0,0.018545087426900864
22.0,0.017234914004802704
24.0,0.016175827011466026
26.0,0.015295418910682201
28.0,0.014434677548706532
30.0,0.013658961281180382
32.0,0.013010619208216667
36.0,0.011415713466703892
40.0,0.009763281792402267
44.0,0.008450787514448166
48.0,0.007442439906299114
52.0,0.006738270167261362
56.0,0.006202089134603739
60.0,0.0060106259770691395
64.0,0.005925368517637253
72.0,0.005564364138990641
80.0,0.004993475042283535
88.0,0.004688202869147062
96.0,0.005024682264775038
104.0,0.005691612605005503
112.0,0.0058547863736748695
120.0,0.0052553811110556126
128.0,0.004286288283765316
144.0,0.0016351006925106049
160.0,0.00011179650027770549
176.0,-0.0007736894185654819
192.0,-0.0007201817934401333
208.0,-0.0008745340746827424
224.0,-0.0008965372107923031
240.0,-0.00042577958083711565
256.0,-0.00032795302104204893
288.0,-0.0005590424407273531
320.0,-0.001184325898066163
352.0,0.0003635317552834749
384.0,0.00012399940169416368
416.0,0.0003656240878626704
448.0,-0.00045641197357326746
480.0,0.0005003054975531995
512.0,-0.00024044989550020546
576.0,-0.00045677743037231266
640.0,-0.00042440209654159844
704.0,-0.0014198831049725413
768.0,-0.0022063262294977903
832.0,-0.0011092013446614146
896.0,-0.00020298668823670596
960.0,-3.114936043857597e-05
1024.0,0.0009050210937857628
1152.0,0.0032209584023803473
1280.0,0.0014288566308096051
1408.0,-0.0018174066208302975
1536.0,0.0009692320600152016
1664.0,0.002507976023480296
1792.0,0.0031184654217213392
1920.0,0.000759049435146153
2048.0,-0.0006374048534780741
2304.0,0.0005985808675177395
2560.0,-0.0006957140285521746
2816.0,0.0017547609750181437
3072.0,-0.0007739406428299844
3328.0,-0.0005550857167690992
3584.0,-0.000598548911511898
3840.0,-0.0008525249431841075
4096.0,-4.2019892134703696e-05
4608.0,-0.0016571029555052519
5120.0,0.0006594826118089259
5632.0,-0.0012528994120657444
6144.0,-0.0015705483965575695
6656.0,-0.0015668529085814953
7168.0,0.0001978319342015311
7680.0,-0.0015113585395738482
8192.0,0.00021195037697907537
end
