version,3.0
numOfCh,1
type,point
parent_name,ff67b_0dot6-1dot0
ch_type,1_1
kcount,1
numberNandB,1
brightnessNandB,1
carpet pos,0
pc,0
Time (ms),CH1 Auto-Correlation
1.0,0.04927171394228935
2.0,0.04679378494620323
3.0,0.04463053122162819
4.0,0.042689189314842224
5.0,0.04093190282583237
6.0,0.0393146350979805
7.0,0.037858184427022934
8.0,0.03666946291923523
9.0,0.03547635301947594
10.0,0.034351788461208344
11.0,0.03322385251522064
12.0,0.032167885452508926
13.0,0.03119264729321003
14.0,0.03030872903764248
15.0,0.02948634885251522
16.0,0.02868010848760605
18.0,0.02724875509738922
20.0,0.025843903422355652
22.0,0.024514025077223778
24.0,0.02334843948483467
26.0,0.02230077050626278
28.0,0.021388523280620575
30.0,0.02059822902083397
32.0,0.01987830549478531
36.0,0.01871352456510067
40.0,0.017758382484316826
44.0,0.016729477792978287
48.0,0.01535289641469717
52.0,0.014455782249569893
56.0,0.014087865129113197
60.0,0.013300465419888496
64.0,0.012683101929724216
72.0,0.011640430428087711
80.0,0.010975721292197704
88.0,0.01049391832202673
96.0,0.010356937535107136
104.0,0.010030942969024181
112.0,0.009344609454274178
120.0,0.008692718110978603
128.0,0.007855434902012348
144.0,0.006378361023962498
160.0,0.006143326871097088
176.0,0.006282259244471788
192.0,0.004716705530881882
208.0,0.002875380218029022
224.0,0.003411978017538786
240.0,0.003816663520410657
256.0,0.0027102548629045486
288.0,0.0025597731582820415
320.0,0.0024630797561258078
352.0,0.003349516773596406
384.0,0.0021117113064974546
416.0,0.0019611394964158535
448.0,0.0011136340908706188
480.0,0.0014738121535629034
512.0,0.0021335764322429895
576.0,-0.0007956345216371119
640.0,-0.0005616513662971556
704.0,-0.0003266992571298033
768.0,0.001422883360646665
832.0,0.000492645485792309
896.0,-0.001510786241851747
960.0,-0.004227775614708662
1024.0,-0.0047491672448813915
1152.0,-0.003108478616923094
1280.0,-0.004774255212396383
1408.0,-0.005117990542203188
1536.0,-0.004198819864541292
1664.0,0.000588544353377074
1792.0,5.386631528381258e-05
1920.0,0.0011417760979384184
2048.0,-0.0011974455555900931
2304.0,-0.00048316511674784124
2560.0,0.003271068911999464
2816.0,0.004542340058833361
3072.0,0.0012166311498731375
3328.0,0.003366706660017371
3584.0,0.003360617905855179
3840.0,-0.0020203732419759035
4096.0,-0.003293284447863698
4608.0,-0.0013789006043225527
5120.0,-0.0023206693585962057
5632.0,0.0020960380788892508
6144.0,-0.00023992432397790253
6656.0,-0.00329571426846087
7168.0,-0.0008297234307974577
7680.0,-0.001138015533797443
8192.0,-0.0009184931986965239
end
