version,3.0
numOfCh,1
type,point
parent_name,ff67b_0dot6-1dot0
ch_type,1_1
kcount,1
numberNandB,1
brightnessNandB,1
carpet pos,0
pc,0
Time (ms),CH1 Auto-Correlation
1.0,0.047484878450632095
2.0,0.045156463980674744
3.0,0.043052833527326584
4.0,0.04113410785794258
5.0,0.03933053836226463
6.0,0.037657491862773895
7.0,0.036119475960731506
8.0,0.03466162458062172
9.0,0.03326565399765968
10.0,0.0320248045027256
11.0,0.030919482931494713
12.0,0.02989795431494713
13.0,0.02886383980512619
14.0,0.027871152386069298
15.0,0.02697155438363552
16.0,0.02608751878142357
18.0,0.024514466524124146
20.0,0.023164888843894005
22.0,0.022069986909627914
24.0,0.02107670158147812
26.0,0.020350860431790352
28.0,0.01973479613661766
30.0,0.019086528569459915
32.0,0.01840580441057682
36.0,0.016833072528243065
40.0,0.015147012658417225
44.0,0.014081057161092758
48.0,0.013360737822949886
52.0,0.012919542379677296
56.0,0.012526210397481918
60.0,0.012068833224475384
64.0,0.011829869821667671
72.0,0.010785197839140892
80.0,0.009727774187922478
88.0,0.00886570941656828
96.0,0.008335720747709274
104.0,0.007620754651725292
112.0,0.006816112902015448
120.0,0.005708224140107632
128.0,0.004283030051738024
144.0,0.0021725939586758614
160.0,0.0014696490252390504
176.0,0.0012749404413625598
192.0,0.0015659487107768655
208.0,0.0023167419712990522
224.0,0.001940644928254187
240.0,0.0017347633838653564
256.0,0.0026546961162239313
288.0,0.002574912505224347
320.0,0.001013232977129519
352.0,0.0014420364750549197
384.0,0.0015056428965181112
416.0,0.0011500042164698243
448.0,-0.0005444994894787669
480.0,-0.0014045594725757837
512.0,-0.0017890906892716885
576.0,-0.0018490687943995
640.0,-0.0022357564885169268
704.0,-0.004041478969156742
768.0,-0.0036490242928266525
832.0,-0.0019335398683324456
896.0,0.0005572590744122863
960.0,0.0004667665343731642
1024.0,-0.00022758141858503222
1152.0,5.64466135983821e-05
1280.0,-0.0005614125984720886
1408.0,0.0001350179227301851
1536.0,-0.0010475055314600468
1664.0,-0.0026657425332814455
1792.0,0.0012324543204158545
1920.0,0.002282497240230441
2048.0,-0.001563543570227921
2304.0,-0.0008821656228974462
2560.0,0.002383373212069273
2816.0,0.0017341070342808962
3072.0,7.89606710895896e-05
3328.0,-0.0030812621116638184
3584.0,-0.002259591594338417
3840.0,-0.0016944539966061711
4096.0,-0.0005786799592897296
4608.0,0.0007148589356802404
5120.0,0.001591386622749269
5632.0,0.0012937638675794005
6144.0,-0.0004259746929164976
6656.0,-0.0040971371345222
7168.0,-0.002138429554179311
7680.0,0.004061986226588488
8192.0,0.0010891492711380124
end
