version,3.0
numOfCh,1
type,point
parent_name,ff67b_0dot6-1dot0
ch_type,1_1
kcount,1
numberNandB,1
brightnessNandB,1
carpet pos,0
pc,0
Time (ms),CH1 Auto-Correlation
1.0,0.044290293008089066
2.0,0.04192718490958214
3.0,0.03983421251177788
4.0,0.03795033320784569
5.0,0.03624560683965683
6.0,0.03470001369714737
7.0,0.03325223550200462
8.0,0.03192469850182533
9.0,0.030625566840171814
10.0,0.029457438737154007
11.0,0.02838936075568199
12.0,0.027401583269238472
13.0,0.026398243382573128
14.0,0.025451747700572014
15.0,0.024568339809775352
16.0,0.023709271103143692
18.0,0.02225232496857643
20.0,0.020947493612766266
22.0,0.019874945282936096
24.0,0.018932191655039787
26.0,0.018060768023133278
28.0,0.01717742346227169
30.0,0.016277113929390907
32.0,0.015454753302037716
36.0,0.014073815196752548
40.0,0.01278091873973608
44.0,0.011717705987393856
48.0,0.010838375426828861
52.0,0.009879563003778458
56.0,0.00902705267071724
60.0,0.008396808058023453
64.0,0.007742695044726133
72.0,0.00701174046844244
80.0,0.006573373451828957
88.0,0.006265939678996801
96.0,0.006139849778264761
104.0,0.006173116620630026
112.0,0.0062157390639185905
120.0,0.005947801284492016
128.0,0.0050730835646390915
144.0,0.00288792815990746
160.0,0.0016821647295728326
176.0,0.0004263728333171457
192.0,-0.0010396454017609358
208.0,-0.0010463363723829389
224.0,-0.0008109494228847325
240.0,-0.001275984337553382
256.0,-0.002015960169956088
288.0,-0.001969538629055023
320.0,-0.0005207220674492419
352.0,0.0016659608809277415
384.0,0.0015595543663948774
416.0,0.0014240514719858766
448.0,0.0027003090362995863
480.0,0.0025337832048535347
512.0,0.0015930053777992725
576.0,0.00042008733726106584
640.0,-0.00022560192155651748
704.0,0.001487272442318499
768.0,0.0007323847385123372
832.0,0.0023208744823932648
896.0,0.00035487941931933165
960.0,0.0022810259833931923
1024.0,-0.0014248461229726672
1152.0,-0.0005431058234535158
1280.0,-0.0025726803578436375
1408.0,-0.0041320775635540485
1536.0,-0.00046809378545731306
1664.0,0.0001422378554707393
1792.0,-0.0024830030743032694
1920.0,-0.001566023682244122
2048.0,-0.0006206372636370361
2304.0,-0.0020895618945360184
2560.0,8.269282261608168e-06
2816.0,-3.736548751476221e-05
3072.0,0.0003827813779935241
3328.0,-0.001320165698416531
3584.0,0.00030412792693823576
3840.0,-0.0014085184084251523
4096.0,-1.1928193998755887e-05
4608.0,0.0005851937457919121
5120.0,-0.0023141996935009956
5632.0,-0.0005212038522586226
6144.0,0.00034578004851937294
6656.0,-0.001278023119084537
7168.0,0.0004212358908262104
7680.0,0.0024016760289669037
8192.0,0.002546078758314252
end
