version,3.0
numOfCh,1
type,point
parent_name,ff67b_0dot6-1dot0
ch_type,1_1
kcount,1
numberNandB,1
brightnessNandB,1
carpet pos,0
pc,0
Time (ms),CH1 Auto-Correlation
1.0,0.04681533947587013
2.0,0.04445211961865425
3.0,0.04242677986621857
4.0,0.04058738425374031
5.0,0.038887836039066315
6.0,0.03739490360021591
7.0,0.03599732741713524
8.0,0.03464972600340843
9.0,0.03343720734119415
10.0,0.03232390433549881
11.0,0.03130398318171501
12.0,0.03031429462134838
13.0,0.02933350019156933
14.0,0.028443394228816032
15.0,0.027574578300118446
16.0,0.02681698650121689
18.0,0.025322522968053818
20.0,0.024153757840394974
22.0,0.02308998815715313
24.0,0.02216404862701893
26.0,0.02125014364719391
28.0,0.02045484259724617
30.0,0.019832449033856392
32.0,0.01916888728737831
36.0,0.018018992617726326
40.0,0.016683779656887054
44.0,0.015518088825047016
48.0,0.014341611415147781
52.0,0.013418667949736118
56.0,0.012755809351801872
60.0,0.012187053449451923
64.0,0.011643130332231522
72.0,0.010342181660234928
80.0,0.00911316741257906
88.0,0.00801745057106018
96.0,0.007181321270763874
104.0,0.0062175109051167965
112.0,0.005725963972508907
120.0,0.0048136115074157715
128.0,0.004152634646743536
144.0,0.002056390978395939
160.0,0.0010532469023019075
176.0,0.0003285376005806029
192.0,0.00027327192947268486
208.0,0.000627693603746593
224.0,0.0004797544388566166
240.0,0.00014910049503669143
256.0,-0.0005156167899258435
288.0,-0.0013493006117641926
320.0,0.0002970710920635611
352.0,0.0005441567045636475
384.0,0.0004182822594884783
416.0,-0.000106432220491115
448.0,-4.977467324351892e-05
480.0,-0.00035094385384581983
512.0,-0.0014344245428219438
576.0,-0.0011763317743316293
640.0,0.0020082909613847733
704.0,0.0026592027861624956
768.0,0.0015719312941655517
832.0,0.002372603164985776
896.0,0.0018745358102023602
960.0,-0.00036632080445997417
1024.0,0.00019416853319853544
1152.0,-0.0011610448127612472
1280.0,-0.002226565033197403
1408.0,-0.002992769703269005
1536.0,-0.002037660451605916
1664.0,1.4673311852675397e-05
1792.0,-0.00040878966683521867
1920.0,-0.002508375095203519
2048.0,-0.0013827055227011442
2304.0,-0.0024165972135961056
2560.0,0.0009165475494228303
2816.0,0.00027930052601732314
3072.0,0.0018056572880595922
3328.0,0.00366515526548028
3584.0,0.0026808970142155886
3840.0,0.00010460759949637577
4096.0,-0.0012185083469375968
4608.0,0.00044110731687396765
5120.0,-0.0015240366337820888
5632.0,-0.0023082962725311518
6144.0,2.136116108886199e-06
6656.0,0.0002823399263434112
7168.0,-0.0006140298210084438
7680.0,0.0025169875007122755
8192.0,-0.00023866606352385134
end
