version,3.0
numOfCh,1
type,point
parent_name,80-cuts
ch_type,1_1
kcount,1
numberNandB,1
brightnessNandB,1
carpet pos,0
pc,0
Time (ms),CH1 Auto-Correlation
1.0,0.022216293960809708
2.0,0.021677980199456215
3.0,0.02116543985903263
4.0,0.020666079595685005
5.0,0.020182140171527863
6.0,0.019713282585144043
7.0,0.01926376298069954
8.0,0.018829477950930595
9.0,0.018403522670269012
10.0,0.017982682213187218
11.0,0.017576638609170914
12.0,0.017180198803544044
13.0,0.016804156824946404
14.0,0.016445403918623924
15.0,0.01610342040657997
16.0,0.01577802561223507
18.0,0.015128330327570438
20.0,0.014535678550601006
22.0,0.013986446894705296
24.0,0.013475529849529266
26.0,0.01299448311328888
28.0,0.012544963508844376
30.0,0.01214600633829832
32.0,0.011789125390350819
36.0,0.011169353500008583
40.0,0.010588186793029308
44.0,0.010068879462778568
48.0,0.009525486268103123
52.0,0.008995461277663708
56.0,0.008445803076028824
60.0,0.00801018625497818
64.0,0.007630674168467522
72.0,0.0069654458202421665
80.0,0.006092113442718983
88.0,0.0051366426050662994
96.0,0.004453381989151239
104.0,0.003732401179149747
112.0,0.003196243429556489
120.0,0.002905226545408368
128.0,0.0027451885398477316
144.0,0.0025054337456822395
160.0,0.0024485334288328886
176.0,0.002626067027449608
192.0,0.0025835419073700905
208.0,0.002356902929022908
224.0,0.002325324574485421
240.0,0.0021321848034858704
256.0,0.0016305397730320692
288.0,0.0006757438532076776
320.0,7.161087705753744e-05
352.0,-0.00016468677495140582
384.0,-8.69737868924858e-06
416.0,2.5754012312972918e-05
448.0,0.00021594864665530622
480.0,0.0011633927933871746
512.0,0.0018105716444551945
576.0,0.0018101020250469446
640.0,0.0016706772148609161
704.0,0.0014393636956810951
768.0,0.00021808204473927617
832.0,-0.0011013989569619298
896.0,-0.0010860341135412455
960.0,-0.0007411548285745084
1024.0,-0.0010536060435697436
1152.0,-0.0008735835435800254
1280.0,-0.0016375421546399593
1408.0,-0.0018239044584333897
1536.0,-0.001121214940212667
1664.0,0.000648845627438277
1792.0,0.0004757617134600878
1920.0,-0.0002038996753981337
2048.0,-0.0010739422868937254
2304.0,0.0012784003047272563
2560.0,0.0009128321544267237
2816.0,-0.00021127340733073652
3072.0,0.0016571128508076072
3328.0,0.0013858408201485872
3584.0,-0.00016802122991066426
3840.0,-0.00040262911352328956
4096.0,-0.00041700401925481856
4608.0,-0.0012131184339523315
5120.0,-0.0005714049329981208
5632.0,-0.0006728877779096365
6144.0,0.0007968181162141263
6656.0,0.0016605990240350366
7168.0,-0.0006149958935566247
7680.0,-0.001248204498551786
8192.0,-0.0013653215719386935
9216.0,-0.0008309036493301392
10240.0,-0.0012867171317338943
11264.0,-3.143846697639674e-05
12288.0,-0.0002596220001578331
13312.0,0.00012257452181074768
14336.0,-1.1608215572778136e-05
end
