version,3.0
numOfCh,1
type,point
parent_name,80-cuts
ch_type,1_1
kcount,1
numberNandB,1
brightnessNandB,1
carpet pos,0
pc,0
Time (ms),CH1 Auto-Correlation
1.0,0.027916966006159782
2.0,0.027260636910796165
3.0,0.026641860604286194
4.0,0.02605780027806759
5.0,0.025492504239082336
6.0,0.02495075762271881
7.0,0.024441497400403023
8.0,0.023943239822983742
9.0,0.023470528423786163
10.0,0.023005586117506027
11.0,0.022569941356778145
12.0,0.022160770371556282
13.0,0.021763896569609642
14.0,0.021384287625551224
15.0,0.02102627232670784
16.0,0.02068702131509781
18.0,0.020050106570124626
20.0,0.019465865567326546
22.0,0.018931401893496513
24.0,0.018424298614263535
26.0,0.01793166995048523
28.0,0.01745298132300377
30.0,0.01698398031294346
32.0,0.0165273267775774
36.0,0.015612797811627388
40.0,0.014798801392316818
44.0,0.013990165665745735
48.0,0.013208997435867786
52.0,0.012411469593644142
56.0,0.011572328396141529
60.0,0.010833489708602428
64.0,0.010141361504793167
72.0,0.00886702910065651
80.0,0.007702365051954985
88.0,0.0067365835420787334
96.0,0.005825668107718229
104.0,0.004908737726509571
112.0,0.004208840429782867
120.0,0.0038040264043956995
128.0,0.003645368618890643
144.0,0.0031388066709041595
160.0,0.002790165599435568
176.0,0.0027496456168591976
192.0,0.0021569838281720877
208.0,0.0013255028752610087
224.0,0.0005345531972125173
240.0,-0.0002634540433064103
256.0,-0.0008441726677119732
288.0,-0.0009435778483748436
320.0,-0.0010967896087095141
352.0,-0.0009243970271199942
384.0,-0.0013034966541454196
416.0,-0.0019445546204224229
448.0,-0.0021874404046684504
480.0,-0.002149373758584261
512.0,-0.0026252928655594587
576.0,-0.002812324557453394
640.0,-0.0010084284003823996
704.0,0.0006566416705027223
768.0,0.001875059213489294
832.0,0.0026333348359912634
896.0,0.0019678405951708555
960.0,0.0011964470613747835
1024.0,0.0018087815260514617
1152.0,0.00031774587114341557
1280.0,-0.002298906445503235
1408.0,-0.0019249380566179752
1536.0,0.0010832877596840262
1664.0,0.00012118736776756123
1792.0,0.0010426484514027834
1920.0,0.0003499099984765053
2048.0,-0.0011378242634236813
2304.0,-0.002604922279715538
2560.0,-0.0003030305670108646
2816.0,0.0008250626269727945
3072.0,0.0010784611804410815
3328.0,0.0005514060612767935
3584.0,0.0018106395145878196
3840.0,-0.0004050298302900046
4096.0,-0.002251444151625037
4608.0,0.0010104385437443852
5120.0,9.843568841461092e-05
5632.0,-0.0005659939488396049
6144.0,0.0006987187662161887
6656.0,0.0017436528578400612
7168.0,-0.002626127330586314
7680.0,7.274100789800286e-05
8192.0,-0.0008241406176239252
9216.0,0.000615352881141007
10240.0,-0.0018171099945902824
11264.0,-0.0014777557225897908
12288.0,0.0011502464767545462
13312.0,-0.0005610028747469187
14336.0,-0.0025799742434173822
end
