version,3.0
numOfCh,1
type,point
parent_name,80-cuts
ch_type,1_1
kcount,1
numberNandB,1
brightnessNandB,1
carpet pos,0
pc,0
Time (ms),CH1 Auto-Correlation
1.0,0.03017825447022915
2.0,0.029444634914398193
3.0,0.028746401891112328
4.0,0.02804708294570446
5.0,0.02737630344927311
6.0,0.026744965463876724
7.0,0.02614564262330532
8.0,0.025585277006030083
9.0,0.025051360949873924
10.0,0.024529127404093742
11.0,0.02400902286171913
12.0,0.02351406216621399
13.0,0.023021211847662926
14.0,0.022542854771018028
15.0,0.022068027406930923
16.0,0.021615905687212944
18.0,0.020705731585621834
20.0,0.019809365272521973
22.0,0.018947411328554153
24.0,0.018100367859005928
26.0,0.01732223480939865
28.0,0.016539456322789192
30.0,0.015779729932546616
32.0,0.015046893619000912
36.0,0.013782521709799767
40.0,0.012596193701028824
44.0,0.01150256022810936
48.0,0.010574311949312687
52.0,0.009765681810677052
56.0,0.009008204564452171
60.0,0.008321994915604591
64.0,0.007691470440477133
72.0,0.006639045663177967
80.0,0.005893860477954149
88.0,0.005191150587052107
96.0,0.004780049901455641
104.0,0.004219356924295425
112.0,0.0034099530894309282
120.0,0.0027369512245059013
128.0,0.0022212136536836624
144.0,0.0015660267090424895
160.0,0.001268278923816979
176.0,0.0012766988947987556
192.0,0.0011484649730846286
208.0,0.0010271449573338032
224.0,0.0011033808114007115
240.0,0.0012113343691453338
256.0,0.001453652512282133
288.0,0.0018954663537442684
320.0,0.0014056888176128268
352.0,0.0006131280097179115
384.0,0.0010727231856435537
416.0,0.000997578026726842
448.0,9.243804379366338e-05
480.0,-0.0005251869442872703
512.0,2.833652433764655e-05
576.0,0.0009108231752179563
640.0,0.0006860977737233043
704.0,0.00018126620852854103
768.0,0.00019430329848546535
832.0,0.001275625778362155
896.0,0.0014759029727429152
960.0,-0.0003906089114025235
1024.0,-0.0014938643435016274
1152.0,-0.0001592384505784139
1280.0,7.418074528686702e-05
1408.0,0.0008193057728931308
1536.0,-0.0010595052735880017
1664.0,0.0004215867957100272
1792.0,0.0011226108763366938
1920.0,-0.0045493110083043575
2048.0,-0.0003633167361840606
2304.0,-0.001354288891889155
2560.0,-0.0013480201596394181
2816.0,-0.0005535132950171828
3072.0,-0.0003853895468637347
3328.0,0.0003020281728822738
3584.0,-7.888860272942111e-05
3840.0,0.0015103018376976252
4096.0,0.002250536810606718
4608.0,-0.0012081447057425976
5120.0,-0.002367958426475525
5632.0,-0.0007109498255886137
6144.0,-0.0017873815959319472
6656.0,4.665731466957368e-05
7168.0,0.002610875992104411
7680.0,0.0002512400387786329
8192.0,0.0002129914500983432
9216.0,-0.0013773255050182343
10240.0,0.0010364741319790483
11264.0,0.0011696422006934881
12288.0,-0.0005851053865626454
13312.0,-0.0005674835992977023
14336.0,0.00013175619824323803
end
