version,3.0
numOfCh,1
type,point
parent_name,80-cuts
ch_type,1_1
kcount,1
numberNandB,1
brightnessNandB,1
carpet pos,0
pc,0
Time (ms),CH1 Auto-Correlation
1.0,0.02129647508263588
2.0,0.02078378014266491
3.0,0.02027963660657406
4.0,0.019803842529654503
5.0,0.01934155449271202
6.0,0.018894601613283157
7.0,0.018459081649780273
8.0,0.018041860312223434
9.0,0.017622727900743484
10.0,0.017226964235305786
11.0,0.016829852014780045
12.0,0.016448844224214554
13.0,0.01607961766421795
14.0,0.015723809599876404
15.0,0.015382060781121254
16.0,0.01505459938198328
18.0,0.014447980560362339
20.0,0.013879566453397274
22.0,0.01334265898913145
24.0,0.012840252369642258
26.0,0.01235040370374918
28.0,0.01186787523329258
30.0,0.011407622136175632
32.0,0.010954336263239384
36.0,0.010085166431963444
40.0,0.009239871054887772
44.0,0.008493204601109028
48.0,0.007856595329940319
52.0,0.007381320931017399
56.0,0.007020553108304739
60.0,0.006683604326099157
64.0,0.0063873943872749805
72.0,0.005807892419397831
80.0,0.005211732350289822
88.0,0.004751037340611219
96.0,0.004298928659409285
104.0,0.003899343777447939
112.0,0.0035938529763370752
120.0,0.0032377152238041162
128.0,0.002813564147800207
144.0,0.0020821094512939453
160.0,0.0017471732571721077
176.0,0.0016178182559087873
192.0,0.0014461487298831344
208.0,0.0015146792866289616
224.0,0.0017702770419418812
240.0,0.002428573789075017
256.0,0.002734948880970478
288.0,0.0023829699493944645
320.0,0.00211498886346817
352.0,0.002236252883449197
384.0,0.0017979452386498451
416.0,0.0009128933888860047
448.0,0.00028377611306495965
480.0,0.000643723295070231
512.0,0.0008387101115658879
576.0,0.002292775083333254
640.0,0.004009278956800699
704.0,0.004001524765044451
768.0,0.0016177707584574819
832.0,0.000231541387620382
896.0,0.0009721441892907023
960.0,0.0004197739181108773
1024.0,-0.000969124143011868
1152.0,-0.000321745581459254
1280.0,-0.0007906352402642369
1408.0,0.0006368160829879344
1536.0,-0.00024975070846267045
1664.0,-3.6228633689461276e-05
1792.0,-0.0004853442660532892
1920.0,-0.00026809348491951823
2048.0,-0.001068471814505756
2304.0,0.000570880773011595
2560.0,-0.0001852704881457612
2816.0,-0.001049546292051673
3072.0,0.0012714830227196217
3328.0,0.0006990907713770866
3584.0,0.00015157327288761735
3840.0,0.0018834111979231238
4096.0,0.0002014298370340839
4608.0,-0.00040264727431349456
5120.0,-0.0008040805114433169
5632.0,-0.0006785065634176135
6144.0,0.0004099625803064555
6656.0,0.0010668315226212144
7168.0,0.00022982610971666873
7680.0,-0.0010463409125804901
8192.0,-0.00023088497982826084
9216.0,-0.001202959450893104
10240.0,0.0014389654388651252
11264.0,-8.537136454833671e-05
12288.0,-0.002116797026246786
13312.0,-0.0029300476890057325
14336.0,-0.003921194933354855
end
