version,3.0
numOfCh,1
type,point
parent_name,80-cuts
ch_type,1_1
kcount,1
numberNandB,1
brightnessNandB,1
carpet pos,0
pc,0
Time (ms),CH1 Auto-Correlation
1.0,0.08539946377277374
2.0,0.08391082286834717
3.0,0.08241365104913712
4.0,0.08098077028989792
5.0,0.07958825677633286
6.0,0.07828006893396378
7.0,0.07701428234577179
8.0,0.07572997361421585
9.0,0.07449676096439362
10.0,0.07328429818153381
11.0,0.07209423929452896
12.0,0.0709717869758606
13.0,0.06988640129566193
14.0,0.06888069957494736
15.0,0.06789516657590866
16.0,0.06690937280654907
18.0,0.06512997299432755
20.0,0.06345107406377792
22.0,0.0618734173476696
24.0,0.06035102158784866
26.0,0.05887144058942795
28.0,0.057473476976156235
30.0,0.056164707988500595
32.0,0.05493787303566933
36.0,0.05261438339948654
40.0,0.05032285675406456
44.0,0.04823435842990875
48.0,0.04647228866815567
52.0,0.04486837610602379
56.0,0.043508097529411316
60.0,0.04233523830771446
64.0,0.04126822203397751
72.0,0.03939686343073845
80.0,0.0371590182185173
88.0,0.035055529326200485
96.0,0.032864633947610855
104.0,0.030806081369519234
112.0,0.028859667479991913
120.0,0.02720814384520054
128.0,0.02641519159078598
144.0,0.02419186942279339
160.0,0.021950088441371918
176.0,0.019863607361912727
192.0,0.01752612739801407
208.0,0.015473069623112679
224.0,0.012343218550086021
240.0,0.010638629086315632
256.0,0.009470059536397457
288.0,0.00805159006267786
320.0,0.006451310124248266
352.0,0.0041362810879945755
384.0,0.0005248436937108636
416.0,-0.0006581072229892015
448.0,-0.001084019080735743
480.0,-0.000993190216831863
512.0,0.0027300529181957245
576.0,0.005267934873700142
640.0,0.0033628002274781466
704.0,0.0011043488048017025
768.0,0.0010033503640443087
832.0,0.0004433777939993888
896.0,-0.00037003899342380464
960.0,-0.0019249700708314776
1024.0,-0.0037353013176470995
1152.0,-0.0024977761786431074
1280.0,-0.007815373130142689
1408.0,-0.01092354767024517
1536.0,-0.009147251956164837
1664.0,-0.007352996617555618
1792.0,-0.003411152632907033
1920.0,0.001785405445843935
2048.0,0.00024366466095671058
2304.0,-0.0014136559329926968
2560.0,0.001831021043471992
2816.0,0.0007179458043538034
3072.0,0.0029483260586857796
3328.0,0.004857995081692934
3584.0,0.00556959118694067
3840.0,0.0003887233033310622
4096.0,0.0027840211987495422
4608.0,-0.004476172849535942
5120.0,-0.008970368653535843
5632.0,-0.01159727480262518
6144.0,-0.009670550003647804
6656.0,0.002442639786750078
7168.0,0.018546562641859055
7680.0,-0.007119481917470694
8192.0,0.0010173233458772302
9216.0,0.002646127948537469
10240.0,0.011927629821002483
11264.0,0.0005535432137548923
12288.0,0.0033035478554666042
13312.0,-0.008865087293088436
14336.0,0.004479675088077784
end
