version,3.0
numOfCh,1
type,point
parent_name,80-cuts
ch_type,1_1
kcount,1
numberNandB,1
brightnessNandB,1
carpet pos,0
pc,0
Time (ms),CH1 Auto-Correlation
1.0,0.01977471448481083
2.0,0.019255077466368675
3.0,0.01876341737806797
4.0,0.018298963084816933
5.0,0.01783856749534607
6.0,0.017410248517990112
7.0,0.016980722546577454
8.0,0.016558781266212463
9.0,0.016157401725649834
10.0,0.015761276707053185
11.0,0.01536857895553112
12.0,0.014989166520535946
13.0,0.014634435996413231
14.0,0.0142904007807374
15.0,0.013952442444860935
16.0,0.013636473566293716
18.0,0.013025173917412758
20.0,0.012457394041121006
22.0,0.01191995944827795
24.0,0.011388328857719898
26.0,0.010872905142605305
28.0,0.010378540493547916
30.0,0.009912880137562752
32.0,0.009471697732806206
36.0,0.008695642463862896
40.0,0.007960259914398193
44.0,0.00728259701281786
48.0,0.006772878114134073
52.0,0.006360378582030535
56.0,0.006077579688280821
60.0,0.0057983435690402985
64.0,0.00555160827934742
72.0,0.005063430871814489
80.0,0.004579265136271715
88.0,0.004110437817871571
96.0,0.003662262810394168
104.0,0.0030887715984135866
112.0,0.002689061453565955
120.0,0.0024185385555028915
128.0,0.002113675232976675
144.0,0.001374311395920813
160.0,0.0009544672793708742
176.0,0.0008134542731568217
192.0,0.0006665445980615914
208.0,0.0007558639044873416
224.0,0.0006299691158346832
240.0,0.00042570612276904285
256.0,0.0004059849597979337
288.0,0.00031815742840990424
320.0,0.0003077325818594545
352.0,0.00034089403925463557
384.0,0.0007043616496957839
416.0,0.0011145930038765073
448.0,0.0007426688680425286
480.0,0.000810596626251936
512.0,0.0002127995394403115
576.0,0.00036590805393643677
640.0,-0.00030103689641691744
704.0,-0.0011406714329496026
768.0,-0.00033623247873038054
832.0,0.0011191482190042734
896.0,0.0018191899871453643
960.0,0.000575425336137414
1024.0,-0.00017731130355969071
1152.0,0.001127562252804637
1280.0,0.0014564581215381622
1408.0,-0.0005271500558592379
1536.0,-0.0003241755475755781
1664.0,-0.0010039438493549824
1792.0,-0.0002181357122026384
1920.0,-0.001353915547952056
2048.0,-0.0005670267855748534
2304.0,-0.000903075560927391
2560.0,-0.001160041312687099
2816.0,-0.00041778935701586306
3072.0,-0.0006461937446147203
3328.0,-0.0006865221657790244
3584.0,-9.11296738195233e-05
3840.0,0.00022158199863042682
4096.0,0.00017299123283009976
4608.0,3.1426352506969124e-05
5120.0,0.00014542025746777654
5632.0,-0.00039811120950616896
6144.0,-0.0003564590006135404
6656.0,-0.000530166260432452
7168.0,-0.0003972609410993755
7680.0,-0.0002534329250920564
8192.0,-0.00037395613617263734
9216.0,0.0005983792943879962
10240.0,8.430395246250555e-05
11264.0,0.0002530828642193228
12288.0,0.0012050345540046692
13312.0,-0.000243831702391617
14336.0,-0.0017718792660161853
end
