version,3.0
numOfCh,1
type,point
parent_name,80-cuts
ch_type,1_1
kcount,1
numberNandB,1
brightnessNandB,1
carpet pos,0
pc,0
Time (ms),CH1 Auto-Correlation
1.0,0.020906763151288033
2.0,0.020397355780005455
3.0,0.01990971527993679
4.0,0.01945098303258419
5.0,0.018997270613908768
6.0,0.01856093294918537
7.0,0.01813461259007454
8.0,0.017737053334712982
9.0,0.017359089106321335
10.0,0.016990186646580696
11.0,0.01664096489548683
12.0,0.016311556100845337
13.0,0.01598510704934597
14.0,0.01566825434565544
15.0,0.015359577722847462
16.0,0.015064514242112637
18.0,0.014495332725346088
20.0,0.013959934934973717
22.0,0.013445066288113594
24.0,0.012947908602654934
26.0,0.012451215647161007
28.0,0.0119874756783247
30.0,0.011539557948708534
32.0,0.01112559624016285
36.0,0.010347120463848114
40.0,0.009632072411477566
44.0,0.008976439945399761
48.0,0.008309763856232166
52.0,0.00767043000087142
56.0,0.007082325406372547
60.0,0.006591686978936195
64.0,0.006170274224132299
72.0,0.005423397291451693
80.0,0.004847118631005287
88.0,0.004496649373322725
96.0,0.004088961984962225
104.0,0.003673480125144124
112.0,0.003416488878428936
120.0,0.003180967178195715
128.0,0.0027962299063801765
144.0,0.002279279986396432
160.0,0.001577550545334816
176.0,0.00111490732524544
192.0,0.000912225223146379
208.0,0.0007809284143149853
224.0,0.0008653188124299049
240.0,0.00072192627703771
256.0,0.0005128207849338651
288.0,5.1025243010371923e-05
320.0,0.00039693102007731795
352.0,0.0008573975646868348
384.0,0.0012564943172037601
416.0,0.0016132432501763105
448.0,0.001478047575801611
480.0,0.0010017480235546827
512.0,0.0006401946302503347
576.0,0.0015164364594966173
640.0,0.00034215583582408726
704.0,-0.00046147985267452896
768.0,-0.0007665589218959212
832.0,-0.0013736503897234797
896.0,-0.0006785189034417272
960.0,-0.00013781231245957315
1024.0,-0.0003682539099827409
1152.0,2.661150210769847e-05
1280.0,0.0006615544552914798
1408.0,0.00022105815878603607
1536.0,-0.001252422691322863
1664.0,-0.0020271935500204563
1792.0,-0.0002811634331010282
1920.0,-0.00023609501658938825
2048.0,-0.0003246548876632005
2304.0,0.0009073381079360843
2560.0,0.0018119310261681676
2816.0,-0.001581365242600441
3072.0,-0.0009524069610051811
3328.0,-0.0023822078946977854
3584.0,-0.0007663133437745273
3840.0,-0.0012051331577822566
4096.0,-0.0017597690457478166
4608.0,0.0007437593303620815
5120.0,0.0013992097228765488
5632.0,-0.0007329738000407815
6144.0,-0.0010522857774049044
6656.0,0.00014141396968625486
7168.0,0.0007903770310804248
7680.0,0.0007371317478828132
8192.0,-0.0009203573572449386
9216.0,0.00039457358070649207
10240.0,-0.0007353967521339655
11264.0,-0.0012222265359014273
12288.0,-0.0005063315620645881
13312.0,0.0003379971894901246
14336.0,0.0013208717573434114
end
