version,3.0
numOfCh,1
type,point
parent_name,80-cuts
ch_type,1_1
kcount,1
numberNandB,1
brightnessNandB,1
carpet pos,0
pc,0
Time (ms),CH1 Auto-Correlation
1.0,0.03184164687991142
2.0,0.031125998124480247
3.0,0.03042864426970482
4.0,0.02975872904062271
5.0,0.029097743332386017
6.0,0.028468774631619453
7.0,0.027839189395308495
8.0,0.027211632579565048
9.0,0.02658645436167717
10.0,0.02600480429828167
11.0,0.025448059663176537
12.0,0.02490755170583725
13.0,0.02438170649111271
14.0,0.023888854309916496
15.0,0.023408515378832817
16.0,0.022944146767258644
18.0,0.022052321583032608
20.0,0.021158291026949883
22.0,0.020289942622184753
24.0,0.01946033351123333
26.0,0.0187133327126503
28.0,0.018011324107646942
30.0,0.017371805384755135
32.0,0.016825977712869644
36.0,0.015788422897458076
40.0,0.014833101071417332
44.0,0.013969373889267445
48.0,0.013252266682684422
52.0,0.012625054456293583
56.0,0.012021850794553757
60.0,0.011360053904354572
64.0,0.010622018948197365
72.0,0.009282651357352734
80.0,0.008125399239361286
88.0,0.00723559595644474
96.0,0.006645954214036465
104.0,0.0064042010344564915
112.0,0.006283354479819536
120.0,0.006062969099730253
128.0,0.00573534844443202
144.0,0.005213480908423662
160.0,0.0047089955769479275
176.0,0.004297871608287096
192.0,0.003827862674370408
208.0,0.003749387338757515
224.0,0.003681449219584465
240.0,0.003423406044021249
256.0,0.003082858631387353
288.0,0.0015590304974466562
320.0,0.0004976738127879798
352.0,-0.0009022458689287305
384.0,-0.0007018386386334896
416.0,-1.982472531381063e-05
448.0,0.0002854074409697205
480.0,-0.00022431978140957654
512.0,-0.0014125632587820292
576.0,-0.0015136772999539971
640.0,-0.0010335943661630154
704.0,-0.0008971836068667471
768.0,-0.0008898347150534391
832.0,-0.0015223765512928367
896.0,0.00020326128287706524
960.0,0.00012191348650958389
1024.0,-0.0015450635692104697
1152.0,-0.002309825038537383
1280.0,-0.001557604526169598
1408.0,0.00030906451866030693
1536.0,-0.001969507895410061
1664.0,-0.002010189928114414
1792.0,-0.0004083875101059675
1920.0,0.0009515137644484639
2048.0,0.0009972730185836554
2304.0,-0.0002548562770243734
2560.0,-0.0008301999769173563
2816.0,-0.001503383507952094
3072.0,-0.0021877388935536146
3328.0,-0.001188148045912385
3584.0,0.002502997638657689
3840.0,0.004012868739664555
4096.0,0.003225903958082199
4608.0,-0.0003644082462415099
5120.0,-0.0004348829388618469
5632.0,-0.002794848755002022
6144.0,-0.0017888295697048306
6656.0,0.0005739715415984392
7168.0,9.195257007377222e-05
7680.0,0.001079307054169476
8192.0,-0.0005521014099940658
9216.0,-0.0016759271966293454
10240.0,-0.0001956543419510126
11264.0,-0.00046808322076685727
12288.0,-0.0007202380220405757
13312.0,0.0004733421665150672
14336.0,0.002974191913381219
end
