version,3.0
numOfCh,1
type,point
parent_name,80-cuts
ch_type,1_1
kcount,1
numberNandB,1
brightnessNandB,1
carpet pos,0
pc,0
Time (ms),CH1 Auto-Correlation
1.0,0.030044836923480034
2.0,0.02936716005206108
3.0,0.028709400445222855
4.0,0.02806408703327179
5.0,0.02742745541036129
6.0,0.026791483163833618
7.0,0.026163483038544655
8.0,0.025565635412931442
9.0,0.024972304701805115
10.0,0.024397123605012894
11.0,0.023850349709391594
12.0,0.023333240300416946
13.0,0.022840850055217743
14.0,0.022361041978001595
15.0,0.02188059501349926
16.0,0.02141059748828411
18.0,0.020516056567430496
20.0,0.019651735201478004
22.0,0.018842728808522224
24.0,0.01811925321817398
26.0,0.017416132614016533
28.0,0.01672150380909443
30.0,0.01608746126294136
32.0,0.015498688444495201
36.0,0.014412335120141506
40.0,0.013439947739243507
44.0,0.01253264769911766
48.0,0.011778979562222958
52.0,0.011119442991912365
56.0,0.010427774861454964
60.0,0.009810373187065125
64.0,0.00929352454841137
72.0,0.008533960208296776
80.0,0.0079260328784585
88.0,0.007394564803689718
96.0,0.0067758322693407536
104.0,0.006130816414952278
112.0,0.005657734349370003
120.0,0.005379747599363327
128.0,0.005294159520417452
144.0,0.004015715327113867
160.0,0.0025190941523760557
176.0,0.0015210903948172927
192.0,0.000776600674726069
208.0,0.0005370856961235404
224.0,0.00024177330487873405
240.0,0.00017713746638037264
256.0,0.00023534266802016646
288.0,8.335795428138226e-05
320.0,-0.00012400411651469767
352.0,-0.0005082307034172118
384.0,-0.0004641252162400633
416.0,-4.9533689889358357e-05
448.0,-0.0010937202023342252
480.0,-0.0015061647864058614
512.0,-0.0006008596974425018
576.0,0.0005274897557683289
640.0,0.0022828029468655586
704.0,0.00010165577987208962
768.0,-0.0015589853283017874
832.0,-0.0038191601634025574
896.0,-0.002866461407393217
960.0,-0.0018758957739919424
1024.0,-0.0006714772898703814
1152.0,0.0007384251803159714
1280.0,0.001545894076116383
1408.0,0.0008665559580549598
1536.0,0.0018148873932659626
1664.0,0.000410872366046533
1792.0,0.001609714119695127
1920.0,0.0031751280184835196
2048.0,0.0004523464012891054
2304.0,-0.0027087568305432796
2560.0,-0.0010699303820729256
2816.0,-7.294338865904137e-05
3072.0,-0.0005088818725198507
3328.0,-0.0017168326303362846
3584.0,-0.000613197626080364
3840.0,-0.00014935786020942032
4096.0,0.0007510952418670058
4608.0,-0.0007847680826671422
5120.0,0.00022256003285292536
5632.0,0.0006213258602656424
6144.0,-0.0011943196877837181
6656.0,-0.0015316280769184232
7168.0,0.0011632192181423306
7680.0,-0.0006321698310784996
8192.0,-0.002262986497953534
9216.0,0.000542176072485745
10240.0,1.2377706298138946e-05
11264.0,0.00025373254902660847
12288.0,0.0006592868594452739
13312.0,6.590731936739758e-05
14336.0,-0.0002491159248165786
end
