version,3.0
numOfCh,1
type,point
parent_name,80-cuts
ch_type,1_1
kcount,1
numberNandB,1
brightnessNandB,1
carpet pos,0
pc,0
Time (ms),CH1 Auto-Correlation
1.0,0.023347536101937294
2.0,0.022842856124043465
3.0,0.022357497364282608
4.0,0.021879836916923523
5.0,0.021422673016786575
6.0,0.020989790558815002
7.0,0.020562918856739998
8.0,0.02015567198395729
9.0,0.01976308785378933
10.0,0.019379520788788795
11.0,0.019005198031663895
12.0,0.01864275522530079
13.0,0.018294135108590126
14.0,0.017955241724848747
15.0,0.017623184248805046
16.0,0.017299136146903038
18.0,0.016698254272341728
20.0,0.016156962141394615
22.0,0.015656769275665283
24.0,0.015180578455328941
26.0,0.014720928855240345
28.0,0.014277222566306591
30.0,0.013841064646840096
32.0,0.013430861756205559
36.0,0.012702804990112782
40.0,0.012044133618474007
44.0,0.01144344825297594
48.0,0.010854072868824005
52.0,0.010313515551388264
56.0,0.00978886242955923
60.0,0.009261194616556168
64.0,0.008762341924011707
72.0,0.007981229573488235
80.0,0.007188853342086077
88.0,0.006478691473603249
96.0,0.005830508191138506
104.0,0.005195215344429016
112.0,0.004568333271890879
120.0,0.003873968729749322
128.0,0.003250818932428956
144.0,0.0022162424866110086
160.0,0.0019276017555966973
176.0,0.0012552283005788922
192.0,-0.00018213818839285523
208.0,-0.0013234837679192424
224.0,-0.002187271136790514
240.0,-0.002444569021463394
256.0,-0.002335155848413706
288.0,-0.002153712324798107
320.0,-0.0021672500297427177
352.0,-0.0014167573535814881
384.0,-0.0007914220914244652
416.0,-0.0001649936311878264
448.0,0.000312616815790534
480.0,0.0008068351307883859
512.0,0.0015154773136600852
576.0,0.002178831724449992
640.0,0.0005778342019766569
704.0,-0.0017383144004270434
768.0,-0.002232138067483902
832.0,-0.0024156044237315655
896.0,-0.0026530514005571604
960.0,-0.0035590683110058308
1024.0,-0.0035902634263038635
1152.0,-0.0013312562368810177
1280.0,0.0015677815536037087
1408.0,0.0005419963272288442
1536.0,-0.001650517457164824
1664.0,-0.0011170340003445745
1792.0,0.0031271695625036955
1920.0,0.0018661203794181347
2048.0,-0.0006729450542479753
2304.0,0.0013239617692306638
2560.0,-0.0008870594319887459
2816.0,-0.0019391905516386032
3072.0,8.782694931142032e-05
3328.0,-0.0004863269568886608
3584.0,0.0016682501882314682
3840.0,-0.000920362479519099
4096.0,6.096612651163014e-06
4608.0,-0.00019594831974245608
5120.0,-0.0007295079994946718
5632.0,-0.0008057435043156147
6144.0,0.0010478822514414787
6656.0,0.001355183427222073
7168.0,-0.0003389010962564498
7680.0,-0.0005868409061804414
8192.0,0.0013960807118564844
9216.0,-0.000535911472979933
10240.0,0.0012038776185363531
11264.0,-0.001838321564719081
12288.0,0.00021819818357471377
13312.0,0.0015334816416725516
14336.0,-0.0026148478500545025
end
