version,3.0
numOfCh,1
type,point
parent_name,80-cuts
ch_type,1_1
kcount,1
numberNandB,1
brightnessNandB,1
carpet pos,0
pc,0
Time (ms),CH1 Auto-Correlation
1.0,0.03485067933797836
2.0,0.03417666256427765
3.0,0.03352110832929611
4.0,0.03287702798843384
5.0,0.032270606607198715
6.0,0.03166777640581131
7.0,0.03109259158372879
8.0,0.03053259663283825
9.0,0.030016332864761353
10.0,0.029535572975873947
11.0,0.02906874194741249
12.0,0.028621187433600426
13.0,0.028183724731206894
14.0,0.027769193053245544
15.0,0.02735261805355549
16.0,0.026944566518068314
18.0,0.02616273984313011
20.0,0.02538321726024151
22.0,0.0246177539229393
24.0,0.02388772740960121
26.0,0.02320314198732376
28.0,0.02254764549434185
30.0,0.021913742646574974
32.0,0.021297115832567215
36.0,0.02011461928486824
40.0,0.019039280712604523
44.0,0.01808529533445835
48.0,0.0172189399600029
52.0,0.016367103904485703
56.0,0.015536151826381683
60.0,0.014745277352631092
64.0,0.014057062566280365
72.0,0.01290303934365511
80.0,0.011969654820859432
88.0,0.011337782256305218
96.0,0.011023211292922497
104.0,0.010473495349287987
112.0,0.009726770222187042
120.0,0.00915746670216322
128.0,0.00867410283535719
144.0,0.00784759595990181
160.0,0.00743075180798769
176.0,0.006689460016787052
192.0,0.005717669613659382
208.0,0.00440421374514699
224.0,0.003034591441974044
240.0,0.0019492689752951264
256.0,0.0012147808447480202
288.0,0.00034852419048547745
320.0,0.0008456603391095996
352.0,0.001101929577998817
384.0,0.0009115038556046784
416.0,0.00015791495388839394
448.0,-0.0006794892251491547
480.0,-0.0011436353670433164
512.0,-0.0019701779820024967
576.0,-0.0024949403014034033
640.0,-0.0034482318442314863
704.0,-0.004272462334483862
768.0,-0.005041454918682575
832.0,-0.004059602972120047
896.0,-0.001929122838191688
960.0,0.0010366147616878152
1024.0,0.0022616328205913305
1152.0,0.0028462002519518137
1280.0,0.004113198257982731
1408.0,0.0028223940171301365
1536.0,0.0013157001230865717
1664.0,-7.28491140762344e-05
1792.0,-0.0028206484857946634
1920.0,-0.0021630802657455206
2048.0,-0.0022208194714039564
2304.0,-0.002367939567193389
2560.0,-0.0023400895297527313
2816.0,-0.00043739881948567927
3072.0,-0.001638746471144259
3328.0,-0.0027988250367343426
3584.0,-0.003528956091031432
3840.0,-0.0010915526654571295
4096.0,0.001491529867053032
4608.0,-0.0011861029779538512
5120.0,-0.00018408843607176095
5632.0,0.0020347817335277796
6144.0,0.0008945947629399598
6656.0,-0.00036438851384446025
7168.0,0.0021055524703115225
7680.0,0.0021430531051009893
8192.0,-0.0022324356250464916
9216.0,0.00034633532050065696
10240.0,-0.000395153125282377
11264.0,-0.0009108863305300474
12288.0,-0.0005690476391464472
13312.0,0.0007556925411336124
14336.0,0.0005482658743858337
end
