version,3.0
numOfCh,1
type,point
parent_name,80-cuts
ch_type,1_1
kcount,1
numberNandB,1
brightnessNandB,1
carpet pos,0
pc,0
Time (ms),CH1 Auto-Correlation
1.0,0.06100257486104965
2.0,0.05957847088575363
3.0,0.05819166079163551
4.0,0.05683586746454239
5.0,0.055571299046278
6.0,0.054330307990312576
7.0,0.0531490221619606
8.0,0.05198264867067337
9.0,0.050857461988925934
10.0,0.04973798990249634
11.0,0.04865385219454765
12.0,0.04761449992656708
13.0,0.04664797708392143
14.0,0.04570598155260086
15.0,0.04480218142271042
16.0,0.0439385287463665
18.0,0.0422968789935112
20.0,0.040770046412944794
22.0,0.039393261075019836
24.0,0.0381552092730999
26.0,0.03701772540807724
28.0,0.03591769561171532
30.0,0.03490198031067848
32.0,0.0339350663125515
36.0,0.03203142061829567
40.0,0.03002007305622101
44.0,0.02821432612836361
48.0,0.02662515826523304
52.0,0.025015568360686302
56.0,0.023466208949685097
60.0,0.022027984261512756
64.0,0.02080310881137848
72.0,0.018518133088946342
80.0,0.016643652692437172
88.0,0.014821916818618774
96.0,0.013128056190907955
104.0,0.011518318206071854
112.0,0.009978563524782658
120.0,0.008762074634432793
128.0,0.0075995526276528835
144.0,0.006323883309960365
160.0,0.005257067736238241
176.0,0.004181091673672199
192.0,0.0035984425339847803
208.0,0.0029008814599364996
224.0,0.001412124722264707
240.0,0.0016868937527760863
256.0,0.001746098743751645
288.0,-0.001263984595425427
320.0,-0.004692072980105877
352.0,-0.0053876107558608055
384.0,-0.004976244643330574
416.0,-0.0040579927153885365
448.0,-0.004255355801433325
480.0,-0.004289774224162102
512.0,-0.002439136616885662
576.0,0.0002651815302670002
640.0,0.002024236833676696
704.0,0.0017234905390068889
768.0,-0.0029531463515013456
832.0,-0.004912547301501036
896.0,-0.004318887367844582
960.0,-0.005563218146562576
1024.0,-0.008411506190896034
1152.0,-0.006918332539498806
1280.0,-0.0032304783817380667
1408.0,-0.0020462125539779663
1536.0,-0.001533612608909607
1664.0,0.002654005540534854
1792.0,0.0016512960428372025
1920.0,0.0017371495487168431
2048.0,0.0037888800725340843
2304.0,0.0033150610979646444
2560.0,4.85015261801891e-05
2816.0,-0.0018455858808010817
3072.0,-0.0014942679554224014
3328.0,-6.236859189812094e-05
3584.0,0.0020980038680136204
3840.0,-0.003196841338649392
4096.0,-0.002362706232815981
4608.0,-0.000587250804528594
5120.0,0.0023641916923224926
5632.0,0.0021471672225743532
6144.0,0.0008193122339434922
6656.0,-0.00015958980657160282
7168.0,-0.0025791991502046585
7680.0,-0.0022588265128433704
8192.0,0.006757508497685194
9216.0,-0.0009694170439615846
10240.0,-0.000869442243129015
11264.0,0.0013550432631745934
12288.0,-0.0013273165095597506
13312.0,0.001374242827296257
14336.0,-0.0010968897258862853
end
