version,3.0
numOfCh,1
type,point
parent_name,80-cuts
ch_type,1_1
kcount,1
numberNandB,1
brightnessNandB,1
carpet pos,0
pc,0
Time (ms),CH1 Auto-Correlation
1.0,0.07732991129159927
2.0,0.07584153860807419
3.0,0.07440202683210373
4.0,0.07301882654428482
5.0,0.07165547460317612
6.0,0.07034372538328171
7.0,0.06911111623048782
8.0,0.06788767874240875
9.0,0.06668437272310257
10.0,0.06554677337408066
11.0,0.06444248557090759
12.0,0.06337853521108627
13.0,0.0623532272875309
14.0,0.061381470412015915
15.0,0.06043544411659241
16.0,0.059479210525751114
18.0,0.05756871774792671
20.0,0.055709149688482285
22.0,0.05397887900471687
24.0,0.05234010890126228
26.0,0.05078757926821709
28.0,0.04934696853160858
30.0,0.047962039709091187
32.0,0.046600181609392166
36.0,0.04388643801212311
40.0,0.041190482676029205
44.0,0.03871890529990196
48.0,0.03645550087094307
52.0,0.034419044852256775
56.0,0.0324319563806057
60.0,0.030312158167362213
64.0,0.02814231999218464
72.0,0.024464957416057587
80.0,0.02143700048327446
88.0,0.019009146839380264
96.0,0.016916537657380104
104.0,0.014521271921694279
112.0,0.011891220696270466
120.0,0.009787533432245255
128.0,0.008227072656154633
144.0,0.005841367412358522
160.0,0.0039229243993759155
176.0,0.002582435728982091
192.0,0.001556916511617601
208.0,0.0022711893543601036
224.0,0.003903573378920555
240.0,0.005657931789755821
256.0,0.006294695660471916
288.0,0.00747494213283062
320.0,0.008833406493067741
352.0,0.007894152775406837
384.0,0.007174265570938587
416.0,0.006606960669159889
448.0,0.004588910844177008
480.0,0.001312487293034792
512.0,0.0015360463876277208
576.0,0.001911778817884624
640.0,0.005943248048424721
704.0,0.002721289172768593
768.0,-0.0019504647934809327
832.0,-0.003049568273127079
896.0,-0.0016737381229177117
960.0,0.0007950486033223569
1024.0,0.0033358267974108458
1152.0,0.008076026104390621
1280.0,0.003626439021900296
1408.0,-0.0005385646945796907
1536.0,-0.002642750507220626
1664.0,-0.003824458224698901
1792.0,-0.00447964109480381
1920.0,-0.012373068369925022
2048.0,-0.015437155030667782
2304.0,-0.002846561837941408
2560.0,-0.005508853122591972
2816.0,-0.0026172057259827852
3072.0,-0.006043987814337015
3328.0,-0.0030987064819782972
3584.0,-0.0026713123079389334
3840.0,-0.0008559043053537607
4096.0,0.001721276668831706
4608.0,0.003861408680677414
5120.0,-0.0031200575176626444
5632.0,0.004540974274277687
6144.0,0.0016244228463619947
6656.0,0.0027824307326227427
7168.0,0.0051100789569318295
7680.0,0.002151355380192399
8192.0,0.001962305512279272
9216.0,-0.011694387532770634
10240.0,-0.008452927693724632
11264.0,0.011496187187731266
12288.0,0.014216779731214046
13312.0,-0.0035250887740403414
14336.0,-0.008780025877058506
end
