version,3.0
numOfCh,1
type,point
parent_name,80-cuts
ch_type,1_1
kcount,1
numberNandB,1
brightnessNandB,1
carpet pos,0
pc,0
Time (ms),CH1 Auto-Correlation
1.0,0.07610460370779037
2.0,0.07449401915073395
3.0,0.07288345694541931
4.0,0.07133147120475769
5.0,0.06984203308820724
6.0,0.06841931492090225
7.0,0.06702595949172974
8.0,0.06563656032085419
9.0,0.06430141627788544
10.0,0.06300561130046844
11.0,0.06180770322680473
12.0,0.06070898100733757
13.0,0.05968386307358742
14.0,0.058700934052467346
15.0,0.057731565088033676
16.0,0.05678268522024155
18.0,0.054955337196588516
20.0,0.0532674677670002
22.0,0.05168147012591362
24.0,0.050193026661872864
26.0,0.04869985952973366
28.0,0.04713856801390648
30.0,0.04566173255443573
32.0,0.044252656400203705
36.0,0.04169078171253204
40.0,0.0394749753177166
44.0,0.03745162487030029
48.0,0.035474084317684174
52.0,0.03367142006754875
56.0,0.032031070441007614
60.0,0.03061823360621929
64.0,0.029392022639513016
72.0,0.02718540094792843
80.0,0.024517908692359924
88.0,0.022644909098744392
96.0,0.02141735889017582
104.0,0.0198490172624588
112.0,0.01827171817421913
120.0,0.01700635440647602
128.0,0.015628281980752945
144.0,0.013107271865010262
160.0,0.01072765327990055
176.0,0.00966559536755085
192.0,0.008360464125871658
208.0,0.0066893757320940495
224.0,0.00622587651014328
240.0,0.0072794160805642605
256.0,0.007640007883310318
288.0,0.009149154648184776
320.0,0.006381485145539045
352.0,0.003116056090220809
384.0,0.001127160619944334
416.0,0.0013981800293549895
448.0,0.0009838711703196168
480.0,-0.0010131393792107701
512.0,-0.0024642562493681908
576.0,-0.002296608639881015
640.0,-0.0021065748296678066
704.0,-0.0029607692267745733
768.0,-0.004602978937327862
832.0,-0.007863789796829224
896.0,-0.007608070969581604
960.0,-0.0060723526403307915
1024.0,-0.001468154601752758
1152.0,0.0004936564364470541
1280.0,0.0012849017512053251
1408.0,-0.0035203879233449697
1536.0,-0.00524821737781167
1664.0,0.0011454189661890268
1792.0,-0.006093362811952829
1920.0,-0.01183545682579279
2048.0,-0.009955309331417084
2304.0,-0.0034790930803865194
2560.0,8.052599150687456e-05
2816.0,0.0005343836382962763
3072.0,-0.004225031938403845
3328.0,0.0027528791688382626
3584.0,-0.001129516982473433
3840.0,0.0018532690592110157
4096.0,0.004564735572785139
4608.0,-0.0007949002902023494
5120.0,0.001713181845843792
5632.0,0.0008936142548918724
6144.0,-0.0028642769902944565
6656.0,0.002723668934777379
7168.0,0.00038125572609715164
7680.0,-0.003976698033511639
8192.0,0.0015459776623174548
9216.0,-0.0029544830322265625
10240.0,0.000351360475178808
11264.0,6.822054274380207e-05
12288.0,0.008180230855941772
13312.0,-0.0008261403418146074
14336.0,-0.01569659262895584
end
