version,3.0
numOfCh,1
type,point
parent_name,80-cuts
ch_type,1_1
kcount,1
numberNandB,1
brightnessNandB,1
carpet pos,0
pc,0
Time (ms),CH1 Auto-Correlation
1.0,0.01834981143474579
2.0,0.017842350527644157
3.0,0.01736844889819622
4.0,0.016897499561309814
5.0,0.016442105174064636
6.0,0.015989013016223907
7.0,0.015548143535852432
8.0,0.01513617392629385
9.0,0.014732131734490395
10.0,0.014344286173582077
11.0,0.013964149169623852
12.0,0.013607420958578587
13.0,0.013268357142806053
14.0,0.012933171354234219
15.0,0.012609333731234074
16.0,0.012307729572057724
18.0,0.01173618994653225
20.0,0.011210283264517784
22.0,0.010701186954975128
24.0,0.010203277692198753
26.0,0.009720047004520893
28.0,0.009265768341720104
30.0,0.008839567191898823
32.0,0.008449291810393333
36.0,0.007739777211099863
40.0,0.007041302043944597
44.0,0.00640714168548584
48.0,0.005848769564181566
52.0,0.005330290645360947
56.0,0.004843625705689192
60.0,0.004380049183964729
64.0,0.0039274608716368675
72.0,0.003132025944069028
80.0,0.002550883684307337
88.0,0.0020693077240139246
96.0,0.0016321914736181498
104.0,0.0014746026135981083
112.0,0.0013525100657716393
120.0,0.0012299350928515196
128.0,0.001060057315044105
144.0,0.0006505134515464306
160.0,0.0005112134967930615
176.0,0.0005285422084853053
192.0,0.00041275486000813544
208.0,0.00035887316334992647
224.0,1.8787754015647806e-05
240.0,3.7725594665971585e-06
256.0,0.00014529531472362578
288.0,0.00027869519544765353
320.0,0.0004303894529584795
352.0,0.00037109816912561655
384.0,-0.0005772116710431874
416.0,-0.0014293906278908253
448.0,-0.0014262804761528969
480.0,-0.0005827374989166856
512.0,-0.000310009898385033
576.0,-0.0006092917174100876
640.0,-0.0012009799247607589
704.0,-0.0022030589170753956
768.0,-0.0017205224139615893
832.0,-0.0009237230406142771
896.0,-0.0002735702437348664
960.0,-0.00021742653916589916
1024.0,-0.0009034978575073183
1152.0,0.0009772328194230795
1280.0,-0.00016469908587168902
1408.0,-0.00013597580255009234
1536.0,0.0009045960032381117
1664.0,-0.00047901974176056683
1792.0,0.00022175699996296316
1920.0,-0.0001386232761433348
2048.0,0.00024466554168611765
2304.0,0.0009375066147185862
2560.0,-0.0010865587973967195
2816.0,-0.0013758870773017406
3072.0,0.0003142980858683586
3328.0,0.0002688142703846097
3584.0,0.0006976539152674377
3840.0,-0.00066251220414415
4096.0,-1.2516049537225626e-05
4608.0,0.0002997939882334322
5120.0,-0.0011763428337872028
5632.0,0.00015310609887819737
6144.0,0.00013456853048410267
6656.0,0.0007844744250178337
7168.0,-0.0007158329826779664
7680.0,0.00013154771295376122
8192.0,-0.00025758930132724345
9216.0,2.074186886602547e-05
10240.0,0.00036035344237461686
11264.0,-0.00017014224431477487
12288.0,-0.0002109781780745834
13312.0,0.000345537526300177
14336.0,0.00022238405654206872
end
