version,3.0
numOfCh,1
type,point
parent_name,80-cuts
ch_type,1_1
kcount,1
numberNandB,1
brightnessNandB,1
carpet pos,0
pc,0
Time (ms),CH1 Auto-Correlation
1.0,0.02195310965180397
2.0,0.021422483026981354
3.0,0.020908020436763763
4.0,0.020419558510184288
5.0,0.0199406910687685
6.0,0.019468575716018677
7.0,0.019006814807653427
8.0,0.01856132410466671
9.0,0.0181407667696476
10.0,0.017735671252012253
11.0,0.017351124435663223
12.0,0.01697293110191822
13.0,0.01659655198454857
14.0,0.01623469963669777
15.0,0.015887530520558357
16.0,0.015550720505416393
18.0,0.0149306058883667
20.0,0.014355515129864216
22.0,0.01380192581564188
24.0,0.013273937627673149
26.0,0.012801100499927998
28.0,0.012380505912005901
30.0,0.011959717608988285
32.0,0.011547796428203583
36.0,0.010800535790622234
40.0,0.010116444900631905
44.0,0.009499299339950085
48.0,0.008952412754297256
52.0,0.008459119126200676
56.0,0.007912064902484417
60.0,0.007348199374973774
64.0,0.0068500046618282795
72.0,0.006105441600084305
80.0,0.005376115906983614
88.0,0.004642373416572809
96.0,0.004036409314721823
104.0,0.0035630108322948217
112.0,0.0032801071647554636
120.0,0.00297056557610631
128.0,0.0025035140570253134
144.0,0.0015569062670692801
160.0,0.0011072237975895405
176.0,0.0010243244469165802
192.0,0.0010443744249641895
208.0,0.0010959473438560963
224.0,0.0011137357214465737
240.0,0.0011154098901897669
256.0,0.0009159611654467881
288.0,-4.967395216226578e-05
320.0,-5.269802932161838e-05
352.0,-9.296734060626477e-05
384.0,0.00010011181439040229
416.0,-0.0007333711837418377
448.0,-0.0006470755906775594
480.0,-0.0002507437311578542
512.0,-0.000591396470554173
576.0,0.0016697996761649847
640.0,0.003097701119259
704.0,0.0026652063243091106
768.0,0.0008626310154795647
832.0,-0.0009671213920228183
896.0,-0.003018756629899144
960.0,-0.0017682671314105392
1024.0,-0.0008262268383987248
1152.0,-0.0005503466818481684
1280.0,0.0003199634375050664
1408.0,0.0010464933002367616
1536.0,-0.0008311349083669484
1664.0,0.00044809517567045987
1792.0,0.001164552173577249
1920.0,0.0020770044066011906
2048.0,0.000806315045338124
2304.0,-0.00025901125627569854
2560.0,-0.0010522312950342894
2816.0,-0.0014560115523636341
3072.0,-0.002310979412868619
3328.0,-0.001253914670087397
3584.0,0.0002718158648349345
3840.0,0.00041996626532636583
4096.0,0.002046688459813595
4608.0,-0.0005840460071340203
5120.0,-0.0008154101087711751
5632.0,0.00017662857135292143
6144.0,0.002013560850173235
6656.0,-0.0005046039004810154
7168.0,-0.0017187834018841386
7680.0,-0.00020016037160530686
8192.0,0.0017113746143877506
9216.0,-0.0010862243361771107
10240.0,0.00038561419933103025
11264.0,-0.002045892644673586
12288.0,0.0007446434465236962
13312.0,-0.0007005592924542725
14336.0,0.0008821507799439132
end
