version,3.0
numOfCh,1
type,point
parent_name,80-cuts
ch_type,1_1
kcount,1
numberNandB,1
brightnessNandB,1
carpet pos,0
pc,0
Time (ms),CH1 Auto-Correlation
1.0,0.03280503302812576
2.0,0.03206087276339531
3.0,0.03132278099656105
4.0,0.03061148151755333
5.0,0.029924189671874046
6.0,0.02925911173224449
7.0,0.028636375442147255
8.0,0.028034303337335587
9.0,0.02744091860949993
10.0,0.02685783989727497
11.0,0.02627745270729065
12.0,0.025714607909321785
13.0,0.02517644874751568
14.0,0.024661995470523834
15.0,0.024163026362657547
16.0,0.02367904782295227
18.0,0.022762218490242958
20.0,0.021907316520810127
22.0,0.02109847590327263
24.0,0.02033730037510395
26.0,0.01960156485438347
28.0,0.018892057240009308
30.0,0.01816502772271633
32.0,0.01744205504655838
36.0,0.016124216839671135
40.0,0.014789436012506485
44.0,0.013497614301741123
48.0,0.012402823194861412
52.0,0.011523136869072914
56.0,0.010797734372317791
60.0,0.01005067490041256
64.0,0.009338938631117344
72.0,0.008120709098875523
80.0,0.007004177197813988
88.0,0.00596513831987977
96.0,0.004972501192241907
104.0,0.0040813894011080265
112.0,0.0033663108479231596
120.0,0.002653319388628006
128.0,0.0019515547901391983
144.0,0.0007410788675770164
160.0,-0.0005120927817188203
176.0,-0.0013512427685782313
192.0,-0.0013595824129879475
208.0,-0.001181035302579403
224.0,-0.0007673594518564641
240.0,0.0003183873777743429
256.0,0.0017281265463680029
288.0,0.0032362418714910746
320.0,0.003251852234825492
352.0,0.002709768246859312
384.0,0.0017507218290120363
416.0,0.0011431522434577346
448.0,1.7008744180202484e-05
480.0,-0.0014980831183493137
512.0,-0.0022847664076834917
576.0,-0.0019468973623588681
640.0,0.0004315157711971551
704.0,0.0003901302407030016
768.0,0.0006348993629217148
832.0,-0.00038957883953116834
896.0,0.0008808020502328873
960.0,0.00013317565026227385
1024.0,0.0017943775746971369
1152.0,0.003441706532612443
1280.0,0.0016853471752256155
1408.0,0.0013261535204946995
1536.0,0.003756797406822443
1664.0,0.002559035550802946
1792.0,0.0019284696318209171
1920.0,0.0014766616513952613
2048.0,-0.0012848208425566554
2304.0,0.0023040135856717825
2560.0,0.0006356303347274661
2816.0,-0.00018372530757915229
3072.0,-0.0005476936930790544
3328.0,0.0004928343114443123
3584.0,0.00044982603867538273
3840.0,0.0022399616427719593
4096.0,-0.00017635310359764844
4608.0,-0.00032139374525286257
5120.0,3.949492747779004e-05
5632.0,-0.0014348755357787013
6144.0,-4.480803181650117e-05
6656.0,-0.0008874260238371789
7168.0,6.704395491397008e-05
7680.0,-0.0019397648284211755
8192.0,-0.0012493547983467579
9216.0,-0.0028338786214590073
10240.0,-0.002148586791008711
11264.0,-0.0013164235278964043
12288.0,-0.0009623233345337212
13312.0,0.000755390094127506
14336.0,0.0007293533417396247
end
