version,3.0
numOfCh,1
type,point
parent_name,80-cuts
ch_type,1_1
kcount,1
numberNandB,1
brightnessNandB,1
carpet pos,0
pc,0
Time (ms),CH1 Auto-Correlation
1.0,0.023345228284597397
2.0,0.022861113771796227
3.0,0.02238437905907631
4.0,0.021925760433077812
5.0,0.021490737795829773
6.0,0.02107236534357071
7.0,0.020662715658545494
8.0,0.02026778645813465
9.0,0.019885793328285217
10.0,0.019518082961440086
11.0,0.019158102571964264
12.0,0.018810395151376724
13.0,0.018472852185368538
14.0,0.018137095496058464
15.0,0.01779990829527378
16.0,0.017475374042987823
18.0,0.0168449729681015
20.0,0.01625468209385872
22.0,0.015705928206443787
24.0,0.015208622440695763
26.0,0.01474638283252716
28.0,0.01431951392441988
30.0,0.013904593884944916
32.0,0.013511421158909798
36.0,0.012726599350571632
40.0,0.011988526210188866
44.0,0.011342973448336124
48.0,0.010794070549309254
52.0,0.010259244590997696
56.0,0.009771334938704967
60.0,0.009297620505094528
64.0,0.008842664770781994
72.0,0.008007301017642021
80.0,0.007284961640834808
88.0,0.00666855089366436
96.0,0.006252394989132881
104.0,0.0059797149151563644
112.0,0.005557440686970949
120.0,0.004996531642973423
128.0,0.004462764598429203
144.0,0.003569277934730053
160.0,0.0026495452038943768
176.0,0.002050800947472453
192.0,0.0016185239655897021
208.0,0.001410317956469953
224.0,0.0010230118641629815
240.0,0.0013615407515317202
256.0,0.001771355513483286
288.0,0.0017703550402075052
320.0,0.0009298360673710704
352.0,3.285525235696696e-05
384.0,0.0003192992298863828
416.0,0.0005056498339399695
448.0,0.00011412105232011527
480.0,-0.00026547405286692083
512.0,-0.00041437201434746385
576.0,-0.00024208691320382059
640.0,0.0008093416108749807
704.0,0.0011554161319509149
768.0,0.0023507087025791407
832.0,0.0025817921850830317
896.0,0.0018103182082995772
960.0,0.0002521302958484739
1024.0,-0.001226032734848559
1152.0,0.000240832450799644
1280.0,-0.0006558995228260756
1408.0,-0.00044025565148331225
1536.0,0.00011645104677882046
1664.0,0.0006606137612834573
1792.0,-0.0020696441642940044
1920.0,-0.001990371150895953
2048.0,-0.0014709978131577373
2304.0,0.0004615712387021631
2560.0,0.0007660220144316554
2816.0,0.0018375098006799817
3072.0,0.0020560654811561108
3328.0,0.0006578239845111966
3584.0,-0.0003518805024214089
3840.0,-0.000942805374506861
4096.0,-0.0015008171321824193
4608.0,-0.0010154793271794915
5120.0,-0.00037511539994738996
5632.0,0.0014344213996082544
6144.0,0.00033394756610505283
6656.0,-0.0018454412929713726
7168.0,-0.0014680522726848722
7680.0,-0.0018659690394997597
8192.0,0.0005436214269138873
9216.0,-0.0014474885538220406
10240.0,-0.0019777510315179825
11264.0,0.000525524141266942
12288.0,-0.000880033359862864
13312.0,-0.000989411142654717
14336.0,0.0009650461142882705
end
