version,3.0
numOfCh,1
type,point
parent_name,80-cuts
ch_type,1_1
kcount,1
numberNandB,1
brightnessNandB,1
carpet pos,0
pc,0
Time (ms),CH1 Auto-Correlation
1.0,0.033288974314928055
2.0,0.032509397715330124
3.0,0.03174716234207153
4.0,0.030997974798083305
5.0,0.030302003026008606
6.0,0.029632994905114174
7.0,0.029014084488153458
8.0,0.028436273336410522
9.0,0.027878031134605408
10.0,0.027325721457600594
11.0,0.026764368638396263
12.0,0.026219625025987625
13.0,0.025686269626021385
14.0,0.025186100974678993
15.0,0.02471201680600643
16.0,0.024264171719551086
18.0,0.023439517244696617
20.0,0.02263549715280533
22.0,0.021815940737724304
24.0,0.02101697400212288
26.0,0.020288189873099327
28.0,0.019600851461291313
30.0,0.01895379088819027
32.0,0.018278047442436218
36.0,0.0169831532984972
40.0,0.01576729491353035
44.0,0.0146533427760005
48.0,0.013695331290364265
52.0,0.012855340726673603
56.0,0.011969049461185932
60.0,0.011146673932671547
64.0,0.01044278871268034
72.0,0.009045347571372986
80.0,0.007881712168455124
88.0,0.007043002173304558
96.0,0.006442497484385967
104.0,0.006041549611836672
112.0,0.005782279651612043
120.0,0.005625921301543713
128.0,0.005286450032144785
144.0,0.004259523935616016
160.0,0.0031094008591026068
176.0,0.0023334468714892864
192.0,0.001457478036172688
208.0,0.0009368548053316772
224.0,0.00046863939496688545
240.0,-0.0004451204731594771
256.0,-0.0012776630464941263
288.0,-0.0015599558828398585
320.0,-0.0008749997359700501
352.0,-0.0006323354900814593
384.0,0.0004360331513453275
416.0,0.0006326645379886031
448.0,-7.622139673912898e-05
480.0,-0.0010164162376895547
512.0,-0.000708776933606714
576.0,0.002381199272349477
640.0,0.0020356145687401295
704.0,0.0002680378674995154
768.0,-0.0009149565012194216
832.0,-0.0012503345496952534
896.0,-0.0017156776739284396
960.0,-0.0008846063283272088
1024.0,-0.002410078654065728
1152.0,-0.0034010831732302904
1280.0,-0.00047384446952492
1408.0,-0.0002610255323816091
1536.0,-0.0010987874120473862
1664.0,0.00018796083168126643
1792.0,-0.0005232718540355563
1920.0,0.00047978226211853325
2048.0,-0.000481560971820727
2304.0,0.0018341094255447388
2560.0,0.0010347305797040462
2816.0,-0.0009312181500717998
3072.0,-0.003194990335032344
3328.0,-0.0009118762682192028
3584.0,-0.001496229670010507
3840.0,-0.0008642728207632899
4096.0,0.0010694259544834495
4608.0,0.002252258826047182
5120.0,0.0013764817267656326
5632.0,-0.0012351162731647491
6144.0,-0.0019193030893802643
6656.0,-0.00034001917811110616
7168.0,-0.0010347686475142837
7680.0,-0.00016681190754752606
8192.0,-0.00082729960558936
9216.0,0.0011184395989403129
10240.0,-0.0025226236321032047
11264.0,0.0010105494875460863
12288.0,-0.000622692983597517
13312.0,0.00318529037758708
14336.0,-0.002424548612907529
end
