version,3.0
numOfCh,1
type,point
parent_name,80-cuts
ch_type,1_1
kcount,1
numberNandB,1
brightnessNandB,1
carpet pos,0
pc,0
Time (ms),CH1 Auto-Correlation
1.0,0.02300162985920906
2.0,0.02250373363494873
3.0,0.022021545097231865
4.0,0.021551186218857765
5.0,0.021106146275997162
6.0,0.02067588083446026
7.0,0.020250463858246803
8.0,0.019838333129882812
9.0,0.01943955570459366
10.0,0.019044281914830208
11.0,0.018654070794582367
12.0,0.01828240416944027
13.0,0.017903970554471016
14.0,0.01752825826406479
15.0,0.01714925467967987
16.0,0.016783757135272026
18.0,0.016094887629151344
20.0,0.015436758287250996
22.0,0.014809928834438324
24.0,0.014204452745616436
26.0,0.0136336674913764
28.0,0.01308873575180769
30.0,0.012585342861711979
32.0,0.012087937444448471
36.0,0.011131218634545803
40.0,0.010279878973960876
44.0,0.00951275322586298
48.0,0.008702484890818596
52.0,0.007932833395898342
56.0,0.007158876862376928
60.0,0.0064212060533463955
64.0,0.005785011686384678
72.0,0.004682720638811588
80.0,0.0037627245765179396
88.0,0.0031455352436751127
96.0,0.0027690527494996786
104.0,0.0027173925191164017
112.0,0.0027532444801181555
120.0,0.002749508712440729
128.0,0.0028720274567604065
144.0,0.0030528963543474674
160.0,0.0030445281881839037
176.0,0.002870802069082856
192.0,0.0021867183968424797
208.0,0.0013374855043366551
224.0,0.00045638519804924726
240.0,0.00013987718557473272
256.0,-0.00042901962297037244
288.0,-0.0009526144713163376
320.0,-0.0004651957133319229
352.0,0.00014911018661223352
384.0,0.0005080895498394966
416.0,-8.711678674444556e-05
448.0,-0.0006656852783635259
480.0,-0.0002718355681281537
512.0,0.00040705816354602575
576.0,0.0004887233371846378
640.0,-0.00046761627891100943
704.0,-0.0009118784801103175
768.0,0.001231736270710826
832.0,0.00141557352617383
896.0,0.0005496041267178953
960.0,0.00054053874919191
1024.0,-0.0008828446152620018
1152.0,-0.0013601002283394337
1280.0,-0.0010685226880013943
1408.0,-0.0009067133069038391
1536.0,-0.001021919772028923
1664.0,-0.0017048120498657227
1792.0,-0.00038020117790438235
1920.0,0.0011482913978397846
2048.0,0.0015133374836295843
2304.0,0.0001902677904581651
2560.0,-0.0010583101538941264
2816.0,-0.00024512349045835435
3072.0,-0.0004975824267603457
3328.0,-0.001095241284929216
3584.0,0.00032855753670446575
3840.0,-0.00018094653205480427
4096.0,0.0005698947352357209
4608.0,-0.0008543277508579195
5120.0,-0.0018087011994794011
5632.0,-0.00011524851288413629
6144.0,0.0006818001857027411
6656.0,9.662609954830259e-05
7168.0,0.0008230740204453468
7680.0,0.0014161024009808898
8192.0,0.00048055051593109965
9216.0,-0.0007201501866802573
10240.0,0.0017660870216786861
11264.0,-0.0014062973205000162
12288.0,0.0005367752746678889
13312.0,-0.002158524701371789
14336.0,0.0019704143051058054
end
