version,3.0
numOfCh,1
type,point
parent_name,80-cuts
ch_type,1_1
kcount,1
numberNandB,1
brightnessNandB,1
carpet pos,0
pc,0
Time (ms),CH1 Auto-Correlation
1.0,0.02280554734170437
2.0,0.022318314760923386
3.0,0.021838711574673653
4.0,0.021357446908950806
5.0,0.020893801003694534
6.0,0.020452819764614105
7.0,0.020017290487885475
8.0,0.019599663093686104
9.0,0.019185900688171387
10.0,0.0187749695032835
11.0,0.018368009477853775
12.0,0.01797802373766899
13.0,0.017610903829336166
14.0,0.017251282930374146
15.0,0.016891878098249435
16.0,0.0165474321693182
18.0,0.01591637171804905
20.0,0.015344374813139439
22.0,0.014802881516516209
24.0,0.014303568750619888
26.0,0.013814008794724941
28.0,0.013369450345635414
30.0,0.012984409928321838
32.0,0.012641441076993942
36.0,0.012033510953187943
40.0,0.011426501907408237
44.0,0.010847959667444229
48.0,0.010266115888953209
52.0,0.009742560796439648
56.0,0.009253764525055885
60.0,0.008731294423341751
64.0,0.008175939321517944
72.0,0.0071782213635742664
80.0,0.006415567826479673
88.0,0.005694049410521984
96.0,0.004959990736097097
104.0,0.004476927686482668
112.0,0.004238693974912167
120.0,0.004019369371235371
128.0,0.0036485157907009125
144.0,0.003097825450822711
160.0,0.0032364781945943832
176.0,0.0036307410337030888
192.0,0.0037471114192157984
208.0,0.003953300416469574
224.0,0.004307658411562443
240.0,0.004673130344599485
256.0,0.004490019287914038
288.0,0.0036775055341422558
320.0,0.002676129573956132
352.0,0.0026347211096435785
384.0,0.002420267555862665
416.0,0.0019698948599398136
448.0,0.0010165635030716658
480.0,0.0007683296571485698
512.0,6.511170067824423e-05
576.0,-0.0013857054291293025
640.0,-0.0015877551632001996
704.0,-0.0009421124123036861
768.0,-0.0016852242406457663
832.0,-0.0031554761808365583
896.0,-0.0016250767512246966
960.0,-0.0008896358776837587
1024.0,-0.0019385049818083644
1152.0,-0.0022970607969909906
1280.0,-0.001876993221230805
1408.0,-0.00109148642513901
1536.0,-0.00039483513683080673
1664.0,0.0010290434584021568
1792.0,0.0009681863593868911
1920.0,0.0023492013569921255
2048.0,0.000961925892625004
2304.0,-0.00039599291631020606
2560.0,-0.0016712197102606297
2816.0,-0.0008766928222030401
3072.0,-0.0010988757712766528
3328.0,0.0005070699844509363
3584.0,0.00123997638002038
3840.0,0.0005302692879922688
4096.0,-0.0006509131053462625
4608.0,-0.0029294490814208984
5120.0,0.00026530801551416516
5632.0,0.0013405412901192904
6144.0,-0.0015302881365641952
6656.0,-0.002145766746252775
7168.0,0.0009102651383727789
7680.0,0.0024759036023169756
8192.0,-0.0013613393530249596
9216.0,0.00145737046841532
10240.0,-0.0006368735921569169
11264.0,0.0010588807053864002
12288.0,0.0003389638150110841
13312.0,-0.0006106283399276435
14336.0,-0.00010999851656379178
end
