version,3.0
numOfCh,1
type,point
parent_name,80-cuts
ch_type,1_1
kcount,1
numberNandB,1
brightnessNandB,1
carpet pos,0
pc,0
Time (ms),CH1 Auto-Correlation
1.0,0.06670752167701721
2.0,0.06503377854824066
3.0,0.06346104294061661
4.0,0.06197857856750488
5.0,0.06051618978381157
6.0,0.05912052467465401
7.0,0.057816535234451294
8.0,0.056537117809057236
9.0,0.05529595538973808
10.0,0.05405491217970848
11.0,0.052796851843595505
12.0,0.051587849855422974
13.0,0.050408996641635895
14.0,0.04927470162510872
15.0,0.048152659088373184
16.0,0.04707448557019234
18.0,0.04494873806834221
20.0,0.0429464653134346
22.0,0.04103585705161095
24.0,0.03917044401168823
26.0,0.03734319284558296
28.0,0.03561455383896828
30.0,0.033957526087760925
32.0,0.03232137858867645
36.0,0.029454469680786133
40.0,0.02692265436053276
44.0,0.024777870625257492
48.0,0.02284625731408596
52.0,0.021046197041869164
56.0,0.019463343545794487
60.0,0.0183152686804533
64.0,0.01746695674955845
72.0,0.015921575948596
80.0,0.014414550736546516
88.0,0.012592903338372707
96.0,0.01078279409557581
104.0,0.008990702219307423
112.0,0.007230210117995739
120.0,0.005506324581801891
128.0,0.004030467011034489
144.0,0.003006476443260908
160.0,0.0026574437506496906
176.0,0.002383476123213768
192.0,0.0016594714252278209
208.0,0.0014934076461941004
224.0,0.0012169195106253028
240.0,0.0012855326058343053
256.0,0.0021398933604359627
288.0,0.0010370762320235372
320.0,-0.001925302087329328
352.0,-0.0020502766128629446
384.0,-1.549698026792612e-05
416.0,0.001094368752092123
448.0,-0.000229789933655411
480.0,0.0003929299127776176
512.0,0.0009433398372493684
576.0,0.004083123989403248
640.0,0.00016142088861670345
704.0,-0.0008842666866257787
768.0,-0.0026203079614788294
832.0,-7.216636731754988e-05
896.0,0.0003770589246414602
960.0,0.0012801614357158542
1024.0,-0.002227046759799123
1152.0,-0.005420647095888853
1280.0,0.0016967449337244034
1408.0,0.003624517237767577
1536.0,0.005712037906050682
1664.0,-0.0009669861756265163
1792.0,0.0032848436385393143
1920.0,0.0016248271567746997
2048.0,-0.00182636477984488
2304.0,-0.00048458139644935727
2560.0,0.0013044869992882013
2816.0,-0.0006199576891958714
3072.0,-0.00045621246681548655
3328.0,0.0033528143540024757
3584.0,-0.002871201140806079
3840.0,-0.002950448077172041
4096.0,-0.002971247537061572
4608.0,-0.0015508587239310145
5120.0,-0.005429870914667845
5632.0,-0.0009247772977687418
6144.0,0.0021219593472778797
6656.0,-0.0047116451896727085
7168.0,-0.001756141777150333
7680.0,0.003233935683965683
8192.0,-0.0003355059016030282
9216.0,-5.954275547992438e-05
10240.0,-0.0015394373331218958
11264.0,0.0007424302748404443
12288.0,0.002007286064326763
13312.0,-0.0031457168515771627
14336.0,0.00662623718380928
end
