version,3.0
numOfCh,1
type,point
parent_name,80-cuts
ch_type,1_1
kcount,1
numberNandB,1
brightnessNandB,1
carpet pos,0
pc,0
Time (ms),CH1 Auto-Correlation
1.0,0.051397550851106644
2.0,0.05001956969499588
3.0,0.04875132441520691
4.0,0.04750378057360649
5.0,0.04625978320837021
6.0,0.04508616775274277
7.0,0.04399769753217697
8.0,0.04295193403959274
9.0,0.041950102895498276
10.0,0.040984369814395905
11.0,0.04007308930158615
12.0,0.03916473314166069
13.0,0.0382525734603405
14.0,0.03739703446626663
15.0,0.03657267242670059
16.0,0.0357547402381897
18.0,0.034221794456243515
20.0,0.03275081515312195
22.0,0.031414471566677094
24.0,0.03024963289499283
26.0,0.029203705489635468
28.0,0.028210822492837906
30.0,0.02723703905940056
32.0,0.026237769052386284
36.0,0.024216294288635254
40.0,0.022377364337444305
44.0,0.020904526114463806
48.0,0.019558753818273544
52.0,0.018389975652098656
56.0,0.017379341647028923
60.0,0.016434920951724052
64.0,0.015499366447329521
72.0,0.013792934827506542
80.0,0.012245617806911469
88.0,0.010919732972979546
96.0,0.010046860203146935
104.0,0.009257646277546883
112.0,0.008659112267196178
120.0,0.00772236380726099
128.0,0.006733994465321302
144.0,0.005452748388051987
160.0,0.004005678463727236
176.0,0.0015189684927463531
192.0,-0.0005477330414578319
208.0,-0.0014945085858926177
224.0,-0.002244137693196535
240.0,-0.00331131718121469
256.0,-0.003989444579929113
288.0,-0.003907333128154278
320.0,-0.003960805479437113
352.0,-0.005614927504211664
384.0,-0.003125764662399888
416.0,3.08306553051807e-05
448.0,0.0007818457670509815
480.0,-0.0003508318623062223
512.0,-0.00028989670681767166
576.0,-0.00030441037961281836
640.0,-0.0009286249987781048
704.0,-0.0034414108376950026
768.0,-0.0024853914510458708
832.0,-0.000679784279782325
896.0,0.0015745230484753847
960.0,0.0016658970853313804
1024.0,0.0029284022748470306
1152.0,0.0005901893600821495
1280.0,-0.002689250046387315
1408.0,-0.002440506126731634
1536.0,-0.0022981856018304825
1664.0,-0.004607851151376963
1792.0,-0.00045842735562473536
1920.0,0.00032182130962610245
2048.0,0.00041860126657411456
2304.0,3.9803107938496396e-05
2560.0,0.003490062663331628
2816.0,0.0008012288599275053
3072.0,-0.003518676618114114
3328.0,0.0008261068724095821
3584.0,0.00022761205036658794
3840.0,-0.0005417196080088615
4096.0,-0.004017662722617388
4608.0,0.0008923984714783728
5120.0,0.0006543932249769568
5632.0,-0.0015076210256665945
6144.0,-0.002011568285524845
6656.0,0.0006356092053465545
7168.0,0.0034379998687654734
7680.0,0.0024137331638485193
8192.0,0.0002616330748423934
9216.0,-0.0008785631507635117
10240.0,0.00019869464449584484
11264.0,-0.002193146850913763
12288.0,-0.0030553247779607773
13312.0,0.001080005313269794
14336.0,0.001932327402755618
end
