version,3.0
numOfCh,1
type,point
parent_name,80-cuts
ch_type,1_1
kcount,1
numberNandB,1
brightnessNandB,1
carpet pos,0
pc,0
Time (ms),CH1 Auto-Correlation
1.0,0.019437095150351524
2.0,0.018988072872161865
3.0,0.018567796796560287
4.0,0.018170369789004326
5.0,0.017790254205465317
6.0,0.017422985285520554
7.0,0.017063425853848457
8.0,0.0167218204587698
9.0,0.016393039375543594
10.0,0.016073456034064293
11.0,0.01575694978237152
12.0,0.015448356047272682
13.0,0.01515916083008051
14.0,0.014873787760734558
15.0,0.014584450051188469
16.0,0.014313740655779839
18.0,0.013813421130180359
20.0,0.013347736559808254
22.0,0.012919901870191097
24.0,0.012505765073001385
26.0,0.012123974971473217
28.0,0.011797266080975533
30.0,0.011492284014821053
32.0,0.011210507713258266
36.0,0.010675796307623386
40.0,0.010166295804083347
44.0,0.009686649776995182
48.0,0.009235200472176075
52.0,0.00882288720458746
56.0,0.008428809233009815
60.0,0.008099377155303955
64.0,0.007818439975380898
72.0,0.0072686392813920975
80.0,0.006655384786427021
88.0,0.005988026969134808
96.0,0.005424779839813709
104.0,0.005062301643192768
112.0,0.004820923786610365
120.0,0.004627976566553116
128.0,0.004383075051009655
144.0,0.003956187050789595
160.0,0.003744192887097597
176.0,0.00349428947083652
192.0,0.0029175591189414263
208.0,0.0022755118552595377
224.0,0.0017186375334858894
240.0,0.0012646975228562951
256.0,0.0009269864531233907
288.0,0.0007929113344289362
320.0,0.0008136458927765489
352.0,0.0006165416561998427
384.0,-3.0219671316444874e-05
416.0,-0.0004141218669246882
448.0,-2.4747425413806923e-05
480.0,0.0007716936524957418
512.0,0.0007632524357177317
576.0,0.00042320863576605916
640.0,0.0012424770975485444
704.0,0.0016684248112142086
768.0,0.00017561866843607277
832.0,-0.0002372710150666535
896.0,0.0007201148546300828
960.0,0.0004609790339600295
1024.0,4.9847931222757325e-05
1152.0,-8.39674030430615e-05
1280.0,-1.599047755007632e-05
1408.0,0.0006978880846872926
1536.0,0.0005190832889638841
1664.0,-0.000760953058488667
1792.0,-0.0022020491305738688
1920.0,-0.0021175220608711243
2048.0,-0.002029543509706855
2304.0,-0.0006801164709031582
2560.0,-0.00025251414626836777
2816.0,0.0018330373568460345
3072.0,-0.00023798127949703485
3328.0,0.0011759664630517364
3584.0,-2.9242268283269368e-05
3840.0,0.0012416633544489741
4096.0,-0.00032564668799750507
4608.0,-0.0008930953335948288
5120.0,0.0001735502592055127
5632.0,0.0003068025107495487
6144.0,0.0009606612729839981
6656.0,7.897737668827176e-05
7168.0,-0.0013173219049349427
7680.0,-0.0015136267757043242
8192.0,-0.0011983999283984303
9216.0,0.00018611906853038818
10240.0,2.9981209081597626e-05
11264.0,9.018494165502489e-05
12288.0,-0.00046971815754659474
13312.0,-0.0023836917243897915
14336.0,-0.0009427171899005771
end
