version,3.0
numOfCh,1
type,point
parent_name,80-cuts
ch_type,1_1
kcount,1
numberNandB,1
brightnessNandB,1
carpet pos,0
pc,0
Time (ms),CH1 Auto-Correlation
1.0,0.020236559212207794
2.0,0.01974939927458763
3.0,0.01925056055188179
4.0,0.01877621002495289
5.0,0.018327513709664345
6.0,0.01789328269660473
7.0,0.017469853162765503
8.0,0.017065508291125298
9.0,0.01667492650449276
10.0,0.01629021391272545
11.0,0.015920720994472504
12.0,0.015566058456897736
13.0,0.015224308706820011
14.0,0.014890962280333042
15.0,0.014577416703104973
16.0,0.014269040897488594
18.0,0.013699299655854702
20.0,0.013194485567510128
22.0,0.012726509012281895
24.0,0.01228098664432764
26.0,0.011853700503706932
28.0,0.011464600451290607
30.0,0.011101256124675274
32.0,0.010754144750535488
36.0,0.010122492909431458
40.0,0.009460242465138435
44.0,0.008859388530254364
48.0,0.008344109170138836
52.0,0.00783511158078909
56.0,0.007349998224526644
60.0,0.006884679198265076
64.0,0.0064158509485423565
72.0,0.005581951700150967
80.0,0.004795809742063284
88.0,0.004149943124502897
96.0,0.003633450251072645
104.0,0.002953041112050414
112.0,0.0024714695755392313
120.0,0.002226875629276037
128.0,0.0020904073026031256
144.0,0.0017339760670438409
160.0,0.0014344857772812247
176.0,0.0011761697242036462
192.0,0.001255747745744884
208.0,0.001419689622707665
224.0,0.0014666481874883175
240.0,0.0013816481223329902
256.0,0.0014401845401152968
288.0,0.0018205009400844574
320.0,0.00197622855193913
352.0,0.00207826541736722
384.0,0.0020419370848685503
416.0,0.0016728583723306656
448.0,0.0015100104501470923
480.0,0.0017248786753043532
512.0,0.0017470626626163721
576.0,0.001874069101177156
640.0,-0.0006700895028188825
704.0,-0.001550668734125793
768.0,-0.0006504007033072412
832.0,0.0008416579803451896
896.0,0.0007412778795696795
960.0,-7.3320246883668e-05
1024.0,-0.0002424784906907007
1152.0,0.0006667528068646789
1280.0,-0.0014107628958299756
1408.0,-0.00033110956428572536
1536.0,9.325025894213468e-05
1664.0,-0.00022114919556770474
1792.0,0.0008229827508330345
1920.0,0.0003750862379092723
2048.0,-0.00047810139949433506
2304.0,-0.0004926664405502379
2560.0,-0.0009413727093487978
2816.0,-0.0006115063442848623
3072.0,6.236931221792474e-05
3328.0,-2.7809532184619457e-05
3584.0,-2.7572026738198474e-05
3840.0,0.0005506844609044492
4096.0,-0.0002612920943647623
4608.0,-0.0002704193175304681
5120.0,9.352029883302748e-05
5632.0,0.0001467280089855194
6144.0,-0.0004046104149892926
6656.0,-0.0010239238617941737
7168.0,-0.0012909325305372477
7680.0,-0.0001500995858805254
8192.0,0.0008197659044526517
9216.0,-0.0013946243561804295
10240.0,-0.001421669265255332
11264.0,0.0009252038435079157
12288.0,0.0010145977139472961
13312.0,0.0016700596315786242
14336.0,-0.000491909624543041
end
