version,3.0
numOfCh,1
type,point
parent_name,80-cuts
ch_type,1_1
kcount,1
numberNandB,1
brightnessNandB,1
carpet pos,0
pc,0
Time (ms),CH1 Auto-Correlation
1.0,0.05671175196766853
2.0,0.05515739694237709
3.0,0.05366856977343559
4.0,0.05226656422019005
5.0,0.05094330012798309
6.0,0.04967011883854866
7.0,0.048427335917949677
8.0,0.047215163707733154
9.0,0.04601885750889778
10.0,0.04487714543938637
11.0,0.04376598447561264
12.0,0.04272070527076721
13.0,0.04167795181274414
14.0,0.040644723922014236
15.0,0.0396035797894001
16.0,0.03857465088367462
18.0,0.036650415509939194
20.0,0.0348738394677639
22.0,0.03324268385767937
24.0,0.03165646269917488
26.0,0.03016005828976631
28.0,0.028769269585609436
30.0,0.02739153988659382
32.0,0.025979381054639816
36.0,0.02332964539527893
40.0,0.020880959928035736
44.0,0.018451062962412834
48.0,0.01629742607474327
52.0,0.014593532308936119
56.0,0.013327536173164845
60.0,0.012209863401949406
64.0,0.011192075908184052
72.0,0.009396711364388466
80.0,0.008062048815190792
88.0,0.006961252074688673
96.0,0.006234211381524801
104.0,0.005785968154668808
112.0,0.005247395485639572
120.0,0.0047423336654901505
128.0,0.0040855612605810165
144.0,0.0027368476148694754
160.0,0.0014396717306226492
176.0,0.0009254397009499371
192.0,0.0007771815289743245
208.0,0.00036821552203036845
224.0,-0.0012115950230509043
240.0,-0.0021462002769112587
256.0,-0.002062049461528659
288.0,-0.004200588911771774
320.0,-0.0034592016600072384
352.0,5.646292265737429e-05
384.0,0.0025007843505591154
416.0,0.0032970288302749395
448.0,0.0018301424570381641
480.0,0.0008723869686946273
512.0,0.001326560159213841
576.0,0.002167694503441453
640.0,0.0018858080729842186
704.0,0.0009142159833572805
768.0,-0.0011206381022930145
832.0,0.001680652960203588
896.0,-0.002509800950065255
960.0,-0.0034652564208954573
1024.0,-0.0018213808070868254
1152.0,-0.0012020440772175789
1280.0,0.005331492051482201
1408.0,-0.0006310292519629002
1536.0,0.0023980361875146627
1664.0,-4.56875677627977e-05
1792.0,-0.004181334748864174
1920.0,0.0002529399353079498
2048.0,0.0009693928295746446
2304.0,-0.002488895319402218
2560.0,-0.0005604635225608945
2816.0,-0.004346540663391352
3072.0,-0.0004611562180798501
3328.0,-0.00327171734534204
3584.0,0.001968878787010908
3840.0,-0.0001384355127811432
4096.0,0.0037379527930170298
4608.0,0.0006699495133943856
5120.0,0.0024759129155427217
5632.0,0.0005135251558385789
6144.0,0.0004225333977956325
6656.0,0.0003257110947743058
7168.0,-0.0011046540457755327
7680.0,-0.0008246776997111738
8192.0,9.612564463168383e-05
9216.0,-0.0005405729752965271
10240.0,0.0007442228379659355
11264.0,0.001430054660886526
12288.0,-0.0014163593295961618
13312.0,-0.0031364045571535826
14336.0,-0.005310752894729376
end
