version,3.0
numOfCh,1
type,point
parent_name,80-cuts
ch_type,1_1
kcount,1
numberNandB,1
brightnessNandB,1
carpet pos,0
pc,0
Time (ms),CH1 Auto-Correlation
1.0,0.034853026270866394
2.0,0.03412308543920517
3.0,0.03342051804065704
4.0,0.03274400532245636
5.0,0.03209496662020683
6.0,0.03144128993153572
7.0,0.03079834021627903
8.0,0.030169762670993805
9.0,0.029571404680609703
10.0,0.029013341292738914
11.0,0.028462955728173256
12.0,0.027928175404667854
13.0,0.027401568368077278
14.0,0.02687819115817547
15.0,0.026364419609308243
16.0,0.02585248090326786
18.0,0.02485380321741104
20.0,0.023883989080786705
22.0,0.022948000580072403
24.0,0.022062599658966064
26.0,0.021240398287773132
28.0,0.020472640171647072
30.0,0.019745273515582085
32.0,0.019071009010076523
36.0,0.01781713217496872
40.0,0.016717981547117233
44.0,0.015743238851428032
48.0,0.014899379573762417
52.0,0.01403508149087429
56.0,0.013170951046049595
60.0,0.012374112382531166
64.0,0.011667825281620026
72.0,0.01050573494285345
80.0,0.00975700281560421
88.0,0.009015850722789764
96.0,0.008322754874825478
104.0,0.007426519878208637
112.0,0.006402026396244764
120.0,0.0053570326417684555
128.0,0.004309206269681454
144.0,0.0033652600832283497
160.0,0.003291473723948002
176.0,0.003291279776021838
192.0,0.0025991073343902826
208.0,0.0014806146500632167
224.0,-9.096753274207003e-06
240.0,-0.0011552978539839387
256.0,-0.0009957961738109589
288.0,-0.0001466823014197871
320.0,8.435396739514545e-05
352.0,0.0014235075796023011
384.0,0.0025789097417145967
416.0,0.0030942808371037245
448.0,0.002243268070742488
480.0,0.0010490810964256525
512.0,0.0010571412276476622
576.0,0.0023856821935623884
640.0,0.0011140137212350965
704.0,0.0002194756525568664
768.0,0.0012742768740281463
832.0,0.0003817506367340684
896.0,-0.002239912049844861
960.0,-0.00328014325350523
1024.0,-0.003161979140713811
1152.0,-0.0008356369216926396
1280.0,-0.0008444674895144999
1408.0,-0.0007615163340233266
1536.0,-0.0004654248186852783
1664.0,0.0015271320007741451
1792.0,0.001803787425160408
1920.0,-0.00036088889464735985
2048.0,0.0003720519016496837
2304.0,-0.0004234316002111882
2560.0,-0.0009431899525225163
2816.0,-0.0021356430370360613
3072.0,-2.4422099158982746e-05
3328.0,0.0005263063940219581
3584.0,-0.0017649068031460047
3840.0,-0.00044767261715605855
4096.0,-0.0012745469575747848
4608.0,-0.00029889994766563177
5120.0,-0.002041463740170002
5632.0,-0.0011668591760098934
6144.0,0.00017877513892017305
6656.0,0.0017659661825746298
7168.0,0.0011689348611980677
7680.0,0.0011980143608525395
8192.0,-0.0013409428065642715
9216.0,0.002198353875428438
10240.0,0.00017661975289229304
11264.0,-0.0009117478621192276
12288.0,-0.002038676990196109
13312.0,-0.0031007411889731884
14336.0,-0.0004705172323156148
end
