version,3.0
numOfCh,1
type,point
parent_name,80-cuts
ch_type,1_1
kcount,1
numberNandB,1
brightnessNandB,1
carpet pos,0
pc,0
Time (ms),CH1 Auto-Correlation
1.0,0.06652073562145233
2.0,0.06486955285072327
3.0,0.0632842406630516
4.0,0.06173771247267723
5.0,0.06022627651691437
6.0,0.05876391753554344
7.0,0.05733225494623184
8.0,0.05590845271945
9.0,0.05455314740538597
10.0,0.05321299657225609
11.0,0.051941417157649994
12.0,0.050700753927230835
13.0,0.049495719373226166
14.0,0.048280227929353714
15.0,0.04708864912390709
16.0,0.04590969160199165
18.0,0.043558429926633835
20.0,0.041352685540914536
22.0,0.03919612988829613
24.0,0.03718957677483559
26.0,0.03533728048205376
28.0,0.03353949636220932
30.0,0.03189348429441452
32.0,0.030435042455792427
36.0,0.02787233144044876
40.0,0.025895491242408752
44.0,0.02429244853556156
48.0,0.022967666387557983
52.0,0.021815912798047066
56.0,0.020690973848104477
60.0,0.01985298842191696
64.0,0.019337667152285576
72.0,0.018616357818245888
80.0,0.017463812604546547
88.0,0.015768971294164658
96.0,0.014091349206864834
104.0,0.012255513109266758
112.0,0.010714288800954819
120.0,0.009361094795167446
128.0,0.008425906300544739
144.0,0.007242120336741209
160.0,0.00543981371447444
176.0,0.0037638642825186253
192.0,0.001699854270555079
208.0,0.000236243853578344
224.0,0.0008870242745615542
240.0,0.0007771214004606009
256.0,-0.0004691709182225168
288.0,-0.001872337656095624
320.0,-0.00027335414779372513
352.0,0.0013150140875950456
384.0,0.001049541519023478
416.0,0.001299442257732153
448.0,0.0011116310488432646
480.0,-9.701502131065354e-05
512.0,-0.0018375272629782557
576.0,-0.003071574727073312
640.0,-0.006821494083851576
704.0,-0.005989996250718832
768.0,-0.0041428133845329285
832.0,-0.002641611034050584
896.0,-0.004273629747331142
960.0,-0.004213431384414434
1024.0,-0.004884549416601658
1152.0,-0.001273096539080143
1280.0,0.006235706619918346
1408.0,0.002595169935375452
1536.0,-0.0023297069128602743
1664.0,0.001536899944767356
1792.0,0.001425239839591086
1920.0,-0.003608008613809943
2048.0,-0.007160569075495005
2304.0,0.0004511685692705214
2560.0,0.006228760816156864
2816.0,0.0024338546209037304
3072.0,-0.001963478745892644
3328.0,-0.0049019805155694485
3584.0,-0.001252933288924396
3840.0,0.002325062407180667
4096.0,0.004590507131069899
4608.0,-0.0006147649837657809
5120.0,-0.00030058217816986144
5632.0,7.352121610892937e-05
6144.0,-0.005557578057050705
6656.0,0.000732094282284379
7168.0,-0.001754125696606934
7680.0,0.0011533149518072605
8192.0,0.004777189809828997
9216.0,-0.0018467437475919724
10240.0,0.0005385591648519039
11264.0,-0.002160535426810384
12288.0,0.0017384440870955586
13312.0,-0.0008047654409892857
14336.0,-0.0027009923942387104
end
