version,3.0
numOfCh,1
type,point
parent_name,80-cuts
ch_type,1_1
kcount,1
numberNandB,1
brightnessNandB,1
carpet pos,0
pc,0
Time (ms),CH1 Auto-Correlation
1.0,0.021195897832512856
2.0,0.02072885073721409
3.0,0.020276937633752823
4.0,0.019839882850646973
5.0,0.019414354115724564
6.0,0.01901557855308056
7.0,0.018624987453222275
8.0,0.01824221760034561
9.0,0.017882434651255608
10.0,0.01754106767475605
11.0,0.017205988988280296
12.0,0.016884054988622665
13.0,0.01657663658261299
14.0,0.01627006195485592
15.0,0.015969403088092804
16.0,0.015683824196457863
18.0,0.01514383777976036
20.0,0.01465389970690012
22.0,0.014195967465639114
24.0,0.013782241381704807
26.0,0.013401152566075325
28.0,0.013011185452342033
30.0,0.012623263522982597
32.0,0.01222786121070385
36.0,0.01149511057883501
40.0,0.010881097987294197
44.0,0.010334251448512077
48.0,0.009832332842051983
52.0,0.009357305243611336
56.0,0.008875413797795773
60.0,0.008404066786170006
64.0,0.007991256192326546
72.0,0.007398800924420357
80.0,0.007015064358711243
88.0,0.00655614398419857
96.0,0.006046718452125788
104.0,0.005582850892096758
112.0,0.005154636688530445
120.0,0.004712063819169998
128.0,0.004173957277089357
144.0,0.0033423618879169226
160.0,0.0028246776200830936
176.0,0.0023257071152329445
192.0,0.0017994102090597153
208.0,0.0017272213008254766
224.0,0.0017419860232621431
240.0,0.001512393937446177
256.0,0.0015106166247278452
288.0,0.0013019210891798139
320.0,0.0012161327758803964
352.0,0.0011735555017367005
384.0,0.0013563423417508602
416.0,0.0014705689391121268
448.0,0.0011056805960834026
480.0,0.001004618825390935
512.0,0.0008749421103857458
576.0,0.0008715067524462938
640.0,0.001558653893880546
704.0,0.0018162897322326899
768.0,0.0020866193808615208
832.0,0.0012626989046111703
896.0,0.0004781898169312626
960.0,-0.0001083897877833806
1024.0,-0.00018471581279300153
1152.0,-0.0006419534329324961
1280.0,0.0003392680373508483
1408.0,0.0007050480926409364
1536.0,0.00043161935172975063
1664.0,9.219686762662604e-05
1792.0,-0.0017030048184096813
1920.0,-0.0018848944455385208
2048.0,0.0010879203910008073
2304.0,-0.000893964315764606
2560.0,-0.000522562419064343
2816.0,-0.0021529365330934525
3072.0,-0.001275755581445992
3328.0,-0.0005739083280786872
3584.0,-0.0008085206500254571
3840.0,-0.003022414166480303
4096.0,-0.0022948733530938625
4608.0,-0.0006718701333738863
5120.0,9.915731061482802e-05
5632.0,0.0005313397850841284
6144.0,0.0006242026574909687
6656.0,-0.00037036321009509265
7168.0,0.002033894183114171
7680.0,0.0014478213852271438
8192.0,0.0001415290025761351
9216.0,-0.0003114785358775407
10240.0,-0.0012964413035660982
11264.0,0.0009410289349034429
12288.0,-0.0003224064421374351
13312.0,-0.0004422642523422837
14336.0,-0.002052328549325466
end
