version,3.0
numOfCh,1
type,point
parent_name,80-cuts
ch_type,1_1
kcount,1
numberNandB,1
brightnessNandB,1
carpet pos,0
pc,0
Time (ms),CH1 Auto-Correlation
1.0,0.027427250519394875
2.0,0.026713360100984573
3.0,0.026030931621789932
4.0,0.025374755263328552
5.0,0.024733174592256546
6.0,0.024107877165079117
7.0,0.02349834144115448
8.0,0.022908754646778107
9.0,0.022335847839713097
10.0,0.02178606018424034
11.0,0.02126002311706543
12.0,0.020769665017724037
13.0,0.02030489407479763
14.0,0.019830042496323586
15.0,0.019371241331100464
16.0,0.01890241727232933
18.0,0.01799883134663105
20.0,0.017149539664387703
22.0,0.01633545383810997
24.0,0.01556799653917551
26.0,0.014837543480098248
28.0,0.014141282998025417
30.0,0.013474550098180771
32.0,0.012843616306781769
36.0,0.011630517430603504
40.0,0.010382428765296936
44.0,0.009149053134024143
48.0,0.008013850077986717
52.0,0.007035163696855307
56.0,0.006107214838266373
60.0,0.005306229926645756
64.0,0.004652224946767092
72.0,0.003725859336555004
80.0,0.003023265628144145
88.0,0.0024316704366356134
96.0,0.0020224738400429487
104.0,0.0017706068465486169
112.0,0.0016820118762552738
120.0,0.001536123570986092
128.0,0.0013288111658766866
144.0,0.0006973049021326005
160.0,-0.00011169299978064373
176.0,-0.0003706947318278253
192.0,-0.0002027395530603826
208.0,1.6936079191509634e-05
224.0,9.136043081525713e-05
240.0,0.00047401877236552536
256.0,0.0008245041826739907
288.0,-0.0004702836158685386
320.0,-0.00017170849605463445
352.0,0.0013305211905390024
384.0,0.0011372258886694908
416.0,-2.4910044885473326e-05
448.0,-0.00023721605248283595
480.0,-0.00041167347808368504
512.0,-0.0006590613047592342
576.0,5.673413761542179e-05
640.0,-0.002002174034714699
704.0,-0.0018907763296738267
768.0,-0.0019281698623672128
832.0,-0.0016398258740082383
896.0,-0.001903706113807857
960.0,-0.0015520553570240736
1024.0,-0.0018325949786230922
1152.0,-0.0007541305967606604
1280.0,0.0004958693170920014
1408.0,0.0013672412605956197
1536.0,3.4987828257726505e-05
1664.0,0.001271478016860783
1792.0,0.00010403025225969031
1920.0,0.000613772077485919
2048.0,-0.0012466644402593374
2304.0,-0.00010342380846850574
2560.0,0.00021685064712073654
2816.0,0.0018914123065769672
3072.0,0.00035780321923084557
3328.0,0.00023073623015079647
3584.0,-0.0015940506709739566
3840.0,0.00030935293762013316
4096.0,0.0007515181787312031
4608.0,-0.0003365821030456573
5120.0,-0.0011033990886062384
5632.0,0.00023943083942867815
6144.0,-0.000322690699249506
6656.0,0.00011978686961811036
7168.0,-0.0017511517507955432
7680.0,-0.00040997358155436814
8192.0,0.000604339933488518
9216.0,-0.0013143678661435843
10240.0,-7.459719927283004e-05
11264.0,0.0006086289067752659
12288.0,-3.3684715162962675e-05
13312.0,-0.00020033633336424828
14336.0,0.0004629465693142265
end
