version,3.0
numOfCh,1
type,point
parent_name,80-cuts
ch_type,1_1
kcount,1
numberNandB,1
brightnessNandB,1
carpet pos,0
pc,0
Time (ms),CH1 Auto-Correlation
1.0,0.02736426517367363
2.0,0.026654411107301712
3.0,0.025963814929127693
4.0,0.025273986160755157
5.0,0.024601925164461136
6.0,0.023961801081895828
7.0,0.023325465619564056
8.0,0.022709377110004425
9.0,0.022112751379609108
10.0,0.021538034081459045
11.0,0.020983748137950897
12.0,0.020423131063580513
13.0,0.01988525129854679
14.0,0.019367914646863937
15.0,0.018861528486013412
16.0,0.01838667504489422
18.0,0.017514372244477272
20.0,0.016708072274923325
22.0,0.015974683687090874
24.0,0.015289003029465675
26.0,0.014648521319031715
28.0,0.014049626886844635
30.0,0.013505067676305771
32.0,0.013028443790972233
36.0,0.012191984802484512
40.0,0.011381843127310276
44.0,0.010699235834181309
48.0,0.010158969089388847
52.0,0.009566515684127808
56.0,0.008857480250298977
60.0,0.008273692801594734
64.0,0.0077400957234203815
72.0,0.006682912819087505
80.0,0.005734739359468222
88.0,0.004929841961711645
96.0,0.0041742571629583836
104.0,0.0035995738580822945
112.0,0.00312730111181736
120.0,0.0028936155140399933
128.0,0.002801488386467099
144.0,0.003129281336441636
160.0,0.0032078151125460863
176.0,0.0029431937728077173
192.0,0.0028363338205963373
208.0,0.003369914833456278
224.0,0.003830439643934369
240.0,0.0031299360562115908
256.0,0.0018861034186556935
288.0,0.0014330320991575718
320.0,0.0015961173921823502
352.0,0.0017815721221268177
384.0,0.0020127282477915287
416.0,0.0012629017001017928
448.0,0.0006665981491096318
480.0,0.0003035998379345983
512.0,0.00047887754044495523
576.0,-0.0005207371432334185
640.0,-0.001217208686284721
704.0,-0.0004260578425601125
768.0,-0.0012057321146130562
832.0,-0.002357221907004714
896.0,-0.0017086154548451304
960.0,-0.002003162633627653
1024.0,-0.0016745590837672353
1152.0,-0.0010160872479900718
1280.0,-0.00038795758155174553
1408.0,-0.00040545951924286783
1536.0,-0.0002903954591602087
1664.0,8.478641393594444e-05
1792.0,0.001979728927835822
1920.0,0.0018067448399960995
2048.0,0.0015139023307710886
2304.0,0.002398900454863906
2560.0,0.0005697390297427773
2816.0,0.00032980021205730736
3072.0,-0.0004724400641862303
3328.0,-0.001477214740589261
3584.0,0.00016551725275348872
3840.0,0.00022880059259478003
4096.0,0.0011861625825986266
4608.0,-0.001131861936300993
5120.0,0.00023860408691689372
5632.0,0.001757779042236507
6144.0,-0.0012537746224552393
6656.0,-0.0027844335418194532
7168.0,0.00029816979076713324
7680.0,0.001147163100540638
8192.0,-0.0012451795628294349
9216.0,-0.0013584166299551725
10240.0,0.00019898622122127563
11264.0,0.00012663572852034122
12288.0,-0.000735695764888078
13312.0,-0.0011240283492952585
14336.0,-0.0025626220740377903
end
