version,3.0
numOfCh,1
type,point
parent_name,80-cuts
ch_type,1_1
kcount,1
numberNandB,1
brightnessNandB,1
carpet pos,0
pc,0
Time (ms),CH1 Auto-Correlation
1.0,0.020919928327202797
2.0,0.020438577979803085
3.0,0.019965698942542076
4.0,0.019516143947839737
5.0,0.019089385867118835
6.0,0.018673913553357124
7.0,0.01826549880206585
8.0,0.017866099253296852
9.0,0.017489256337285042
10.0,0.01712656207382679
11.0,0.016767267137765884
12.0,0.016430743038654327
13.0,0.016090834513306618
14.0,0.015757817775011063
15.0,0.015436987392604351
16.0,0.015122522599995136
18.0,0.0145176462829113
20.0,0.013911088928580284
22.0,0.013324320316314697
24.0,0.012774285860359669
26.0,0.012264241464436054
28.0,0.011792648583650589
30.0,0.011353532783687115
32.0,0.01093223039060831
36.0,0.010175012052059174
40.0,0.009447677992284298
44.0,0.008755839429795742
48.0,0.008125978522002697
52.0,0.007617482915520668
56.0,0.007157901767641306
60.0,0.006752914749085903
64.0,0.006397851277142763
72.0,0.005869852378964424
80.0,0.005465929862111807
88.0,0.005138640757650137
96.0,0.004856914281845093
104.0,0.00440211920067668
112.0,0.00396780576556921
120.0,0.0036141949240118265
128.0,0.003226657398045063
144.0,0.002829410135746002
160.0,0.002451057778671384
176.0,0.0022420166060328484
192.0,0.0022031504195183516
208.0,0.001978802029043436
224.0,0.0012450309004634619
240.0,0.00045633307308889925
256.0,3.956673390348442e-05
288.0,-0.00010478749027242884
320.0,-0.000274239806458354
352.0,-0.001046770834363997
384.0,-0.001530106645077467
416.0,-0.0021171593107283115
448.0,-0.002074910094961524
480.0,-0.0019391344394534826
512.0,-0.0020655901171267033
576.0,-0.002410959918051958
640.0,-0.002163338242098689
704.0,-0.0018722732784226537
768.0,-0.0009264101390726864
832.0,-0.001053380430676043
896.0,-0.0016512690344825387
960.0,-0.0003676721826195717
1024.0,0.00032876484328880906
1152.0,-0.00028636204660870135
1280.0,5.450271783047356e-05
1408.0,-0.00033765696571208537
1536.0,-0.0008569186902604997
1664.0,0.0008028564043343067
1792.0,0.0016887979581952095
1920.0,0.001566649996675551
2048.0,0.0004492626467254013
2304.0,-0.0023506339639425278
2560.0,-0.0002511179482098669
2816.0,-0.00033816287759691477
3072.0,-3.273298352723941e-05
3328.0,0.0017142437864094973
3584.0,0.0009432590450160205
3840.0,0.0013912523863837123
4096.0,-0.0015968610532581806
4608.0,3.797894169110805e-05
5120.0,-0.0003540349716786295
5632.0,-0.00018815019575413316
6144.0,-0.0014361479552462697
6656.0,0.0008550219936296344
7168.0,0.00045913251233287156
7680.0,-0.0002111138019245118
8192.0,-0.0007062122458592057
9216.0,-0.0006818860420025885
10240.0,-0.0003215112374164164
11264.0,0.0011003618128597736
12288.0,-0.000943274179007858
13312.0,0.0002069281617878005
14336.0,0.00036553782410919666
end
