version,3.0
numOfCh,1
type,point
parent_name,80-cuts
ch_type,1_1
kcount,1
numberNandB,1
brightnessNandB,1
carpet pos,0
pc,0
Time (ms),CH1 Auto-Correlation
1.0,0.018563339486718178
2.0,0.01813170500099659
3.0,0.017702840268611908
4.0,0.017286892980337143
5.0,0.016889039427042007
6.0,0.016505708917975426
7.0,0.016134830191731453
8.0,0.01579708233475685
9.0,0.015470189973711967
10.0,0.01515373308211565
11.0,0.014840793795883656
12.0,0.014527255669236183
13.0,0.014225533232092857
14.0,0.013944879174232483
15.0,0.013666774146258831
16.0,0.01339831855148077
18.0,0.012895879335701466
20.0,0.012414311058819294
22.0,0.011942364275455475
24.0,0.011489752680063248
26.0,0.011059553362429142
28.0,0.01065239030867815
30.0,0.010267822071909904
32.0,0.009928081184625626
36.0,0.009347374550998211
40.0,0.008829778991639614
44.0,0.00834162998944521
48.0,0.007865983061492443
52.0,0.007387620862573385
56.0,0.006953771226108074
60.0,0.006554267834872007
64.0,0.006137952674180269
72.0,0.00513777881860733
80.0,0.004198746290057898
88.0,0.003483910346403718
96.0,0.0028981450013816357
104.0,0.002372684422880411
112.0,0.0019088591216132045
120.0,0.001516974065452814
128.0,0.0012169142719358206
144.0,0.0010527444537729025
160.0,0.0010508315172046423
176.0,0.0011745842639356852
192.0,0.001154099591076374
208.0,0.001041180919855833
224.0,0.0007079519564285874
240.0,0.0006202463991940022
256.0,0.0005822288221679628
288.0,0.0006273625185713172
320.0,0.00033857120433822274
352.0,-0.00029375747544690967
384.0,-0.0009405903401784599
416.0,-0.001242120168171823
448.0,-0.000944513943977654
480.0,-9.273540490539744e-05
512.0,1.3437372217595112e-05
576.0,-0.0008780977805145085
640.0,-0.0006953960983082652
704.0,-0.0004621989792212844
768.0,-0.00042781405500136316
832.0,-0.0005194935365580022
896.0,-0.0009137854794971645
960.0,-0.0004915184108540416
1024.0,0.0002096179814543575
1152.0,-0.00033574699773453176
1280.0,-0.00038516547647304833
1408.0,-0.0005049113533459604
1536.0,-0.0007613521884195507
1664.0,-0.00026407846598885953
1792.0,0.0003732485929504037
1920.0,-0.0006156199960969388
2048.0,-0.0003795610391534865
2304.0,0.00039437724626623094
2560.0,0.0003775765944737941
2816.0,0.0003531974507495761
3072.0,-0.0011921529658138752
3328.0,0.00023505678109358996
3584.0,-0.00026769243413582444
3840.0,0.0001879012561403215
4096.0,0.0008189193322323263
4608.0,-0.0007111120503395796
5120.0,-0.0009718253859318793
5632.0,-6.3172476075124e-05
6144.0,0.00019105654791928828
6656.0,-0.00020774385484401137
7168.0,-0.000375284202164039
7680.0,6.638374907197431e-05
8192.0,0.0008014621562324464
9216.0,-0.0004977783537469804
10240.0,0.00024629311519674957
11264.0,-0.0005192211829125881
12288.0,0.0007747874478809536
13312.0,-0.0001930597791215405
14336.0,0.000329863338265568
end
