version,3.0
numOfCh,1
type,point
parent_name,80-cuts
ch_type,1_1
kcount,1
numberNandB,1
brightnessNandB,1
carpet pos,0
pc,0
Time (ms),CH1 Auto-Correlation
1.0,0.034092266112565994
2.0,0.03335410729050636
3.0,0.03263234719634056
4.0,0.031931933015584946
5.0,0.03124578483402729
6.0,0.03056369349360466
7.0,0.029918232932686806
8.0,0.029285263270139694
9.0,0.028653118759393692
10.0,0.02804657258093357
11.0,0.027448400855064392
12.0,0.026863915845751762
13.0,0.02629791758954525
14.0,0.025761960074305534
15.0,0.025255342945456505
16.0,0.0247594453394413
18.0,0.02380429208278656
20.0,0.022899480536580086
22.0,0.022025197744369507
24.0,0.021192971616983414
26.0,0.020417511463165283
28.0,0.019673630595207214
30.0,0.018944857642054558
32.0,0.01825236715376377
36.0,0.01694840006530285
40.0,0.015663018450140953
44.0,0.014504450373351574
48.0,0.013392615132033825
52.0,0.012335780076682568
56.0,0.011349157430231571
60.0,0.010476204566657543
64.0,0.009814177639782429
72.0,0.00875525176525116
80.0,0.007751449476927519
88.0,0.006832170765846968
96.0,0.0059796967543661594
104.0,0.005336256232112646
112.0,0.004934987053275108
120.0,0.004765668418258429
128.0,0.004575664177536964
144.0,0.004097184166312218
160.0,0.003670505015179515
176.0,0.0028266110457479954
192.0,0.002215735148638487
208.0,0.001212596776895225
224.0,0.00031892198603600264
240.0,9.635489550419152e-05
256.0,0.00027203367790207267
288.0,0.0014993693912401795
320.0,0.002174835652112961
352.0,0.0009036227711476386
384.0,0.00039477867539972067
416.0,0.0012532463297247887
448.0,0.002246899763122201
480.0,0.0022556635085493326
512.0,0.0010673602810129523
576.0,0.00015198977780528367
640.0,-0.0008207496139220893
704.0,-0.002175128785893321
768.0,-0.0013941554352641106
832.0,-0.0005853713373653591
896.0,-0.000604763044975698
960.0,-0.00130411796271801
1024.0,-0.0015574516728520393
1152.0,0.00014721794286742806
1280.0,0.00044514070032164454
1408.0,0.0001778204896254465
1536.0,-0.001976183382794261
1664.0,-0.0028111927676945925
1792.0,-0.00030657718889415264
1920.0,-0.0015833023935556412
2048.0,-0.0035588196478784084
2304.0,-0.0017228905344381928
2560.0,-0.0007736253901384771
2816.0,0.000529073819052428
3072.0,0.0004896295140497386
3328.0,0.00013182265684008598
3584.0,0.0013895598240196705
3840.0,0.0034672929905354977
4096.0,0.003352187806740403
4608.0,0.00026303232880309224
5120.0,-0.0008240303723141551
5632.0,-0.002164337784051895
6144.0,-0.002172944601625204
6656.0,-0.0006300645763985813
7168.0,-0.0003419994318392128
7680.0,0.0016947448020800948
8192.0,0.0007093950407579541
9216.0,-0.0007532737217843533
10240.0,-0.0006710980087518692
11264.0,0.00037879569572396576
12288.0,-0.0007544191321358085
13312.0,-2.6185609385720454e-05
14336.0,-0.0004397687443997711
end
