version,3.0
numOfCh,1
type,point
parent_name,80-cuts
ch_type,1_1
kcount,1
numberNandB,1
brightnessNandB,1
carpet pos,0
pc,0
Time (ms),CH1 Auto-Correlation
1.0,0.06524424254894257
2.0,0.06367945671081543
3.0,0.06219562515616417
4.0,0.06077329441905022
5.0,0.05942769721150398
6.0,0.05810295417904854
7.0,0.05675342306494713
8.0,0.055434729903936386
9.0,0.05417444556951523
10.0,0.052957650274038315
11.0,0.0517955981194973
12.0,0.05074230208992958
13.0,0.04973331838846207
14.0,0.04879240319132805
15.0,0.04787600040435791
16.0,0.04694776237010956
18.0,0.045332856476306915
20.0,0.043851252645254135
22.0,0.04247821122407913
24.0,0.04117295518517494
26.0,0.03987232223153114
28.0,0.03862936422228813
30.0,0.037507254630327225
32.0,0.036456502974033356
36.0,0.03438315540552139
40.0,0.03245270997285843
44.0,0.030765417963266373
48.0,0.029101159423589706
52.0,0.02768748812377453
56.0,0.02654443122446537
60.0,0.02555502951145172
64.0,0.02459295466542244
72.0,0.02240680530667305
80.0,0.019891487434506416
88.0,0.01769871637225151
96.0,0.016053790226578712
104.0,0.014712942764163017
112.0,0.013285268098115921
120.0,0.011590449139475822
128.0,0.009867132641375065
144.0,0.007374715059995651
160.0,0.0034016892313957214
176.0,0.0009335976210422814
192.0,0.0004391137044876814
208.0,-0.00026126211741939187
224.0,-0.0008107917383313179
240.0,-0.0015784944407641888
256.0,-0.002835738705471158
288.0,-0.004864714574068785
320.0,-0.007073099724948406
352.0,-0.006022391375154257
384.0,-0.004305112641304731
416.0,-0.002876380691304803
448.0,-0.0009448559721931815
480.0,0.0004164507263340056
512.0,-0.00018402820569463074
576.0,-0.001046978635713458
640.0,-0.0033333494793623686
704.0,-0.003643171628937125
768.0,-0.002431528875604272
832.0,-0.00030105101177468896
896.0,0.0027099959552288055
960.0,0.002379092387855053
1024.0,0.004639822524040937
1152.0,0.0034707265440374613
1280.0,0.0001266536273760721
1408.0,-0.0020831474103033543
1536.0,-0.0007064823294058442
1664.0,-0.0036494433879852295
1792.0,-0.0020130258053541183
1920.0,0.0016790818190202117
2048.0,0.003006346058100462
2304.0,-0.0009282164974138141
2560.0,0.0005953864892944694
2816.0,-0.0008872789330780506
3072.0,-0.0011793819721788168
3328.0,-0.0031092814169824123
3584.0,0.0032104814890772104
3840.0,0.0040610237047076225
4096.0,0.0015293818432837725
4608.0,0.0017271749675273895
5120.0,-0.0033412822522222996
5632.0,-0.003487946232780814
6144.0,-0.0022237065713852644
6656.0,-0.004803626332432032
7168.0,-0.00033987421193160117
7680.0,-0.0009152201237156987
8192.0,0.0005314161535352468
9216.0,0.0001226523017976433
10240.0,-0.0030104555189609528
11264.0,0.0019090072019025683
12288.0,0.004933078773319721
13312.0,0.001715890015475452
14336.0,-0.003493618220090866
end
