version,3.0
numOfCh,1
type,point
parent_name,80-cuts
ch_type,1_1
kcount,1
numberNandB,1
brightnessNandB,1
carpet pos,0
pc,0
Time (ms),CH1 Auto-Correlation
1.0,0.01809709519147873
2.0,0.017636919394135475
3.0,0.017194410786032677
4.0,0.01676749996840954
5.0,0.016358600929379463
6.0,0.015967026352882385
7.0,0.01557943131774664
8.0,0.015201594680547714
9.0,0.014824971556663513
10.0,0.014473172836005688
11.0,0.014131727628409863
12.0,0.013798783533275127
13.0,0.013475568033754826
14.0,0.013152239844202995
15.0,0.012842198833823204
16.0,0.012543460354208946
18.0,0.01197758223861456
20.0,0.011414242908358574
22.0,0.010875540785491467
24.0,0.010381699539721012
26.0,0.009929093532264233
28.0,0.009517060592770576
30.0,0.009084582328796387
32.0,0.008685890585184097
36.0,0.007975324057042599
40.0,0.007293969392776489
44.0,0.006725315470248461
48.0,0.006207304075360298
52.0,0.0057838065549731255
56.0,0.005432200152426958
60.0,0.005123411770910025
64.0,0.004889122676104307
72.0,0.0044755530543625355
80.0,0.004082998260855675
88.0,0.003701942041516304
96.0,0.00334144476801157
104.0,0.0029780736658722162
112.0,0.002668850589543581
120.0,0.0024345158599317074
128.0,0.0022224693093448877
144.0,0.0018883581506088376
160.0,0.0012654137099161744
176.0,0.0007639710092917085
192.0,0.00039821083191782236
208.0,0.0002756027679424733
224.0,0.00024675478925928473
240.0,0.0005492260679602623
256.0,0.0007435004226863384
288.0,0.0005427916184999049
320.0,0.0002664380590431392
352.0,-0.0002282563509652391
384.0,-0.00015666818944737315
416.0,-7.514445314882323e-06
448.0,0.0005720894550904632
480.0,0.0008170999935828149
512.0,0.0008546988829039037
576.0,-0.0005015007918700576
640.0,-0.0002542902366258204
704.0,-0.0009948487859219313
768.0,-0.0016189308371394873
832.0,-0.0013526378897950053
896.0,0.00014569630729965866
960.0,4.904835805064067e-05
1024.0,-0.0011185234179720283
1152.0,-0.0008539324626326561
1280.0,-0.00049971992848441
1408.0,6.409173511201516e-05
1536.0,-0.000933670555241406
1664.0,-0.001982397399842739
1792.0,-0.0004553284088615328
1920.0,0.00012188315304229036
2048.0,-0.00010859435860766098
2304.0,-0.00031222394318319857
2560.0,0.000752616731915623
2816.0,0.0005969827179796994
3072.0,-0.0009126309305429459
3328.0,-0.00012835765664931387
3584.0,0.0002862287510652095
3840.0,0.0011470350436866283
4096.0,2.9649323550984263e-05
4608.0,-0.001355357700958848
5120.0,-0.0004190532781649381
5632.0,-0.0005174117395654321
6144.0,0.0007336525595746934
6656.0,-9.85814381238015e-07
7168.0,0.0006556887528859079
7680.0,0.00012093300756532699
8192.0,-0.0005520390113815665
9216.0,-0.0006036102422513068
10240.0,0.00044238578993827105
11264.0,-0.00011089912732131779
12288.0,-0.0002136355615220964
13312.0,-9.157106978818774e-05
14336.0,0.0010821899631991982
end
