version,3.0
numOfCh,1
type,point
parent_name,80-cuts
ch_type,1_1
kcount,1
numberNandB,1
brightnessNandB,1
carpet pos,0
pc,0
Time (ms),CH1 Auto-Correlation
1.0,0.04845299944281578
2.0,0.04710990563035011
3.0,0.04578756168484688
4.0,0.044511828571558
5.0,0.04325668886303902
6.0,0.04205973446369171
7.0,0.04089443385601044
8.0,0.03981335833668709
9.0,0.03876461461186409
10.0,0.03777356073260307
11.0,0.03683223947882652
12.0,0.0359666608273983
13.0,0.03512270376086235
14.0,0.03431391716003418
15.0,0.03355380892753601
16.0,0.03280256316065788
18.0,0.03143348544836044
20.0,0.030102113261818886
22.0,0.02880633994936943
24.0,0.02750697359442711
26.0,0.026142874732613564
28.0,0.024867888540029526
30.0,0.02371199242770672
32.0,0.022544605657458305
36.0,0.02034617029130459
40.0,0.018300825729966164
44.0,0.016383813694119453
48.0,0.014786944724619389
52.0,0.013412834145128727
56.0,0.012200862169265747
60.0,0.011131981387734413
64.0,0.010042363777756691
72.0,0.008013125509023666
80.0,0.006152802146971226
88.0,0.004551978781819344
96.0,0.0035688539501279593
104.0,0.003416299121454358
112.0,0.0029613468796014786
120.0,0.0021420661360025406
128.0,0.0015687172999605536
144.0,0.0012560916366055608
160.0,0.0002755548630375415
176.0,-0.0010677837999537587
192.0,-0.002121321391314268
208.0,-0.0012681029038503766
224.0,-0.0005760674248449504
240.0,-7.842000195523724e-05
256.0,0.0006862496957182884
288.0,0.0007737751584500074
320.0,0.0009409800404682755
352.0,0.0016011204570531845
384.0,0.0014225657796487212
416.0,0.002150891115888953
448.0,0.0027716411277651787
480.0,0.002248052041977644
512.0,0.00148793775588274
576.0,-0.0023017171770334244
640.0,-0.0010566851124167442
704.0,0.0009525024215690792
768.0,0.003413804806768894
832.0,0.0028662187978625298
896.0,-0.000896415498573333
960.0,-0.0028656681533902884
1024.0,-0.003982366994023323
1152.0,0.004899702034890652
1280.0,0.0024434737861156464
1408.0,0.0010646277805790305
1536.0,0.0020188973285257816
1664.0,-0.00039866144652478397
1792.0,-0.0007521720253862441
1920.0,-0.002637257566675544
2048.0,-0.0015420594718307257
2304.0,0.0017425683327019215
2560.0,-0.0017350474372506142
2816.0,0.0001599116512807086
3072.0,0.0011073679197579622
3328.0,-0.0016777531709522009
3584.0,-0.0010469031985849142
3840.0,-0.00016437857993878424
4096.0,-0.002719803946092725
4608.0,-0.0023321264889091253
5120.0,-0.00100334279704839
5632.0,0.0018361043184995651
6144.0,-0.0002602085587568581
6656.0,0.0004052914446219802
7168.0,2.6955140128848143e-05
7680.0,-0.00024906310136429965
8192.0,-0.0008605927578173578
9216.0,0.0007829006062820554
10240.0,-0.0015075039118528366
11264.0,-0.0015823718858882785
12288.0,0.0013712751679122448
13312.0,-0.003003006801009178
14336.0,-0.0012824033619835973
end
