version,3.0
numOfCh,1
type,point
parent_name,80-cuts
ch_type,1_1
kcount,1
numberNandB,1
brightnessNandB,1
carpet pos,0
pc,0
Time (ms),CH1 Auto-Correlation
1.0,0.01830311492085457
2.0,0.017794091254472733
3.0,0.017298907041549683
4.0,0.016820097342133522
5.0,0.01634819619357586
6.0,0.01589721068739891
7.0,0.015472630970180035
8.0,0.015069389715790749
9.0,0.014677053317427635
10.0,0.014315690845251083
11.0,0.013957706280052662
12.0,0.01359737478196621
13.0,0.013243859633803368
14.0,0.012907594442367554
15.0,0.012580214068293571
16.0,0.012265031225979328
18.0,0.011683475226163864
20.0,0.011147682555019855
22.0,0.010674949735403061
24.0,0.010249096900224686
26.0,0.009847101755440235
28.0,0.009471706114709377
30.0,0.009129540994763374
32.0,0.008815506473183632
36.0,0.00822313129901886
40.0,0.007666965015232563
44.0,0.007202916778624058
48.0,0.006819027476012707
52.0,0.006470189895480871
56.0,0.006203847471624613
60.0,0.005941819865256548
64.0,0.00565654831007123
72.0,0.005209462251514196
80.0,0.00473089748993516
88.0,0.004309813492000103
96.0,0.0037739796098321676
104.0,0.003337998641654849
112.0,0.002972556743770838
120.0,0.0025434803683310747
128.0,0.0020624755416065454
144.0,0.001434573670849204
160.0,0.0013065211242064834
176.0,0.0012022019363939762
192.0,0.0009304021368734539
208.0,0.0007945334655232728
224.0,0.0006742324912920594
240.0,0.0009048592182807624
256.0,0.001066788099706173
288.0,0.0008077892707660794
320.0,0.0004866791714448482
352.0,0.0003692145983222872
384.0,-0.00014715972065459937
416.0,-0.0011363786179572344
448.0,-0.0008664835477247834
480.0,-0.00033886675373651087
512.0,0.00012827955652028322
576.0,0.0017710418906062841
640.0,0.001520731020718813
704.0,4.356556019047275e-05
768.0,-4.7958670620573685e-05
832.0,-0.0008833832107484341
896.0,-0.002068131696432829
960.0,-0.0025686929002404213
1024.0,-0.001896967412903905
1152.0,2.6821805931831477e-06
1280.0,0.0008274191059172153
1408.0,0.0005760057247243822
1536.0,-0.00032229715725407004
1664.0,-3.5088440199615434e-05
1792.0,0.0008816466433927417
1920.0,0.0007547783898189664
2048.0,0.0003879629366565496
2304.0,-0.00039688844117335975
2560.0,-0.0008862277609296143
2816.0,-0.0006826475146226585
3072.0,0.0005674204439856112
3328.0,0.0008766005048528314
3584.0,0.001534038339741528
3840.0,0.0009200772037729621
4096.0,-0.0010181741090491414
4608.0,-0.0010886037489399314
5120.0,0.00033888540929183364
5632.0,0.0003940812312066555
6144.0,-0.0008422915707342327
6656.0,-0.0002925385779235512
7168.0,0.0012955040438100696
7680.0,-0.00029753800481557846
8192.0,-0.0024992094840854406
9216.0,3.368905163370073e-05
10240.0,0.00012717244680970907
11264.0,-0.001719745108857751
12288.0,0.00024397407833021134
13312.0,0.00014183275925461203
14336.0,-0.0006541835609823465
end
