version,3.0
numOfCh,1
type,point
parent_name,80-cuts
ch_type,1_1
kcount,1
numberNandB,1
brightnessNandB,1
carpet pos,0
pc,0
Time (ms),CH1 Auto-Correlation
1.0,0.022610824555158615
2.0,0.021895498037338257
3.0,0.021206317469477654
4.0,0.02054465375840664
5.0,0.019916970282793045
6.0,0.019321994855999947
7.0,0.01874270662665367
8.0,0.018181106075644493
9.0,0.017655739560723305
10.0,0.017145175486803055
11.0,0.016644494608044624
12.0,0.016163473948836327
13.0,0.015698177739977837
14.0,0.015254827216267586
15.0,0.01482914574444294
16.0,0.014439990743994713
18.0,0.013718032278120518
20.0,0.013071199879050255
22.0,0.012462977319955826
24.0,0.01192739512771368
26.0,0.011423810385167599
28.0,0.010984644293785095
30.0,0.01058138906955719
32.0,0.010180682875216007
36.0,0.009489769116044044
40.0,0.008888142183423042
44.0,0.008314496837556362
48.0,0.007765772752463818
52.0,0.007259552367031574
56.0,0.0067477719858288765
60.0,0.0062287538312375546
64.0,0.005735217127948999
72.0,0.004906896967440844
80.0,0.004419972654432058
88.0,0.0038745536003261805
96.0,0.003274463815614581
104.0,0.0029175495728850365
112.0,0.0027822712436318398
120.0,0.002545029390603304
128.0,0.0020526694133877754
144.0,0.0012417244724929333
160.0,0.0008000573725439608
176.0,7.015952724032104e-05
192.0,-0.0008107703761197627
208.0,-0.001189670991152525
224.0,-0.001514925854280591
240.0,-0.001559314550831914
256.0,-0.0015234674792736769
288.0,-0.0017780320486053824
320.0,-0.0015025262255221605
352.0,-0.0016004362842068076
384.0,-0.0020628650672733784
416.0,-0.0024238077457994223
448.0,-0.0033080882858484983
480.0,-0.0029710731469094753
512.0,-0.0018642207141965628
576.0,-0.0010198611998930573
640.0,-0.0013686673482879996
704.0,-0.0005269289249554276
768.0,0.0016819251468405128
832.0,0.0015204485971480608
896.0,0.0011256060097366571
960.0,-0.0002174351247958839
1024.0,-0.00015208318654913455
1152.0,0.0005735107697546482
1280.0,-0.0019608091097325087
1408.0,-0.0007900946657173336
1536.0,1.3824163943354506e-05
1664.0,0.0023213846143335104
1792.0,0.0005677072331309319
1920.0,0.0005332274595275521
2048.0,-3.8310419768095016e-05
2304.0,-0.0008498999522998929
2560.0,0.00030933713424019516
2816.0,-0.0004725656472146511
3072.0,-0.0014472625916823745
3328.0,0.0005399414803832769
3584.0,0.001570117543451488
3840.0,-0.000906321220099926
4096.0,9.485616465099156e-05
4608.0,0.0007880589691922069
5120.0,-0.00039171913522295654
5632.0,0.00015981696196831763
6144.0,0.0002932481584139168
6656.0,0.00021544010087382048
7168.0,-0.0008985402528196573
7680.0,-0.00028551387367770076
8192.0,0.00017604211461730301
9216.0,-0.0008676056750118732
10240.0,0.0011855473276227713
11264.0,-0.0010711034992709756
12288.0,0.00022828391229268163
13312.0,-0.0011506242444738746
14336.0,-9.576200682204217e-05
end
