version,3.0
numOfCh,1
type,point
parent_name,80-cuts
ch_type,1_1
kcount,1
numberNandB,1
brightnessNandB,1
carpet pos,0
pc,0
Time (ms),CH1 Auto-Correlation
1.0,0.023113422095775604
2.0,0.022598030045628548
3.0,0.022101152688264847
4.0,0.021633129566907883
5.0,0.02117728628218174
6.0,0.020731491968035698
7.0,0.02031412348151207
8.0,0.019915113225579262
9.0,0.0195199903100729
10.0,0.019133741036057472
11.0,0.018752528354525566
12.0,0.01837092824280262
13.0,0.017994826659560204
14.0,0.01763078384101391
15.0,0.01729445904493332
16.0,0.016969701275229454
18.0,0.01634531281888485
20.0,0.01575799286365509
22.0,0.015198457054793835
24.0,0.014674878679215908
26.0,0.01417873427271843
28.0,0.013685625046491623
30.0,0.01323902141302824
32.0,0.012826485559344292
36.0,0.012077189981937408
40.0,0.011388888582587242
44.0,0.010737109929323196
48.0,0.010084133595228195
52.0,0.009512655436992645
56.0,0.009013200178742409
60.0,0.00857490859925747
64.0,0.008144749328494072
72.0,0.007289314642548561
80.0,0.006521398201584816
88.0,0.005786675028502941
96.0,0.005228045862168074
104.0,0.004727250896394253
112.0,0.004138187039643526
120.0,0.0036339564248919487
128.0,0.0030491743236780167
144.0,0.0022977241314947605
160.0,0.002112119924277067
176.0,0.002048142720013857
192.0,0.0019070968264713883
208.0,0.0016401709290221334
224.0,0.001322275260463357
240.0,0.0011011045426130295
256.0,0.0007785680354572833
288.0,0.00011645913036772981
320.0,2.537402679081424e-06
352.0,4.1174585931003094e-05
384.0,0.0002542693691793829
416.0,0.0009854582604020834
448.0,0.0016224323771893978
480.0,0.0019669102039188147
512.0,0.001605709083378315
576.0,0.0006995799485594034
640.0,0.0001951301674125716
704.0,1.478837202739669e-05
768.0,4.795110726263374e-05
832.0,-0.000425477308453992
896.0,-0.0013402057811617851
960.0,-0.0017263776389881968
1024.0,-0.001016154303215444
1152.0,-0.00027447118191048503
1280.0,-0.001135131693445146
1408.0,-0.002323414199054241
1536.0,-0.00414058705791831
1664.0,-0.001503236941061914
1792.0,-9.193064033752307e-05
1920.0,0.00035634898813441396
2048.0,-0.001216959790326655
2304.0,-0.0022025248035788536
2560.0,-0.0006020150613039732
2816.0,0.0005058828974142671
3072.0,0.0007076711626723409
3328.0,0.0002910627517849207
3584.0,-6.405276508303359e-05
3840.0,0.0019084279192611575
4096.0,-0.0017525918083265424
4608.0,-0.0010930270655080676
5120.0,0.0007673241780139506
5632.0,0.00232522189617157
6144.0,0.0010393522679805756
6656.0,-0.001156848855316639
7168.0,-0.0010153527837246656
7680.0,0.0009862205479294062
8192.0,0.0004468614642973989
9216.0,-0.0015762466937303543
10240.0,-0.0002906854497268796
11264.0,0.0028202857356518507
12288.0,-0.000997888040728867
13312.0,-0.0012023233575746417
14336.0,0.000579476123675704
end
