version,3.0
numOfCh,1
type,point
parent_name,80-cuts
ch_type,1_1
kcount,1
numberNandB,1
brightnessNandB,1
carpet pos,0
pc,0
Time (ms),CH1 Auto-Correlation
1.0,0.03410327434539795
2.0,0.03334098309278488
3.0,0.03262010216712952
4.0,0.03194257989525795
5.0,0.03126872703433037
6.0,0.030610166490077972
7.0,0.02996453270316124
8.0,0.029324661940336227
9.0,0.028701961040496826
10.0,0.028087619692087173
11.0,0.027500446885824203
12.0,0.026924878358840942
13.0,0.02633741684257984
14.0,0.025789007544517517
15.0,0.025253666564822197
16.0,0.024730997160077095
18.0,0.023683864623308182
20.0,0.022700808942317963
22.0,0.021800773218274117
24.0,0.02095036953687668
26.0,0.020188074558973312
28.0,0.019476845860481262
30.0,0.018825169652700424
32.0,0.01823786273598671
36.0,0.017088335007429123
40.0,0.016008272767066956
44.0,0.014985594898462296
48.0,0.014040390029549599
52.0,0.013284392654895782
56.0,0.012650386430323124
60.0,0.012077377177774906
64.0,0.011591908521950245
72.0,0.010761003941297531
80.0,0.01001477800309658
88.0,0.009373395703732967
96.0,0.008587823249399662
104.0,0.007705050986260176
112.0,0.0069874790497124195
120.0,0.006305048707872629
128.0,0.005884178448468447
144.0,0.005367813631892204
160.0,0.005443876143544912
176.0,0.00545636797323823
192.0,0.005164258647710085
208.0,0.005297970026731491
224.0,0.005381097085773945
240.0,0.005638231988996267
256.0,0.0058058081194758415
288.0,0.005269934423267841
320.0,0.0034625467378646135
352.0,0.0019265433074906468
384.0,0.0014616542030125856
416.0,0.0009470561053603888
448.0,-0.0005455253412947059
480.0,-0.0014289390528574586
512.0,-0.0022778611164540052
576.0,-0.0027034690137952566
640.0,-0.0022185039706528187
704.0,-0.0012812616769224405
768.0,-0.0005753168370574713
832.0,-0.0014863380929455161
896.0,-0.0031071335542947054
960.0,-0.003232681890949607
1024.0,-0.0027255963068455458
1152.0,-0.0017352409195154905
1280.0,-0.0009754650527611375
1408.0,-0.0009844315936788917
1536.0,0.0006028397474437952
1664.0,-0.0022465819492936134
1792.0,-0.002539391163736582
1920.0,-0.003236898686736822
2048.0,-0.0033144699409604073
2304.0,0.0012695224722847342
2560.0,0.0011093509383499622
2816.0,0.000359476514859125
3072.0,0.0018956190906465054
3328.0,-0.0005078924004919827
3584.0,-0.0007688348414376378
3840.0,0.0022590705193579197
4096.0,0.00036596268182620406
4608.0,-0.0008512175409123302
5120.0,-0.00030402373522520065
5632.0,0.0007138065411709249
6144.0,3.8347072404576465e-05
6656.0,0.0005940821138210595
7168.0,-0.0023466097190976143
7680.0,-0.0027016529347747564
8192.0,0.001325914985500276
9216.0,0.0012918139109387994
10240.0,-0.0023800558410584927
11264.0,0.000288763374555856
12288.0,-0.000786404125392437
13312.0,0.0011160934809595346
14336.0,0.0023974967189133167
end
