version,3.0
numOfCh,1
type,point
parent_name,80-cuts
ch_type,1_1
kcount,1
numberNandB,1
brightnessNandB,1
carpet pos,0
pc,0
Time (ms),CH1 Auto-Correlation
1.0,0.033298294991254807
2.0,0.032646141946315765
3.0,0.03200720623135567
4.0,0.03138428553938866
5.0,0.030785633251070976
6.0,0.030187370255589485
7.0,0.029612546786665916
8.0,0.029045648872852325
9.0,0.028477143496274948
10.0,0.0279389601200819
11.0,0.027421901002526283
12.0,0.02690601907670498
13.0,0.026414206251502037
14.0,0.025933224707841873
15.0,0.025471512228250504
16.0,0.025021135807037354
18.0,0.02414628118276596
20.0,0.02328130416572094
22.0,0.0224794689565897
24.0,0.021703118458390236
26.0,0.020953675732016563
28.0,0.020249592140316963
30.0,0.019618405029177666
32.0,0.01904740370810032
36.0,0.017911626026034355
40.0,0.016854310408234596
44.0,0.015851082280278206
48.0,0.014869955368340015
52.0,0.013950861990451813
56.0,0.013128774240612984
60.0,0.012393873184919357
64.0,0.011844830587506294
72.0,0.011111585423350334
80.0,0.010515231639146805
88.0,0.009794619865715504
96.0,0.009048215113580227
104.0,0.00835502427071333
112.0,0.007492106407880783
120.0,0.006682007107883692
128.0,0.006055076140910387
144.0,0.005362716503441334
160.0,0.0052400310523808
176.0,0.005399796180427074
192.0,0.005480461288243532
208.0,0.005308797117322683
224.0,0.005038738716393709
240.0,0.004382357932627201
256.0,0.003343472955748439
288.0,0.0023328366223722696
320.0,0.001992338802665472
352.0,0.0020718544255942106
384.0,0.0024046904873102903
416.0,0.0026558234822005033
448.0,0.002848956733942032
480.0,0.0025430298410356045
512.0,0.0021429103799164295
576.0,0.0010908140102401376
640.0,-0.0014362483052536845
704.0,-0.001284881611354649
768.0,-0.00035083387047052383
832.0,0.000925252737943083
896.0,0.0022254399955272675
960.0,0.0009557977900840342
1024.0,0.00037149415584281087
1152.0,-0.0009042766760103405
1280.0,0.001806302578188479
1408.0,0.0019224563147872686
1536.0,0.0016122158849611878
1664.0,0.0010263246949762106
1792.0,0.0012847500620409846
1920.0,0.0017823422094807029
2048.0,0.0010511708678677678
2304.0,0.0006501785246655345
2560.0,0.00018693608581088483
2816.0,-0.0010527889244258404
3072.0,-0.002219883492216468
3328.0,-0.0012977559817954898
3584.0,0.0008106131572276354
3840.0,-0.0028915833681821823
4096.0,-0.0019321388099342585
4608.0,-0.0017437691567465663
5120.0,0.0005241926410235465
5632.0,-0.0011275802971795201
6144.0,0.0008759498596191406
6656.0,-0.0017691635293886065
7168.0,0.0006984910578466952
7680.0,2.2657324734609574e-05
8192.0,0.0013331722002476454
9216.0,-0.000486529606860131
10240.0,0.0045961481519043446
11264.0,-0.0013173407642170787
12288.0,-0.003327503800392151
13312.0,-0.005817375611513853
14336.0,-0.01287431363016367
end
