version,3.0
numOfCh,1
type,point
parent_name,80-cuts
ch_type,1_1
kcount,1
numberNandB,1
brightnessNandB,1
carpet pos,0
pc,0
Time (ms),CH1 Auto-Correlation
1.0,0.027857905253767967
2.0,0.027185477316379547
3.0,0.02654450014233589
4.0,0.025925586000084877
5.0,0.02531587891280651
6.0,0.024727916345000267
7.0,0.024153711274266243
8.0,0.02360541932284832
9.0,0.023069582879543304
10.0,0.022559214383363724
11.0,0.02205842174589634
12.0,0.021577434614300728
13.0,0.02110784687101841
14.0,0.020668763667345047
15.0,0.020256252959370613
16.0,0.019866017624735832
18.0,0.019105205312371254
20.0,0.018430659547448158
22.0,0.017858348786830902
24.0,0.017360100522637367
26.0,0.016849378123879433
28.0,0.016345379874110222
30.0,0.01585806906223297
32.0,0.015403220430016518
36.0,0.014556357637047768
40.0,0.013779675588011742
44.0,0.012982322834432125
48.0,0.01222535502165556
52.0,0.011518004350364208
56.0,0.010781503282487392
60.0,0.010135927237570286
64.0,0.009579984471201897
72.0,0.008678589947521687
80.0,0.007905893959105015
88.0,0.00714751286432147
96.0,0.006550653837621212
104.0,0.00592672498896718
112.0,0.005110873840749264
120.0,0.0042556291446089745
128.0,0.0036458235699683428
144.0,0.0031227613799273968
160.0,0.002747285645455122
176.0,0.0022970971185714006
192.0,0.0016604687552899122
208.0,0.0011339294724166393
224.0,0.000823630194645375
240.0,5.301673081703484e-05
256.0,-0.0009528144728392363
288.0,-0.0013816941063851118
320.0,-0.0011943965218961239
352.0,-0.0008754465379752219
384.0,-0.0006751473993062973
416.0,-0.0011014731135219336
448.0,-0.0018186623929068446
480.0,-0.0011450874153524637
512.0,-0.0003819699340965599
576.0,0.0003269580192863941
640.0,0.001008836436085403
704.0,0.0009916917188093066
768.0,0.0010351554956287146
832.0,0.002158895367756486
896.0,0.002451648935675621
960.0,0.0021204869262874126
1024.0,0.001305108773522079
1152.0,-0.0015201478963717818
1280.0,-0.0013191315811127424
1408.0,0.00011251037358306348
1536.0,0.0005585987819358706
1664.0,0.002040128456428647
1792.0,0.0019192362669855356
1920.0,-0.00041232697549276054
2048.0,-0.0007653982029296458
2304.0,-0.000915252196136862
2560.0,-6.321951514109969e-05
2816.0,-0.0024913884699344635
3072.0,0.001336469897069037
3328.0,-0.0003350580809637904
3584.0,-0.0003493433177936822
3840.0,0.0008137546828947961
4096.0,-0.0007442712085321546
4608.0,-0.0005913021159358323
5120.0,-0.0012900913134217262
5632.0,-0.0020969598554074764
6144.0,-0.0009475236875005066
6656.0,-0.001355572952888906
7168.0,-0.0007797859725542367
7680.0,0.001240759389474988
8192.0,0.0006561197806149721
9216.0,0.002217740984633565
10240.0,0.0003864446480292827
11264.0,0.0006012144149281085
12288.0,0.0017897430807352066
13312.0,-0.0019932801369577646
14336.0,-0.005461036693304777
end
