version,3.0
numOfCh,1
type,point
parent_name,80-cuts
ch_type,1_1
kcount,1
numberNandB,1
brightnessNandB,1
carpet pos,0
pc,0
Time (ms),CH1 Auto-Correlation
1.0,0.01903528720140457
2.0,0.018519248813390732
3.0,0.01802261732518673
4.0,0.01755419746041298
5.0,0.017094356939196587
6.0,0.016653617843985558
7.0,0.016231775283813477
8.0,0.01582982763648033
9.0,0.015444714576005936
10.0,0.015070473775267601
11.0,0.014699208550155163
12.0,0.014340327121317387
13.0,0.013993307948112488
14.0,0.0136485630646348
15.0,0.013315452262759209
16.0,0.013006306253373623
18.0,0.012384588830173016
20.0,0.011808617040514946
22.0,0.011283219791948795
24.0,0.010780628770589828
26.0,0.010332074947655201
28.0,0.009909807704389095
30.0,0.009521648287773132
32.0,0.009194329380989075
36.0,0.00867040641605854
40.0,0.00817387830466032
44.0,0.0076868911273777485
48.0,0.007246299646794796
52.0,0.006852393038570881
56.0,0.006527839694172144
60.0,0.006245921831578016
64.0,0.006047016941010952
72.0,0.005806023720651865
80.0,0.005494023207575083
88.0,0.005017159506678581
96.0,0.004470977932214737
104.0,0.004004925489425659
112.0,0.003488782560452819
120.0,0.0030310465954244137
128.0,0.0026510825846344233
144.0,0.0021947266068309546
160.0,0.0021514829713851213
176.0,0.002301038708537817
192.0,0.001962063368409872
208.0,0.001323334057815373
224.0,0.0009291845490224659
240.0,0.0009473084937781096
256.0,0.0010768022621050477
288.0,0.0009415674721822143
320.0,0.0007107332348823547
352.0,0.0008314779261127114
384.0,0.0012952660908922553
416.0,0.0012138159945607185
448.0,0.0006535269203595817
480.0,0.00016431558469776064
512.0,-3.530563844833523e-05
576.0,-0.0005423417314887047
640.0,-0.00038556542131118476
704.0,-0.0012443666346371174
768.0,-0.0005002973484806716
832.0,0.0003817264805547893
896.0,0.0006054104887880385
960.0,0.0005513362702913582
1024.0,0.0012091750977560878
1152.0,0.001126808812841773
1280.0,0.0007902716170065105
1408.0,-0.001010507927276194
1536.0,-0.0011024520499631763
1664.0,-0.0006691213930025697
1792.0,-0.0013736789114773273
1920.0,-0.0010087807895615697
2048.0,-0.0004143335681874305
2304.0,-0.0006860016728751361
2560.0,-0.001794318901374936
2816.0,-0.0019614719785749912
3072.0,-0.0007993857143446803
3328.0,0.0006081152241677046
3584.0,0.0008083860157057643
3840.0,0.002552490681409836
4096.0,0.00017273207777179778
4608.0,0.0015112892724573612
5120.0,0.0006374195218086243
5632.0,-0.0002632597170304507
6144.0,-0.0009553779964335263
6656.0,-0.0022818720899522305
7168.0,-0.0003799117112066597
7680.0,-0.0006425214814953506
8192.0,0.00035820042830891907
9216.0,0.0011287336237728596
10240.0,-0.0013023262144997716
11264.0,-0.001729263341985643
12288.0,-0.0006234041065908968
13312.0,0.0005777782062068582
14336.0,0.001949899597093463
end
