version,3.0
numOfCh,1
type,point
parent_name,80-cuts
ch_type,1_1
kcount,1
numberNandB,1
brightnessNandB,1
carpet pos,0
pc,0
Time (ms),CH1 Auto-Correlation
1.0,0.031467728316783905
2.0,0.03078867681324482
3.0,0.03013290837407112
4.0,0.029484286904335022
5.0,0.028849856927990913
6.0,0.028246359899640083
7.0,0.02765762247145176
8.0,0.027097750455141068
9.0,0.026541439816355705
10.0,0.02600879594683647
11.0,0.025487421080470085
12.0,0.024964429438114166
13.0,0.024467363953590393
14.0,0.02399326302111149
15.0,0.023546839132905006
16.0,0.02311909943819046
18.0,0.02233658730983734
20.0,0.02161157689988613
22.0,0.020934242755174637
24.0,0.020252902060747147
26.0,0.01959238573908806
28.0,0.01894305646419525
30.0,0.018286822363734245
32.0,0.01766052097082138
36.0,0.016441022977232933
40.0,0.015206145122647285
44.0,0.014049957506358624
48.0,0.01303806621581316
52.0,0.012081333436071873
56.0,0.011225000955164433
60.0,0.010382588021457195
64.0,0.009534909389913082
72.0,0.008169331587851048
80.0,0.007151806261390448
88.0,0.006376243196427822
96.0,0.0057730539701879025
104.0,0.005385685246437788
112.0,0.0050840904004871845
120.0,0.004896979779005051
128.0,0.0047286697663366795
144.0,0.004361570812761784
160.0,0.0045380364172160625
176.0,0.004665645305067301
192.0,0.004317413549870253
208.0,0.003715863451361656
224.0,0.002640077145770192
240.0,0.0021939706057310104
256.0,0.0015281954547390342
288.0,0.0010119453072547913
320.0,0.001214994234032929
352.0,0.0018424785230308771
384.0,0.0018664984963834286
416.0,0.0014819189673289657
448.0,0.00032593918149359524
480.0,-0.0013518861960619688
512.0,-0.002565978327766061
576.0,-0.0018288884311914444
640.0,-0.001082168542779982
704.0,-0.0008519500261172652
768.0,-0.0008942967397160828
832.0,0.0008954763179644942
896.0,-0.00046100158942863345
960.0,-0.002271520672366023
1024.0,-0.0028030823450535536
1152.0,-0.001711689168587327
1280.0,0.0006540202302858233
1408.0,0.002089699497446418
1536.0,0.002385068451985717
1664.0,0.003321773139759898
1792.0,0.0023260919842869043
1920.0,0.0029670505318790674
2048.0,0.003444199450314045
2304.0,0.00045623950427398086
2560.0,-0.003340833354741335
2816.0,-0.0013140238588675857
3072.0,-0.00024206926173064858
3328.0,0.0012033627135679126
3584.0,0.001843066536821425
3840.0,-7.366183126578107e-05
4096.0,0.0003217808553017676
4608.0,-0.0017978501273319125
5120.0,0.0001419854670530185
5632.0,5.420227171271108e-05
6144.0,-0.0022717397660017014
6656.0,-0.0021905864123255014
7168.0,-0.0014873604523018003
7680.0,0.0002980423450935632
8192.0,-0.00389819941483438
9216.0,-0.000817606458440423
10240.0,-0.0004433923168107867
11264.0,0.00024059670977294445
12288.0,0.0018502207240089774
13312.0,0.0007559474324807525
14336.0,-0.0005497490055859089
end
