version,3.0
numOfCh,1
type,point
parent_name,80-cuts
ch_type,1_1
kcount,1
numberNandB,1
brightnessNandB,1
carpet pos,0
pc,0
Time (ms),CH1 Auto-Correlation
1.0,0.022649168968200684
2.0,0.022146757692098618
3.0,0.021662086248397827
4.0,0.021190134808421135
5.0,0.02072148211300373
6.0,0.02026492729783058
7.0,0.0198233462870121
8.0,0.019397443160414696
9.0,0.018996093422174454
10.0,0.018615085631608963
11.0,0.018244335427880287
12.0,0.017882559448480606
13.0,0.01752663590013981
14.0,0.017168059945106506
15.0,0.01681780070066452
16.0,0.0164747666567564
18.0,0.01582413725554943
20.0,0.015184828080236912
22.0,0.014581858180463314
24.0,0.014012807048857212
26.0,0.013465640135109425
28.0,0.012974672019481659
30.0,0.01248235534876585
32.0,0.011983691714704037
36.0,0.011055990122258663
40.0,0.010253091342747211
44.0,0.009569117799401283
48.0,0.008984769694507122
52.0,0.008438186720013618
56.0,0.00795590877532959
60.0,0.007500062230974436
64.0,0.007043926045298576
72.0,0.0061859856359660625
80.0,0.005446166265755892
88.0,0.004804294556379318
96.0,0.0042990767396986485
104.0,0.003910733386874199
112.0,0.0036657489836215973
120.0,0.003481500782072544
128.0,0.0034193166065961123
144.0,0.0033496562391519547
160.0,0.003076385473832488
176.0,0.0024679480120539665
192.0,0.0019264102447777987
208.0,0.0014156802790239453
224.0,0.0012132066767662764
240.0,0.0009497492574155331
256.0,0.0006051837699487805
288.0,0.000924465071875602
320.0,0.0014494314091280103
352.0,0.001208102679811418
384.0,0.0012466572225093842
416.0,0.0019444789504632354
448.0,0.002181530464440584
480.0,0.0025770547799766064
512.0,0.0026444876566529274
576.0,1.3448066056298558e-05
640.0,-0.0016115668695420027
704.0,-0.0018383070128038526
768.0,-0.00072070537135005
832.0,-0.0008152179070748389
896.0,-0.0012436838587746024
960.0,-0.0003195058961864561
1024.0,0.00028590287547558546
1152.0,-0.000534784747287631
1280.0,-0.0008174417307600379
1408.0,-0.0007673293584957719
1536.0,-0.0017937620868906379
1664.0,-0.001769217080436647
1792.0,-0.0011246501235291362
1920.0,-0.00019942308426834643
2048.0,-0.0003289833548478782
2304.0,0.0012448340421542525
2560.0,0.0012408280745148659
2816.0,0.0007830592803657055
3072.0,4.7153542254818603e-05
3328.0,-0.00043864030158147216
3584.0,-0.0009550034301355481
3840.0,-0.001353585161268711
4096.0,-0.0012590637197718024
4608.0,0.0006030816584825516
5120.0,-0.0009667073609307408
5632.0,-0.00041773373959586024
6144.0,0.0005677009467035532
6656.0,0.00036037820973433554
7168.0,-0.0007595339557155967
7680.0,-0.0012426371686160564
8192.0,-0.002212953520938754
9216.0,0.00011973617074545473
10240.0,-0.0013440260663628578
11264.0,0.0013588749570772052
12288.0,-0.000749382539652288
13312.0,0.0024162642657756805
14336.0,0.001119864173233509
end
