version,3.0
numOfCh,1
type,point
parent_name,80-cuts
ch_type,1_1
kcount,1
numberNandB,1
brightnessNandB,1
carpet pos,0
pc,0
Time (ms),CH1 Auto-Correlation
1.0,0.051242586225271225
2.0,0.049976032227277756
3.0,0.048738569021224976
4.0,0.047549013048410416
5.0,0.04639760032296181
6.0,0.04528583213686943
7.0,0.044220831245183945
8.0,0.0431426502764225
9.0,0.04207786172628403
10.0,0.04107941687107086
11.0,0.040144968777894974
12.0,0.03923589736223221
13.0,0.03834831342101097
14.0,0.03746851161122322
15.0,0.03663504123687744
16.0,0.035817623138427734
18.0,0.034254949539899826
20.0,0.03278990462422371
22.0,0.03142334520816803
24.0,0.030185271054506302
26.0,0.029053131118416786
28.0,0.027957921847701073
30.0,0.026938019320368767
32.0,0.02599565126001835
36.0,0.02410365641117096
40.0,0.022338740527629852
44.0,0.020704440772533417
48.0,0.019069448113441467
52.0,0.017573997378349304
56.0,0.016253706067800522
60.0,0.015086623840034008
64.0,0.013964829966425896
72.0,0.011759788729250431
80.0,0.01004757173359394
88.0,0.008596976287662983
96.0,0.007022306323051453
104.0,0.005606303922832012
112.0,0.004289607517421246
120.0,0.0030733332969248295
128.0,0.0018365324940532446
144.0,-0.00035549202584661543
160.0,-0.002087657805532217
176.0,-0.0033678605686873198
192.0,-0.004392693750560284
208.0,-0.004715013783425093
224.0,-0.005273633636534214
240.0,-0.005248269531875849
256.0,-0.005209450609982014
288.0,-0.002652897033840418
320.0,-0.0009143825154751539
352.0,0.00038999636308290064
384.0,0.001637471141293645
416.0,0.002452799817547202
448.0,0.0009599748300388455
480.0,-0.00031044703791849315
512.0,-0.0020590894855558872
576.0,-0.0030336359050124884
640.0,0.00024062753072939813
704.0,0.004370046779513359
768.0,0.002922639949247241
832.0,0.00029278380679897964
896.0,-0.0027752371970564127
960.0,-0.0006860222783870995
1024.0,0.0014954874059185386
1152.0,-0.0003444502071943134
1280.0,-0.00041539937956258655
1408.0,0.000676083960570395
1536.0,0.0006714992341585457
1664.0,-0.003974772058427334
1792.0,-0.0025142773520201445
1920.0,-0.000977397314272821
2048.0,0.0013292363146319985
2304.0,-0.0036944986786693335
2560.0,-0.0025150482542812824
2816.0,0.0012128350790590048
3072.0,0.0005560970748774707
3328.0,-0.004877899773418903
3584.0,0.002493137726560235
3840.0,-0.00014533742796629667
4096.0,0.0034543476067483425
4608.0,0.00295542785897851
5120.0,0.00145585963036865
5632.0,-0.002228172728791833
6144.0,8.095664088614285e-05
6656.0,0.0001797034783521667
7168.0,-0.002356039360165596
7680.0,-0.0019566614646464586
8192.0,0.0038095007184892893
9216.0,0.0020526668522506952
10240.0,-0.002566944109275937
11264.0,-0.00020206595945637673
12288.0,-3.6237204767530784e-05
13312.0,0.0033757491037249565
14336.0,-0.005522610619664192
end
