version,3.0
numOfCh,1
type,point
parent_name,80-cuts
ch_type,1_1
kcount,1
numberNandB,1
brightnessNandB,1
carpet pos,0
pc,0
Time (ms),CH1 Auto-Correlation
1.0,0.03287080302834511
2.0,0.03215274587273598
3.0,0.03146318718791008
4.0,0.03079306147992611
5.0,0.030147699639201164
6.0,0.029506096616387367
7.0,0.0288890041410923
8.0,0.028281211853027344
9.0,0.027694707736372948
10.0,0.027117034420371056
11.0,0.02657238580286503
12.0,0.026030318811535835
13.0,0.025515442714095116
14.0,0.025019360706210136
15.0,0.024561146274209023
16.0,0.02413266710937023
18.0,0.023323727771639824
20.0,0.022572273388504982
22.0,0.021847300231456757
24.0,0.021188070997595787
26.0,0.020525025203824043
28.0,0.01986781135201454
30.0,0.019209517166018486
32.0,0.018558187410235405
36.0,0.01741861179471016
40.0,0.016345497220754623
44.0,0.01535501703619957
48.0,0.014506369829177856
52.0,0.013709156773984432
56.0,0.012928172014653683
60.0,0.012150979600846767
64.0,0.011325920931994915
72.0,0.009780880995094776
80.0,0.008721313439309597
88.0,0.007728434167802334
96.0,0.006654015276581049
104.0,0.005698928143829107
112.0,0.005030225031077862
120.0,0.004599414765834808
128.0,0.0042164814658463
144.0,0.0033003694843500853
160.0,0.00226583075709641
176.0,0.0009231272269971669
192.0,-0.00017301773186773062
208.0,-0.0008282091584987938
224.0,-0.0009228588314726949
240.0,-0.0008822475792840123
256.0,-0.0007658458198420703
288.0,-0.0008162407320924103
320.0,-0.0005172865348868072
352.0,-0.0002025124995270744
384.0,-0.0005103881703689694
416.0,-0.000629996124189347
448.0,-0.0005444279522635043
480.0,-0.00040437537245452404
512.0,-7.266732427524403e-05
576.0,-0.0018232075963169336
640.0,6.537914305226877e-05
704.0,0.003126386320218444
768.0,0.0030073507223278284
832.0,0.003413165919482708
896.0,0.00024516123812645674
960.0,-0.00045593289542011917
1024.0,-0.0010385233908891678
1152.0,-0.001580497482791543
1280.0,0.002453346736729145
1408.0,0.0025286804884672165
1536.0,0.0006474347319453955
1664.0,-0.0009669035207480192
1792.0,-0.00025344188907183707
1920.0,-0.000936798460315913
2048.0,0.0005523310974240303
2304.0,0.0011127720354124904
2560.0,-0.002296086633577943
2816.0,-0.0005928091122768819
3072.0,-0.0013464208459481597
3328.0,-0.0017318876925855875
3584.0,0.001479225349612534
3840.0,-0.00021602447668556124
4096.0,-0.0023970205802470446
4608.0,-0.002038804814219475
5120.0,0.00046682258835062385
5632.0,-0.00012172533752163872
6144.0,-0.0009028098429553211
6656.0,-0.0004864819347858429
7168.0,0.0010301722213625908
7680.0,-0.00012353165948297828
8192.0,0.0010176176438108087
9216.0,0.001805483247153461
10240.0,0.0007672405918128788
11264.0,-0.001472639967687428
12288.0,-0.0032350027468055487
13312.0,-0.001434506382793188
14336.0,-0.00107245659455657
end
