version,3.0
numOfCh,1
type,point
parent_name,80-cuts
ch_type,1_1
kcount,1
numberNandB,1
brightnessNandB,1
carpet pos,0
pc,0
Time (ms),CH1 Auto-Correlation
1.0,0.025315063074231148
2.0,0.02479477971792221
3.0,0.024289870634675026
4.0,0.023808469995856285
5.0,0.02335512824356556
6.0,0.02291165292263031
7.0,0.022486479952931404
8.0,0.022084981203079224
9.0,0.021695010364055634
10.0,0.02131764590740204
11.0,0.020941777154803276
12.0,0.02056286856532097
13.0,0.02020137570798397
14.0,0.01986442692577839
15.0,0.019536955282092094
16.0,0.019208092242479324
18.0,0.018553756177425385
20.0,0.017929384484887123
22.0,0.017331944778561592
24.0,0.016731655225157738
26.0,0.016171826049685478
28.0,0.015631072223186493
30.0,0.015129243023693562
32.0,0.01465042494237423
36.0,0.013770363293588161
40.0,0.012996841222047806
44.0,0.012352567166090012
48.0,0.011829654686152935
52.0,0.011393739841878414
56.0,0.011015632189810276
60.0,0.01068082544952631
64.0,0.01032059732824564
72.0,0.009516588412225246
80.0,0.008570517413318157
88.0,0.007663515396416187
96.0,0.006856446620076895
104.0,0.006159371696412563
112.0,0.005499895196408033
120.0,0.004910442046821117
128.0,0.004456900060176849
144.0,0.003736395388841629
160.0,0.002990440232679248
176.0,0.002273917431011796
192.0,0.0016008828533813357
208.0,0.0012419307604432106
224.0,0.001121596316806972
240.0,0.0012113087577745318
256.0,0.0015397702809423208
288.0,0.003012389875948429
320.0,0.002361319027841091
352.0,0.0010500566568225622
384.0,-4.44222769147018e-06
416.0,-0.0008808148559182882
448.0,-0.001774660893715918
480.0,-0.0018201277125626802
512.0,-0.0010287726763635874
576.0,-0.0005741300992667675
640.0,-0.0005128536140546203
704.0,-0.0006345335859805346
768.0,-0.00026610292843542993
832.0,-0.0007000390323810279
896.0,-0.0031109966803342104
960.0,-0.005108732730150223
1024.0,-0.004936005920171738
1152.0,-0.0016596255591139197
1280.0,-0.000543842907063663
1408.0,0.0007030288106761873
1536.0,-0.0008069064933806658
1664.0,-0.001571789151057601
1792.0,-0.00039482011925429106
1920.0,-0.0027014368679374456
2048.0,-0.0007011602283455431
2304.0,-0.00012823504221159965
2560.0,0.0016544561367481947
2816.0,0.0024680644273757935
3072.0,0.0033102354500442743
3328.0,0.0003519298625178635
3584.0,-0.0016625227872282267
3840.0,-0.0011035281931981444
4096.0,-0.002154584974050522
4608.0,-0.0017847734270617366
5120.0,-0.0010189973982051015
5632.0,0.0008810136932879686
6144.0,0.0008720376645214856
6656.0,0.0017676426796242595
7168.0,-0.0013677488313987851
7680.0,-0.0022318020928651094
8192.0,0.00038059541839174926
9216.0,0.0013509016716852784
10240.0,-0.001806899206712842
11264.0,0.0007966299308463931
12288.0,1.7103293430409394e-05
13312.0,-0.0026725304778665304
14336.0,0.000109995344246272
end
