version,3.0
numOfCh,1
type,point
parent_name,80-cuts
ch_type,1_1
kcount,1
numberNandB,1
brightnessNandB,1
carpet pos,0
pc,0
Time (ms),CH1 Auto-Correlation
1.0,0.061045147478580475
2.0,0.05972939729690552
3.0,0.058457475155591965
4.0,0.05722566321492195
5.0,0.0559956431388855
6.0,0.05478997528553009
7.0,0.053585708141326904
8.0,0.05241897702217102
9.0,0.05129168927669525
10.0,0.05019107088446617
11.0,0.0491369366645813
12.0,0.04808700084686279
13.0,0.04708446189761162
14.0,0.046096429228782654
15.0,0.045216239988803864
16.0,0.04440508037805557
18.0,0.04290236160159111
20.0,0.04148823395371437
22.0,0.04018121212720871
24.0,0.03894921764731407
26.0,0.037774909287691116
28.0,0.036654651165008545
30.0,0.03560197353363037
32.0,0.03464248776435852
36.0,0.032829057425260544
40.0,0.031145527958869934
44.0,0.029585251584649086
48.0,0.0281335711479187
52.0,0.0268519576638937
56.0,0.025542734190821648
60.0,0.024266166612505913
64.0,0.023058578372001648
72.0,0.02094784565269947
80.0,0.019231313839554787
88.0,0.017527462914586067
96.0,0.01621413603425026
104.0,0.01538786105811596
112.0,0.014521000906825066
120.0,0.013378453440964222
128.0,0.01237286813557148
144.0,0.01022932305932045
160.0,0.008312184363603592
176.0,0.005997410509735346
192.0,0.0035100304521620274
208.0,0.0017970746848732233
224.0,0.0017164540477097034
240.0,0.0016295271925628185
256.0,0.0013898478355258703
288.0,0.0036327058915048838
320.0,0.0024881695862859488
352.0,0.0011369542917236686
384.0,0.0005520845297724009
416.0,0.0015415846137329936
448.0,0.0022196918725967407
480.0,0.0029577298555523157
512.0,0.0034469454549252987
576.0,0.0055260066874325275
640.0,0.0028616369236260653
704.0,-0.0005910223699174821
768.0,-0.0026742855552583933
832.0,-0.0026263317558914423
896.0,-0.002673251088708639
960.0,0.001924086012877524
1024.0,0.004884402267634869
1152.0,0.004694473464041948
1280.0,-0.000541270594112575
1408.0,2.217493783973623e-05
1536.0,0.0031921612098813057
1664.0,0.007848567329347134
1792.0,0.004570838063955307
1920.0,0.0018583697965368629
2048.0,0.002529687713831663
2304.0,0.0004204142896924168
2560.0,0.0006691105663776398
2816.0,0.00136844243388623
3072.0,0.005316137336194515
3328.0,0.005274627823382616
3584.0,0.00017451167514082044
3840.0,-0.00019479701586533338
4096.0,-0.0021823355928063393
4608.0,-0.0008456899668090045
5120.0,-0.0021864876616746187
5632.0,-0.005847402848303318
6144.0,-0.0035401545464992523
6656.0,0.0006046108901500702
7168.0,-0.003034663386642933
7680.0,-0.006158984731882811
8192.0,-0.0008344667730852962
9216.0,-0.004487923346459866
10240.0,-0.0025887642987072468
11264.0,-0.0018234404269605875
12288.0,0.0010268851183354855
13312.0,0.001114829909056425
14336.0,0.0012048616772517562
end
