version,3.0
numOfCh,1
type,point
parent_name,80-cuts
ch_type,1_1
kcount,1
numberNandB,1
brightnessNandB,1
carpet pos,0
pc,0
Time (ms),CH1 Auto-Correlation
1.0,0.07306796312332153
2.0,0.07165468484163284
3.0,0.0702880397439003
4.0,0.06899875402450562
5.0,0.0677046924829483
6.0,0.06642976403236389
7.0,0.06519598513841629
8.0,0.06401149928569794
9.0,0.06285034120082855
10.0,0.06172092258930206
11.0,0.06061677634716034
12.0,0.05952874571084976
13.0,0.05848595127463341
14.0,0.057512812316417694
15.0,0.056560955941677094
16.0,0.05564592778682709
18.0,0.05392744392156601
20.0,0.05232292041182518
22.0,0.05080457031726837
24.0,0.04929903894662857
26.0,0.04792455583810806
28.0,0.04662300646305084
30.0,0.045383743941783905
32.0,0.044219501316547394
36.0,0.04217411205172539
40.0,0.04029129818081856
44.0,0.03853714093565941
48.0,0.036845289170742035
52.0,0.03515511751174927
56.0,0.033385876566171646
60.0,0.03175527602434158
64.0,0.030173413455486298
72.0,0.027359582483768463
80.0,0.025242047384381294
88.0,0.023623764514923096
96.0,0.02229360118508339
104.0,0.02136143669486046
112.0,0.020811470225453377
120.0,0.02019040286540985
128.0,0.019359730184078217
144.0,0.017029525712132454
160.0,0.015084367245435715
176.0,0.014729724265635014
192.0,0.015275286510586739
208.0,0.015488285571336746
224.0,0.014037113636732101
240.0,0.01345629058778286
256.0,0.013421663083136082
288.0,0.012557930313050747
320.0,0.013294625096023083
352.0,0.01274639368057251
384.0,0.010199720971286297
416.0,0.006560341455042362
448.0,0.005150845739990473
480.0,0.005647815298289061
512.0,0.006739350501447916
576.0,0.00759808998554945
640.0,0.0047000739723443985
704.0,0.003431522287428379
768.0,-0.0009224275127053261
832.0,-0.0015010639326646924
896.0,0.00012885317846667022
960.0,0.0012954054400324821
1024.0,0.00023612644872628152
1152.0,-0.0030869324691593647
1280.0,-0.005074264481663704
1408.0,0.0011287287343293428
1536.0,-2.53679513662064e-06
1664.0,-0.0032983548007905483
1792.0,-0.007571229245513678
1920.0,-0.007475750986486673
2048.0,-0.00618790416046977
2304.0,-0.004565789829939604
2560.0,-0.00032014859607443213
2816.0,-0.0012112181866541505
3072.0,-0.003010885789990425
3328.0,-0.0007471033604815602
3584.0,7.97178945504129e-05
3840.0,0.0005817959317937493
4096.0,-0.0018176439916715026
4608.0,-0.004521848168224096
5120.0,-0.005389681085944176
5632.0,0.01045297086238861
6144.0,0.008403005078434944
6656.0,-0.003577299416065216
7168.0,0.0008545553428120911
7680.0,-0.01326753105968237
8192.0,-0.009717299602925777
9216.0,-0.002231237478554249
10240.0,0.0009023579768836498
11264.0,0.005360518116503954
12288.0,0.007752211764454842
13312.0,0.0038692306261509657
14336.0,-0.005833308212459087
end
