version,3.0
numOfCh,1
type,point
parent_name,80-cuts
ch_type,1_1
kcount,1
numberNandB,1
brightnessNandB,1
carpet pos,0
pc,0
Time (ms),CH1 Auto-Correlation
1.0,0.020249107852578163
2.0,0.01976267248392105
3.0,0.01930146850645542
4.0,0.01885826140642166
5.0,0.018436657264828682
6.0,0.01803107000887394
7.0,0.01763625629246235
8.0,0.017280422151088715
9.0,0.016929879784584045
10.0,0.01659276708960533
11.0,0.01625942438840866
12.0,0.015940437093377113
13.0,0.015621389262378216
14.0,0.015316266566514969
15.0,0.01502307504415512
16.0,0.014744695276021957
18.0,0.014214003458619118
20.0,0.013722308911383152
22.0,0.013250918127596378
24.0,0.012789078988134861
26.0,0.012371085584163666
28.0,0.012009911239147186
30.0,0.011694476939737797
32.0,0.011382621712982655
36.0,0.010755538009107113
40.0,0.010181081481277943
44.0,0.00961359404027462
48.0,0.009058360010385513
52.0,0.008471866138279438
56.0,0.007849287241697311
60.0,0.007295482791960239
64.0,0.006776513997465372
72.0,0.0058981552720069885
80.0,0.005210148636251688
88.0,0.004699598532170057
96.0,0.004304610192775726
104.0,0.0038875574246048927
112.0,0.0035397729370743036
120.0,0.0031741629354655743
128.0,0.002780951326712966
144.0,0.0020129280164837837
160.0,0.0011832504533231258
176.0,0.0006045789923518896
192.0,0.0003669555298984051
208.0,0.00010174131602980196
224.0,-0.0002096356765832752
240.0,-0.0006739443051628768
256.0,-0.0005774803576059639
288.0,-0.0006693614413961768
320.0,-0.0011651477543637156
352.0,-0.0017592690419405699
384.0,-0.001651797560043633
416.0,-0.0013248177710920572
448.0,-0.001606901758350432
480.0,-0.002340710489079356
512.0,-0.002922315150499344
576.0,-0.0030373428016901016
640.0,-0.0013025219086557627
704.0,-0.0006633945158682764
768.0,0.00022924337827134877
832.0,0.000737046473659575
896.0,0.0007787280483171344
960.0,0.0011523001594468951
1024.0,0.0015859730774536729
1152.0,0.0006840656278654933
1280.0,0.00041149440221488476
1408.0,-0.0004153735062573105
1536.0,-0.001597676775418222
1664.0,-0.0004106596461497247
1792.0,1.2910221812489908e-05
1920.0,-0.00013825287169311196
2048.0,0.0013695397647097707
2304.0,-0.00031382826273329556
2560.0,-0.0011318073375150561
2816.0,-0.0009133328567259014
3072.0,-9.751686593517661e-05
3328.0,-0.0005180364241823554
3584.0,0.000644486746750772
3840.0,0.0012945982161909342
4096.0,-0.000579632876906544
4608.0,0.0003140522458124906
5120.0,-0.0013174013001844287
5632.0,0.001006855396553874
6144.0,-0.001574142836034298
6656.0,0.0010717898840084672
7168.0,-0.001044509350322187
7680.0,0.0009369731997139752
8192.0,0.0011221298482269049
9216.0,0.000677302828989923
10240.0,-0.0005414795014075935
11264.0,0.0003182170621585101
12288.0,-0.0001550097222207114
13312.0,-0.0015897746197879314
14336.0,-0.001976626692339778
end
