version,3.0
numOfCh,1
type,point
parent_name,80-cuts
ch_type,1_1
kcount,1
numberNandB,1
brightnessNandB,1
carpet pos,0
pc,0
Time (ms),CH1 Auto-Correlation
1.0,0.06767605245113373
2.0,0.06635357439517975
3.0,0.06506061553955078
4.0,0.06380777060985565
5.0,0.06258288770914078
6.0,0.06142668426036835
7.0,0.060305457562208176
8.0,0.05921635404229164
9.0,0.05816671624779701
10.0,0.057117804884910583
11.0,0.05608992278575897
12.0,0.05507254973053932
13.0,0.054126933217048645
14.0,0.05322038009762764
15.0,0.052331291139125824
16.0,0.05142919719219208
18.0,0.04971075803041458
20.0,0.04812239855527878
22.0,0.0465858168900013
24.0,0.045191649347543716
26.0,0.04384634271264076
28.0,0.04250860959291458
30.0,0.041175439953804016
32.0,0.0399349108338356
36.0,0.0377105288207531
40.0,0.03575199469923973
44.0,0.034019798040390015
48.0,0.03227299451828003
52.0,0.030379151925444603
56.0,0.028484441339969635
60.0,0.02681766077876091
64.0,0.025266600772738457
72.0,0.022530609741806984
80.0,0.01985340751707554
88.0,0.01768363080918789
96.0,0.015921026468276978
104.0,0.014591926708817482
112.0,0.01328380685299635
120.0,0.012430100701749325
128.0,0.012190138921141624
144.0,0.011785994283854961
160.0,0.011374443769454956
176.0,0.011299414560198784
192.0,0.011217627674341202
208.0,0.010495719499886036
224.0,0.009703339077532291
240.0,0.008628093637526035
256.0,0.008132567629218102
288.0,0.004798779264092445
320.0,0.0010721825528889894
352.0,-0.0009633293957449496
384.0,-0.0022632325999438763
416.0,-0.002983118174597621
448.0,-0.002466171281412244
480.0,-0.0037717698141932487
512.0,-0.004025402944535017
576.0,-0.0023692885879427195
640.0,0.0006456809933297336
704.0,0.00327702215872705
768.0,0.005173534620553255
832.0,0.005279628559947014
896.0,0.0035675596445798874
960.0,0.0016187791479751468
1024.0,0.0026589592453092337
1152.0,0.0026017380878329277
1280.0,0.00783315859735012
1408.0,0.005469316150993109
1536.0,-0.0022563317324966192
1664.0,-0.007051759399473667
1792.0,-0.009185791015625
1920.0,-0.004748720675706863
2048.0,0.005061035975813866
2304.0,-0.001745567424222827
2560.0,-0.00634869234636426
2816.0,-0.004672529175877571
3072.0,-0.0039309002459049225
3328.0,-0.004328619223088026
3584.0,-0.004994803108274937
3840.0,-0.007917173206806183
4096.0,-5.005145339964656e-06
4608.0,0.0033387644216418266
5120.0,-0.0003807421599049121
5632.0,0.002157860202714801
6144.0,-0.003443119116127491
6656.0,-0.0008320729248225689
7168.0,-0.0008142460137605667
7680.0,-0.0034091586712747812
8192.0,-0.0030116725247353315
9216.0,0.0015325137646868825
10240.0,0.008778874762356281
11264.0,0.003612829139456153
12288.0,-0.0031958199106156826
13312.0,-0.008950912393629551
14336.0,-0.007074609864503145
end
