version,3.0
numOfCh,1
type,point
parent_name,80-cuts
ch_type,1_1
kcount,1
numberNandB,1
brightnessNandB,1
carpet pos,0
pc,0
Time (ms),CH1 Auto-Correlation
1.0,0.061014432460069656
2.0,0.05935017019510269
3.0,0.05774647742509842
4.0,0.05626574158668518
5.0,0.05482744053006172
6.0,0.053418852388858795
7.0,0.05205882713198662
8.0,0.05072597786784172
9.0,0.049469951540231705
10.0,0.04823298379778862
11.0,0.04707888513803482
12.0,0.04594602435827255
13.0,0.04488278552889824
14.0,0.043825775384902954
15.0,0.04279163479804993
16.0,0.041789308190345764
18.0,0.039890460669994354
20.0,0.03810418024659157
22.0,0.03637592867016792
24.0,0.03479982912540436
26.0,0.03336218371987343
28.0,0.03203701600432396
30.0,0.030742693692445755
32.0,0.02948266640305519
36.0,0.02721770852804184
40.0,0.025134041905403137
44.0,0.02315860241651535
48.0,0.02126159332692623
52.0,0.01948159746825695
56.0,0.017790045589208603
60.0,0.016261624172329903
64.0,0.014786336570978165
72.0,0.012517849914729595
80.0,0.010489430278539658
88.0,0.00836807768791914
96.0,0.006353073287755251
104.0,0.004810016136616468
112.0,0.0032563686836510897
120.0,0.0014559319242835045
128.0,9.996526932809502e-05
144.0,-0.0008601555018685758
160.0,-0.0007268739282153547
176.0,-0.0008771809516474605
192.0,-0.0006532276165671647
208.0,-0.00023018578940536827
224.0,0.00011188079952262342
240.0,0.000987086445093155
256.0,0.001584281213581562
288.0,0.0008731909329071641
320.0,-0.0015143369091674685
352.0,-0.003351871855556965
384.0,-0.002475318033248186
416.0,-0.0011971440399065614
448.0,-0.002858472755178809
480.0,-0.0035623235162347555
512.0,-0.005502474494278431
576.0,-0.00034807887277565897
640.0,0.004544742871075869
704.0,0.004254227504134178
768.0,0.00248237163759768
832.0,0.006207554135471582
896.0,0.006225652061402798
960.0,0.0029182990547269583
1024.0,-0.0004234293010085821
1152.0,-0.001070540864020586
1280.0,-0.005765525158494711
1408.0,-0.0037741411942988634
1536.0,-0.0012078472645953298
1664.0,-0.0016755007673054934
1792.0,0.003601614385843277
1920.0,-0.0035758959129452705
2048.0,-0.0024679636117070913
2304.0,-0.000373535614926368
2560.0,-0.0061535583809018135
2816.0,-0.0010827587684616446
3072.0,-0.0020523620769381523
3328.0,-0.0034432224929332733
3584.0,-0.0020929286256432533
3840.0,0.0014841272495687008
4096.0,-0.0002219591842731461
4608.0,0.0025269449688494205
5120.0,0.00399899622425437
5632.0,-0.0007617808296345174
6144.0,0.004550021141767502
6656.0,0.0013208258897066116
7168.0,-0.0025521148927509785
7680.0,-0.006539495661854744
8192.0,-0.0012622082140296698
9216.0,-0.0013248191680759192
10240.0,0.004103843122720718
11264.0,0.0038225476164370775
12288.0,-0.0022565152030438185
13312.0,-0.004633305594325066
14336.0,0.0017106840386986732
end
