version,3.0
numOfCh,1
type,point
parent_name,80-cuts
ch_type,1_1
kcount,1
numberNandB,1
brightnessNandB,1
carpet pos,0
pc,0
Time (ms),CH1 Auto-Correlation
1.0,0.021341243758797646
2.0,0.02082756534218788
3.0,0.020307593047618866
4.0,0.019786063581705093
5.0,0.019282404333353043
6.0,0.018794039264321327
7.0,0.018334517255425453
8.0,0.017878323793411255
9.0,0.01742454618215561
10.0,0.016985394060611725
11.0,0.016556942835450172
12.0,0.016161059960722923
13.0,0.015783553943037987
14.0,0.015410536900162697
15.0,0.015068256296217442
16.0,0.01473464909940958
18.0,0.014099989086389542
20.0,0.01350888330489397
22.0,0.012935252860188484
24.0,0.01241061370819807
26.0,0.011923818849027157
28.0,0.011462030932307243
30.0,0.011008686386048794
32.0,0.01053842157125473
36.0,0.009709969162940979
40.0,0.00896017998456955
44.0,0.008239389397203922
48.0,0.007568526081740856
52.0,0.006944257766008377
56.0,0.006440248340368271
60.0,0.005981848109513521
64.0,0.005509840790182352
72.0,0.004555824678391218
80.0,0.003662011120468378
88.0,0.0030363041441887617
96.0,0.0024400269612669945
104.0,0.0019617897924035788
112.0,0.0016585184494033456
120.0,0.001333122723735869
128.0,0.0009936236310750246
144.0,0.0004856807936448604
160.0,0.0002431392204016447
176.0,-3.5297976864967495e-05
192.0,-6.166403909446672e-05
208.0,0.0005343395168893039
224.0,0.0010831275722011924
240.0,0.0009356393711641431
256.0,0.00017029044101946056
288.0,-0.0012806379236280918
320.0,-0.0015603314386680722
352.0,-0.000855334394145757
384.0,-0.0005411937017925084
416.0,-0.00013327604392543435
448.0,4.686607553594513e-06
480.0,-0.0007980688824318349
512.0,-0.001482590800151229
576.0,-0.0012433617375791073
640.0,-0.0008548410842195153
704.0,-0.0006963517516851425
768.0,-0.0011065836297348142
832.0,-0.0011641614837571979
896.0,-0.0003835285024251789
960.0,0.00032691488740965724
1024.0,0.0009426120086573064
1152.0,0.000600217143073678
1280.0,-0.0016308564227074385
1408.0,-0.001161881722509861
1536.0,-0.00022666483710054308
1664.0,0.001427831593900919
1792.0,-0.0010301877046003938
1920.0,0.0002546836039982736
2048.0,0.0008490553591400385
2304.0,0.00042635801946744323
2560.0,-0.0002447082370053977
2816.0,-0.0008258873713202775
3072.0,0.0012840440031141043
3328.0,0.00032255222322419286
3584.0,-0.002063820604234934
3840.0,-3.315618414490018e-06
4096.0,-2.110083914885763e-05
4608.0,0.0008841466624289751
5120.0,0.00042500541894696653
5632.0,-0.0005995951942168176
6144.0,0.00014170845679473132
6656.0,0.00023514959320891649
7168.0,-0.0010315334657207131
7680.0,-0.0002146831393474713
8192.0,-0.00032978790113702416
9216.0,-9.305996354669333e-05
10240.0,4.918175545753911e-05
11264.0,0.000141386131872423
12288.0,4.7994271881179884e-05
13312.0,8.383975364267826e-05
14336.0,0.00010644455323927104
end
