version,3.0
numOfCh,1
type,point
parent_name,80-cuts
ch_type,1_1
kcount,1
numberNandB,1
brightnessNandB,1
carpet pos,0
pc,0
Time (ms),CH1 Auto-Correlation
1.0,0.03527481481432915
2.0,0.034482192248106
3.0,0.03371850401163101
4.0,0.0329768992960453
5.0,0.0322645902633667
6.0,0.03157705441117287
7.0,0.03093470074236393
8.0,0.030291244387626648
9.0,0.02967134676873684
10.0,0.029066648334264755
11.0,0.028500515967607498
12.0,0.027954349294304848
13.0,0.02742154896259308
14.0,0.026936890557408333
15.0,0.026437338441610336
16.0,0.025959039106965065
18.0,0.025049643591046333
20.0,0.024189472198486328
22.0,0.02339019998908043
24.0,0.02259739115834236
26.0,0.021819382905960083
28.0,0.021069495007395744
30.0,0.020287616178393364
32.0,0.019561512395739555
36.0,0.01829017512500286
40.0,0.01711646467447281
44.0,0.015943851321935654
48.0,0.014783251099288464
52.0,0.013602250255644321
56.0,0.012484030798077583
60.0,0.011486352421343327
64.0,0.01063081156462431
72.0,0.009036528877913952
80.0,0.00743537163361907
88.0,0.005829665344208479
96.0,0.004449901636689901
104.0,0.003552477341145277
112.0,0.002987487707287073
120.0,0.0026801463682204485
128.0,0.0022401504684239626
144.0,0.001065563876181841
160.0,0.00031740139820612967
176.0,0.00011627139610936865
192.0,-0.00010150031448574737
208.0,6.270164158195257e-05
224.0,-8.037921361392364e-05
240.0,-0.00046978567843325436
256.0,-0.0004527579585555941
288.0,-0.0001958616921911016
320.0,0.0005989709170535207
352.0,0.001007542246952653
384.0,0.0017289405222982168
416.0,0.002569529227912426
448.0,0.002702927915379405
480.0,0.0019268603064119816
512.0,0.0011088440660387278
576.0,0.0012654459569603205
640.0,0.0013167340075597167
704.0,0.0005955315427854657
768.0,0.0006901751039549708
832.0,0.0008727050735615194
896.0,0.0008885140996426344
960.0,0.00016707569011487067
1024.0,-0.0011820272775366902
1152.0,-0.001218448393046856
1280.0,-0.004104307387024164
1408.0,-0.004353508353233337
1536.0,-0.0007053056033328176
1664.0,-3.7625315599143505e-05
1792.0,-0.0001368852681480348
1920.0,-0.0007240480044856668
2048.0,-0.0021215747110545635
2304.0,-0.00047605595318600535
2560.0,0.0004865697119385004
2816.0,-4.827048087463481e-06
3072.0,-0.00012818696268368512
3328.0,-0.0005064390716142952
3584.0,8.018464723136276e-05
3840.0,0.00048292765859514475
4096.0,0.0004662202554754913
4608.0,0.0017885718261823058
5120.0,0.00021774796186946332
5632.0,-0.0020052071195095778
6144.0,-0.003563505597412586
6656.0,-0.001019590417854488
7168.0,0.000539221044164151
7680.0,0.0010088379494845867
8192.0,0.0005214895936660469
9216.0,0.000919189362321049
10240.0,-0.0012878600973635912
11264.0,0.0008015027269721031
12288.0,0.0001438802864868194
13312.0,8.858833461999893e-05
14336.0,-0.0011922083795070648
end
