version,3.0
numOfCh,1
type,point
parent_name,80-cuts
ch_type,1_1
kcount,1
numberNandB,1
brightnessNandB,1
carpet pos,0
pc,0
Time (ms),CH1 Auto-Correlation
1.0,0.037078890949487686
2.0,0.03636792674660683
3.0,0.0356629379093647
4.0,0.03497425839304924
5.0,0.0343017615377903
6.0,0.03364821523427963
7.0,0.03301144018769264
8.0,0.03238893672823906
9.0,0.031782086938619614
10.0,0.031179023906588554
11.0,0.030594004318118095
12.0,0.03001488745212555
13.0,0.029451865702867508
14.0,0.028905481100082397
15.0,0.02840348146855831
16.0,0.027920687571167946
18.0,0.026994720101356506
20.0,0.026108408346772194
22.0,0.025226140394806862
24.0,0.024376368150115013
26.0,0.023554911836981773
28.0,0.022745385766029358
30.0,0.021944742649793625
32.0,0.021177710965275764
36.0,0.019790317863225937
40.0,0.018479488790035248
44.0,0.017346028238534927
48.0,0.016375595703721046
52.0,0.015504199080169201
56.0,0.014832183718681335
60.0,0.014157217927277088
64.0,0.013437260873615742
72.0,0.012301984243094921
80.0,0.011381528340280056
88.0,0.010631588287651539
96.0,0.00995156355202198
104.0,0.009512010961771011
112.0,0.008979187346994877
120.0,0.008312227204442024
128.0,0.0075586168095469475
144.0,0.006418557371944189
160.0,0.005898464936763048
176.0,0.0052912309765815735
192.0,0.004197276197373867
208.0,0.003455310594290495
224.0,0.0036492133513092995
240.0,0.0040009464137256145
256.0,0.0036594157572835684
288.0,0.0032765022478997707
320.0,0.0033028065226972103
352.0,0.0027032841462641954
384.0,0.0016201165271922946
416.0,0.001346845761872828
448.0,0.0017709742533043027
480.0,0.0005638265865854919
512.0,-0.0014885078417137265
576.0,-0.003788268892094493
640.0,-0.004813134670257568
704.0,-0.0041203987784683704
768.0,-0.002974090864881873
832.0,-0.003503044368699193
896.0,-0.003589885774999857
960.0,-0.003090547863394022
1024.0,-0.0010782418539747596
1152.0,-0.0013055340386927128
1280.0,0.0021668390836566687
1408.0,0.0014839740470051765
1536.0,0.001796358497813344
1664.0,-0.00032304346677847207
1792.0,0.0018515953561291099
1920.0,-0.0011694756103679538
2048.0,0.0007101894007064402
2304.0,0.00062059290939942
2560.0,-0.0015097864670678973
2816.0,-0.002065312350168824
3072.0,-0.0036900623235851526
3328.0,-0.002994707552716136
3584.0,0.0010574451880529523
3840.0,0.004234831314533949
4096.0,0.0016401418251916766
4608.0,-0.0021917561534792185
5120.0,0.00041366604273207486
5632.0,4.566221105051227e-05
6144.0,-0.0012613661820068955
6656.0,0.0006743630510754883
7168.0,-0.001040565432049334
7680.0,0.00024035072419792414
8192.0,0.0044755274429917336
9216.0,-0.0008724362123757601
10240.0,-0.002300896914675832
11264.0,-0.0009281689999625087
12288.0,-0.0016691378550603986
13312.0,0.0006622300134040415
14336.0,0.003875433700159192
end
