version,3.0
numOfCh,1
type,point
parent_name,80-cuts
ch_type,1_1
kcount,1
numberNandB,1
brightnessNandB,1
carpet pos,0
pc,0
Time (ms),CH1 Auto-Correlation
1.0,0.03216357156634331
2.0,0.031402911990880966
3.0,0.030666232109069824
4.0,0.029970252886414528
5.0,0.029312968254089355
6.0,0.028671011328697205
7.0,0.02806677855551243
8.0,0.027489563450217247
9.0,0.026934918016195297
10.0,0.026390664279460907
11.0,0.02585582435131073
12.0,0.025340838357806206
13.0,0.024813640862703323
14.0,0.024309605360031128
15.0,0.023818286135792732
16.0,0.02333354949951172
18.0,0.0224335715174675
20.0,0.02158668264746666
22.0,0.020816616714000702
24.0,0.020090075209736824
26.0,0.019355084747076035
28.0,0.01862604357302189
30.0,0.017910275608301163
32.0,0.017254456877708435
36.0,0.016076773405075073
40.0,0.01504249032586813
44.0,0.014118829742074013
48.0,0.013287278823554516
52.0,0.01238511223345995
56.0,0.011559264734387398
60.0,0.01084191631525755
64.0,0.010156810283660889
72.0,0.008879629895091057
80.0,0.00766904978081584
88.0,0.006723566446453333
96.0,0.0061132898554205894
104.0,0.005391714628785849
112.0,0.0044625322334468365
120.0,0.003384009934961796
128.0,0.0025314900558441877
144.0,0.0015271356096491218
160.0,0.00026516776415519416
176.0,-0.0009098429000005126
192.0,-0.0013819560408592224
208.0,-0.0017283916240558028
224.0,-0.001953014638274908
240.0,-0.0020525383297353983
256.0,-0.002194060944020748
288.0,-0.0013720751740038395
320.0,-0.0002719258773140609
352.0,0.000320082443067804
384.0,0.0010551566956564784
416.0,0.0018468855414539576
448.0,0.003593113971874118
480.0,0.0051742857322096825
512.0,0.004926159046590328
576.0,0.0018775734351947904
640.0,-0.0007530373404733837
704.0,-0.00041642345604486763
768.0,-0.0003856355033349246
832.0,-0.0005173100507818162
896.0,-7.012952119112015e-05
960.0,-0.0005392128950916231
1024.0,-0.0010186677100136876
1152.0,-0.00041677593253552914
1280.0,-0.0012278308859094977
1408.0,-0.0008095601224340498
1536.0,-0.0008192514651454985
1664.0,-0.0009785653091967106
1792.0,-0.0024136158172041178
1920.0,-0.0008313963189721107
2048.0,0.0006080175517126918
2304.0,-0.0028202999383211136
2560.0,0.003281579352915287
2816.0,-0.0037543009966611862
3072.0,0.0027169655077159405
3328.0,-0.0030784509144723415
3584.0,0.000615724828094244
3840.0,-0.0011010641464963555
4096.0,0.0004010778502561152
4608.0,0.000640036363620311
5120.0,-0.0007726110052317381
5632.0,0.001301413751207292
6144.0,-0.0011348266853019595
6656.0,2.8395834306138568e-05
7168.0,0.000592329481150955
7680.0,0.001202950719743967
8192.0,0.0020001830998808146
9216.0,-0.0007463244255632162
10240.0,-0.0013659370597451925
11264.0,-0.0016189409652724862
12288.0,0.0017010582378134131
13312.0,0.001262000878341496
14336.0,-0.0018593640998005867
end
