version,3.0
numOfCh,1
type,point
parent_name,80-cuts
ch_type,1_1
kcount,1
numberNandB,1
brightnessNandB,1
carpet pos,0
pc,0
Time (ms),CH1 Auto-Correlation
1.0,0.019802020862698555
2.0,0.019366584718227386
3.0,0.01893777959048748
4.0,0.018522849306464195
5.0,0.01811797171831131
6.0,0.017734648659825325
7.0,0.0173605065792799
8.0,0.01699497364461422
9.0,0.016645699739456177
10.0,0.01631423458456993
11.0,0.015999510884284973
12.0,0.015698038041591644
13.0,0.015397042967379093
14.0,0.015094864182174206
15.0,0.014807410538196564
16.0,0.014529514126479626
18.0,0.014029480516910553
20.0,0.013550087809562683
22.0,0.013085673563182354
24.0,0.012660094536840916
26.0,0.012278882786631584
28.0,0.011922599747776985
30.0,0.01158814039081335
32.0,0.01127854734659195
36.0,0.010679267346858978
40.0,0.01010318472981453
44.0,0.009587522596120834
48.0,0.009144460782408714
52.0,0.00875788927078247
56.0,0.008419804275035858
60.0,0.008134959265589714
64.0,0.007842941209673882
72.0,0.00737067312002182
80.0,0.007009589113295078
88.0,0.006795532535761595
96.0,0.006576526910066605
104.0,0.006207128055393696
112.0,0.005761375185102224
120.0,0.005336022935807705
128.0,0.004964345600455999
144.0,0.004318187944591045
160.0,0.0036161448806524277
176.0,0.0029999420512467623
192.0,0.002707814099267125
208.0,0.002702424768358469
224.0,0.0026788495015352964
240.0,0.0024222219362854958
256.0,0.0018712488235905766
288.0,0.00136833474971354
320.0,0.0019801759626716375
352.0,0.0020115389488637447
384.0,0.0017642875900492072
416.0,0.0014857439091429114
448.0,0.0010667290771380067
480.0,0.0004899107734672725
512.0,-6.862990267109126e-05
576.0,0.00048501280252821743
640.0,0.0006265223491936922
704.0,0.0007083052187226713
768.0,0.0006807766621932387
832.0,-0.00021948730864096433
896.0,-0.0008549920166842639
960.0,-0.0017000818625092506
1024.0,-0.0020556370727717876
1152.0,-0.0010234338697046041
1280.0,-0.0008624365436844528
1408.0,-0.001629831618629396
1536.0,-0.0015335340285673738
1664.0,-0.0012245957041159272
1792.0,-0.00212399591691792
1920.0,-0.000362139951903373
2048.0,0.0007235035300254822
2304.0,0.0013116865884512663
2560.0,0.0011725923977792263
2816.0,0.00019111933943349868
3072.0,-0.0008158951532095671
3328.0,-0.0011507213348522782
3584.0,-0.002444394864141941
3840.0,-0.001809658482670784
4096.0,-0.0015053738607093692
4608.0,0.0009014548268169165
5120.0,0.0014888063305988908
5632.0,0.0016991092124953866
6144.0,-0.0008344329544343054
6656.0,-0.0005918762180954218
7168.0,7.572353206342086e-05
7680.0,0.0019707370083779097
8192.0,0.0004250523925293237
9216.0,-0.0019265881273895502
10240.0,0.001256204443052411
11264.0,-0.001199370832182467
12288.0,0.001299132127314806
13312.0,0.0011584595777094364
14336.0,-0.006852797232568264
end
