version,3.0
numOfCh,1
type,point
parent_name,80-cuts
ch_type,1_1
kcount,1
numberNandB,1
brightnessNandB,1
carpet pos,0
pc,0
Time (ms),CH1 Auto-Correlation
1.0,0.06806349009275436
2.0,0.06652586162090302
3.0,0.06504985690116882
4.0,0.06365332752466202
5.0,0.06232293322682381
6.0,0.06103602424263954
7.0,0.05976737663149834
8.0,0.05854322761297226
9.0,0.057377513498067856
10.0,0.05620688572525978
11.0,0.05510300397872925
12.0,0.053994320333004
13.0,0.05291837453842163
14.0,0.05185587331652641
15.0,0.050798725336790085
16.0,0.04977621138095856
18.0,0.04785552993416786
20.0,0.04607637599110603
22.0,0.04436230659484863
24.0,0.04269259423017502
26.0,0.041140589863061905
28.0,0.03970121964812279
30.0,0.038291919976472855
32.0,0.036899663507938385
36.0,0.03426468372344971
40.0,0.0319259911775589
44.0,0.029954547062516212
48.0,0.02837931364774704
52.0,0.027032312005758286
56.0,0.025806501507759094
60.0,0.024480486288666725
64.0,0.023257436230778694
72.0,0.020416390150785446
80.0,0.01744857430458069
88.0,0.01461259089410305
96.0,0.012412157841026783
104.0,0.010478253476321697
112.0,0.008671553805470467
120.0,0.007596392184495926
128.0,0.006924834102392197
144.0,0.005646733101457357
160.0,0.006034357473254204
176.0,0.006517522502690554
192.0,0.006522246636450291
208.0,0.005190000403672457
224.0,0.004607031121850014
240.0,0.005176405422389507
256.0,0.006158039905130863
288.0,0.007942350581288338
320.0,0.010939456522464752
352.0,0.012860290706157684
384.0,0.012164723128080368
416.0,0.00860376562923193
448.0,0.006933148950338364
480.0,0.006218820810317993
512.0,0.005426692310720682
576.0,0.0028804070316255093
640.0,0.005050262436270714
704.0,0.007907774299383163
768.0,0.006432937458157539
832.0,0.005645142402499914
896.0,0.003954535350203514
960.0,0.0010889852419495583
1024.0,-0.001499180682003498
1152.0,0.0012255004839971662
1280.0,-0.0015353299677371979
1408.0,-0.002052687807008624
1536.0,-0.001150857424363494
1664.0,-0.002242689486593008
1792.0,-0.004978089593350887
1920.0,-0.007707801181823015
2048.0,-0.009850641712546349
2304.0,-0.012314368970692158
2560.0,-0.010863302275538445
2816.0,-0.008187433704733849
3072.0,-0.008678896352648735
3328.0,-0.008902037516236305
3584.0,-0.003779309568926692
3840.0,0.002411055378615856
4096.0,0.0036740123759955168
4608.0,0.0075184996239840984
5120.0,0.006769707892090082
5632.0,0.007293373346328735
6144.0,0.0013948041014373302
6656.0,-0.0014818112831562757
7168.0,-0.004900315776467323
7680.0,-0.00683372700586915
8192.0,-0.0012184175429865718
9216.0,-0.00011089126928709447
10240.0,0.0009286986896768212
11264.0,0.0015292343450710177
12288.0,0.0007629708852618933
13312.0,-0.0011512299533933401
14336.0,0.0012756806099787354
end
