version,3.0
numOfCh,1
type,point
parent_name,80-cuts
ch_type,1_1
kcount,1
numberNandB,1
brightnessNandB,1
carpet pos,0
pc,0
Time (ms),CH1 Auto-Correlation
1.0,0.028709692880511284
2.0,0.028036311268806458
3.0,0.027388921007514
4.0,0.026764439418911934
5.0,0.02614656649529934
6.0,0.025567175820469856
7.0,0.025018896907567978
8.0,0.02447824738919735
9.0,0.023937134072184563
10.0,0.023419830948114395
11.0,0.022938042879104614
12.0,0.022466925904154778
13.0,0.022013826295733452
14.0,0.021572653204202652
15.0,0.021137995645403862
16.0,0.02071463130414486
18.0,0.019897714257240295
20.0,0.019136199727654457
22.0,0.01842975616455078
24.0,0.01775548793375492
26.0,0.017082273960113525
28.0,0.016448471695184708
30.0,0.015875915065407753
32.0,0.015331734903156757
36.0,0.014364765025675297
40.0,0.01348838396370411
44.0,0.012630823999643326
48.0,0.011776318773627281
52.0,0.010893366299569607
56.0,0.010037838481366634
60.0,0.0092765586450696
64.0,0.008615078404545784
72.0,0.007370535749942064
80.0,0.006340745836496353
88.0,0.005616228561848402
96.0,0.0049509527161717415
104.0,0.004147390369325876
112.0,0.0034863001201301813
120.0,0.0030042489524930716
128.0,0.0025909417308866978
144.0,0.0017956312512978911
160.0,0.0007118356879800558
176.0,4.6589284465881065e-06
192.0,-0.000475577573524788
208.0,-0.0009523715125396848
224.0,-0.0010574815096333623
240.0,-0.0009614233858883381
256.0,-0.00040073611307889223
288.0,-0.00030776698258705437
320.0,-0.00016051201964728534
352.0,-0.001102483831346035
384.0,-0.0016289579216390848
416.0,-0.0012262578820809722
448.0,0.0005595632246695459
480.0,0.0015357371885329485
512.0,0.0017148725455626845
576.0,0.0007428508251905441
640.0,0.0003840098506771028
704.0,0.00030604295898228884
768.0,0.0008326926035806537
832.0,0.0011093756183981895
896.0,0.0006123101338744164
960.0,-0.0002765846729744226
1024.0,-0.0009336982620880008
1152.0,-0.00044581544352695346
1280.0,0.0008824658580124378
1408.0,0.0013308944180607796
1536.0,0.002275054808706045
1664.0,-0.0007933163433335721
1792.0,-0.0013813144760206342
1920.0,0.0011365975951775908
2048.0,0.0005389172001741827
2304.0,-0.0018873806111514568
2560.0,0.00014072225894778967
2816.0,-0.003270036308094859
3072.0,-0.00041974170017056167
3328.0,-0.0008006008574739099
3584.0,-0.0011862140381708741
3840.0,-0.0012229824205860496
4096.0,0.0032938707154244184
4608.0,-0.0010735909454524517
5120.0,0.0007434425060637295
5632.0,0.0009567827801220119
6144.0,-0.0006333592464216053
6656.0,0.0018093843245878816
7168.0,-0.000987902982160449
7680.0,-0.000688711297698319
8192.0,0.0009465084876865149
9216.0,0.000756245746742934
10240.0,-0.00034639096702449024
11264.0,-0.001847810228355229
12288.0,-0.002269109943881631
13312.0,0.00023425435938406736
14336.0,0.000988896586932242
end
