version,3.0
numOfCh,1
type,point
parent_name,80-cuts
ch_type,1_1
kcount,1
numberNandB,1
brightnessNandB,1
carpet pos,0
pc,0
Time (ms),CH1 Auto-Correlation
1.0,0.06385282427072525
2.0,0.06252045929431915
3.0,0.06122005730867386
4.0,0.05995945259928703
5.0,0.058758996427059174
6.0,0.05761382356286049
7.0,0.05649919435381889
8.0,0.055423736572265625
9.0,0.05439043790102005
10.0,0.05339347571134567
11.0,0.05243653059005737
12.0,0.051521748304367065
13.0,0.05063728243112564
14.0,0.049783855676651
15.0,0.04897664114832878
16.0,0.04813357815146446
18.0,0.046534109860658646
20.0,0.0450560599565506
22.0,0.04361245036125183
24.0,0.042279116809368134
26.0,0.04096473753452301
28.0,0.03966757655143738
30.0,0.03842322900891304
32.0,0.0371609702706337
36.0,0.03487646207213402
40.0,0.03282222896814346
44.0,0.030883822590112686
48.0,0.029035650193691254
52.0,0.027343453839421272
56.0,0.02580678090453148
60.0,0.024209652096033096
64.0,0.022716062143445015
72.0,0.020280195400118828
80.0,0.018053937703371048
88.0,0.016106663271784782
96.0,0.014917833730578423
104.0,0.014021803624927998
112.0,0.012582347728312016
120.0,0.01130407489836216
128.0,0.010096872225403786
144.0,0.007977074943482876
160.0,0.006172528024762869
176.0,0.004221062641590834
192.0,0.0034315427765250206
208.0,0.0021430114284157753
224.0,0.0006601197528652847
240.0,-0.0004363326879683882
256.0,-0.0005009457236155868
288.0,-0.0012297919020056725
320.0,-0.001564800157211721
352.0,-0.0026867962442338467
384.0,-0.002904783468693495
416.0,0.0012981599429622293
448.0,0.003891954431310296
480.0,0.003623040160164237
512.0,0.003162352368235588
576.0,0.004735843278467655
640.0,0.004783116281032562
704.0,0.0026091665495187044
768.0,-0.0023919260129332542
832.0,-0.0037882463075220585
896.0,-0.001746277674101293
960.0,-0.0015534163685515523
1024.0,0.0014248369261622429
1152.0,0.0039588273502886295
1280.0,-0.0010799445444718003
1408.0,-0.004190891515463591
1536.0,-0.0030803182162344456
1664.0,-0.0012932306854054332
1792.0,-0.004129325971007347
1920.0,-0.006512902211397886
2048.0,-0.004503947217017412
2304.0,-0.0011174553073942661
2560.0,0.0014196401461958885
2816.0,-0.0010234819492325187
3072.0,0.00012293210602365434
3328.0,-0.002661972539499402
3584.0,0.0023893453180789948
3840.0,0.001680924091488123
4096.0,-0.005012464243918657
4608.0,-0.0026867161504924297
5120.0,-0.0012611292768269777
5632.0,-0.00022964163508731872
6144.0,0.0016810313099995255
6656.0,0.00533263897523284
7168.0,-0.0030139139853417873
7680.0,0.002384763676673174
8192.0,-0.0027796116191893816
9216.0,-0.00182731740642339
10240.0,0.0019252578495070338
11264.0,-0.0026553925126791
12288.0,0.006383850704878569
13312.0,0.00652098935097456
14336.0,-0.007854229770600796
end
