version,3.0
numOfCh,1
type,point
parent_name,80-cuts
ch_type,1_1
kcount,1
numberNandB,1
brightnessNandB,1
carpet pos,0
pc,0
Time (ms),CH1 Auto-Correlation
1.0,0.06028779596090317
2.0,0.05864662677049637
3.0,0.05705208703875542
4.0,0.05547458678483963
5.0,0.05394607409834862
6.0,0.052479472011327744
7.0,0.051053885370492935
8.0,0.04967069998383522
9.0,0.048308804631233215
10.0,0.046993013471364975
11.0,0.04574451223015785
12.0,0.04446916654706001
13.0,0.04325777292251587
14.0,0.04210186004638672
15.0,0.04098805412650108
16.0,0.03990219905972481
18.0,0.03792393580079079
20.0,0.03607964515686035
22.0,0.03426201269030571
24.0,0.03247480094432831
26.0,0.03074593096971512
28.0,0.02913215570151806
30.0,0.02766980230808258
32.0,0.02632058784365654
36.0,0.023640362545847893
40.0,0.021338028833270073
44.0,0.019332285970449448
48.0,0.01764245517551899
52.0,0.016179656609892845
56.0,0.014817506074905396
60.0,0.013397758826613426
64.0,0.012117015197873116
72.0,0.0104585662484169
80.0,0.009309184737503529
88.0,0.00850049126893282
96.0,0.007659062277525663
104.0,0.006690800189971924
112.0,0.005842905025929213
120.0,0.004715404473245144
128.0,0.0034563869703561068
144.0,0.0014055659994482994
160.0,-0.0002069767942884937
176.0,-0.00022041689953766763
192.0,0.00013384454359766096
208.0,0.000899486243724823
224.0,-0.00011922387056984007
240.0,-0.001363560906611383
256.0,-0.0015379340620711446
288.0,-0.0003907158097717911
320.0,0.0008228913065977395
352.0,-0.00015599631296936423
384.0,-0.0004330853698775172
416.0,0.001139220199547708
448.0,0.0015055687399581075
480.0,0.0024102700408548117
512.0,0.004165626130998135
576.0,0.00436547864228487
640.0,0.0016794177936390042
704.0,-0.00043414923129603267
768.0,-0.0005576052935793996
832.0,-0.001001981901936233
896.0,-0.0014284458011388779
960.0,0.0010402313200756907
1024.0,-0.00011941636330448091
1152.0,-0.0030259592458605766
1280.0,-0.0010444311192259192
1408.0,0.002174137160181999
1536.0,0.0023976999800652266
1664.0,-0.0015539680607616901
1792.0,-0.0015635925810784101
1920.0,0.00035338723682798445
2048.0,0.0010008362587541342
2304.0,0.001264061313122511
2560.0,-0.004300705622881651
2816.0,0.0009190530981868505
3072.0,-0.001945815165527165
3328.0,0.0003499868616927415
3584.0,0.0026047800201922655
3840.0,-0.0022911662235856056
4096.0,-0.0020002552773803473
4608.0,0.0015230468707159162
5120.0,-0.0012344266287982464
5632.0,0.0014838437782600522
6144.0,-0.003025301266461611
6656.0,0.002458097878843546
7168.0,-0.0022408112417906523
7680.0,-0.002809619065374136
8192.0,0.00022349435312207788
9216.0,-0.00012275837070774287
10240.0,-0.002801240189000964
11264.0,-0.003174652112647891
12288.0,6.834638043073937e-05
13312.0,0.004127887077629566
14336.0,0.003907323814928532
end
