version,3.0
numOfCh,1
type,point
parent_name,80-cuts
ch_type,1_1
kcount,1
numberNandB,1
brightnessNandB,1
carpet pos,0
pc,0
Time (ms),CH1 Auto-Correlation
1.0,0.026277706027030945
2.0,0.02571827545762062
3.0,0.025164451450109482
4.0,0.02463681437075138
5.0,0.0241305660456419
6.0,0.023636620491743088
7.0,0.023150667548179626
8.0,0.02266528643667698
9.0,0.022188158705830574
10.0,0.021735846996307373
11.0,0.0213033314794302
12.0,0.020882906392216682
13.0,0.020457739010453224
14.0,0.020043643191456795
15.0,0.019645696505904198
16.0,0.01925458014011383
18.0,0.018515905365347862
20.0,0.017783688381314278
22.0,0.017071807757019997
24.0,0.016380619257688522
26.0,0.015713723376393318
28.0,0.015070614404976368
30.0,0.014461609534919262
32.0,0.013877024874091148
36.0,0.01282565388828516
40.0,0.011870225891470909
44.0,0.011032335460186005
48.0,0.010329516604542732
52.0,0.00972724799066782
56.0,0.00923073198646307
60.0,0.008755716495215893
64.0,0.008347200229763985
72.0,0.007800896652042866
80.0,0.00723358104005456
88.0,0.0066557154059410095
96.0,0.005979106295853853
104.0,0.00533751305192709
112.0,0.004838460125029087
120.0,0.00442130072042346
128.0,0.004073742311447859
144.0,0.0037674573250114918
160.0,0.0035961803514510393
176.0,0.0037148697301745415
192.0,0.003955863881856203
208.0,0.004160901065915823
224.0,0.003830122761428356
240.0,0.0034989716950803995
256.0,0.0035065696574747562
288.0,0.0029734699055552483
320.0,0.0019400374731048942
352.0,0.0018565343925729394
384.0,0.001557077281177044
416.0,0.0010414922144263983
448.0,0.00015189095574896783
480.0,0.0005829790025018156
512.0,0.0007971622399054468
576.0,-0.0009810006013140082
640.0,-0.0020547222811728716
704.0,-0.002755754394456744
768.0,-0.001453084871172905
832.0,-0.0006490490632131696
896.0,-0.0005285795195959508
960.0,-0.0021669305860996246
1024.0,-0.002081305021420121
1152.0,-0.0002928711473941803
1280.0,-0.0019719640258699656
1408.0,-0.00020618656708393246
1536.0,-0.0011997711844742298
1664.0,0.00019377174612600356
1792.0,-0.0013903919607400894
1920.0,-0.00042819228838197887
2048.0,-0.00017369836859870702
2304.0,2.5470799300819635e-05
2560.0,0.0013382540782913566
2816.0,-0.00012367244926281273
3072.0,-5.588863859884441e-05
3328.0,0.0005208328948356211
3584.0,-9.253067401004955e-05
3840.0,-0.0015299397055059671
4096.0,-0.0031082206405699253
4608.0,0.0031771757639944553
5120.0,0.00041045137913897634
5632.0,-0.00026118135428987443
6144.0,0.0003052913525607437
6656.0,-0.002872309647500515
7168.0,-0.0016882248455658555
7680.0,-0.002339721890166402
8192.0,-0.0008555296226404607
9216.0,0.002937514800578356
10240.0,-0.0032374272122979164
11264.0,0.001605380093678832
12288.0,-0.00048117281403392553
13312.0,-0.003331870073452592
14336.0,0.00988751370459795
end
