version,3.0
numOfCh,1
type,point
parent_name,80-cuts
ch_type,1_1
kcount,1
numberNandB,1
brightnessNandB,1
carpet pos,0
pc,0
Time (ms),CH1 Auto-Correlation
1.0,0.03815718740224838
2.0,0.03737583011388779
3.0,0.036630988121032715
4.0,0.03590675815939903
5.0,0.0351816825568676
6.0,0.034456949681043625
7.0,0.03373982012271881
8.0,0.033059101551771164
9.0,0.03239402547478676
10.0,0.03173837810754776
11.0,0.031102430075407028
12.0,0.03050137311220169
13.0,0.029923271387815475
14.0,0.02937270700931549
15.0,0.02882254868745804
16.0,0.02829253301024437
18.0,0.02728010155260563
20.0,0.0263401810079813
22.0,0.02547169104218483
24.0,0.024634359404444695
26.0,0.023842383176088333
28.0,0.02308807522058487
30.0,0.022383913397789
32.0,0.021680176258087158
36.0,0.02033405564725399
40.0,0.019117005169391632
44.0,0.017977263778448105
48.0,0.01694576069712639
52.0,0.016047051176428795
56.0,0.015263112261891365
60.0,0.014606554992496967
64.0,0.01406368613243103
72.0,0.013174088671803474
80.0,0.012166417203843594
88.0,0.011013196781277657
96.0,0.01002329308539629
104.0,0.009371768683195114
112.0,0.008717036806046963
120.0,0.008003088645637035
128.0,0.007408846635371447
144.0,0.00655011273920536
160.0,0.0055395616218447685
176.0,0.0050480179488658905
192.0,0.005114084109663963
208.0,0.005097905173897743
224.0,0.00524866534397006
240.0,0.005653830245137215
256.0,0.00605709059163928
288.0,0.0058187637478113174
320.0,0.004993794485926628
352.0,0.005028866697102785
384.0,0.002969499910250306
416.0,0.0015481197042390704
448.0,-3.3368908702868794e-07
480.0,-0.0005476712249219418
512.0,-0.0002623251639306545
576.0,0.0008987438050098717
640.0,0.0012843090808019042
704.0,-0.0007499249768443406
768.0,-0.0015705672558397055
832.0,-0.0014814832247793674
896.0,-0.00018469037604518235
960.0,0.0003337254747748375
1024.0,-0.0018380124820396304
1152.0,0.0006220577051863074
1280.0,-6.984559877309948e-05
1408.0,0.0031008203513920307
1536.0,0.002563959453254938
1664.0,0.0037159135099500418
1792.0,0.0023437095806002617
1920.0,0.0003949555102735758
2048.0,0.0039216261357069016
2304.0,0.0018250687280669808
2560.0,-0.00016474117001052946
2816.0,0.00040715941577218473
3072.0,0.0010875989682972431
3328.0,0.0014164679450914264
3584.0,0.0006681265658698976
3840.0,-0.0004745876358356327
4096.0,0.00039773061871528625
4608.0,-0.0012747162254527211
5120.0,-0.00024077793932519853
5632.0,-0.0032601591665297747
6144.0,-0.0051188538782298565
6656.0,-0.002338091842830181
7168.0,2.997942647198215e-05
7680.0,-0.0018446686444804072
8192.0,-0.001401514862664044
9216.0,-0.004181363619863987
10240.0,-0.0002773652086034417
11264.0,0.0010049901902675629
12288.0,0.00027666392270475626
13312.0,-0.0007367343059740961
14336.0,-0.0007769530056975782
end
