version,3.0
numOfCh,1
type,point
parent_name,80-cuts
ch_type,1_1
kcount,1
numberNandB,1
brightnessNandB,1
carpet pos,0
pc,0
Time (ms),CH1 Auto-Correlation
1.0,0.042374465614557266
2.0,0.04162624105811119
3.0,0.040898166596889496
4.0,0.04019809514284134
5.0,0.039525505155324936
6.0,0.03886966034770012
7.0,0.038224488496780396
8.0,0.03758133202791214
9.0,0.03696388378739357
10.0,0.036356206983327866
11.0,0.03578242287039757
12.0,0.0352243147790432
13.0,0.034674279391765594
14.0,0.03414583578705788
15.0,0.03362629562616348
16.0,0.0331118069589138
18.0,0.03211097791790962
20.0,0.03118129074573517
22.0,0.030286746099591255
24.0,0.029376927763223648
26.0,0.028491923585534096
28.0,0.027645375579595566
30.0,0.02686089277267456
32.0,0.026107775047421455
36.0,0.024701450020074844
40.0,0.023425616323947906
44.0,0.02225268818438053
48.0,0.02112046629190445
52.0,0.020095370709896088
56.0,0.019154824316501617
60.0,0.018195360898971558
64.0,0.01727314665913582
72.0,0.01546520832926035
80.0,0.014031159691512585
88.0,0.012968971394002438
96.0,0.01230926625430584
104.0,0.01194706093519926
112.0,0.011519921943545341
120.0,0.01105264201760292
128.0,0.010510536842048168
144.0,0.009219367988407612
160.0,0.007858125492930412
176.0,0.006772432941943407
192.0,0.006413130555301905
208.0,0.006274302490055561
224.0,0.005923612974584103
240.0,0.005121696274727583
256.0,0.0038679754361510277
288.0,0.0024250526912510395
320.0,0.0028869197703897953
352.0,0.0030552647076547146
384.0,0.0021643764339387417
416.0,0.001117110950872302
448.0,0.0008820135844871402
480.0,0.00019738772243726999
512.0,-0.00046231408487074077
576.0,-0.0012422193540260196
640.0,-0.0038804730866104364
704.0,-0.0036291831638664007
768.0,-0.002763335360214114
832.0,-0.004238693974912167
896.0,-0.006724017206579447
960.0,-0.007824241183698177
1024.0,-0.003937962464988232
1152.0,-0.002313987584784627
1280.0,-0.003029695712029934
1408.0,-0.002777785761281848
1536.0,-0.0004051247669849545
1664.0,0.00030912368674762547
1792.0,0.001208192203193903
1920.0,0.0025938942562788725
2048.0,-0.0013636015355587006
2304.0,-0.0014589185593649745
2560.0,-0.0011442871764302254
2816.0,-0.002169891493394971
3072.0,0.001562521792948246
3328.0,0.0006827565957792103
3584.0,0.0018667076947167516
3840.0,0.0033947881311178207
4096.0,-0.0011053336784243584
4608.0,-0.0028352963272482157
5120.0,0.0004892447614111006
5632.0,0.005063761956989765
6144.0,-0.0005983194569125772
6656.0,-0.004884451162070036
7168.0,-0.002097558230161667
7680.0,0.0038765014614909887
8192.0,0.003481245366856456
9216.0,-8.515639638062567e-05
10240.0,-0.004007632844150066
11264.0,0.003030993975698948
12288.0,0.00017881982785183936
13312.0,-0.000285597809124738
14336.0,-0.0031898629385977983
end
