version,3.0
numOfCh,1
type,point
parent_name,80-cuts
ch_type,1_1
kcount,1
numberNandB,1
brightnessNandB,1
carpet pos,0
pc,0
Time (ms),CH1 Auto-Correlation
1.0,0.06451687216758728
2.0,0.0629286989569664
3.0,0.06138639524579048
4.0,0.05993983522057533
5.0,0.0586048923432827
6.0,0.05728381127119064
7.0,0.056007884442806244
8.0,0.05477818474173546
9.0,0.05359436199069023
10.0,0.052403371781110764
11.0,0.05124746263027191
12.0,0.050115831196308136
13.0,0.04898830130696297
14.0,0.04787834361195564
15.0,0.04680361971259117
16.0,0.045794062316417694
18.0,0.0438445545732975
20.0,0.042047400027513504
22.0,0.04033811762928963
24.0,0.03863057121634483
26.0,0.03694385290145874
28.0,0.03528628125786781
30.0,0.03365020826458931
32.0,0.03208407387137413
36.0,0.029196450486779213
40.0,0.026575149968266487
44.0,0.024316344410181046
48.0,0.022577719762921333
52.0,0.021063830703496933
56.0,0.0193156860768795
60.0,0.017526714131236076
64.0,0.01581156812608242
72.0,0.013084828853607178
80.0,0.010542166419327259
88.0,0.008544763550162315
96.0,0.00723693985491991
104.0,0.006322345230728388
112.0,0.00580441253259778
120.0,0.005221410188823938
128.0,0.00420379126444459
144.0,0.003702096873894334
160.0,0.004199513699859381
176.0,0.004289912525564432
192.0,0.0034680417738854885
208.0,0.002634963486343622
224.0,0.0013124874094501138
240.0,0.0007460645865648985
256.0,-6.794110959162936e-06
288.0,9.8534939752426e-05
320.0,0.00042283692164346576
352.0,0.0019480763003230095
384.0,0.0019703737925738096
416.0,0.0021186289377510548
448.0,0.0033298281487077475
480.0,0.0012137498706579208
512.0,-0.0009112731786444783
576.0,-0.00431103864684701
640.0,-0.003945282194763422
704.0,-0.002344198524951935
768.0,0.002294732490554452
832.0,-0.001774511532858014
896.0,-0.005107513163238764
960.0,-0.006879881955683231
1024.0,-0.003006739541888237
1152.0,0.0009881503647193313
1280.0,0.003492001909762621
1408.0,-0.001235906151123345
1536.0,-0.0015810475451871753
1664.0,-0.00023765106743667275
1792.0,0.0006114201387390494
1920.0,-0.005160381086170673
2048.0,-0.006532113533467054
2304.0,-0.0008277191664092243
2560.0,0.0025729264598339796
2816.0,0.001708935247734189
3072.0,0.0017202390590682626
3328.0,0.0006250618025660515
3584.0,0.0028830065857619047
3840.0,-0.0015024992171674967
4096.0,-0.0010337716666981578
4608.0,0.0023293709382414818
5120.0,-0.002015769714489579
5632.0,-0.004636615514755249
6144.0,0.0008334458689205348
6656.0,-0.00034617865458130836
7168.0,-0.0015992845874279737
7680.0,0.005314365960657597
8192.0,-0.0003007064515259117
9216.0,-0.0016386901261284947
10240.0,0.0010933460434898734
11264.0,-0.00010201890108874068
12288.0,-0.00016400047752540559
13312.0,0.0015747047727927566
14336.0,-0.0043129222467541695
end
