version,3.0
numOfCh,1
type,point
parent_name,80-cuts
ch_type,1_1
kcount,1
numberNandB,1
brightnessNandB,1
carpet pos,0
pc,0
Time (ms),CH1 Auto-Correlation
1.0,0.06564809381961823
2.0,0.06412432342767715
3.0,0.06267394125461578
4.0,0.06122332066297531
5.0,0.05985102429986
6.0,0.05851326882839203
7.0,0.057231154292821884
8.0,0.05600624531507492
9.0,0.054824817925691605
10.0,0.05367159843444824
11.0,0.05254463478922844
12.0,0.05149707943201065
13.0,0.05048377066850662
14.0,0.04948185011744499
15.0,0.048476796597242355
16.0,0.04753199592232704
18.0,0.04573278874158859
20.0,0.04408998042345047
22.0,0.042585328221321106
24.0,0.0411212295293808
26.0,0.039696503430604935
28.0,0.038343384861946106
30.0,0.037062861025333405
32.0,0.035837382078170776
36.0,0.033556144684553146
40.0,0.03158523887395859
44.0,0.029745668172836304
48.0,0.028141161426901817
52.0,0.02674131840467453
56.0,0.025573233142495155
60.0,0.024397579953074455
64.0,0.023099703714251518
72.0,0.020301692187786102
80.0,0.01781490631401539
88.0,0.015329421497881413
96.0,0.012974275276064873
104.0,0.011053052730858326
112.0,0.009999465197324753
120.0,0.009827973321080208
128.0,0.009655389003455639
144.0,0.009221524931490421
160.0,0.00832952931523323
176.0,0.007371549494564533
192.0,0.007017470896244049
208.0,0.006325763184577227
224.0,0.004833301994949579
240.0,0.0030907406471669674
256.0,0.0029276125133037567
288.0,0.0026745276991277933
320.0,0.004447350278496742
352.0,0.005917560309171677
384.0,0.00630246801301837
416.0,0.007518002297729254
448.0,0.005028496962040663
480.0,0.0039874957874417305
512.0,0.0034894475247710943
576.0,0.004707712214440107
640.0,0.005489487666636705
704.0,0.0023680066224187613
768.0,0.0008722328930161893
832.0,0.0027679798658937216
896.0,-0.001069932710379362
960.0,-0.004354042932391167
1024.0,-0.0032105129212141037
1152.0,0.0005983301089145243
1280.0,0.0005810173461213708
1408.0,-0.0014748148387297988
1536.0,-0.003206871682778001
1664.0,-0.007639112416654825
1792.0,-0.006899608299136162
1920.0,-0.0023461945820599794
2048.0,-0.003843052312731743
2304.0,-0.005013200920075178
2560.0,-0.0020849204156547785
2816.0,-0.007683635223656893
3072.0,-0.002648057648912072
3328.0,0.0020099894609302282
3584.0,0.0041893781162798405
3840.0,0.008724902756512165
4096.0,0.0005957286921329796
4608.0,0.003388927085325122
5120.0,-0.0014682032633572817
5632.0,-0.003100220812484622
6144.0,-0.00450933026149869
6656.0,-0.0033154478296637535
7168.0,0.0040648328140378
7680.0,0.0015177343739196658
8192.0,0.0018588956445455551
9216.0,0.0034306051675230265
10240.0,-0.0019360415171831846
11264.0,-0.001353790401481092
12288.0,-0.008466609753668308
13312.0,0.0032114279456436634
14336.0,0.0021780277602374554
end
