version,3.0
numOfCh,1
type,point
parent_name,80-cuts
ch_type,1_1
kcount,1
numberNandB,1
brightnessNandB,1
carpet pos,0
pc,0
Time (ms),CH1 Auto-Correlation
1.0,0.02089161053299904
2.0,0.020399807021021843
3.0,0.01992395892739296
4.0,0.01946907863020897
5.0,0.019037891179323196
6.0,0.01862143725156784
7.0,0.01821747235953808
8.0,0.017832066863775253
9.0,0.017453322187066078
10.0,0.017098069190979004
11.0,0.016744287684559822
12.0,0.01640503481030464
13.0,0.016073284670710564
14.0,0.01574748568236828
15.0,0.015423182398080826
16.0,0.01510970015078783
18.0,0.014509353786706924
20.0,0.013960796408355236
22.0,0.013475276529788971
24.0,0.012995319440960884
26.0,0.012508407235145569
28.0,0.012048818171024323
30.0,0.011620128527283669
32.0,0.011223937384784222
36.0,0.010462963953614235
40.0,0.00975601002573967
44.0,0.009080439805984497
48.0,0.00844339095056057
52.0,0.007802335079759359
56.0,0.0072512635961174965
60.0,0.006776528898626566
64.0,0.0062939380295574665
72.0,0.005499675869941711
80.0,0.0048849210143089294
88.0,0.004307774361222982
96.0,0.0038462516386061907
104.0,0.0033411283511668444
112.0,0.002896171063184738
120.0,0.002620956627652049
128.0,0.002291332930326462
144.0,0.0015672767767682672
160.0,0.0007124738767743111
176.0,0.00029715002165175974
192.0,0.00018831624765880406
208.0,-0.00017013942124322057
224.0,-0.00042004717397503555
240.0,-0.0006164063233882189
256.0,-0.0004658100660890341
288.0,-5.45086913916748e-05
320.0,0.0005629872903227806
352.0,0.0009646611870266497
384.0,0.0012120347237214446
416.0,0.00126905448269099
448.0,0.000945257255807519
480.0,0.0008756005554459989
512.0,0.0011190054938197136
576.0,0.0007664670702069998
640.0,-0.0003522215993143618
704.0,-0.0007264805026352406
768.0,-0.0004897768958471715
832.0,-0.0008397400379180908
896.0,-0.0009572006529197097
960.0,-0.0009978397283703089
1024.0,-0.001601502881385386
1152.0,-0.001212876639328897
1280.0,-0.00046570965787395835
1408.0,-0.0008059035753831267
1536.0,-0.0005233566625975072
1664.0,-0.001046623568981886
1792.0,5.3599833336193115e-06
1920.0,-0.0002387319691479206
2048.0,0.0005701772752217948
2304.0,0.00053832505363971
2560.0,0.00029247262864373624
2816.0,0.0008364252280443907
3072.0,0.0002750151907093823
3328.0,-0.0005969625199213624
3584.0,0.0005516439559869468
3840.0,0.0015996121801435947
4096.0,0.00018126089707948267
4608.0,-0.0024313400499522686
5120.0,-0.0016435428988188505
5632.0,0.0004656581731978804
6144.0,0.0012514326954260468
6656.0,0.000959468656219542
7168.0,-0.0014644062612205744
7680.0,-0.0005770347197540104
8192.0,-0.00027138477889820933
9216.0,0.0004802450421266258
10240.0,-8.599805732956156e-05
11264.0,-0.0005475161015056074
12288.0,0.000615849974565208
13312.0,6.990490510361269e-05
14336.0,-0.00012261091615073383
end
