version,3.0
numOfCh,1
type,point
parent_name,80-cuts
ch_type,1_1
kcount,1
numberNandB,1
brightnessNandB,1
carpet pos,0
pc,0
Time (ms),CH1 Auto-Correlation
1.0,0.02052702009677887
2.0,0.020029908046126366
3.0,0.01954137347638607
4.0,0.0190644059330225
5.0,0.018621325492858887
6.0,0.01818614825606346
7.0,0.017763324081897736
8.0,0.017365196719765663
9.0,0.016973398625850677
10.0,0.016594024375081062
11.0,0.016232823953032494
12.0,0.015876729041337967
13.0,0.0155292097479105
14.0,0.015198346227407455
15.0,0.014872007071971893
16.0,0.014560324139893055
18.0,0.014000292867422104
20.0,0.013504322618246078
22.0,0.013024186715483665
24.0,0.012554527260363102
26.0,0.01211541797965765
28.0,0.011691797524690628
30.0,0.011288825422525406
32.0,0.010912906378507614
36.0,0.010170473717153072
40.0,0.009455373510718346
44.0,0.008830557577311993
48.0,0.008265013806521893
52.0,0.007696548942476511
56.0,0.00706246355548501
60.0,0.006507840007543564
64.0,0.006052418611943722
72.0,0.005250872112810612
80.0,0.004626660607755184
88.0,0.004147061612457037
96.0,0.00384562648832798
104.0,0.003475604113191366
112.0,0.003106470685452223
120.0,0.002778407419100404
128.0,0.0024451965000480413
144.0,0.0017736827721819282
160.0,0.0015617164317518473
176.0,0.00127922382671386
192.0,0.001054750639013946
208.0,0.0008368503767997026
224.0,0.0006849360070191324
240.0,0.0007898164913058281
256.0,0.0009652263252064586
288.0,0.0009438503184355795
320.0,0.00037399528082460165
352.0,-0.00032193612423725426
384.0,-0.0004079402715433389
416.0,-0.0003550396068021655
448.0,-0.00024355739878956228
480.0,-0.00015822623390704393
512.0,-0.0004748956416733563
576.0,-0.0015164726646617055
640.0,-0.0017132569337263703
704.0,-0.0009655599715188146
768.0,0.0002804150863084942
832.0,0.0018326418939977884
896.0,0.0013756593689322472
960.0,0.00022742840519640595
1024.0,0.0003084696363657713
1152.0,0.000339034158969298
1280.0,0.00029832503059878945
1408.0,0.00012812858039978892
1536.0,-0.00010851951083168387
1664.0,0.0003120677138213068
1792.0,-0.0007283992017619312
1920.0,0.0002018536615651101
2048.0,-0.0011259237071499228
2304.0,0.0011581673752516508
2560.0,0.00034278081147931516
2816.0,-0.0006383236031979322
3072.0,-0.0007971349405124784
3328.0,0.00028133660089224577
3584.0,0.0007709884666837752
3840.0,-0.0001754866389092058
4096.0,-0.00011923215060960501
4608.0,0.00012190635607112199
5120.0,0.00047199183609336615
5632.0,-0.0010751599911600351
6144.0,-0.0008594448445364833
6656.0,-0.00019789031648542732
7168.0,-0.0028649689629673958
7680.0,9.87480379990302e-05
8192.0,-0.001601343508809805
9216.0,-0.0002990741340909153
10240.0,-8.375568722840399e-05
11264.0,-0.0006094850250519812
12288.0,0.001078830799087882
13312.0,0.0017953359056264162
14336.0,0.0005511076305992901
end
