version,3.0
numOfCh,1
type,point
parent_name,80-cuts
ch_type,1_1
kcount,1
numberNandB,1
brightnessNandB,1
carpet pos,0
pc,0
Time (ms),CH1 Auto-Correlation
1.0,0.05855966731905937
2.0,0.05710460618138313
3.0,0.05566757172346115
4.0,0.054291047155857086
5.0,0.052948400378227234
6.0,0.051650628447532654
7.0,0.050386540591716766
8.0,0.04917646944522858
9.0,0.04799963906407356
10.0,0.046871285885572433
11.0,0.0458163358271122
12.0,0.04480546712875366
13.0,0.04380963742733002
14.0,0.042865902185440063
15.0,0.04196640104055405
16.0,0.041089072823524475
18.0,0.03932323679327965
20.0,0.0375560037791729
22.0,0.03590007871389389
24.0,0.03440331667661667
26.0,0.03299194946885109
28.0,0.03166447952389717
30.0,0.030455579981207848
32.0,0.029369333758950233
36.0,0.02751874551177025
40.0,0.025955185294151306
44.0,0.024440765380859375
48.0,0.02290252596139908
52.0,0.02157270535826683
56.0,0.02041010931134224
60.0,0.01925186812877655
64.0,0.01819419488310814
72.0,0.016532763838768005
80.0,0.014957098290324211
88.0,0.013510278426110744
96.0,0.012681704945862293
104.0,0.011545167304575443
112.0,0.010442269034683704
120.0,0.00950190145522356
128.0,0.008877000771462917
144.0,0.00827357079833746
160.0,0.007499285042285919
176.0,0.006804090458899736
192.0,0.007144405040889978
208.0,0.007693481165915728
224.0,0.008327499032020569
240.0,0.008235831744968891
256.0,0.008117416873574257
288.0,0.006561277434229851
320.0,0.006256744731217623
352.0,0.0033307436387985945
384.0,-0.001725209760479629
416.0,-0.004037133418023586
448.0,-0.0064319041557610035
480.0,-0.0071854135021567345
512.0,-0.0060277944430708885
576.0,-0.0037014917470514774
640.0,-0.0006930863601155579
704.0,-0.0026359769981354475
768.0,-0.0053837839514017105
832.0,-0.005146866198629141
896.0,-0.0026626121252775192
960.0,0.0021198480390012264
1024.0,0.001637238310649991
1152.0,-0.00032791358535178006
1280.0,0.00014595080574508756
1408.0,-0.0033610020764172077
1536.0,0.0005271053523756564
1664.0,0.0008742472273297608
1792.0,0.002769679995253682
1920.0,0.0038948545698076487
2048.0,0.00027643804787658155
2304.0,-0.0006959820166230202
2560.0,1.0344657312089112e-05
2816.0,0.0011389690916985273
3072.0,-0.00013875099830329418
3328.0,-0.0036368316505104303
3584.0,-0.003752870485186577
3840.0,-0.0075364443473517895
4096.0,-0.006651921197772026
4608.0,0.002361979801207781
5120.0,-0.004075844306498766
5632.0,0.002235041931271553
6144.0,-0.001434698817320168
6656.0,-0.0006245274562388659
7168.0,-0.004102860111743212
7680.0,0.009270541369915009
8192.0,0.0012206262908875942
9216.0,0.0005503228749148548
10240.0,0.002769408281892538
11264.0,-0.0030970878433436155
12288.0,0.002310969866812229
13312.0,-0.004238638561218977
14336.0,0.0023321062326431274
end
