version,3.0
numOfCh,1
type,point
parent_name,80-cuts
ch_type,1_1
kcount,1
numberNandB,1
brightnessNandB,1
carpet pos,0
pc,0
Time (ms),CH1 Auto-Correlation
1.0,0.030311953276395798
2.0,0.02960568107664585
3.0,0.028927290812134743
4.0,0.02829277142882347
5.0,0.027670297771692276
6.0,0.027046529576182365
7.0,0.02642330899834633
8.0,0.02580961212515831
9.0,0.025216592475771904
10.0,0.02466258965432644
11.0,0.02412308007478714
12.0,0.02361835353076458
13.0,0.023138731718063354
14.0,0.02267446741461754
15.0,0.022206630557775497
16.0,0.02173885516822338
18.0,0.0208735391497612
20.0,0.02006286196410656
22.0,0.019294843077659607
24.0,0.01855415105819702
26.0,0.017868947237730026
28.0,0.017230233177542686
30.0,0.016629204154014587
32.0,0.01605275087058544
36.0,0.014935794286429882
40.0,0.013776850886642933
44.0,0.012706254608929157
48.0,0.011762812733650208
52.0,0.010844619013369083
56.0,0.009958268143236637
60.0,0.009151074104011059
64.0,0.008393297903239727
72.0,0.006990058347582817
80.0,0.005881858989596367
88.0,0.005139731336385012
96.0,0.0046185036189854145
104.0,0.004223100375384092
112.0,0.0038427230902016163
120.0,0.003450946882367134
128.0,0.0029745763167738914
144.0,0.0021748514845967293
160.0,0.0018074598629027605
176.0,0.0014754149597138166
192.0,0.0013089242856949568
208.0,0.0015438406262546778
224.0,0.0012425018940120935
240.0,0.0012400405248627067
256.0,0.0014178447891026735
288.0,0.000990631990134716
320.0,0.00016250558837782592
352.0,-0.0013636966468766332
384.0,-0.0018717992352321744
416.0,-0.0013990785228088498
448.0,-0.0004855756997130811
480.0,-0.0002749430714175105
512.0,0.0005222959443926811
576.0,0.0018106659408658743
640.0,0.0014426338020712137
704.0,0.002355294767767191
768.0,0.003206980414688587
832.0,0.0002530106867197901
896.0,-0.00043566248496063054
960.0,-0.0015318787191063166
1024.0,-0.0017424541292712092
1152.0,-0.0022501819767057896
1280.0,-0.001230489113368094
1408.0,-0.000991804408840835
1536.0,-0.0016077379696071148
1664.0,-0.003602300537750125
1792.0,-0.0047815097495913506
1920.0,-0.002920139115303755
2048.0,-0.0017838127678260207
2304.0,-0.0007277638069353998
2560.0,-7.003846258157864e-05
2816.0,0.0012552153784781694
3072.0,0.0018533142283558846
3328.0,0.000785798009019345
3584.0,0.0007408973760902882
3840.0,0.00054059864487499
4096.0,-0.0005287158419378102
4608.0,-0.0007309056236408651
5120.0,0.00021605819347314537
5632.0,0.00030431034974753857
6144.0,0.0003447537019383162
6656.0,-0.0013887612149119377
7168.0,-0.0009551959810778499
7680.0,-0.001321260817348957
8192.0,0.002578525338321924
9216.0,0.0011895878706127405
10240.0,-0.0028416591230779886
11264.0,-0.0004958761273883283
12288.0,0.0015336609212681651
13312.0,-0.0002580485597718507
14336.0,-0.00023183319717645645
end
