version,3.0
numOfCh,1
type,point
parent_name,80-cuts
ch_type,1_1
kcount,1
numberNandB,1
brightnessNandB,1
carpet pos,0
pc,0
Time (ms),CH1 Auto-Correlation
1.0,0.030497903004288673
2.0,0.029777534306049347
3.0,0.029074976220726967
4.0,0.028398754075169563
5.0,0.027746420353651047
6.0,0.02711138129234314
7.0,0.026489172130823135
8.0,0.02589789405465126
9.0,0.025324229151010513
10.0,0.024769216775894165
11.0,0.024210944771766663
12.0,0.023679044097661972
13.0,0.02315850555896759
14.0,0.022684454917907715
15.0,0.022233648225665092
16.0,0.021797742694616318
18.0,0.020942358300089836
20.0,0.020076092332601547
22.0,0.019276781007647514
24.0,0.018506739288568497
26.0,0.017781058326363564
28.0,0.017097394913434982
30.0,0.01650543324649334
32.0,0.0159846730530262
36.0,0.015063927508890629
40.0,0.014261618256568909
44.0,0.013593493029475212
48.0,0.01290088426321745
52.0,0.012155755423009396
56.0,0.011451407335698605
60.0,0.010796339251101017
64.0,0.010160517878830433
72.0,0.009065909311175346
80.0,0.00819361861795187
88.0,0.007446939125657082
96.0,0.006830344442278147
104.0,0.00609362730756402
112.0,0.00524842320010066
120.0,0.004660625010728836
128.0,0.004107190296053886
144.0,0.0033742357045412064
160.0,0.002810936886817217
176.0,0.0024329409934580326
192.0,0.0026975292712450027
208.0,0.002645979169756174
224.0,0.002599626313894987
240.0,0.0026411404833197594
256.0,0.0027430744376033545
288.0,0.003040550509467721
320.0,0.002662660786882043
352.0,0.0020561914425343275
384.0,0.0019443841883912683
416.0,0.000304640328977257
448.0,-0.0007698893896304071
480.0,-0.0008550212951377034
512.0,-0.0003728049632627517
576.0,-0.0017066483851522207
640.0,-0.0024239933118224144
704.0,-0.0016441155457869172
768.0,0.002696150681003928
832.0,0.0021144573111087084
896.0,0.001065169693902135
960.0,-0.00019668112508952618
1024.0,-0.001586825936101377
1152.0,-0.0023587241303175688
1280.0,-0.0021211267448961735
1408.0,-0.004979975055903196
1536.0,-0.003622511401772499
1664.0,-0.0013537568738684058
1792.0,-0.0013098163763061166
1920.0,-0.0007585567655041814
2048.0,0.0007827030494809151
2304.0,0.0005242270417511463
2560.0,-0.00021834012295585126
2816.0,0.0011113757500424981
3072.0,0.0016748207854107022
3328.0,-0.0011120830895379186
3584.0,-0.0005548900808207691
3840.0,0.0017014485783874989
4096.0,-0.00029264602926559746
4608.0,4.895616802969016e-05
5120.0,0.0003673363826237619
5632.0,-0.00048052225611172616
6144.0,0.0002577466075308621
6656.0,0.0010377417784184217
7168.0,-0.0008720160112716258
7680.0,-0.0011928931344300508
8192.0,-0.00036667674430646
9216.0,-0.00015146497753448784
10240.0,-0.000791496888268739
11264.0,-0.00031590447179041803
12288.0,-0.000583528948482126
13312.0,-0.00027897057589143515
14336.0,-0.000762319890782237
end
