version,3.0
numOfCh,1
type,point
parent_name,80-cuts
ch_type,1_1
kcount,1
numberNandB,1
brightnessNandB,1
carpet pos,0
pc,0
Time (ms),CH1 Auto-Correlation
1.0,0.02749497815966606
2.0,0.026801669970154762
3.0,0.026145219802856445
4.0,0.025513624772429466
5.0,0.024930104613304138
6.0,0.02436351776123047
7.0,0.023813121020793915
8.0,0.023291712626814842
9.0,0.0227724090218544
10.0,0.022251570597290993
11.0,0.021744972094893456
12.0,0.021244343370199203
13.0,0.020756874233484268
14.0,0.020285576581954956
15.0,0.01981727033853531
16.0,0.019329974427819252
18.0,0.0183585062623024
20.0,0.01745905540883541
22.0,0.016632480546832085
24.0,0.01586056686937809
26.0,0.015154143795371056
28.0,0.014498607255518436
30.0,0.013858570717275143
32.0,0.013241595588624477
36.0,0.012113758362829685
40.0,0.011078983545303345
44.0,0.010193501599133015
48.0,0.009444321505725384
52.0,0.0087911831215024
56.0,0.008222078904509544
60.0,0.007732775527983904
64.0,0.007382356096059084
72.0,0.0067708417773246765
80.0,0.006199438124895096
88.0,0.0056552221067249775
96.0,0.005023716948926449
104.0,0.0042984276078641415
112.0,0.0036264178343117237
120.0,0.0031482453923672438
128.0,0.0027424045838415623
144.0,0.002068624598905444
160.0,0.0014739437028765678
176.0,0.0013376130955293775
192.0,0.002265435177832842
208.0,0.0028412207029759884
224.0,0.0029332616832107306
240.0,0.0029597259126603603
256.0,0.003336878027766943
288.0,0.004027684219181538
320.0,0.00355770462192595
352.0,0.0033550544176250696
384.0,0.002264773938804865
416.0,0.0018900232389569283
448.0,0.0015137180453166366
480.0,0.0008629701333120465
512.0,0.0007840145844966173
576.0,-0.0011152444640174508
640.0,-0.0016825448255985975
704.0,-0.001370709273032844
768.0,-0.00010554086475167423
832.0,-0.0016515650786459446
896.0,-0.0033818590454757214
960.0,-0.003937137313187122
1024.0,-0.00290675344876945
1152.0,-0.0016827047802507877
1280.0,-0.0006936112185940146
1408.0,-0.001843448611907661
1536.0,-0.0007892178255133331
1664.0,-0.0025845190975815058
1792.0,-0.0003264142433181405
1920.0,-6.196824688231573e-05
2048.0,-0.0011736892629414797
2304.0,0.001108836499042809
2560.0,0.0024389184545725584
2816.0,0.0011686861980706453
3072.0,0.0004410729161463678
3328.0,-0.00017448372091166675
3584.0,-0.0015392483910545707
3840.0,0.0002831273013725877
4096.0,-0.0015699116047471762
4608.0,-0.001362358801998198
5120.0,0.0016266802558675408
5632.0,-0.00034724018769338727
6144.0,0.0001725389010971412
6656.0,-9.042945748660713e-06
7168.0,-0.002570393029600382
7680.0,0.0007605107966810465
8192.0,0.0010413664858788252
9216.0,-0.00018116124556399882
10240.0,-0.00026988517493009567
11264.0,0.0013120869407430291
12288.0,-0.0017217674758285284
13312.0,-0.0016140710795298219
14336.0,0.0026894095353782177
end
