version,3.0
numOfCh,1
type,point
parent_name,80-cuts
ch_type,1_1
kcount,1
numberNandB,1
brightnessNandB,1
carpet pos,0
pc,0
Time (ms),CH1 Auto-Correlation
1.0,0.023489633575081825
2.0,0.022992294281721115
3.0,0.022527912631630898
4.0,0.02207966148853302
5.0,0.02163614332675934
6.0,0.021208150312304497
7.0,0.02078753150999546
8.0,0.02038893662393093
9.0,0.020010242238640785
10.0,0.01965143159031868
11.0,0.019300559535622597
12.0,0.01897137425839901
13.0,0.01864694617688656
14.0,0.018327603116631508
15.0,0.01802724041044712
16.0,0.017744481563568115
18.0,0.017227699980139732
20.0,0.016748672351241112
22.0,0.016284819692373276
24.0,0.015853922814130783
26.0,0.015449353493750095
28.0,0.015034922398626804
30.0,0.014642388559877872
32.0,0.014282573014497757
36.0,0.013624419458210468
40.0,0.012957457453012466
44.0,0.01233818382024765
48.0,0.01179057639092207
52.0,0.011299553327262402
56.0,0.010822709649801254
60.0,0.010363073088228703
64.0,0.009965674951672554
72.0,0.009274136275053024
80.0,0.008596436120569706
88.0,0.007920840755105019
96.0,0.0073287212289869785
104.0,0.006762819830328226
112.0,0.006288222968578339
120.0,0.005916247610002756
128.0,0.005675625987350941
144.0,0.0052862269803881645
160.0,0.005046555772423744
176.0,0.005181584041565657
192.0,0.005301678087562323
208.0,0.005192063748836517
224.0,0.00511380797252059
240.0,0.004567580763250589
256.0,0.0038408287800848484
288.0,0.0033374102786183357
320.0,0.003168226918205619
352.0,0.002783906413242221
384.0,0.0024899968411773443
416.0,0.001974018756300211
448.0,0.0009620711207389832
480.0,-0.0002671372494660318
512.0,-0.000899133097846061
576.0,6.340197433019057e-05
640.0,0.0003138351603411138
704.0,-0.0005022878758609295
768.0,-0.0007543886895291507
832.0,-0.0009874363895505667
896.0,-0.0013894055737182498
960.0,-0.0008999868296086788
1024.0,-0.0011937272502109408
1152.0,-0.002463331213220954
1280.0,0.0008716446463949978
1408.0,0.0003853771777357906
1536.0,-7.405728683806956e-05
1664.0,0.0014913997147232294
1792.0,0.00011172301310580224
1920.0,-0.0006326515576802194
2048.0,-0.00030679753399454057
2304.0,-0.0008668404188938439
2560.0,-0.0026099744718521833
2816.0,-0.0035944380797445774
3072.0,-0.002752017229795456
3328.0,-0.00022035771689843386
3584.0,9.397108078701422e-05
3840.0,-0.0015488140052184463
4096.0,-0.0011587119661271572
4608.0,0.00015128502855077386
5120.0,0.002047227695584297
5632.0,0.0011791734723374248
6144.0,-0.00013792210665997118
6656.0,-9.563138155499473e-05
7168.0,0.00240948423743248
7680.0,-0.002018790226429701
8192.0,-0.004077772609889507
9216.0,-0.0019129094434902072
10240.0,0.002269510878250003
11264.0,0.003268814878538251
12288.0,8.543824151274748e-06
13312.0,-0.004321404732763767
14336.0,-0.002625785768032074
end
