version,3.0
numOfCh,1
type,point
parent_name,c1204_0dot069-0dot01
ch_type,1_1
kcount,1
numberNandB,1
brightnessNandB,1
carpet pos,0
pc,0
Time (ms),CH1 Auto-Correlation
1.0,0.030122753232717514
2.0,0.02989576756954193
3.0,0.029669107869267464
4.0,0.029447076842188835
5.0,0.02923651412129402
6.0,0.029028814285993576
7.0,0.028827397152781487
8.0,0.028626710176467896
9.0,0.028430545702576637
10.0,0.028230715543031693
11.0,0.028042063117027283
12.0,0.027856286615133286
13.0,0.0276724211871624
14.0,0.027482179924845695
15.0,0.027294835075736046
16.0,0.027109431102871895
18.0,0.026746297255158424
20.0,0.026386748999357224
22.0,0.02604309841990471
24.0,0.025703221559524536
26.0,0.02536555379629135
28.0,0.025026047602295876
30.0,0.024686403572559357
32.0,0.024358151480555534
36.0,0.023763706907629967
40.0,0.023201046511530876
44.0,0.02264428697526455
48.0,0.022133750841021538
52.0,0.02169218845665455
56.0,0.021287092939019203
60.0,0.0208904929459095
64.0,0.020497145131230354
72.0,0.01986098848283291
80.0,0.019296923652291298
88.0,0.018798595294356346
96.0,0.01835520938038826
104.0,0.017896108329296112
112.0,0.01749884895980358
120.0,0.01711738109588623
128.0,0.016819298267364502
144.0,0.016414986923336983
160.0,0.015988744795322418
176.0,0.01555220689624548
192.0,0.014993390068411827
208.0,0.014389019459486008
224.0,0.013865009881556034
240.0,0.013467102311551571
256.0,0.013183641247451305
288.0,0.012660390697419643
320.0,0.011929914355278015
352.0,0.010660628788173199
384.0,0.009471499361097813
416.0,0.008614657446742058
448.0,0.007956979796290398
480.0,0.0072870878502726555
512.0,0.006473146844655275
576.0,0.005533488932996988
640.0,0.005207541398704052
704.0,0.004415305331349373
768.0,0.003408262273296714
832.0,0.002945044543594122
896.0,0.0029058612417429686
960.0,0.0021303666289895773
1024.0,0.0015791567275300622
1152.0,0.003046647412702441
1280.0,0.004464838188141584
1408.0,0.004365038126707077
1536.0,0.0025040325708687305
1664.0,0.0018975718412548304
1792.0,0.0014869897859171033
1920.0,0.002073743147775531
2048.0,0.002998037962242961
2304.0,0.002594173653051257
2560.0,0.003931024111807346
2816.0,0.003099967259913683
3072.0,0.0004605331923812628
3328.0,0.0009861629223451018
3584.0,-0.0005572244408540428
3840.0,-0.0009063744801096618
4096.0,0.0005316365277394652
4608.0,-0.0032967550214380026
5120.0,-0.006527528166770935
5632.0,-0.007674233987927437
6144.0,-0.002399509074166417
6656.0,-0.002696359995752573
7168.0,-0.008038293570280075
7680.0,-0.011263957247138023
8192.0,-0.0027197995223104954
end
