version,3.0
numOfCh,1
type,point
parent_name,c1204_0dot069-0dot01
ch_type,1_1
kcount,1
numberNandB,1
brightnessNandB,1
carpet pos,0
pc,0
Time (ms),CH1 Auto-Correlation
1.0,0.04170522093772888
2.0,0.04091435670852661
3.0,0.04009893536567688
4.0,0.039285145699977875
5.0,0.03849925473332405
6.0,0.03770516440272331
7.0,0.036847975105047226
8.0,0.03597622364759445
9.0,0.035184238106012344
10.0,0.0343945138156414
11.0,0.03358732536435127
12.0,0.03276534378528595
13.0,0.03197804465889931
14.0,0.031223323196172714
15.0,0.03098537214100361
16.0,0.03074728697538376
18.0,0.030302556231617928
20.0,0.029899243265390396
22.0,0.029548941180109978
24.0,0.02921180985867977
26.0,0.0288554560393095
28.0,0.028495267033576965
30.0,0.028115203604102135
32.0,0.02775777503848076
36.0,0.02711820974946022
40.0,0.026518668979406357
44.0,0.02601458691060543
48.0,0.025433963164687157
52.0,0.02487807348370552
56.0,0.02435702085494995
60.0,0.024029524996876717
64.0,0.023686794564127922
72.0,0.022847434505820274
80.0,0.022167833521962166
88.0,0.021763276308774948
96.0,0.021336017176508904
104.0,0.02063395455479622
112.0,0.019917374476790428
120.0,0.019093407317996025
128.0,0.01818772964179516
144.0,0.016523152589797974
160.0,0.014976771548390388
176.0,0.013560736551880836
192.0,0.012300584465265274
208.0,0.011387978680431843
224.0,0.011429636739194393
240.0,0.0117791211232543
256.0,0.011289496906101704
288.0,0.00849443580955267
320.0,0.008602914400398731
352.0,0.008796858601272106
384.0,0.009253290481865406
416.0,0.009457885287702084
448.0,0.009541455656290054
480.0,0.008854512125253677
512.0,0.0073446729220449924
576.0,0.005578367505222559
640.0,0.004728124942630529
704.0,0.004796519875526428
768.0,0.004825081210583448
832.0,0.004932202398777008
896.0,0.005140471737831831
960.0,0.005637591704726219
1024.0,0.0052837287075817585
1152.0,0.004758091177791357
1280.0,0.004808912985026836
1408.0,0.00438231835141778
1536.0,0.003262138459831476
1664.0,0.003120922716334462
1792.0,0.0033296123147010803
1920.0,0.0025688153691589832
2048.0,0.0017811970319598913
2304.0,0.0025510818231850863
2560.0,0.0023660496808588505
2816.0,-0.0008694258867762983
3072.0,-0.0005329808918759227
3328.0,0.0008300540503114462
3584.0,0.00020460925588849932
3840.0,-0.001769171329215169
4096.0,-0.006428263615816832
4608.0,-0.007038572337478399
5120.0,-0.005311937537044287
5632.0,-0.005399525165557861
6144.0,-0.006850142031908035
6656.0,-0.004905263893306255
7168.0,-0.002293362282216549
7680.0,-0.000835477258078754
8192.0,-0.002067162888124585
end
