version,3.0
numOfCh,1
type,point
parent_name,c1204_0dot069-0dot01
ch_type,1_1
kcount,1
numberNandB,1
brightnessNandB,1
carpet pos,0
pc,0
Time (ms),CH1 Auto-Correlation
1.0,0.04121631756424904
2.0,0.04068133234977722
3.0,0.040190741419792175
4.0,0.03970881178975105
5.0,0.03921995311975479
6.0,0.03873031586408615
7.0,0.0382770299911499
8.0,0.03784569725394249
9.0,0.03744625672698021
10.0,0.03707096353173256
11.0,0.03674497455358505
12.0,0.03640713170170784
13.0,0.03609268367290497
14.0,0.03578603267669678
15.0,0.03546851873397827
16.0,0.03515284135937691
18.0,0.0345282107591629
20.0,0.03392291069030762
22.0,0.03335977718234062
24.0,0.03286879137158394
26.0,0.0323481410741806
28.0,0.0318833589553833
30.0,0.03146299347281456
32.0,0.03096967563033104
36.0,0.030041620135307312
40.0,0.029339851811528206
44.0,0.028809277340769768
48.0,0.02841406688094139
52.0,0.028128216043114662
56.0,0.02776418812572956
60.0,0.027268046513199806
64.0,0.02679213136434555
72.0,0.02598542533814907
80.0,0.025294288992881775
88.0,0.024712221696972847
96.0,0.024240601807832718
104.0,0.02383555844426155
112.0,0.023610161617398262
120.0,0.023350564762949944
128.0,0.022897524759173393
144.0,0.02229655161499977
160.0,0.021675778552889824
176.0,0.021177144721150398
192.0,0.020627707242965698
208.0,0.020197704434394836
224.0,0.02018311433494091
240.0,0.02028934471309185
256.0,0.0198699738830328
288.0,0.018222572281956673
320.0,0.015724264085292816
352.0,0.014019734226167202
384.0,0.012661975808441639
416.0,0.01122681051492691
448.0,0.009588107466697693
480.0,0.008888514712452888
512.0,0.008086968213319778
576.0,0.007491597440093756
640.0,0.00683762039989233
704.0,0.004908859264105558
768.0,0.005324690602719784
832.0,0.004750361200422049
896.0,0.003872799454256892
960.0,0.0005263312486931682
1024.0,-0.00016882955969776958
1152.0,-0.0002233916602563113
1280.0,0.0010130751179531217
1408.0,0.0006012787343934178
1536.0,-0.001553972135297954
1664.0,-0.0016838237643241882
1792.0,-0.006562142167240381
1920.0,-0.0050333645194768906
2048.0,-0.003953323233872652
2304.0,-0.0009961657924577594
2560.0,-0.0013209542958065867
2816.0,-0.00013327210035640746
3072.0,0.0004707635089289397
3328.0,-0.0006340783438645303
3584.0,-0.0035261674784123898
3840.0,-0.00977630540728569
4096.0,-0.01210824865847826
4608.0,-0.011690263636410236
5120.0,-0.009010899811983109
5632.0,0.0006189253181219101
6144.0,0.0013390122912824154
6656.0,-0.006375802680850029
7168.0,-0.0042333705350756645
7680.0,0.011967414058744907
8192.0,0.006601517554372549
end
