version,3.0
numOfCh,1
type,point
parent_name,c1204_0dot069-0dot01
ch_type,1_1
kcount,1
numberNandB,1
brightnessNandB,1
carpet pos,0
pc,0
Time (ms),CH1 Auto-Correlation
1.0,0.029206817969679832
2.0,0.029005657881498337
3.0,0.028806105256080627
4.0,0.028609847649931908
5.0,0.028413372114300728
6.0,0.028219474479556084
7.0,0.02803080342710018
8.0,0.027846021577715874
9.0,0.02766692265868187
10.0,0.027491524815559387
11.0,0.027318919077515602
12.0,0.027144083753228188
13.0,0.026970285922288895
14.0,0.02680807188153267
15.0,0.02665192261338234
16.0,0.026497317478060722
18.0,0.026182735338807106
20.0,0.02588251419365406
22.0,0.025577526539564133
24.0,0.025268863886594772
26.0,0.024963611736893654
28.0,0.024660564959049225
30.0,0.0243633221834898
32.0,0.02406059019267559
36.0,0.02349257655441761
40.0,0.022968489676713943
44.0,0.02248108573257923
48.0,0.022017523646354675
52.0,0.02155952714383602
56.0,0.02112443558871746
60.0,0.020719587802886963
64.0,0.020338792353868484
72.0,0.019594769924879074
80.0,0.01886533945798874
88.0,0.01817997545003891
96.0,0.01743420399725437
104.0,0.016698412597179413
112.0,0.016020648181438446
120.0,0.015430615283548832
128.0,0.014832479879260063
144.0,0.013663535937666893
160.0,0.012657547369599342
176.0,0.01170538179576397
192.0,0.010908589698374271
208.0,0.010299107059836388
224.0,0.009879409335553646
240.0,0.009550068527460098
256.0,0.009137329645454884
288.0,0.0078204907476902
320.0,0.006659799255430698
352.0,0.005949235986918211
384.0,0.005698897410184145
416.0,0.005518822930753231
448.0,0.005459795705974102
480.0,0.005164031870663166
512.0,0.004310736898332834
576.0,0.0024689086712896824
640.0,0.0008241210016421974
704.0,1.8042890587821603e-05
768.0,-0.0002893811324611306
832.0,-0.0009261376108042896
896.0,-0.0019230765756219625
960.0,-0.002235126681625843
1024.0,-0.0021641391795128584
1152.0,-0.0016827840590849519
1280.0,-0.0009778101230040193
1408.0,-0.0001706107286736369
1536.0,-0.0005765074747614563
1664.0,0.00041329985833726823
1792.0,0.0007847226806916296
1920.0,0.0006942848558537662
2048.0,-0.0010092499433085322
2304.0,0.000908144109416753
2560.0,0.0036527991760522127
2816.0,0.0035350951366126537
3072.0,0.0015086987987160683
3328.0,0.0007377617293968797
3584.0,-0.005384174175560474
3840.0,-0.00753657054156065
4096.0,-0.005730111617594957
4608.0,0.0006087533547542989
5120.0,-0.0028786449693143368
5632.0,-0.005065006669610739
6144.0,-0.0022821323946118355
6656.0,-0.007851289585232735
7168.0,-0.003918413072824478
7680.0,0.0029056030325591564
8192.0,0.0024014809168875217
end
