version,3.0
numOfCh,1
type,point
parent_name,c1204_0dot069-0dot01
ch_type,1_1
kcount,1
numberNandB,1
brightnessNandB,1
carpet pos,0
pc,0
Time (ms),CH1 Auto-Correlation
1.0,0.027484267950057983
2.0,0.027281809598207474
3.0,0.02707022614777088
4.0,0.02686351165175438
5.0,0.02665347419679165
6.0,0.026442643254995346
7.0,0.026231369003653526
8.0,0.026027251034975052
9.0,0.025827523320913315
10.0,0.025628186762332916
11.0,0.025432318449020386
12.0,0.025242207571864128
13.0,0.0250517837703228
14.0,0.024862488731741905
15.0,0.024672115221619606
16.0,0.02448728308081627
18.0,0.02412630245089531
20.0,0.023779544979333878
22.0,0.023443175479769707
24.0,0.023115424439311028
26.0,0.022805504500865936
28.0,0.022491149604320526
30.0,0.022183911874890327
32.0,0.021883796900510788
36.0,0.02130439504981041
40.0,0.02076554112136364
44.0,0.020240232348442078
48.0,0.019723664969205856
52.0,0.019222795963287354
56.0,0.018724361434578896
60.0,0.01824096031486988
64.0,0.017782626673579216
72.0,0.016955431550741196
80.0,0.01623949408531189
88.0,0.01561275776475668
96.0,0.015053960494697094
104.0,0.014521049335598946
112.0,0.014004455879330635
120.0,0.013589352369308472
128.0,0.013200403191149235
144.0,0.012525204569101334
160.0,0.012120263651013374
176.0,0.011792386882007122
192.0,0.011400971561670303
208.0,0.010818405076861382
224.0,0.010095980018377304
240.0,0.009360403753817081
256.0,0.008400395512580872
288.0,0.00703203771263361
320.0,0.005953162908554077
352.0,0.005090054124593735
384.0,0.005050673149526119
416.0,0.005097099579870701
448.0,0.004837232641875744
480.0,0.004379454534500837
512.0,0.003784037660807371
576.0,0.003539995988830924
640.0,0.0027559613808989525
704.0,0.00173871626611799
768.0,0.0020513355266302824
832.0,0.0019146540435031056
896.0,0.0012753704795613885
960.0,0.0009318410884588957
1024.0,5.3536125051323324e-05
1152.0,-0.0022380007430911064
1280.0,-0.0036533819511532784
1408.0,-0.004094885662198067
1536.0,-0.005051621701568365
1664.0,-0.004798414651304483
1792.0,-0.004878920037299395
1920.0,-0.003985314164310694
2048.0,-0.0040749129839241505
2304.0,-0.003451844910159707
2560.0,-0.0027338184881955385
2816.0,-0.002296261955052614
3072.0,-0.0047301179729402065
3328.0,-0.007324405014514923
3584.0,-0.007333051413297653
3840.0,-0.004358631558716297
4096.0,-0.00012152182898717001
4608.0,0.0032278704456984997
5120.0,0.00767041090875864
5632.0,0.007543100975453854
6144.0,0.00502226734533906
6656.0,-0.0007777523132972419
7168.0,-0.0038812702987343073
7680.0,-0.008998085744678974
8192.0,-0.005352918058633804
end
