version,3.0
numOfCh,1
type,point
parent_name,c1204_0dot069-0dot01
ch_type,1_1
kcount,1
numberNandB,1
brightnessNandB,1
carpet pos,0
pc,0
Time (ms),CH1 Auto-Correlation
1.0,0.02874729223549366
2.0,0.028539475053548813
3.0,0.02833154797554016
4.0,0.02812185510993004
5.0,0.027914991602301598
6.0,0.027708983048796654
7.0,0.027502410113811493
8.0,0.027300171554088593
9.0,0.027101892977952957
10.0,0.02690950594842434
11.0,0.026725364848971367
12.0,0.02654104493558407
13.0,0.026364346966147423
14.0,0.02618713118135929
15.0,0.026006678119301796
16.0,0.025828080251812935
18.0,0.025485213845968246
20.0,0.02514536678791046
22.0,0.024809671565890312
24.0,0.024478208273649216
26.0,0.02415703795850277
28.0,0.023849183693528175
30.0,0.023557664826512337
32.0,0.023269571363925934
36.0,0.02270769327878952
40.0,0.022182246670126915
44.0,0.021691398695111275
48.0,0.02121930941939354
52.0,0.0207379013299942
56.0,0.02025243081152439
60.0,0.019782474264502525
64.0,0.019346535205841064
72.0,0.0184771791100502
80.0,0.017605474218726158
88.0,0.016810676082968712
96.0,0.016060372814536095
104.0,0.015406103804707527
112.0,0.014809979125857353
120.0,0.014252517372369766
128.0,0.013729935511946678
144.0,0.01279403269290924
160.0,0.011769563890993595
176.0,0.010728463530540466
192.0,0.009731465950608253
208.0,0.008801800198853016
224.0,0.008036243729293346
240.0,0.007478106766939163
256.0,0.007042530924081802
288.0,0.006290252320468426
320.0,0.00501598883420229
352.0,0.0035382919013500214
384.0,0.002132553607225418
416.0,0.000772701867390424
448.0,-3.167782779200934e-05
480.0,-0.0006163893267512321
512.0,-0.0006283604307100177
576.0,0.0002683255006559193
640.0,0.00025064617511816323
704.0,-3.5751891118707135e-05
768.0,0.0003280344244558364
832.0,0.0011291186092421412
896.0,0.0023081533145159483
960.0,0.003472351236268878
1024.0,0.003293507033959031
1152.0,0.0040774657391011715
1280.0,0.003190194256603718
1408.0,0.0012406973401084542
1536.0,-0.0016284205485135317
1664.0,-0.00513852434232831
1792.0,-0.005636232439428568
1920.0,-0.004231240600347519
2048.0,-0.0018376453081145883
2304.0,-0.001200948841869831
2560.0,-0.0008401322993449867
2816.0,-0.0012750786263495684
3072.0,-0.0016178617952391505
3328.0,-0.001348893973045051
3584.0,-0.004890384618192911
3840.0,-0.004566051531583071
4096.0,-0.002172600943595171
4608.0,-0.004765817429870367
5120.0,-0.0023333500139415264
5632.0,-0.001995268277823925
6144.0,-0.002477273577824235
6656.0,0.005324834957718849
7168.0,0.0032622623257339
7680.0,0.003710109507665038
8192.0,0.003606428625062108
end
