version,3.0
numOfCh,1
type,point
parent_name,c1204_0dot069-0dot01
ch_type,1_1
kcount,1
numberNandB,1
brightnessNandB,1
carpet pos,0
pc,0
Time (ms),CH1 Auto-Correlation
1.0,0.6262503862380981
2.0,0.6257061958312988
3.0,0.6251830458641052
4.0,0.6246024370193481
5.0,0.6240414381027222
6.0,0.6235397458076477
7.0,0.623060941696167
8.0,0.6226045489311218
9.0,0.6220962405204773
10.0,0.6215672492980957
11.0,0.6210070848464966
12.0,0.6204668283462524
13.0,0.6199360489845276
14.0,0.6194643378257751
15.0,0.6189789175987244
16.0,0.6184968948364258
18.0,0.617457389831543
20.0,0.6164044737815857
22.0,0.6153448820114136
24.0,0.6143664717674255
26.0,0.6133986711502075
28.0,0.6123669147491455
30.0,0.6113132834434509
32.0,0.610262393951416
36.0,0.6083458662033081
40.0,0.6061984896659851
44.0,0.6039884090423584
48.0,0.6015596389770508
52.0,0.5990732312202454
56.0,0.5965591073036194
60.0,0.5942542552947998
64.0,0.5920019149780273
72.0,0.5874808430671692
80.0,0.5836549997329712
88.0,0.5795099139213562
96.0,0.5754901766777039
104.0,0.5714579820632935
112.0,0.5670539140701294
120.0,0.5625123381614685
128.0,0.5577353239059448
144.0,0.5499916076660156
160.0,0.5413591265678406
176.0,0.5313960313796997
192.0,0.5200821161270142
208.0,0.5068935751914978
224.0,0.492829829454422
240.0,0.47895491123199463
256.0,0.466079980134964
288.0,0.44485732913017273
320.0,0.4264107346534729
352.0,0.4096495509147644
384.0,0.3901720345020294
416.0,0.3731996417045593
448.0,0.3618408441543579
480.0,0.35260292887687683
512.0,0.3436300456523895
576.0,0.3148112893104553
640.0,0.2865739166736603
704.0,0.26102781295776367
768.0,0.22421607375144958
832.0,0.19461561739444733
896.0,0.16935591399669647
960.0,0.1403951346874237
1024.0,0.11733165383338928
1152.0,0.06349436193704605
1280.0,0.016599291935563087
1408.0,-0.017686499282717705
1536.0,-0.04298894479870796
1664.0,-0.05928913876414299
1792.0,-0.0711083933711052
1920.0,-0.08321643620729446
2048.0,-0.09303051233291626
2304.0,-0.097808338701725
2560.0,-0.12831977009773254
2816.0,-0.1291453093290329
3072.0,-0.15760204195976257
3328.0,-0.20835967361927032
3584.0,-0.2501700818538666
3840.0,-0.2928304970264435
4096.0,-0.3383985757827759
end
