version,3.0
numOfCh,1
type,point
parent_name,c1204_0dot069-0dot01
ch_type,1_1
kcount,1
numberNandB,1
brightnessNandB,1
carpet pos,0
pc,0
Time (ms),CH1 Auto-Correlation
1.0,0.04099592939019203
2.0,0.04059870168566704
3.0,0.040209800004959106
4.0,0.039767488837242126
5.0,0.03932401165366173
6.0,0.03886023536324501
7.0,0.03837180137634277
8.0,0.03785612806677818
9.0,0.0373353473842144
10.0,0.03683362528681755
11.0,0.03632359579205513
12.0,0.03582512587308884
13.0,0.03532510995864868
14.0,0.03480726107954979
15.0,0.03432363644242287
16.0,0.03385809808969498
18.0,0.03293594717979431
20.0,0.03197638690471649
22.0,0.031010139733552933
24.0,0.0300980806350708
26.0,0.029209202155470848
28.0,0.028354089707136154
30.0,0.027562817558646202
32.0,0.026832005009055138
36.0,0.02559039369225502
40.0,0.024496670812368393
44.0,0.023600907996296883
48.0,0.02290494367480278
52.0,0.022344594821333885
56.0,0.021817980334162712
60.0,0.021387379616498947
64.0,0.02109900861978531
72.0,0.020474012941122055
80.0,0.019596979022026062
88.0,0.018414214253425598
96.0,0.017439980059862137
104.0,0.01686938852071762
112.0,0.016190150752663612
120.0,0.015514122322201729
128.0,0.014769542030990124
144.0,0.01307417917996645
160.0,0.011648111045360565
176.0,0.011061174795031548
192.0,0.010030084289610386
208.0,0.008273200131952763
224.0,0.006323522422462702
240.0,0.005605996120721102
256.0,0.005200846120715141
288.0,0.005316976457834244
320.0,0.00515042943879962
352.0,0.00367671437561512
384.0,0.0017255016136914492
416.0,0.0012061238521710038
448.0,0.001698212348856032
480.0,-1.2560228242364246e-05
512.0,-0.0016759602585807443
576.0,-0.002266531577333808
640.0,-0.00033599609741941094
704.0,0.0017043972620740533
768.0,0.0031832894310355186
832.0,0.003985248506069183
896.0,0.004383761901408434
960.0,0.0045765298418700695
1024.0,0.0038780411705374718
1152.0,0.002412455854937434
1280.0,0.001327329664491117
1408.0,0.002305783797055483
1536.0,0.0031382949091494083
1664.0,0.002247113734483719
1792.0,0.0022413134574890137
1920.0,-0.0018779239617288113
2048.0,-0.005356849171221256
2304.0,-0.004696608055382967
2560.0,-0.0037498304154723883
2816.0,-0.0049678366631269455
3072.0,-0.0065310620702803135
3328.0,-0.009407534264028072
3584.0,-0.009996377862989902
3840.0,-0.007582637015730143
4096.0,-0.001324488315731287
4608.0,-0.007697162684053183
5120.0,0.00397033104673028
5632.0,-0.002135292859748006
6144.0,0.005466789472848177
6656.0,0.009245923720300198
7168.0,0.002874367870390415
7680.0,0.003655141917988658
8192.0,0.0030340137891471386
end
