version,3.0
numOfCh,1
type,point
parent_name,c1204_0dot069-0dot01
ch_type,1_1
kcount,1
numberNandB,1
brightnessNandB,1
carpet pos,0
pc,0
Time (ms),CH1 Auto-Correlation
1.0,0.03633355349302292
2.0,0.036078035831451416
3.0,0.03582337871193886
4.0,0.03557385131716728
5.0,0.035327233374118805
6.0,0.03508494049310684
7.0,0.03485707566142082
8.0,0.034634653478860855
9.0,0.03441914543509483
10.0,0.034206733107566833
11.0,0.033989980816841125
12.0,0.0337655171751976
13.0,0.033540066331624985
14.0,0.03332610800862312
15.0,0.033109333366155624
16.0,0.032895058393478394
18.0,0.03247137740254402
20.0,0.032051440328359604
22.0,0.0316300168633461
24.0,0.031219515949487686
26.0,0.030812788754701614
28.0,0.030424606055021286
30.0,0.030031073838472366
32.0,0.02965313382446766
36.0,0.028955768793821335
40.0,0.028290454298257828
44.0,0.027664972469210625
48.0,0.02705761231482029
52.0,0.026468858122825623
56.0,0.02589542604982853
60.0,0.025355137884616852
64.0,0.024847563356161118
72.0,0.023981744423508644
80.0,0.02311551384627819
88.0,0.022158198058605194
96.0,0.021208707243204117
104.0,0.020212780684232712
112.0,0.01932709664106369
120.0,0.018539173528552055
128.0,0.017891256138682365
144.0,0.01684936136007309
160.0,0.015859315171837807
176.0,0.014746597968041897
192.0,0.013864504173398018
208.0,0.013207119889557362
224.0,0.01241252664476633
240.0,0.0116116339340806
256.0,0.010842026211321354
288.0,0.009739735163748264
320.0,0.008834420703351498
352.0,0.0075563956052064896
384.0,0.006396298296749592
416.0,0.005421013105660677
448.0,0.004963650368154049
480.0,0.005551119800657034
512.0,0.006455519236624241
576.0,0.005731265060603619
640.0,0.004677245859056711
704.0,0.004366572014987469
768.0,0.004763349890708923
832.0,0.004330740310251713
896.0,0.0028787972405552864
960.0,0.0012894743122160435
1024.0,0.00010691991337807849
1152.0,-0.001464389730244875
1280.0,-0.005305950529873371
1408.0,-0.006376477424055338
1536.0,-0.006853640079498291
1664.0,-0.004884717054665089
1792.0,-0.0023696909192949533
1920.0,-0.00033898348920047283
2048.0,0.0013551265001296997
2304.0,-0.0003688824363052845
2560.0,0.0003858662093989551
2816.0,0.0024334124755114317
3072.0,0.001074940082617104
3328.0,0.001207147492095828
3584.0,-0.0001844752550823614
3840.0,-0.003205726156011224
4096.0,-0.003436351427808404
4608.0,-0.008367879316210747
5120.0,-0.009128399193286896
5632.0,-0.005049273371696472
6144.0,-0.0019811459351330996
6656.0,-0.0017018463695421815
7168.0,0.0012421245919540524
7680.0,-0.003507361514493823
8192.0,-0.00783202238380909
end
