version,3.0
numOfCh,1
type,point
parent_name,c1204_0dot069-0dot01
ch_type,1_1
kcount,1
numberNandB,1
brightnessNandB,1
carpet pos,0
pc,0
Time (ms),CH1 Auto-Correlation
1.0,0.0332428477704525
2.0,0.03305515646934509
3.0,0.03287295997142792
4.0,0.03269853815436363
5.0,0.032531287521123886
6.0,0.032368920743465424
7.0,0.03221319615840912
8.0,0.0320562906563282
9.0,0.03189823776483536
10.0,0.0317390002310276
11.0,0.03157784417271614
12.0,0.03141399845480919
13.0,0.031251125037670135
14.0,0.031095195561647415
15.0,0.03093867376446724
16.0,0.03078285977244377
18.0,0.03047644905745983
20.0,0.03017432801425457
22.0,0.029874537140130997
24.0,0.029574627056717873
26.0,0.029294831678271294
28.0,0.029032286256551743
30.0,0.028772549703717232
32.0,0.028512848541140556
36.0,0.02802840806543827
40.0,0.02755390852689743
44.0,0.027091562747955322
48.0,0.02664458192884922
52.0,0.02619381621479988
56.0,0.025756319984793663
60.0,0.025313418358564377
64.0,0.024885108694434166
72.0,0.024015696719288826
80.0,0.02317531406879425
88.0,0.022336361929774284
96.0,0.021589534357190132
104.0,0.020940979942679405
112.0,0.0204071756452322
120.0,0.019941143691539764
128.0,0.019449574872851372
144.0,0.018461845815181732
160.0,0.017488565295934677
176.0,0.016703903675079346
192.0,0.01608905754983425
208.0,0.015334385447204113
224.0,0.014418644830584526
240.0,0.013458840548992157
256.0,0.012597709894180298
288.0,0.011226990260183811
320.0,0.010198812000453472
352.0,0.009357371367514133
384.0,0.00854642316699028
416.0,0.007851546630263329
448.0,0.007389919366687536
480.0,0.006785971112549305
512.0,0.005749530158936977
576.0,0.003577806521207094
640.0,0.002855185652151704
704.0,0.0018798826495185494
768.0,0.00043714692583307624
832.0,-0.00013201289402786642
896.0,-0.0012644384987652302
960.0,-0.0018848883919417858
1024.0,-0.002041042549535632
1152.0,-0.0033378666266798973
1280.0,-0.0040267761796712875
1408.0,-0.004581480287015438
1536.0,-0.004534287843853235
1664.0,-0.004164996091276407
1792.0,-0.003155740909278393
1920.0,-0.0041863746009767056
2048.0,-0.004633625503629446
2304.0,-0.005302888341248035
2560.0,-0.0019599490333348513
2816.0,0.0002863251429516822
3072.0,0.005746711511164904
3328.0,0.0026947748847305775
3584.0,0.004261292051523924
3840.0,-0.001261122990399599
4096.0,-0.005216045770794153
4608.0,-0.0009321412653662264
5120.0,-0.006687280721962452
5632.0,-0.013139166869223118
6144.0,-0.006910939235240221
6656.0,0.0037874530535191298
7168.0,0.006791493855416775
7680.0,0.009436355903744698
8192.0,0.006084088236093521
end
