version,3.0
numOfCh,1
type,point
parent_name,c1204_0dot069-0dot01
ch_type,1_1
kcount,1
numberNandB,1
brightnessNandB,1
carpet pos,0
pc,0
Time (ms),CH1 Auto-Correlation
1.0,0.032208219170570374
2.0,0.03200852870941162
3.0,0.031809572130441666
4.0,0.03161654248833656
5.0,0.0314272940158844
6.0,0.03123830072581768
7.0,0.031047111377120018
8.0,0.030857106670737267
9.0,0.030670324340462685
10.0,0.030485374853014946
11.0,0.030306439846754074
12.0,0.030121738091111183
13.0,0.02993626333773136
14.0,0.02974715642631054
15.0,0.029562927782535553
16.0,0.029383180662989616
18.0,0.02902202308177948
20.0,0.028668353334069252
22.0,0.0283046904951334
24.0,0.027931099757552147
26.0,0.02756219170987606
28.0,0.027211256325244904
30.0,0.02686944231390953
32.0,0.026524610817432404
36.0,0.025853443890810013
40.0,0.02520824782550335
44.0,0.024580465629696846
48.0,0.023982662707567215
52.0,0.02344406023621559
56.0,0.022931231185793877
60.0,0.022430526092648506
64.0,0.021907400339841843
72.0,0.02094082534313202
80.0,0.020028462633490562
88.0,0.019183827564120293
96.0,0.018402107059955597
104.0,0.01766541227698326
112.0,0.01703518070280552
120.0,0.01642206311225891
128.0,0.015833508223295212
144.0,0.014697611331939697
160.0,0.01362109836190939
176.0,0.01272569876164198
192.0,0.01192107517272234
208.0,0.011120951734483242
224.0,0.010452236980199814
240.0,0.009753165766596794
256.0,0.008972594514489174
288.0,0.007852685637772083
320.0,0.006937047932296991
352.0,0.006204868201166391
384.0,0.005398948676884174
416.0,0.0050750854425132275
448.0,0.0044482070952653885
480.0,0.003769207512959838
512.0,0.0035007584374397993
576.0,0.004149834159761667
640.0,0.003591960994526744
704.0,0.0030483303125947714
768.0,0.0030112825334072113
832.0,0.003018142655491829
896.0,0.0027645661029964685
960.0,0.0021880792919546366
1024.0,0.0015691400039941072
1152.0,0.0013041390338912606
1280.0,0.0025112731382250786
1408.0,0.0006696907803416252
1536.0,-0.0011088480241596699
1664.0,-0.0012594707077369094
1792.0,0.0001904908858705312
1920.0,-0.0009410211350768805
2048.0,-0.0010755382245406508
2304.0,0.0008882544352672994
2560.0,0.0022614668123424053
2816.0,-0.0009529326343908906
3072.0,-0.0003235180920455605
3328.0,0.0016585690900683403
3584.0,0.0030121353920549154
3840.0,0.002083907835185528
4096.0,-0.0030658976174890995
4608.0,-0.00887083075940609
5120.0,-0.003098361426964402
5632.0,-0.006267330143600702
6144.0,-0.0020141967106610537
6656.0,-0.006443191319704056
7168.0,-0.0036019431427121162
7680.0,-0.0011184964096173644
8192.0,-0.004756024572998285
end
