version,3.0
numOfCh,1
type,point
parent_name,c1204_0dot069-0dot01
ch_type,1_1
kcount,1
numberNandB,1
brightnessNandB,1
carpet pos,0
pc,0
Time (ms),CH1 Auto-Correlation
1.0,0.02947995811700821
2.0,0.029293637722730637
3.0,0.02911061979830265
4.0,0.02893318235874176
5.0,0.02875331975519657
6.0,0.028579428791999817
7.0,0.028405852615833282
8.0,0.02823488973081112
9.0,0.028065938502550125
10.0,0.027899963781237602
11.0,0.02773076854646206
12.0,0.02756151743233204
13.0,0.027392713353037834
14.0,0.02722839266061783
15.0,0.027065372094511986
16.0,0.026904629543423653
18.0,0.026592014357447624
20.0,0.026286475360393524
22.0,0.025998154655098915
24.0,0.025720924139022827
26.0,0.02544339746236801
28.0,0.02516232244670391
30.0,0.024885283783078194
32.0,0.024623405188322067
36.0,0.02412726730108261
40.0,0.023645475506782532
44.0,0.02315359190106392
48.0,0.022670820355415344
52.0,0.02219976671040058
56.0,0.021744396537542343
60.0,0.021294862031936646
64.0,0.020864302292466164
72.0,0.020029010251164436
80.0,0.019217070192098618
88.0,0.018432583659887314
96.0,0.017681101337075233
104.0,0.017024416476488113
112.0,0.016426831483840942
120.0,0.015852566808462143
128.0,0.01534199807792902
144.0,0.01436788123100996
160.0,0.013557340949773788
176.0,0.012849582359194756
192.0,0.012206235900521278
208.0,0.011682827025651932
224.0,0.011194387450814247
240.0,0.010836656205356121
256.0,0.010379301384091377
288.0,0.009383474476635456
320.0,0.008677583187818527
352.0,0.007593286223709583
384.0,0.006492806598544121
416.0,0.005570916924625635
448.0,0.004612238612025976
480.0,0.003866414539515972
512.0,0.0031811269000172615
576.0,0.00259197223931551
640.0,0.0024675021413713694
704.0,0.0018469198839738965
768.0,0.0006854095263406634
832.0,-0.0005130020435899496
896.0,-0.0019517762120813131
960.0,-0.002418104326352477
1024.0,-0.00262035196647048
1152.0,-0.0022562628146260977
1280.0,-0.00045532238436862826
1408.0,-0.0006428677588701248
1536.0,-0.002141491277143359
1664.0,-0.0030231697019189596
1792.0,-0.005795791279524565
1920.0,-0.006427017040550709
2048.0,-0.006524207070469856
2304.0,-0.0047031426802277565
2560.0,-0.004025389906018972
2816.0,-0.004249020013958216
3072.0,-0.00579496007412672
3328.0,-0.0044686514884233475
3584.0,-0.002631357405334711
3840.0,-0.0009464999893680215
4096.0,0.0016906464006751776
4608.0,0.0058198063634335995
5120.0,0.004406801890581846
5632.0,0.002706033643335104
6144.0,0.004106374457478523
6656.0,-0.0009357641683891416
7168.0,-0.008748549036681652
7680.0,-0.0108130918815732
8192.0,-0.0004823720082640648
end
