version,3.0
numOfCh,1
type,point
parent_name,c1204_0dot069-0dot01
ch_type,1_1
kcount,1
numberNandB,1
brightnessNandB,1
carpet pos,0
pc,0
Time (ms),CH1 Auto-Correlation
1.0,0.023679913952946663
2.0,0.023459933698177338
3.0,0.023244887590408325
4.0,0.02302953414618969
5.0,0.022820545360445976
6.0,0.022613542154431343
7.0,0.02241034246981144
8.0,0.022216422483325005
9.0,0.022026415914297104
10.0,0.021844787523150444
11.0,0.021672949194908142
12.0,0.021504782140254974
13.0,0.021335383877158165
14.0,0.02116449736058712
15.0,0.020996101200580597
16.0,0.020824654027819633
18.0,0.020490309223532677
20.0,0.02016562409698963
22.0,0.019865360110998154
24.0,0.019572095945477486
26.0,0.019281892105937004
28.0,0.018988901749253273
30.0,0.01870594173669815
32.0,0.018416058272123337
36.0,0.017856106162071228
40.0,0.01734023727476597
44.0,0.016874095425009727
48.0,0.016406523063778877
52.0,0.015963414683938026
56.0,0.01554581057280302
60.0,0.015146004967391491
64.0,0.014755181968212128
72.0,0.014038843102753162
80.0,0.013397392816841602
88.0,0.012773031368851662
96.0,0.012184145860373974
104.0,0.01159340888261795
112.0,0.011006394401192665
120.0,0.010481016710400581
128.0,0.010054204612970352
144.0,0.00915633887052536
160.0,0.008292106911540031
176.0,0.007571242284029722
192.0,0.007010668981820345
208.0,0.006534053478389978
224.0,0.006194674409925938
240.0,0.005830376874655485
256.0,0.00563001586124301
288.0,0.005339772440493107
320.0,0.004928959533572197
352.0,0.004724298138171434
384.0,0.004741903860121965
416.0,0.0050357249565422535
448.0,0.00487625552341342
480.0,0.00487170834094286
512.0,0.005123280920088291
576.0,0.005375357810407877
640.0,0.005454891361296177
704.0,0.005216056481003761
768.0,0.004715463146567345
832.0,0.004501383751630783
896.0,0.00462335953488946
960.0,0.004689627327024937
1024.0,0.0039873309433460236
1152.0,0.002597339451313019
1280.0,0.0024777932558208704
1408.0,0.0026355611626058817
1536.0,0.0002028753369813785
1664.0,-0.0003388741170056164
1792.0,-0.0002332321455469355
1920.0,-0.00036298210034146905
2048.0,0.00023341707128565758
2304.0,0.00117906229570508
2560.0,-0.004273842554539442
2816.0,-0.0050720651634037495
3072.0,-0.006247965153306723
3328.0,-0.0037902621552348137
3584.0,-0.005724753253161907
3840.0,-0.005799747537821531
4096.0,-0.001799465506337583
4608.0,-7.79482361394912e-05
5120.0,-3.076240318478085e-05
5632.0,0.0022321417927742004
6144.0,0.003938460722565651
6656.0,0.009263196028769016
7168.0,0.0028319007251411676
7680.0,0.002098674885928631
8192.0,-0.002454699482768774
end
