version,3.0
numOfCh,1
type,point
parent_name,c1204_0dot069-0dot01
ch_type,1_1
kcount,1
numberNandB,1
brightnessNandB,1
carpet pos,0
pc,0
Time (ms),CH1 Auto-Correlation
1.0,0.029223039746284485
2.0,0.028989410027861595
3.0,0.028753740713000298
4.0,0.028515158221125603
5.0,0.028289705514907837
6.0,0.02807135134935379
7.0,0.027856949716806412
8.0,0.027646379545331
9.0,0.027437951415777206
10.0,0.02723214030265808
11.0,0.02702978439629078
12.0,0.026830412447452545
13.0,0.02663259208202362
14.0,0.02644638903439045
15.0,0.026254773139953613
16.0,0.026063237339258194
18.0,0.02568860910832882
20.0,0.025310318917036057
22.0,0.024937275797128677
24.0,0.024575795978307724
26.0,0.024227643385529518
28.0,0.023893840610980988
30.0,0.023558801040053368
32.0,0.023226747289299965
36.0,0.022600021213293076
40.0,0.022006507962942123
44.0,0.02141445502638817
48.0,0.020870111882686615
52.0,0.02036505937576294
56.0,0.019878899678587914
60.0,0.01940365880727768
64.0,0.018941577523946762
72.0,0.017870642244815826
80.0,0.016857441514730453
88.0,0.015846209600567818
96.0,0.014906661584973335
104.0,0.014050833880901337
112.0,0.01324089802801609
120.0,0.012662596069276333
128.0,0.012248578481376171
144.0,0.011722653172910213
160.0,0.011236145161092281
176.0,0.010720744729042053
192.0,0.010386715643107891
208.0,0.009808721020817757
224.0,0.008880636654794216
240.0,0.007883702404797077
256.0,0.006854664999991655
288.0,0.005516077391803265
320.0,0.004868623800575733
352.0,0.004564374219626188
384.0,0.004517648834735155
416.0,0.004519364330917597
448.0,0.0046354359947144985
480.0,0.005208160728216171
512.0,0.005784937180578709
576.0,0.006117879878729582
640.0,0.006795070134103298
704.0,0.006596085149794817
768.0,0.005603354424238205
832.0,0.004568661563098431
896.0,0.0038959577213972807
960.0,0.003084658645093441
1024.0,0.0017578578554093838
1152.0,0.0018385767471045256
1280.0,0.003170232055708766
1408.0,0.0033905997406691313
1536.0,0.001606310368515551
1664.0,0.0008888791198842227
1792.0,0.0009925799677148461
1920.0,0.0004434918810147792
2048.0,0.002324081026017666
2304.0,0.0015755979111418128
2560.0,-0.0013816256541758776
2816.0,-0.0004964242689311504
3072.0,0.00036690308479592204
3328.0,-0.0009572445414960384
3584.0,-0.0008332911529578269
3840.0,-0.0015065831830725074
4096.0,-0.004967736080288887
4608.0,-0.004112144000828266
5120.0,-0.0024324862752109766
5632.0,-0.008581668138504028
6144.0,-0.010747439227998257
6656.0,-0.007315733004361391
7168.0,-0.005473046097904444
7680.0,-0.0010012226412072778
8192.0,0.001240993500687182
end
