version,3.0
numOfCh,1
type,point
parent_name,c1204_0dot069-0dot01
ch_type,1_1
kcount,1
numberNandB,1
brightnessNandB,1
carpet pos,0
pc,0
Time (ms),CH1 Auto-Correlation
1.0,0.023112569004297256
2.0,0.022896073758602142
3.0,0.02268163487315178
4.0,0.022473987191915512
5.0,0.02227369137108326
6.0,0.022069647908210754
7.0,0.021870452910661697
8.0,0.021679697558283806
9.0,0.021491672843694687
10.0,0.02131187729537487
11.0,0.021136794239282608
12.0,0.020970473065972328
13.0,0.020811492577195168
14.0,0.020661842077970505
15.0,0.020515229552984238
16.0,0.020368533208966255
18.0,0.02007048949599266
20.0,0.019801124930381775
22.0,0.019534040242433548
24.0,0.019272472709417343
26.0,0.019013209268450737
28.0,0.01876036264002323
30.0,0.01852159947156906
32.0,0.018284374848008156
36.0,0.01777627319097519
40.0,0.017295783385634422
44.0,0.01686711609363556
48.0,0.01645664870738983
52.0,0.01603792980313301
56.0,0.015613360330462456
60.0,0.015203675255179405
64.0,0.014849417842924595
72.0,0.014223450794816017
80.0,0.01364420261234045
88.0,0.013064111582934856
96.0,0.012537503615021706
104.0,0.012030054815113544
112.0,0.011486311443150043
120.0,0.010907737538218498
128.0,0.010317881591618061
144.0,0.00918040331453085
160.0,0.007997791282832623
176.0,0.006844989024102688
192.0,0.005796498619019985
208.0,0.0048600793816149235
224.0,0.00409746915102005
240.0,0.003371488768607378
256.0,0.0025962605141103268
288.0,0.0018437285907566547
320.0,0.0017725799698382616
352.0,0.0015521011082455516
384.0,0.0011314061703160405
416.0,0.0011300272308290005
448.0,0.0018046617042273283
480.0,0.0023430022411048412
512.0,0.001911356346681714
576.0,0.0007588395965285599
640.0,0.00022919663751963526
704.0,-0.0003682403184939176
768.0,-0.0007944015669636428
832.0,-0.0012106745271012187
896.0,-0.0008506326703354716
960.0,-0.0007302358280867338
1024.0,-0.00033511605579406023
1152.0,1.1346103747200686e-05
1280.0,0.0002112702641170472
1408.0,-0.0012199393240734935
1536.0,-0.000716080074198544
1664.0,0.0016628247685730457
1792.0,0.002790794475004077
1920.0,0.0015904782339930534
2048.0,0.0004461613134481013
2304.0,-0.001419494510628283
2560.0,-0.0002590774674899876
2816.0,-0.0005932814092375338
3072.0,-0.002221883973106742
3328.0,-0.0012688125716522336
3584.0,0.002061190316453576
3840.0,0.003799678757786751
4096.0,0.0024621940683573484
4608.0,-0.0017180900322273374
5120.0,-0.00100888148881495
5632.0,0.0033657830208539963
6144.0,-0.004555209074169397
6656.0,-0.0056246244348585606
7168.0,-0.0011483223643153906
7680.0,0.001398187130689621
8192.0,0.0013897711178287864
end
