version,3.0
numOfCh,1
type,point
parent_name,c1204_0dot069-0dot01
ch_type,1_1
kcount,1
numberNandB,1
brightnessNandB,1
carpet pos,0
pc,0
Time (ms),CH1 Auto-Correlation
1.0,0.027891715988516808
2.0,0.02768274024128914
3.0,0.02747795544564724
4.0,0.027277451008558273
5.0,0.02708236128091812
6.0,0.0268951877951622
7.0,0.026715945452451706
8.0,0.026532674208283424
9.0,0.02635156735777855
10.0,0.026169022545218468
11.0,0.025981614366173744
12.0,0.025796934962272644
13.0,0.025618579238653183
14.0,0.02544751577079296
15.0,0.025279425084590912
16.0,0.02511952817440033
18.0,0.02480982057750225
20.0,0.024505143985152245
22.0,0.024196850135922432
24.0,0.023888852447271347
26.0,0.023591529577970505
28.0,0.023288097232580185
30.0,0.022991281002759933
32.0,0.022704364731907845
36.0,0.022158611565828323
40.0,0.02163117006421089
44.0,0.021110491827130318
48.0,0.02063242718577385
52.0,0.020170703530311584
56.0,0.019727520644664764
60.0,0.019311897456645966
64.0,0.01894037239253521
72.0,0.018211495131254196
80.0,0.01749352365732193
88.0,0.016863254830241203
96.0,0.016209330409765244
104.0,0.015575208701193333
112.0,0.014956594444811344
120.0,0.014391487464308739
128.0,0.013887647539377213
144.0,0.013031542301177979
160.0,0.012384600937366486
176.0,0.011938119307160378
192.0,0.01141971256583929
208.0,0.010957690887153149
224.0,0.01057354174554348
240.0,0.010133514180779457
256.0,0.009624662809073925
288.0,0.008134111762046814
320.0,0.007038033101707697
352.0,0.006366895977407694
384.0,0.005411823280155659
416.0,0.004835555329918861
448.0,0.004320841748267412
480.0,0.003928764723241329
512.0,0.003641973715275526
576.0,0.003249583998695016
640.0,0.0035484065301716328
704.0,0.004147873725742102
768.0,0.0043155536986887455
832.0,0.004119788762181997
896.0,0.0037642421666532755
960.0,0.0030555841512978077
1024.0,0.002740924246609211
1152.0,0.0013406167272478342
1280.0,-0.0012999715982005
1408.0,-0.003231045324355364
1536.0,-0.0033990999218076468
1664.0,-0.004168548621237278
1792.0,-0.0025047054514288902
1920.0,-0.0022032468114048243
2048.0,-0.0036379951052367687
2304.0,-0.007554232608526945
2560.0,-0.005934987682849169
2816.0,-0.00529896654188633
3072.0,-0.004876702558249235
3328.0,-0.001691596582531929
3584.0,0.0010755348484963179
3840.0,0.0007746320916339755
4096.0,0.0005181172164157033
4608.0,0.0034214085899293423
5120.0,0.004825100302696228
5632.0,0.004802681040018797
6144.0,-0.0008843484101817012
6656.0,-0.0024207548703998327
7168.0,-0.004011015873402357
7680.0,-0.004672856070101261
8192.0,-0.0022800874430686235
end
