version,3.0
numOfCh,1
type,point
parent_name,c1204_0dot069-0dot01
ch_type,1_1
kcount,1
numberNandB,1
brightnessNandB,1
carpet pos,0
pc,0
Time (ms),CH1 Auto-Correlation
1.0,0.4665089547634125
2.0,0.46593621373176575
3.0,0.46536141633987427
4.0,0.464713990688324
5.0,0.46410584449768066
6.0,0.46346303820610046
7.0,0.4627893567085266
8.0,0.46214452385902405
9.0,0.4614533483982086
10.0,0.4607725143432617
11.0,0.4601276218891144
12.0,0.4595050811767578
13.0,0.45888620615005493
14.0,0.45828598737716675
15.0,0.45764225721359253
16.0,0.4570014178752899
18.0,0.4557568430900574
20.0,0.45452064275741577
22.0,0.4533952474594116
24.0,0.45229676365852356
26.0,0.45121675729751587
28.0,0.4501532018184662
30.0,0.44918251037597656
32.0,0.4482640326023102
36.0,0.44666722416877747
40.0,0.44490891695022583
44.0,0.4433220624923706
48.0,0.4418475329875946
52.0,0.44035598635673523
56.0,0.43866807222366333
60.0,0.43693292140960693
64.0,0.4350328743457794
72.0,0.4314059913158417
80.0,0.42821696400642395
88.0,0.42481428384780884
96.0,0.42108190059661865
104.0,0.41731584072113037
112.0,0.4136796295642853
120.0,0.41019007563591003
128.0,0.40689173340797424
144.0,0.3995431363582611
160.0,0.39102470874786377
176.0,0.38181576132774353
192.0,0.3714623749256134
208.0,0.36370381712913513
224.0,0.35743382573127747
240.0,0.349401593208313
256.0,0.34168192744255066
288.0,0.32464784383773804
320.0,0.3056178092956543
352.0,0.28421732783317566
384.0,0.2601467967033386
416.0,0.2349696308374405
448.0,0.21032986044883728
480.0,0.18682587146759033
512.0,0.16354383528232574
576.0,0.134553924202919
640.0,0.11103858053684235
704.0,0.08648896217346191
768.0,0.0625896155834198
832.0,0.04315320774912834
896.0,0.033741820603609085
960.0,0.025814101099967957
1024.0,0.014453009702265263
1152.0,-0.012757613323628902
1280.0,-0.033874962478876114
1408.0,-0.05883677676320076
1536.0,-0.06994184106588364
1664.0,-0.0745442658662796
1792.0,-0.07861565053462982
1920.0,-0.0709524154663086
2048.0,-0.06694763898849487
2304.0,-0.0409773588180542
2560.0,-0.005840522702783346
2816.0,0.0008387715206481516
3072.0,-0.007741294801235199
3328.0,-0.029537204653024673
3584.0,-0.06651103496551514
3840.0,-0.11881139874458313
4096.0,-0.16945689916610718
end
