version,3.0
numOfCh,1
type,point
parent_name,c1204_0dot069-0dot01
ch_type,1_1
kcount,1
numberNandB,1
brightnessNandB,1
carpet pos,0
pc,0
Time (ms),CH1 Auto-Correlation
1.0,0.052391402423381805
2.0,0.050467245280742645
3.0,0.048446036875247955
4.0,0.04645445570349693
5.0,0.0443606935441494
6.0,0.04216992110013962
7.0,0.040092453360557556
8.0,0.03815067932009697
9.0,0.036205895245075226
10.0,0.03435710072517395
11.0,0.03245454654097557
12.0,0.032247066497802734
13.0,0.03205100819468498
14.0,0.03192850574851036
15.0,0.03177955746650696
16.0,0.031647492200136185
18.0,0.031207820400595665
20.0,0.030846428126096725
22.0,0.030526459217071533
24.0,0.030066512525081635
26.0,0.02954026684165001
28.0,0.029039958491921425
30.0,0.028582658618688583
32.0,0.028102079406380653
36.0,0.027067366987466812
40.0,0.026342593133449554
44.0,0.02558797597885132
48.0,0.024940432980656624
52.0,0.02438216656446457
56.0,0.02400507964193821
60.0,0.023564161732792854
64.0,0.023005707189440727
72.0,0.022351311519742012
80.0,0.021757978945970535
88.0,0.02130124345421791
96.0,0.020650938153266907
104.0,0.019987720996141434
112.0,0.019439131021499634
120.0,0.018633924424648285
128.0,0.018101243302226067
144.0,0.01590757444500923
160.0,0.014918253757059574
176.0,0.013951148837804794
192.0,0.013000698760151863
208.0,0.012143172323703766
224.0,0.011219295673072338
240.0,0.010159607976675034
256.0,0.009210653603076935
288.0,0.008308369666337967
320.0,0.0072865900583565235
352.0,0.005769822746515274
384.0,0.004638040438294411
416.0,0.0038903977256268263
448.0,0.003230841364711523
480.0,0.00237932032905519
512.0,0.0014901410322636366
576.0,0.0013980874791741371
640.0,0.002829308621585369
704.0,0.004478472750633955
768.0,0.0056343479081988335
832.0,0.005977722816169262
896.0,0.006334756035357714
960.0,0.007615062408149242
1024.0,0.006329447962343693
1152.0,0.0014609707286581397
1280.0,-0.0017878639046102762
1408.0,-0.003597839269787073
1536.0,-0.0026688978541642427
1664.0,-0.0014021412935107946
1792.0,-0.00011529208131833002
1920.0,0.0005162801826372743
2048.0,0.0005111714126542211
2304.0,-0.001961855683475733
2560.0,-0.00011625575280049816
2816.0,0.0005949591286480427
3072.0,-0.0018006832106038928
3328.0,-0.004840063862502575
3584.0,-0.0044147963635623455
3840.0,-0.0039968304336071014
4096.0,-0.007480306550860405
4608.0,0.0002690346445888281
5120.0,0.004605604335665703
5632.0,0.004979982506483793
6144.0,0.0009017476113513112
6656.0,0.0025707785971462727
7168.0,-0.0024376041255891323
7680.0,0.00515993544831872
8192.0,-0.007114469539374113
end
