version,3.0
numOfCh,1
type,point
parent_name,c1204_0dot069-0dot01
ch_type,1_1
kcount,1
numberNandB,1
brightnessNandB,1
carpet pos,0
pc,0
Time (ms),CH1 Auto-Correlation
1.0,0.07907607406377792
2.0,0.07848016172647476
3.0,0.07795168459415436
4.0,0.07744935899972916
5.0,0.07694164663553238
6.0,0.07643531262874603
7.0,0.07595126330852509
8.0,0.07549833506345749
9.0,0.07502935826778412
10.0,0.07456637173891068
11.0,0.07411924749612808
12.0,0.07363125681877136
13.0,0.07317040115594864
14.0,0.07272088527679443
15.0,0.07229328900575638
16.0,0.07188289612531662
18.0,0.07106221467256546
20.0,0.07018211483955383
22.0,0.06930849701166153
24.0,0.06842000037431717
26.0,0.06756503880023956
28.0,0.06670988351106644
30.0,0.06590010225772858
32.0,0.06511105597019196
36.0,0.06355191022157669
40.0,0.06192203238606453
44.0,0.06047220528125763
48.0,0.05898190662264824
52.0,0.05755823850631714
56.0,0.05623674392700195
60.0,0.05474860966205597
64.0,0.05328967794775963
72.0,0.05183259770274162
80.0,0.05043589696288109
88.0,0.04911977797746658
96.0,0.047781508415937424
104.0,0.046576835215091705
112.0,0.045454081147909164
120.0,0.04431112855672836
128.0,0.04334750398993492
144.0,0.042106736451387405
160.0,0.04140603169798851
176.0,0.04055138677358627
192.0,0.04011574760079384
208.0,0.04006632789969444
224.0,0.039702218025922775
240.0,0.03872480243444443
256.0,0.037653110921382904
288.0,0.034675903618335724
320.0,0.031332988291978836
352.0,0.027955329045653343
384.0,0.025334348902106285
416.0,0.021628577262163162
448.0,0.01743907481431961
480.0,0.01587148942053318
512.0,0.014515592716634274
576.0,0.00820659939199686
640.0,0.002839496359229088
704.0,-0.0007443579379469156
768.0,-0.0016570871230214834
832.0,-0.003444148227572441
896.0,-0.004218719899654388
960.0,-0.00387024600058794
1024.0,-0.004546516574919224
1152.0,-0.004245228134095669
1280.0,-0.0042481147684156895
1408.0,-0.0027216412127017975
1536.0,0.00012093214900232852
1664.0,0.005936977919191122
1792.0,0.009598245844244957
1920.0,0.01584497280418873
2048.0,0.015329654328525066
2304.0,0.010915045626461506
2560.0,0.006172871682792902
2816.0,0.0034952349960803986
3072.0,0.006249472964555025
3328.0,-0.002792608691379428
3584.0,-0.016581164672970772
3840.0,-0.02601548656821251
4096.0,-0.023214666172862053
4608.0,-0.0026408503763377666
5120.0,0.006074842531234026
5632.0,-0.007225611247122288
6144.0,-0.027891211211681366
6656.0,-0.0121602863073349
7168.0,-0.010569301433861256
7680.0,0.007064888719469309
8192.0,0.004780127201229334
end
