version,3.0
numOfCh,1
type,point
parent_name,c1204_0dot069-0dot01
ch_type,1_1
kcount,1
numberNandB,1
brightnessNandB,1
carpet pos,0
pc,0
Time (ms),CH1 Auto-Correlation
1.0,0.13052138686180115
2.0,0.1300816833972931
3.0,0.12960736453533173
4.0,0.12912748754024506
5.0,0.12867459654808044
6.0,0.1282205432653427
7.0,0.1277797669172287
8.0,0.127345472574234
9.0,0.1269349306821823
10.0,0.12653517723083496
11.0,0.12611958384513855
12.0,0.1257123500108719
13.0,0.12529166042804718
14.0,0.1248943880200386
15.0,0.12450145184993744
16.0,0.12410121411085129
18.0,0.12341208010911942
20.0,0.12276162952184677
22.0,0.12214428931474686
24.0,0.12150160223245621
26.0,0.12084274739027023
28.0,0.12020967155694962
30.0,0.11965657770633698
32.0,0.11911971867084503
36.0,0.11812488734722137
40.0,0.11726339161396027
44.0,0.11663105338811874
48.0,0.11613421887159348
52.0,0.11589830368757248
56.0,0.11575014889240265
60.0,0.11549542099237442
64.0,0.11511757969856262
72.0,0.11434342712163925
80.0,0.11332005262374878
88.0,0.11259981244802475
96.0,0.11210204660892487
104.0,0.11113505810499191
112.0,0.10988301783800125
120.0,0.10898293554782867
128.0,0.10853523761034012
144.0,0.10750824213027954
160.0,0.1055617704987526
176.0,0.10282179713249207
192.0,0.10032951086759567
208.0,0.09858551621437073
224.0,0.09657774865627289
240.0,0.09490954875946045
256.0,0.09376771748065948
288.0,0.08945399522781372
320.0,0.08438853174448013
352.0,0.07820046693086624
384.0,0.07143989205360413
416.0,0.06653078645467758
448.0,0.060113243758678436
480.0,0.054024722427129745
512.0,0.04784192144870758
576.0,0.036260731518268585
640.0,0.02383270300924778
704.0,0.01267976313829422
768.0,0.002806897973641753
832.0,-0.0068577867932617664
896.0,-0.014072670601308346
960.0,-0.020817792043089867
1024.0,-0.025682950392365456
1152.0,-0.03185461834073067
1280.0,-0.033571045845746994
1408.0,-0.033948399126529694
1536.0,-0.03141895309090614
1664.0,-0.02729795314371586
1792.0,-0.02045919932425022
1920.0,-0.012692912481725216
2048.0,-0.004064586944878101
2304.0,0.006140903104096651
2560.0,0.004059554543346167
2816.0,-0.006175602320581675
3072.0,-0.011376352049410343
3328.0,-0.0016836069989949465
3584.0,0.016453705728054047
3840.0,0.03307054936885834
4096.0,0.03906017169356346
4608.0,0.012749268673360348
5120.0,-0.035009752959012985
5632.0,-0.0448150597512722
6144.0,-0.011349904350936413
6656.0,0.0045647346414625645
7168.0,0.009481356479227543
7680.0,0.005052520893514156
8192.0,-0.03866790980100632
end
