version,3.0
numOfCh,1
type,point
parent_name,c1204_0dot069-0dot01
ch_type,1_1
kcount,1
numberNandB,1
brightnessNandB,1
carpet pos,0
pc,0
Time (ms),CH1 Auto-Correlation
1.0,0.028751226142048836
2.0,0.028528768569231033
3.0,0.028308937326073647
4.0,0.028094809502363205
5.0,0.02787829376757145
6.0,0.027662210166454315
7.0,0.02745073474943638
8.0,0.027242472395300865
9.0,0.027047976851463318
10.0,0.026859009638428688
11.0,0.026669654995203018
12.0,0.026477407664060593
13.0,0.026289600878953934
14.0,0.02610631473362446
15.0,0.025927197188138962
16.0,0.02574060671031475
18.0,0.025382909923791885
20.0,0.025040006265044212
22.0,0.024700306355953217
24.0,0.024358896538615227
26.0,0.024039680138230324
28.0,0.023732196539640427
30.0,0.02343142405152321
32.0,0.023136109113693237
36.0,0.022571200504899025
40.0,0.02202218770980835
44.0,0.021487077698111534
48.0,0.020999545231461525
52.0,0.020522773265838623
56.0,0.020091118291020393
60.0,0.019653936848044395
64.0,0.019194206222891808
72.0,0.018363960087299347
80.0,0.01762857660651207
88.0,0.016979478299617767
96.0,0.016307881101965904
104.0,0.015723057091236115
112.0,0.015250353142619133
120.0,0.014767487533390522
128.0,0.01419060118496418
144.0,0.013059812597930431
160.0,0.012035716325044632
176.0,0.01120529044419527
192.0,0.0105600506067276
208.0,0.010124117136001587
224.0,0.00983099453151226
240.0,0.00977305043488741
256.0,0.009652752429246902
288.0,0.008965514600276947
320.0,0.0081291189417243
352.0,0.007554896641522646
384.0,0.006950695067644119
416.0,0.006375741679221392
448.0,0.006273656152188778
480.0,0.00673472648486495
512.0,0.006683228071779013
576.0,0.00566820940002799
640.0,0.00439815828576684
704.0,0.003653857158496976
768.0,0.0024415820371359587
832.0,0.0015641383361071348
896.0,-0.0001983203983400017
960.0,-0.0017235847190022469
1024.0,-0.0034339316189289093
1152.0,-0.0035856780596077442
1280.0,-0.0014588830526918173
1408.0,-0.0015581648331135511
1536.0,-0.0038214412052184343
1664.0,-0.006980059668421745
1792.0,-0.005383685696870089
1920.0,-0.0067198751494288445
2048.0,-0.008076654747128487
2304.0,-0.008876006118953228
2560.0,-0.0068100253120064735
2816.0,-0.0032505542039871216
3072.0,-0.00036542172892950475
3328.0,0.00013673405919689685
3584.0,0.00012178179167676717
3840.0,0.0006789300823584199
4096.0,0.0009109423845075071
4608.0,0.0031218859367072582
5120.0,0.0046524410136044025
5632.0,0.004427468404173851
6144.0,0.0025634041521698236
6656.0,-0.0004788227379322052
7168.0,-0.004674031399190426
7680.0,-0.007174812722951174
8192.0,-0.006535360123962164
end
