version,3.0
numOfCh,1
type,point
parent_name,c1204_0dot069-0dot01
ch_type,1_1
kcount,1
numberNandB,1
brightnessNandB,1
carpet pos,0
pc,0
Time (ms),CH1 Auto-Correlation
1.0,0.07089399546384811
2.0,0.07034321129322052
3.0,0.06983846426010132
4.0,0.06934786587953568
5.0,0.0688561275601387
6.0,0.06835552304983139
7.0,0.06786514818668365
8.0,0.06738171726465225
9.0,0.06687816232442856
10.0,0.06641159951686859
11.0,0.06593502312898636
12.0,0.06546177715063095
13.0,0.06495095044374466
14.0,0.06442776322364807
15.0,0.06394023448228836
16.0,0.06343970447778702
18.0,0.06252074986696243
20.0,0.061669256538152695
22.0,0.06091953441500664
24.0,0.06028925999999046
26.0,0.059712331742048264
28.0,0.05912892147898674
30.0,0.05858425796031952
32.0,0.058114729821681976
36.0,0.05733736231923103
40.0,0.0565902404487133
44.0,0.055770229548215866
48.0,0.05484253540635109
52.0,0.05383831262588501
56.0,0.05273999273777008
60.0,0.05154792591929436
64.0,0.05038062855601311
72.0,0.048261918127536774
80.0,0.04676780104637146
88.0,0.0452202707529068
96.0,0.043809499591588974
104.0,0.042808648198843
112.0,0.041921216994524
120.0,0.040929000824689865
128.0,0.03961418196558952
144.0,0.03657156601548195
160.0,0.03489655628800392
176.0,0.0326869860291481
192.0,0.030741626396775246
208.0,0.028502343222498894
224.0,0.025434846058487892
240.0,0.02316952869296074
256.0,0.020741427317261696
288.0,0.015643315389752388
320.0,0.011694596149027348
352.0,0.007643593940883875
384.0,0.004497028421610594
416.0,0.0024580599274486303
448.0,0.002128415275365114
480.0,0.0016697174869477749
512.0,0.002822822891175747
576.0,0.006506297737360001
640.0,0.014301358722150326
704.0,0.021681834012269974
768.0,0.02899462729692459
832.0,0.030428549274802208
896.0,0.029050853103399277
960.0,0.02545291557908058
1024.0,0.02017098292708397
1152.0,0.003691505640745163
1280.0,-0.004462802782654762
1408.0,-0.0011655219132080674
1536.0,0.014353973791003227
1664.0,0.018923649564385414
1792.0,0.015868885442614555
1920.0,0.009619220159947872
2048.0,-0.00378311681561172
2304.0,-0.005190651398152113
2560.0,-0.002570812124758959
2816.0,-0.00931188277900219
3072.0,-0.009115192107856274
3328.0,-0.012735635973513126
3584.0,-0.028461599722504616
3840.0,-0.03013177216053009
4096.0,-0.01007788348942995
end
