version,3.0
numOfCh,1
type,point
parent_name,c1204_0dot069-0dot01
ch_type,1_1
kcount,1
numberNandB,1
brightnessNandB,1
carpet pos,0
pc,0
Time (ms),CH1 Auto-Correlation
1.0,0.03902143985033035
2.0,0.0388391837477684
3.0,0.03865443542599678
4.0,0.038467757403850555
5.0,0.03828142210841179
6.0,0.038108620792627335
7.0,0.03793713450431824
8.0,0.03776869177818298
9.0,0.03759930655360222
10.0,0.037428658455610275
11.0,0.037254732102155685
12.0,0.03708314150571823
13.0,0.036911237984895706
14.0,0.03672931715846062
15.0,0.03654854744672775
16.0,0.03637229651212692
18.0,0.03603066876530647
20.0,0.03568863868713379
22.0,0.03534707799553871
24.0,0.03500618413090706
26.0,0.03467606380581856
28.0,0.03435688465833664
30.0,0.034047212451696396
32.0,0.03374975919723511
36.0,0.03312747925519943
40.0,0.03252294287085533
44.0,0.0319502055644989
48.0,0.03139830380678177
52.0,0.03087175451219082
56.0,0.03034612350165844
60.0,0.029832223430275917
64.0,0.02932414785027504
72.0,0.02836485579609871
80.0,0.027562448754906654
88.0,0.026896441355347633
96.0,0.026226622983813286
104.0,0.02549479529261589
112.0,0.02473071776330471
120.0,0.023995082825422287
128.0,0.02334231697022915
144.0,0.022073334082961082
160.0,0.02118542231619358
176.0,0.020104514434933662
192.0,0.019176803529262543
208.0,0.018544068560004234
224.0,0.017869897186756134
240.0,0.017081638798117638
256.0,0.016459966078400612
288.0,0.014450948685407639
320.0,0.01231673639267683
352.0,0.010967201553285122
384.0,0.009887483902275562
416.0,0.008859723806381226
448.0,0.008080876432359219
480.0,0.007085774559527636
512.0,0.005882148165255785
576.0,0.004741620738059282
640.0,0.003231491893529892
704.0,0.0017966108862310648
768.0,-0.0012632431462407112
832.0,-0.003956825938075781
896.0,-0.005859772674739361
960.0,-0.0073334043845534325
1024.0,-0.00784387905150652
1152.0,-0.005652452819049358
1280.0,-0.0027824535500258207
1408.0,-0.0007972515886649489
1536.0,-0.0009932394605129957
1664.0,0.0010561872040852904
1792.0,0.002931930124759674
1920.0,0.005186735186725855
2048.0,0.003929583355784416
2304.0,-0.0005341232754290104
2560.0,0.0033737195190042257
2816.0,0.004694784991443157
3072.0,0.0038608515169471502
3328.0,0.0032718142028898
3584.0,-0.008360498584806919
3840.0,-0.009921368211507797
4096.0,-0.008814900182187557
end
