version,3.0
numOfCh,1
type,point
parent_name,dirty_0dot1-1dot0
ch_type,1_1
kcount,1
numberNandB,1
brightnessNandB,1
carpet pos,0
pc,0
Time (ms),CH1 Auto-Correlation
1.0,0.24242419004440308
2.0,0.2246164232492447
3.0,0.20927105844020844
4.0,0.19593937695026398
5.0,0.18570296466350555
6.0,0.17648424208164215
7.0,0.16821777820587158
8.0,0.1597464382648468
9.0,0.15290378034114838
10.0,0.14635559916496277
11.0,0.14112253487110138
12.0,0.13480393588542938
13.0,0.12902872264385223
14.0,0.12451086938381195
15.0,0.1196541041135788
16.0,0.11482656002044678
18.0,0.10598593205213547
20.0,0.09667730331420898
22.0,0.09111998975276947
24.0,0.08675587922334671
26.0,0.08214294165372849
28.0,0.07957104593515396
30.0,0.07770237326622009
32.0,0.07475461065769196
36.0,0.06882968544960022
40.0,0.06200952082872391
44.0,0.057741399854421616
48.0,0.06012287735939026
52.0,0.06153368204832077
56.0,0.06104056164622307
60.0,0.05781920254230499
64.0,0.0574956014752388
72.0,0.051953740417957306
80.0,0.04741809144616127
88.0,0.047078900039196014
96.0,0.04319964721798897
104.0,0.038796551525592804
112.0,0.036252230405807495
120.0,0.03379468247294426
128.0,0.036636121571063995
144.0,0.04615933075547218
160.0,0.057338692247867584
176.0,0.05631924420595169
192.0,0.049488890916109085
208.0,0.04759105294942856
224.0,0.04061172157526016
240.0,0.028942663222551346
256.0,0.024185780435800552
288.0,0.02425510622560978
320.0,0.020777691155672073
352.0,0.015643427148461342
384.0,0.01361976657062769
416.0,0.011742754839360714
448.0,0.011045979335904121
480.0,0.01174973789602518
512.0,0.007027840707451105
576.0,0.004732951987534761
640.0,0.009868690744042397
704.0,0.005171111319214106
768.0,0.008067886345088482
832.0,0.013673506677150726
896.0,0.0024416972883045673
960.0,0.012213905341923237
1024.0,0.01056936476379633
1152.0,-0.005718554370105267
1280.0,-0.013436404056847095
1408.0,-0.017176078632473946
1536.0,-0.019787276163697243
1664.0,-0.018215645104646683
1792.0,-0.010692805051803589
1920.0,0.001380937290377915
2048.0,0.011025778949260712
2304.0,0.006484851241111755
2560.0,0.00413947319611907
2816.0,0.015371483750641346
3072.0,0.010515655390918255
3328.0,-0.018109289929270744
3584.0,-0.02662106417119503
3840.0,-0.01969921961426735
4096.0,-0.015481341630220413
4608.0,-0.0032227113842964172
5120.0,0.009609105996787548
5632.0,-0.005701923742890358
6144.0,-0.026071231812238693
6656.0,-0.018671076744794846
7168.0,0.0021286853589117527
7680.0,0.015133936889469624
8192.0,0.0016678126994520426
9216.0,0.0026289373636245728
10240.0,0.016688687726855278
11264.0,-0.0019690939225256443
12288.0,-0.005841745994985104
13312.0,0.0032910392619669437
14336.0,0.00011064788850490004
end
