version,3.0
numOfCh,1
type,point
parent_name,dirty_0dot1-1dot0
ch_type,1_1
kcount,1
numberNandB,1
brightnessNandB,1
carpet pos,0
pc,0
Time (ms),CH1 Auto-Correlation
1.0,0.28602659702301025
2.0,0.266254723072052
3.0,0.24658028781414032
4.0,0.23042833805084229
5.0,0.2147432416677475
6.0,0.2010955661535263
7.0,0.18839693069458008
8.0,0.17597272992134094
9.0,0.16302384436130524
10.0,0.15334179997444153
11.0,0.14682674407958984
12.0,0.14138348400592804
13.0,0.1350194662809372
14.0,0.13093172013759613
15.0,0.12785686552524567
16.0,0.1241622194647789
18.0,0.11435972154140472
20.0,0.10662873834371567
22.0,0.09910766035318375
24.0,0.08958018571138382
26.0,0.08055616915225983
28.0,0.0763373151421547
30.0,0.07366323471069336
32.0,0.0712742805480957
36.0,0.06854375451803207
40.0,0.06363198906183243
44.0,0.060237590223550797
48.0,0.05592728406190872
52.0,0.0548875592648983
56.0,0.05558941140770912
60.0,0.05566764250397682
64.0,0.053195156157016754
72.0,0.0486312136054039
80.0,0.04045199230313301
88.0,0.03018510341644287
96.0,0.026395730674266815
104.0,0.024164186790585518
112.0,0.022648675367236137
120.0,0.024130508303642273
128.0,0.02392975054681301
144.0,0.01459354255348444
160.0,0.015382100827991962
176.0,0.01630070060491562
192.0,0.017295775935053825
208.0,0.01563308574259281
224.0,0.010882558301091194
240.0,0.009621480479836464
256.0,0.0068412539549171925
288.0,0.007998255081474781
320.0,0.010364782065153122
352.0,0.005216516554355621
384.0,0.005424804985523224
416.0,0.012787725776433945
448.0,0.004541029687970877
480.0,0.004051218740642071
512.0,-0.0017360761994495988
576.0,0.0033826560247689486
640.0,0.01001535914838314
704.0,-0.007175949402153492
768.0,-0.0057562715373933315
832.0,-0.010851792991161346
896.0,-0.019418740645051003
960.0,-0.016036277636885643
1024.0,-0.018529927358031273
1152.0,-0.00658137071877718
1280.0,0.0067495726980268955
1408.0,0.010444721207022667
1536.0,0.003974274266511202
1664.0,0.002002087887376547
1792.0,0.016566291451454163
1920.0,0.010615730658173561
2048.0,0.023378994315862656
2304.0,0.002695452654734254
2560.0,0.004310527350753546
2816.0,0.003038820344954729
3072.0,0.0029744321946054697
3328.0,-0.006202949211001396
3584.0,0.0021973818074911833
3840.0,-0.0042564757168293
4096.0,0.013168318197131157
4608.0,0.011564647778868675
5120.0,-0.0013234622310847044
5632.0,-0.006196736823767424
6144.0,-0.009676164947450161
6656.0,-0.0062397560104727745
7168.0,0.01479469146579504
7680.0,-0.008217014372348785
8192.0,-0.021917011588811874
9216.0,-0.009454617276787758
10240.0,-0.011323465034365654
11264.0,-0.002217366360127926
12288.0,-0.013235471211373806
13312.0,-0.010859019123017788
14336.0,-0.002749678213149309
end
