version,3.0
numOfCh,1
type,point
parent_name,dirty_0dot1-1dot0
ch_type,1_1
kcount,1
numberNandB,1
brightnessNandB,1
carpet pos,0
pc,0
Time (ms),CH1 Auto-Correlation
1.0,0.2796149253845215
2.0,0.25773024559020996
3.0,0.23649510741233826
4.0,0.2183750867843628
5.0,0.2046402394771576
6.0,0.1955931931734085
7.0,0.18779757618904114
8.0,0.1808241754770279
9.0,0.17425541579723358
10.0,0.16804026067256927
11.0,0.16174620389938354
12.0,0.15573883056640625
13.0,0.14891037344932556
14.0,0.14368528127670288
15.0,0.13815118372440338
16.0,0.1338866800069809
18.0,0.12965048849582672
20.0,0.1274278312921524
22.0,0.12528347969055176
24.0,0.11995551735162735
26.0,0.11440123617649078
28.0,0.10838226974010468
30.0,0.10161025822162628
32.0,0.09622765332460403
36.0,0.08968590945005417
40.0,0.08334226161241531
44.0,0.08145036548376083
48.0,0.07873759418725967
52.0,0.07570458203554153
56.0,0.07351600378751755
60.0,0.06989555060863495
64.0,0.06925392150878906
72.0,0.06801106035709381
80.0,0.059133805334568024
88.0,0.0477733388543129
96.0,0.03920673206448555
104.0,0.033017661422491074
112.0,0.036811940371990204
120.0,0.04687982425093651
128.0,0.04414830729365349
144.0,0.048391275107860565
160.0,0.03607942909002304
176.0,0.03252588212490082
192.0,0.027706369757652283
208.0,0.027788076549768448
224.0,0.02091224491596222
240.0,0.02370314858853817
256.0,0.03572139889001846
288.0,0.04668276384472847
320.0,0.0539679192006588
352.0,0.0595531240105629
384.0,0.03732702508568764
416.0,0.0313064269721508
448.0,0.020380958914756775
480.0,0.030189555138349533
512.0,0.030486837029457092
576.0,0.031197551637887955
640.0,0.03038654290139675
704.0,0.021368999034166336
768.0,0.009000658988952637
832.0,0.0193540807813406
896.0,0.015123134478926659
960.0,0.015448875725269318
1024.0,0.003947634715586901
1152.0,-0.007914374582469463
1280.0,-0.0037016801070421934
1408.0,0.0007253465009853244
1536.0,0.0017884986009448767
1664.0,-0.0005829082219861448
1792.0,0.0013979485956951976
1920.0,-0.0071611651219427586
2048.0,0.0034824744798243046
2304.0,0.00833910796791315
2560.0,0.005509357899427414
2816.0,0.003482577856630087
3072.0,-0.0015473326202481985
3328.0,-0.002581764478236437
3584.0,-0.012865596450865269
3840.0,-0.006760038435459137
4096.0,-0.0048009660094976425
4608.0,-0.00030524356407113373
5120.0,-0.005551143083721399
5632.0,-0.009301619604229927
6144.0,-0.014149799942970276
6656.0,-0.017560318112373352
7168.0,-0.0212163757532835
7680.0,-0.009190990589559078
8192.0,0.0021760931704193354
9216.0,-0.00867096334695816
10240.0,-0.017536018043756485
11264.0,0.014875235967338085
12288.0,0.022297419607639313
13312.0,0.038882628083229065
14336.0,-0.031958550214767456
end
