version,3.0
numOfCh,1
type,point
parent_name,dirty_0dot1-1dot0
ch_type,1_1
kcount,1
numberNandB,1
brightnessNandB,1
carpet pos,0
pc,0
Time (ms),CH1 Auto-Correlation
1.0,0.2669202387332916
2.0,0.2403363138437271
3.0,0.22083669900894165
4.0,0.20389986038208008
5.0,0.1912470906972885
6.0,0.18303565680980682
7.0,0.1747853308916092
8.0,0.17008017003536224
9.0,0.16300062835216522
10.0,0.15438327193260193
11.0,0.14605297148227692
12.0,0.13931109011173248
13.0,0.13479752838611603
14.0,0.1318158358335495
15.0,0.12797507643699646
16.0,0.12339943647384644
18.0,0.11793600022792816
20.0,0.10772338509559631
22.0,0.09752026200294495
24.0,0.09116663783788681
26.0,0.08815161883831024
28.0,0.08436218649148941
30.0,0.07812131941318512
32.0,0.0727313831448555
36.0,0.06977773457765579
40.0,0.06429021060466766
44.0,0.06175459176301956
48.0,0.05764693021774292
52.0,0.05275554955005646
56.0,0.05061003193259239
60.0,0.047589320689439774
64.0,0.04497155174612999
72.0,0.0416337251663208
80.0,0.041062675416469574
88.0,0.03801184520125389
96.0,0.03554656356573105
104.0,0.035652898252010345
112.0,0.030173391103744507
120.0,0.024151170626282692
128.0,0.021569419652223587
144.0,0.017661865800619125
160.0,0.014490979723632336
176.0,0.011930926702916622
192.0,0.011018285527825356
208.0,0.009338250383734703
224.0,0.004642636980861425
240.0,0.0011960455449298024
256.0,0.005345545709133148
288.0,0.023823687806725502
320.0,0.01834803633391857
352.0,0.009328820742666721
384.0,0.0029882907401770353
416.0,0.0018992297118529677
448.0,0.007051386404782534
480.0,0.010986920446157455
512.0,0.0060252295807003975
576.0,0.015897657722234726
640.0,0.0012397562386468053
704.0,-5.455572681967169e-05
768.0,-0.0013845555949956179
832.0,-0.0015766185242682695
896.0,-0.004347641486674547
960.0,-0.00499950023368001
1024.0,-0.005531468894332647
1152.0,-0.013930359855294228
1280.0,-0.002331407042220235
1408.0,-0.009894464164972305
1536.0,-0.005415326915681362
1664.0,-0.0042073833756148815
1792.0,-0.006823002826422453
1920.0,-0.0038420793134719133
2048.0,0.006139066070318222
2304.0,0.0133622782304883
2560.0,-0.0014860379742458463
2816.0,5.290265835355967e-05
3072.0,0.006765225902199745
3328.0,0.003486759727820754
3584.0,0.004209088161587715
3840.0,-0.002601835411041975
4096.0,-0.004372370894998312
4608.0,-0.003781404346227646
5120.0,-0.015300878323614597
5632.0,-0.012417471036314964
6144.0,-0.0016285122837871313
6656.0,0.0040121423080563545
7168.0,-0.004778404254466295
7680.0,-0.00530663039535284
8192.0,-0.008571748621761799
9216.0,0.004520784597843885
10240.0,-0.0032798859756439924
11264.0,0.01221428345888853
12288.0,-0.006120358593761921
13312.0,0.0016837612492963672
14336.0,0.0019807531498372555
end
