version,3.0
numOfCh,1
type,point
parent_name,dirty_0dot1-1dot0
ch_type,1_1
kcount,1
numberNandB,1
brightnessNandB,1
carpet pos,0
pc,0
Time (ms),CH1 Auto-Correlation
1.0,0.4143112599849701
2.0,0.38538625836372375
3.0,0.355063796043396
4.0,0.3304188847541809
5.0,0.3099097013473511
6.0,0.2925771474838257
7.0,0.2766296863555908
8.0,0.2660689651966095
9.0,0.25180280208587646
10.0,0.23940317332744598
11.0,0.2287466824054718
12.0,0.21986961364746094
13.0,0.21127288043498993
14.0,0.20280086994171143
15.0,0.194693461060524
16.0,0.18574588000774384
18.0,0.17263871431350708
20.0,0.16075198352336884
22.0,0.15149983763694763
24.0,0.14247865974903107
26.0,0.1311626434326172
28.0,0.11986269056797028
30.0,0.10942850261926651
32.0,0.10051874071359634
36.0,0.08147319406270981
40.0,0.07116822153329849
44.0,0.06627712398767471
48.0,0.0661001205444336
52.0,0.06933727860450745
56.0,0.07052221149206161
60.0,0.06731726229190826
64.0,0.0618479885160923
72.0,0.05738310143351555
80.0,0.06033637002110481
88.0,0.04197024181485176
96.0,0.03491000086069107
104.0,0.041345417499542236
112.0,0.042067237198352814
120.0,0.02927401289343834
128.0,0.027397843077778816
144.0,0.02390766143798828
160.0,0.02191612869501114
176.0,0.002694920403882861
192.0,-0.0007463740766979754
208.0,-0.00080944161163643
224.0,0.0014981923159211874
240.0,0.010596543550491333
256.0,0.005507688038051128
288.0,0.008562794886529446
320.0,-0.000756208726670593
352.0,-0.014753056690096855
384.0,-0.01608649455010891
416.0,-0.017417840659618378
448.0,-0.018400415778160095
480.0,-0.015408957377076149
512.0,-0.00976204127073288
576.0,-0.003459540894255042
640.0,0.0032778908498585224
704.0,-0.0007545461412519217
768.0,0.009933586232364178
832.0,0.00489414855837822
896.0,-0.0037200110964477062
960.0,-0.008053659461438656
1024.0,-0.02504071034491062
1152.0,-0.013009753078222275
1280.0,0.02629828453063965
1408.0,-0.009469501674175262
1536.0,-0.02040722221136093
1664.0,-0.02242930419743061
1792.0,-0.003952406346797943
1920.0,0.010806428268551826
2048.0,0.03876587003469467
2304.0,-0.007641108240932226
2560.0,0.0006374376243911684
2816.0,-0.014426413923501968
3072.0,0.010808737948536873
3328.0,0.012678481638431549
3584.0,-0.004357936792075634
3840.0,0.00746952323243022
4096.0,-0.008975610136985779
4608.0,-0.02565833367407322
5120.0,-0.005380596965551376
5632.0,0.01595178060233593
6144.0,0.004977808333933353
6656.0,-0.009346423670649529
7168.0,-0.004067689646035433
7680.0,-0.004478768911212683
8192.0,-0.00849738996475935
9216.0,0.01689225435256958
10240.0,-0.011677139438688755
11264.0,0.008659733459353447
12288.0,0.0003753449709620327
13312.0,-0.01611730270087719
14336.0,0.014449012465775013
end
