version,3.0
numOfCh,1
type,point
parent_name,dirty_0dot1-1dot0
ch_type,1_1
kcount,1
numberNandB,1
brightnessNandB,1
carpet pos,0
pc,0
Time (ms),CH1 Auto-Correlation
1.0,0.14349475502967834
2.0,0.1305306851863861
3.0,0.12058037519454956
4.0,0.11215270310640335
5.0,0.10467645525932312
6.0,0.09765546768903732
7.0,0.09167750924825668
8.0,0.08667592704296112
9.0,0.0807911828160286
10.0,0.07651981711387634
11.0,0.0726117417216301
12.0,0.06990757584571838
13.0,0.06641639769077301
14.0,0.06231755390763283
15.0,0.05858251079916954
16.0,0.05586016923189163
18.0,0.05187561735510826
20.0,0.049334604293107986
22.0,0.04573922976851463
24.0,0.04154951497912407
26.0,0.03723028674721718
28.0,0.03398062661290169
30.0,0.031464576721191406
32.0,0.029460791498422623
36.0,0.030179940164089203
40.0,0.030998470261693
44.0,0.031221725046634674
48.0,0.03236103430390358
52.0,0.03140054643154144
56.0,0.033526964485645294
60.0,0.031226785853505135
64.0,0.027638869360089302
72.0,0.023168029263615608
80.0,0.01681724190711975
88.0,0.016238801181316376
96.0,0.01870439574122429
104.0,0.01885927841067314
112.0,0.01749330572783947
120.0,0.010924533009529114
128.0,0.005572993773967028
144.0,0.00572077464312315
160.0,0.010232806205749512
176.0,0.005646653939038515
192.0,-0.002124579157680273
208.0,0.0003211863513570279
224.0,0.0017942433478310704
240.0,0.0011457728687673807
256.0,0.0013919647317379713
288.0,0.0074295904487371445
320.0,0.006606170907616615
352.0,0.002614217344671488
384.0,0.002425702754408121
416.0,0.0017115497030317783
448.0,0.0032813583966344595
480.0,0.0034507347736507654
512.0,0.0021507791243493557
576.0,0.003882962977513671
640.0,0.0011886627180501819
704.0,-3.3946016628760844e-05
768.0,0.0023413512390106916
832.0,0.0021343594416975975
896.0,0.0026451803278177977
960.0,0.004089478403329849
1024.0,0.002514272928237915
1152.0,-0.001578239374794066
1280.0,0.0022474792785942554
1408.0,-0.002671309746801853
1536.0,-0.0013627383159473538
1664.0,-0.0028427133802324533
1792.0,-0.001942529808729887
1920.0,-0.0017033187905326486
2048.0,-0.0034706350415945053
2304.0,-0.00752234784886241
2560.0,-0.005521396175026894
2816.0,-0.005247544031590223
3072.0,-0.002691302914172411
3328.0,-0.001591865555383265
3584.0,0.0016248610336333513
3840.0,-0.0021282013040035963
4096.0,0.0006232691230252385
4608.0,0.00601159268990159
5120.0,0.00572718121111393
5632.0,0.0003700849774759263
6144.0,-0.0010794454719871283
6656.0,-0.00490891607478261
7168.0,-0.005409455858170986
7680.0,-0.0036835360806435347
8192.0,0.0031194561161100864
9216.0,0.004026839509606361
10240.0,-0.00030340856756083667
11264.0,-0.006902036722749472
12288.0,-0.003878259565681219
13312.0,0.0009144264622591436
14336.0,0.004494587890803814
end
