version,3.0
numOfCh,1
type,point
parent_name,dirty_0dot1-1dot0
ch_type,1_1
kcount,1
numberNandB,1
brightnessNandB,1
carpet pos,0
pc,0
Time (ms),CH1 Auto-Correlation
1.0,0.4980437755584717
2.0,0.4698215126991272
3.0,0.44247281551361084
4.0,0.420383095741272
5.0,0.3972362279891968
6.0,0.37531954050064087
7.0,0.35644590854644775
8.0,0.33954963088035583
9.0,0.32359030842781067
10.0,0.3095577359199524
11.0,0.2999494969844818
12.0,0.2870534360408783
13.0,0.276259183883667
14.0,0.2664138078689575
15.0,0.2586003839969635
16.0,0.24811804294586182
18.0,0.23001179099082947
20.0,0.21385572850704193
22.0,0.19910383224487305
24.0,0.1872188001871109
26.0,0.17690260708332062
28.0,0.16952349245548248
30.0,0.16377364099025726
32.0,0.1587403118610382
36.0,0.1492055356502533
40.0,0.14734695851802826
44.0,0.14110460877418518
48.0,0.13127316534519196
52.0,0.12434431910514832
56.0,0.11884523183107376
60.0,0.10953893512487411
64.0,0.10799591988325119
72.0,0.10561184585094452
80.0,0.09418037533760071
88.0,0.08556550741195679
96.0,0.08963432163000107
104.0,0.08677756786346436
112.0,0.09301786869764328
120.0,0.08098568767309189
128.0,0.0627550408244133
144.0,0.049222517758607864
160.0,0.02487187646329403
176.0,0.027510838583111763
192.0,0.036391641944646835
208.0,0.05412876978516579
224.0,0.048928964883089066
240.0,0.03469904884696007
256.0,0.025389673188328743
288.0,0.029830411076545715
320.0,0.023107457906007767
352.0,0.024679522961378098
384.0,0.004586290568113327
416.0,0.014154825359582901
448.0,0.01255770307034254
480.0,0.008116156794130802
512.0,0.011127608828246593
576.0,0.0019646091386675835
640.0,-0.0070234728045761585
704.0,0.005402013659477234
768.0,0.03995927795767784
832.0,0.068987175822258
896.0,0.05118061602115631
960.0,0.05331297218799591
1024.0,0.033313583582639694
1152.0,0.03273942694067955
1280.0,0.03402530774474144
1408.0,0.00777497049421072
1536.0,-0.004030483774840832
1664.0,-0.006175688933581114
1792.0,-0.011502412147819996
1920.0,-0.0065710959024727345
2048.0,0.012205368839204311
2304.0,-0.0006011843797750771
2560.0,-0.013187503442168236
2816.0,-0.028376413509249687
3072.0,-0.03494257479906082
3328.0,-0.026758022606372833
3584.0,-0.008905724622309208
3840.0,-0.022994941100478172
4096.0,-0.02151617407798767
4608.0,0.02475680410861969
5120.0,-0.011149998754262924
5632.0,0.03488672897219658
6144.0,-0.011165277101099491
6656.0,0.016025617718696594
7168.0,-0.017234748229384422
7680.0,-0.020283415913581848
8192.0,-0.0355045460164547
9216.0,-0.024075819179415703
10240.0,-0.015603750012814999
11264.0,0.01523275300860405
12288.0,0.004922513384371996
13312.0,0.0009038593852892518
14336.0,-0.015711018815636635
end
