version,3.0
numOfCh,1
type,point
parent_name,dirty_0dot1-1dot0
ch_type,1_1
kcount,1
numberNandB,1
brightnessNandB,1
carpet pos,0
pc,0
Time (ms),CH1 Auto-Correlation
1.0,0.22328436374664307
2.0,0.20852641761302948
3.0,0.19375786185264587
4.0,0.18055593967437744
5.0,0.16946877539157867
6.0,0.15949049592018127
7.0,0.15044668316841125
8.0,0.1420857012271881
9.0,0.13487094640731812
10.0,0.12844429910182953
11.0,0.12384512275457382
12.0,0.12028278410434723
13.0,0.1162697896361351
14.0,0.11344767361879349
15.0,0.11197234690189362
16.0,0.10986323654651642
18.0,0.10463152825832367
20.0,0.09950444102287292
22.0,0.09440486878156662
24.0,0.0888579860329628
26.0,0.08458711206912994
28.0,0.0794125571846962
30.0,0.07352549582719803
32.0,0.0678769126534462
36.0,0.06158071383833885
40.0,0.05699878931045532
44.0,0.05320554971694946
48.0,0.04807095229625702
52.0,0.0440860353410244
56.0,0.0378824882209301
60.0,0.032904002815485
64.0,0.029923327267169952
72.0,0.023817768320441246
80.0,0.020031694322824478
88.0,0.01917753554880619
96.0,0.01615283079445362
104.0,0.013352807611227036
112.0,0.010330550372600555
120.0,0.007134753745049238
128.0,0.0042512789368629456
144.0,0.0055505093187093735
160.0,0.0013025252847000957
176.0,-0.006671303417533636
192.0,-0.004127283580601215
208.0,-0.006363628897815943
224.0,-0.0012351841432973742
240.0,0.0005744303343817592
256.0,-0.0018083452014252543
288.0,-0.0002462165430188179
320.0,0.00487340847030282
352.0,0.008436103351414204
384.0,0.013775436207652092
416.0,0.01612420752644539
448.0,0.01912578195333481
480.0,0.013181121088564396
512.0,0.006997394375503063
576.0,0.0006573741557076573
640.0,-0.00823887437582016
704.0,-0.003951809369027615
768.0,-0.006604101974517107
832.0,-0.009611992165446281
896.0,-0.01393361110240221
960.0,-0.011407937854528427
1024.0,-0.006819733418524265
1152.0,0.00011231348617002368
1280.0,-0.00933134276419878
1408.0,-0.002654246287420392
1536.0,0.007845775224268436
1664.0,0.0010664301225915551
1792.0,0.004882965702563524
1920.0,0.005849127192050219
2048.0,0.005786542315036058
2304.0,-0.0003493005351629108
2560.0,-0.005287343170493841
2816.0,0.0016904289368540049
3072.0,-0.0024976676795631647
3328.0,-0.0037293031346052885
3584.0,-0.0050293998792767525
3840.0,-0.009121074341237545
4096.0,0.004401590675115585
4608.0,-0.0036788417492061853
5120.0,-0.00819135271012783
5632.0,-0.0054772766306996346
6144.0,0.005118746310472488
6656.0,0.0010359609732404351
7168.0,-0.0012639784254133701
7680.0,-0.0025923007633537054
8192.0,0.01107825618237257
9216.0,-0.003710966557264328
10240.0,0.0064709484577178955
11264.0,-0.009180445224046707
12288.0,0.00932282954454422
13312.0,-0.010065372101962566
14336.0,0.005519513040781021
end
