version,3.0
numOfCh,1
type,point
parent_name,dirty_0dot1-1dot0
ch_type,1_1
kcount,1
numberNandB,1
brightnessNandB,1
carpet pos,0
pc,0
Time (ms),CH1 Auto-Correlation
1.0,0.18980036675930023
2.0,0.17809125781059265
3.0,0.1671983301639557
4.0,0.1572321206331253
5.0,0.1493305116891861
6.0,0.14361843466758728
7.0,0.13812020421028137
8.0,0.13307657837867737
9.0,0.12660478055477142
10.0,0.11998650431632996
11.0,0.11528254300355911
12.0,0.11172817647457123
13.0,0.10877639055252075
14.0,0.1055096685886383
15.0,0.10323230922222137
16.0,0.1009148508310318
18.0,0.09635226428508759
20.0,0.09176604449748993
22.0,0.08751540631055832
24.0,0.08458483964204788
26.0,0.08068408071994781
28.0,0.0757564827799797
30.0,0.07114572077989578
32.0,0.06683916598558426
36.0,0.06098160520195961
40.0,0.05653580650687218
44.0,0.053540896624326706
48.0,0.0503118522465229
52.0,0.04615027457475662
56.0,0.04130417853593826
60.0,0.03899814188480377
64.0,0.03660937398672104
72.0,0.033753205090761185
80.0,0.032793086022138596
88.0,0.03427201136946678
96.0,0.034243009984493256
104.0,0.030067553743720055
112.0,0.029201367869973183
120.0,0.029017595574259758
128.0,0.025905059650540352
144.0,0.02380899153649807
160.0,0.02476741373538971
176.0,0.026791738346219063
192.0,0.02054882049560547
208.0,0.017382295802235603
224.0,0.018821919336915016
240.0,0.01981930248439312
256.0,0.022269345819950104
288.0,0.024103308096528053
320.0,0.01658736914396286
352.0,0.012536170892417431
384.0,0.010468367487192154
416.0,0.00783468782901764
448.0,0.00421385932713747
480.0,0.0034450178500264883
512.0,0.005791452247649431
576.0,0.0012696648482233286
640.0,0.006469083018600941
704.0,0.010503700003027916
768.0,0.011776267550885677
832.0,0.006769811734557152
896.0,0.015572970733046532
960.0,0.029606066644191742
1024.0,0.016914930194616318
1152.0,0.006191333290189505
1280.0,-0.006800569593906403
1408.0,0.0007488892879337072
1536.0,-0.0030319897923618555
1664.0,-0.006724566221237183
1792.0,-0.004564245231449604
1920.0,-0.009247559122741222
2048.0,-0.006682075560092926
2304.0,-0.001273935311473906
2560.0,0.00762407248839736
2816.0,-0.007098670117557049
3072.0,-0.005967744626104832
3328.0,0.01119213830679655
3584.0,0.014636742882430553
3840.0,-0.004876222927123308
4096.0,-0.008220569230616093
4608.0,-0.0035663521848618984
5120.0,-0.01111480314284563
5632.0,-0.01159903034567833
6144.0,-0.0078069609589874744
6656.0,-0.0012785710860043764
7168.0,0.008524677716195583
7680.0,0.004203214310109615
8192.0,-0.004267469979822636
9216.0,-0.019339626654982567
10240.0,-0.008226157166063786
11264.0,-0.009313142858445644
12288.0,-0.010857770219445229
13312.0,0.009052468463778496
14336.0,0.03994746133685112
end
