version,3.0
numOfCh,1
type,point
parent_name,dirty_0dot1-1dot0
ch_type,1_1
kcount,1
numberNandB,1
brightnessNandB,1
carpet pos,0
pc,0
Time (ms),CH1 Auto-Correlation
1.0,0.4487990736961365
2.0,0.4203477203845978
3.0,0.39401865005493164
4.0,0.37247228622436523
5.0,0.35369816422462463
6.0,0.3344825208187103
7.0,0.31459784507751465
8.0,0.2977730631828308
9.0,0.2790824770927429
10.0,0.2663000822067261
11.0,0.253269761800766
12.0,0.24056729674339294
13.0,0.23081810772418976
14.0,0.2210913598537445
15.0,0.2116260677576065
16.0,0.2039102464914322
18.0,0.18549078702926636
20.0,0.1677623689174652
22.0,0.1532522737979889
24.0,0.13951683044433594
26.0,0.12682417035102844
28.0,0.11395672708749771
30.0,0.10367249697446823
32.0,0.09656146168708801
36.0,0.09076472371816635
40.0,0.08430261164903641
44.0,0.07791872322559357
48.0,0.06680748611688614
52.0,0.05546330660581589
56.0,0.050283998250961304
60.0,0.04369470849633217
64.0,0.03532691299915314
72.0,0.021656570956110954
80.0,0.028008613735437393
88.0,0.029364749789237976
96.0,0.02526979148387909
104.0,0.008704102598130703
112.0,-0.003135757287964225
120.0,-0.00486759003251791
128.0,-0.0039953915402293205
144.0,0.015218518674373627
160.0,0.016446992754936218
176.0,0.022945700213313103
192.0,0.016543488949537277
208.0,0.015545141883194447
224.0,0.022685812786221504
240.0,0.02796652726829052
256.0,0.015556061640381813
288.0,0.01387242041528225
320.0,0.03146228566765785
352.0,0.027458956465125084
384.0,0.013937912881374359
416.0,0.040937330573797226
448.0,0.04210637882351875
480.0,0.007945443503558636
512.0,-0.0006630769348703325
576.0,-0.0027926494367420673
640.0,0.00471115717664361
704.0,-0.0008049161406233907
768.0,-0.0009671758743934333
832.0,0.00775949889793992
896.0,-0.0015544540947303176
960.0,0.0018162671476602554
1024.0,-0.010237624868750572
1152.0,0.0005610587541013956
1280.0,-0.01088269054889679
1408.0,-0.018724679946899414
1536.0,-0.018267372623085976
1664.0,-0.02200172282755375
1792.0,-0.013695022091269493
1920.0,-0.018332429230213165
2048.0,-0.021008487790822983
2304.0,-0.006624820176512003
2560.0,-0.006825480610132217
2816.0,-0.0068598659709095955
3072.0,-0.0038081826642155647
3328.0,-0.004870040807873011
3584.0,-0.00681796669960022
3840.0,-0.009485590271651745
4096.0,-0.0021688458509743214
4608.0,0.012752940878272057
5120.0,-0.0013028280809521675
5632.0,0.008358234539628029
6144.0,-0.004095482639968395
6656.0,-0.004638706799596548
7168.0,0.010147211141884327
7680.0,0.005281014367938042
8192.0,0.007238886784762144
9216.0,-0.009899109601974487
10240.0,-0.016311993822455406
11264.0,0.006557397078722715
12288.0,0.017075106501579285
13312.0,0.010592026636004448
14336.0,-0.027243971824645996
end
