version,3.0
numOfCh,1
type,point
parent_name,dirty_0dot1-1dot0
ch_type,1_1
kcount,1
numberNandB,1
brightnessNandB,1
carpet pos,0
pc,0
Time (ms),CH1 Auto-Correlation
1.0,0.4393424391746521
2.0,0.409965455532074
3.0,0.386452853679657
4.0,0.36472463607788086
5.0,0.3463093340396881
6.0,0.3320140242576599
7.0,0.3165205717086792
8.0,0.3001693785190582
9.0,0.2842496931552887
10.0,0.26957666873931885
11.0,0.25600242614746094
12.0,0.24583914875984192
13.0,0.23618467152118683
14.0,0.22494570910930634
15.0,0.21591278910636902
16.0,0.20989753305912018
18.0,0.196748748421669
20.0,0.17902477085590363
22.0,0.16405029594898224
24.0,0.15162697434425354
26.0,0.14071333408355713
28.0,0.13205839693546295
30.0,0.1251043677330017
32.0,0.12059622257947922
36.0,0.11426571756601334
40.0,0.11117680370807648
44.0,0.10727214813232422
48.0,0.10437384247779846
52.0,0.09939171373844147
56.0,0.08618845790624619
60.0,0.07517311722040176
64.0,0.06926681101322174
72.0,0.05930550768971443
80.0,0.05545305460691452
88.0,0.045120593160390854
96.0,0.03614368289709091
104.0,0.02672530524432659
112.0,0.01700839027762413
120.0,0.012159421108663082
128.0,0.010961594060063362
144.0,0.01967344619333744
160.0,0.013897763565182686
176.0,0.0030592905823141336
192.0,0.0033558921422809362
208.0,0.009290512651205063
224.0,0.0008773634326644242
240.0,0.007931909523904324
256.0,0.017025373876094818
288.0,0.007689432706683874
320.0,0.033334746956825256
352.0,0.023935221135616302
384.0,0.026228338479995728
416.0,0.036731164902448654
448.0,0.03546890988945961
480.0,0.05331071466207504
512.0,0.061070725321769714
576.0,0.02146908827126026
640.0,0.014308243058621883
704.0,-0.0025817742571234703
768.0,0.005230356007814407
832.0,0.0023509105667471886
896.0,0.009551835246384144
960.0,0.012649661861360073
1024.0,0.01848643086850643
1152.0,-0.016481952741742134
1280.0,-0.013969793915748596
1408.0,0.03924313932657242
1536.0,0.012426165863871574
1664.0,-0.018796101212501526
1792.0,0.0036114880349487066
1920.0,0.020291466265916824
2048.0,0.005876186303794384
2304.0,-0.022294629365205765
2560.0,-0.012910186313092709
2816.0,-0.010376541875302792
3072.0,-0.013889245688915253
3328.0,-0.0055894870311021805
3584.0,-0.011959606781601906
3840.0,-0.0059235962107777596
4096.0,0.0019647753797471523
4608.0,0.01690073125064373
5120.0,0.004057610407471657
5632.0,-0.00028073613066226244
6144.0,-0.003310456406325102
6656.0,-0.014639556407928467
7168.0,-0.0360468365252018
7680.0,-0.019069895148277283
8192.0,-0.01664862409234047
9216.0,-0.009286624379456043
10240.0,0.003427161369472742
11264.0,0.012042260728776455
12288.0,-0.009287342429161072
13312.0,0.0050524878315627575
14336.0,0.005587870255112648
end
