version,3.0
numOfCh,1
type,point
parent_name,dirty_0dot1-1dot0
ch_type,1_1
kcount,1
numberNandB,1
brightnessNandB,1
carpet pos,0
pc,0
Time (ms),CH1 Auto-Correlation
1.0,0.3042553663253784
2.0,0.2835644781589508
3.0,0.26380202174186707
4.0,0.24875426292419434
5.0,0.23505152761936188
6.0,0.2236645519733429
7.0,0.21107029914855957
8.0,0.19845543801784515
9.0,0.18666212260723114
10.0,0.17680928111076355
11.0,0.1702047884464264
12.0,0.16078132390975952
13.0,0.15407386422157288
14.0,0.14935356378555298
15.0,0.14489500224590302
16.0,0.13843393325805664
18.0,0.13016706705093384
20.0,0.12248440831899643
22.0,0.11534654349088669
24.0,0.10979671031236649
26.0,0.1051054447889328
28.0,0.09929248690605164
30.0,0.09222967177629471
32.0,0.08898688852787018
36.0,0.08395170420408249
40.0,0.07975492626428604
44.0,0.07526282221078873
48.0,0.06889748573303223
52.0,0.06320548057556152
56.0,0.05907006561756134
60.0,0.052226532250642776
64.0,0.04371862858533859
72.0,0.03373647853732109
80.0,0.028090516105294228
88.0,0.02666725590825081
96.0,0.02298327162861824
104.0,0.017739810049533844
112.0,0.014646337367594242
120.0,0.011335831135511398
128.0,0.013158808462321758
144.0,0.017989717423915863
160.0,0.01688329316675663
176.0,0.01897585205733776
192.0,0.02001669816672802
208.0,0.021426359191536903
224.0,0.010856501758098602
240.0,0.005353658460080624
256.0,0.005393892526626587
288.0,-0.0007542117964476347
320.0,0.0007963190437294543
352.0,-0.006047965958714485
384.0,-0.008718621917068958
416.0,-0.0025045687798410654
448.0,0.0007821391336619854
480.0,0.008223481476306915
512.0,0.002613832475617528
576.0,-0.0008344233501702547
640.0,-0.008839504793286324
704.0,-0.007281416095793247
768.0,0.0033303662203252316
832.0,0.0013873472344130278
896.0,-0.0037820665165781975
960.0,0.0019349323119968176
1024.0,0.011159773916006088
1152.0,0.00557519868016243
1280.0,0.002256089588627219
1408.0,-0.0004706065228674561
1536.0,-0.001071393839083612
1664.0,0.012356258928775787
1792.0,0.013449295423924923
1920.0,-0.004113043192774057
2048.0,0.0038370590191334486
2304.0,0.003547726897522807
2560.0,-0.004955070558935404
2816.0,-0.0027597686275839806
3072.0,-0.0008425571722909808
3328.0,0.002900185761973262
3584.0,0.005960715003311634
3840.0,0.003473335411399603
4096.0,-0.00337528670206666
4608.0,-0.01115509495139122
5120.0,-0.006033332087099552
5632.0,-0.008070344105362892
6144.0,-0.010150928981602192
6656.0,-0.0031231017783284187
7168.0,-0.004756526090204716
7680.0,-0.00010106481931870803
8192.0,-0.010687537491321564
9216.0,0.0017414563335478306
10240.0,-0.007952320389449596
11264.0,0.01118253543972969
12288.0,0.0021795150823891163
13312.0,-0.009695809334516525
14336.0,0.03203057125210762
end
