version,3.0
numOfCh,1
type,point
parent_name,dirty_0dot1-1dot0
ch_type,1_1
kcount,1
numberNandB,1
brightnessNandB,1
carpet pos,0
pc,0
Time (ms),CH1 Auto-Correlation
1.0,0.09884564578533173
2.0,0.09246617555618286
3.0,0.08648929744958878
4.0,0.08258938044309616
5.0,0.07893885672092438
6.0,0.07474683970212936
7.0,0.07141178101301193
8.0,0.06762046366930008
9.0,0.0644751787185669
10.0,0.061885494738817215
11.0,0.059714749455451965
12.0,0.05801989138126373
13.0,0.05677159130573273
14.0,0.05498996004462242
15.0,0.05356922000646591
16.0,0.05134905129671097
18.0,0.04823393002152443
20.0,0.0462069995701313
22.0,0.044697005301713943
24.0,0.042841844260692596
26.0,0.0401419959962368
28.0,0.03866128623485565
30.0,0.03710247203707695
32.0,0.03530116379261017
36.0,0.03310341760516167
40.0,0.03057553805410862
44.0,0.028979025781154633
48.0,0.028212476521730423
52.0,0.02580011449754238
56.0,0.023415178060531616
60.0,0.022578483447432518
64.0,0.021190151572227478
72.0,0.0210820734500885
80.0,0.021349726244807243
88.0,0.01797817274928093
96.0,0.014217930845916271
104.0,0.012538506649434566
112.0,0.011226066388189793
120.0,0.009914733469486237
128.0,0.009361248463392258
144.0,0.007466536946594715
160.0,0.004241283982992172
176.0,0.0018232949078083038
192.0,0.0018714878242462873
208.0,0.0015031235525384545
224.0,0.0007151555619202554
240.0,-0.0005154695245437324
256.0,-0.0006771379848942161
288.0,0.000547642121091485
320.0,-0.00013317099364940077
352.0,-0.001657632295973599
384.0,0.0009638608898967505
416.0,-0.0003446316404733807
448.0,0.0013257329119369388
480.0,-0.001709006610326469
512.0,-0.0026337963063269854
576.0,-0.005817439407110214
640.0,-0.005382463335990906
704.0,-0.0042230719700455666
768.0,-0.005078856833279133
832.0,-0.0011197172570973635
896.0,0.0025589808356016874
960.0,0.010963212698698044
1024.0,0.011972562409937382
1152.0,0.0039036059752106667
1280.0,0.001724200788885355
1408.0,-0.0006429963978007436
1536.0,-0.004436950199306011
1664.0,-0.006701357662677765
1792.0,-0.004807979334145784
1920.0,0.0005660842289216816
2048.0,0.005718369502574205
2304.0,0.006332804448902607
2560.0,-0.0012959713349118829
2816.0,-0.0027801322285085917
3072.0,0.0003818847762886435
3328.0,0.0036282434593886137
3584.0,-0.0034944454673677683
3840.0,-0.003930890467017889
4096.0,-0.00466048251837492
4608.0,0.0008024163544178009
5120.0,-0.003628979902714491
5632.0,-0.0010682985885068774
6144.0,-0.0009611792047508061
6656.0,0.0019905874505639076
7168.0,0.005951439030468464
7680.0,0.00017027878493536264
8192.0,0.0014456373173743486
9216.0,0.001329599879682064
10240.0,-0.0019527169642969966
11264.0,-0.00038903680979274213
12288.0,-0.007686855737119913
13312.0,-0.007449010387063026
14336.0,0.0014417627826333046
end
