version,3.0
numOfCh,1
type,point
parent_name,dirty_0dot1-1dot0
ch_type,1_1
kcount,1
numberNandB,1
brightnessNandB,1
carpet pos,0
pc,0
Time (ms),CH1 Auto-Correlation
1.0,0.1799764186143875
2.0,0.17029260098934174
3.0,0.16226455569267273
4.0,0.1552540361881256
5.0,0.14881682395935059
6.0,0.14272364974021912
7.0,0.1379951685667038
8.0,0.1324947327375412
9.0,0.128055602312088
10.0,0.12372574955224991
11.0,0.11927685141563416
12.0,0.11510686576366425
13.0,0.11245247721672058
14.0,0.10959626734256744
15.0,0.10678563266992569
16.0,0.1043725535273552
18.0,0.099488765001297
20.0,0.09341926127672195
22.0,0.08816163241863251
24.0,0.08459220081567764
26.0,0.07976377755403519
28.0,0.07574176043272018
30.0,0.07168380171060562
32.0,0.0666918009519577
36.0,0.06291508674621582
40.0,0.061650462448596954
44.0,0.06045062094926834
48.0,0.058199018239974976
52.0,0.05775069072842598
56.0,0.05655559152364731
60.0,0.05566565319895744
64.0,0.05621238425374031
72.0,0.055514268577098846
80.0,0.052560944110155106
88.0,0.050301048904657364
96.0,0.0466485396027565
104.0,0.04209284484386444
112.0,0.04274803772568703
120.0,0.0425763800740242
128.0,0.038425933569669724
144.0,0.03067520633339882
160.0,0.03227099031209946
176.0,0.028605211526155472
192.0,0.024449946358799934
208.0,0.023465219885110855
224.0,0.021874791011214256
240.0,0.015644310042262077
256.0,0.01284861657768488
288.0,0.01560086291283369
320.0,0.008576605468988419
352.0,0.00044083947432227433
384.0,0.0007551070884801447
416.0,0.0038724178448319435
448.0,0.004052272532135248
480.0,0.006287873722612858
512.0,0.006101715844124556
576.0,0.0013280537677928805
640.0,0.00018967391224578023
704.0,0.0020252990070730448
768.0,-0.0036486417520791292
832.0,-0.0006748210871592164
896.0,0.006316708400845528
960.0,0.011932299472391605
1024.0,0.009290264919400215
1152.0,-0.006008853204548359
1280.0,-0.0028281565755605698
1408.0,-0.005035016220062971
1536.0,0.001414639875292778
1664.0,0.003947122488170862
1792.0,0.0054330178536474705
1920.0,-0.0030950859654694796
2048.0,-0.004099587444216013
2304.0,-0.006684932857751846
2560.0,-0.007233564276248217
2816.0,-0.0041370391845703125
3072.0,-0.0014028415316715837
3328.0,0.009714720770716667
3584.0,0.016355806961655617
3840.0,0.010035747662186623
4096.0,-0.011743173934519291
4608.0,0.007684862706810236
5120.0,-0.011636219918727875
5632.0,-0.009795576333999634
6144.0,-0.007745389826595783
6656.0,0.0045551941730082035
7168.0,0.004987165331840515
7680.0,-0.007866870611906052
8192.0,0.002105643041431904
9216.0,-0.0173653457313776
10240.0,0.002834067912772298
11264.0,0.002176693407818675
12288.0,0.0036083597224205732
13312.0,0.0039964099414646626
14336.0,0.016506999731063843
end
