version,3.0
numOfCh,1
type,point
parent_name,dirty_0dot1-1dot0
ch_type,1_1
kcount,1
numberNandB,1
brightnessNandB,1
carpet pos,0
pc,0
Time (ms),CH1 Auto-Correlation
1.0,0.288013219833374
2.0,0.2684374749660492
3.0,0.2515914738178253
4.0,0.2368072122335434
5.0,0.22268901765346527
6.0,0.21093326807022095
7.0,0.20057713985443115
8.0,0.1915091574192047
9.0,0.18224899470806122
10.0,0.17209471762180328
11.0,0.16367025673389435
12.0,0.15412789583206177
13.0,0.14609886705875397
14.0,0.13919749855995178
15.0,0.13373559713363647
16.0,0.12842805683612823
18.0,0.12113978713750839
20.0,0.11456657201051712
22.0,0.10985490679740906
24.0,0.10479665547609329
26.0,0.09883735328912735
28.0,0.09218945354223251
30.0,0.08506567031145096
32.0,0.0794326439499855
36.0,0.07654619961977005
40.0,0.07142876088619232
44.0,0.0725274607539177
48.0,0.0701962485909462
52.0,0.06177453324198723
56.0,0.05585578829050064
60.0,0.05389919877052307
64.0,0.05449216067790985
72.0,0.05588989704847336
80.0,0.05527132377028465
88.0,0.04906357079744339
96.0,0.04442712292075157
104.0,0.04088970273733139
112.0,0.03128910809755325
120.0,0.018386926501989365
128.0,0.010803314857184887
144.0,0.0013888448011130095
160.0,-0.004091397859156132
176.0,-0.005182990338653326
192.0,-0.00520961033180356
208.0,-0.007621539756655693
224.0,-0.007849203422665596
240.0,-0.002222823677584529
256.0,-0.0043921382166445255
288.0,-0.012466107495129108
320.0,-0.003527111606672406
352.0,0.002984181046485901
384.0,0.008700360544025898
416.0,0.009953153319656849
448.0,0.023000115528702736
480.0,0.02551751211285591
512.0,0.02322438731789589
576.0,0.01753978803753853
640.0,0.0020169070921838284
704.0,-0.008047554641962051
768.0,-0.005844612140208483
832.0,0.0016261407872661948
896.0,0.010375730693340302
960.0,0.01786179654300213
1024.0,0.02400066703557968
1152.0,-0.0058129094541072845
1280.0,-0.010481740348041058
1408.0,-0.0019172491738572717
1536.0,-0.010308862663805485
1664.0,-0.006213533692061901
1792.0,-0.005688568577170372
1920.0,0.00019739755953196436
2048.0,0.0001548825966892764
2304.0,-0.004493955057114363
2560.0,-0.0009324972634203732
2816.0,-0.00527214678004384
3072.0,-0.015555020421743393
3328.0,-0.0022862243931740522
3584.0,-0.0045060766860842705
3840.0,0.005587237421423197
4096.0,0.006442114245146513
4608.0,0.01913316920399666
5120.0,0.006613995414227247
5632.0,-0.002795363077893853
6144.0,-0.01383147481828928
6656.0,4.693954178947024e-05
7168.0,-0.01859193667769432
7680.0,-0.014023413881659508
8192.0,-0.012384672649204731
9216.0,0.010271198116242886
10240.0,-0.003945787437260151
11264.0,-0.012555155903100967
12288.0,-0.013442011550068855
13312.0,0.006559624336659908
14336.0,0.005392180755734444
end
