version,3.0
numOfCh,1
type,point
parent_name,dirty_0dot1-1dot0
ch_type,1_1
kcount,1
numberNandB,1
brightnessNandB,1
carpet pos,0
pc,0
Time (ms),CH1 Auto-Correlation
1.0,0.16061653196811676
2.0,0.15091195702552795
3.0,0.1420327126979828
4.0,0.13293181359767914
5.0,0.12492171674966812
6.0,0.11948569118976593
7.0,0.11369509249925613
8.0,0.10996156930923462
9.0,0.10612991452217102
10.0,0.10166890919208527
11.0,0.0976666510105133
12.0,0.09455154836177826
13.0,0.09087444096803665
14.0,0.08793085068464279
15.0,0.08491015434265137
16.0,0.08178049325942993
18.0,0.07680536806583405
20.0,0.07380254566669464
22.0,0.07160241156816483
24.0,0.06964249908924103
26.0,0.06663748621940613
28.0,0.06348223984241486
30.0,0.05982229486107826
32.0,0.055747561156749725
36.0,0.04962000250816345
40.0,0.04460065811872482
44.0,0.042932864278554916
48.0,0.042216237634420395
52.0,0.04126822203397751
56.0,0.04020066186785698
60.0,0.040783487260341644
64.0,0.04185108467936516
72.0,0.040437206625938416
80.0,0.04170941933989525
88.0,0.03981713950634003
96.0,0.03998671844601631
104.0,0.03729366138577461
112.0,0.03128015622496605
120.0,0.026354340836405754
128.0,0.022465363144874573
144.0,0.017775358632206917
160.0,0.014990313909947872
176.0,0.014315278269350529
192.0,0.011959508992731571
208.0,0.00885563250631094
224.0,0.006554899737238884
240.0,0.00406639976426959
256.0,0.0017571556381881237
288.0,-0.0019934007432311773
320.0,-0.004885530099272728
352.0,-0.007599529344588518
384.0,-0.007904866710305214
416.0,-0.0084557319059968
448.0,-0.006263362243771553
480.0,-0.003044503042474389
512.0,-0.0037610293366014957
576.0,-0.008144836872816086
640.0,-0.007006564177572727
704.0,-0.0024938290007412434
768.0,-0.0007812437252141535
832.0,-0.0007986464188434184
896.0,-0.0009345283615402877
960.0,-0.0007901185308583081
1024.0,-0.0002886186121031642
1152.0,0.0007530534639954567
1280.0,-0.0024145282804965973
1408.0,-0.006315559148788452
1536.0,-0.007359701674431562
1664.0,-0.008403644897043705
1792.0,-0.008234810084104538
1920.0,-0.0024785364512354136
2048.0,-5.438159860204905e-06
2304.0,-0.004194760229438543
2560.0,0.008391238749027252
2816.0,0.0014894945779815316
3072.0,-0.007404683623462915
3328.0,-0.0009662325610406697
3584.0,-0.002425141166895628
3840.0,-0.007693664636462927
4096.0,0.00036887932219542563
4608.0,-0.0013856618897989392
5120.0,-0.0017231296515092254
5632.0,0.0007846071966923773
6144.0,0.008174189366400242
6656.0,0.00015668413834646344
7168.0,0.0002592613163869828
7680.0,-0.0013204198330640793
8192.0,0.0008120877319015563
9216.0,0.004372182302176952
10240.0,-0.011857626959681511
11264.0,-0.004425712861120701
12288.0,0.010119843296706676
13312.0,0.008964624255895615
14336.0,-0.015045950189232826
end
