version,3.0
numOfCh,1
type,point
parent_name,dirty_0dot1-1dot0
ch_type,1_1
kcount,1
numberNandB,1
brightnessNandB,1
carpet pos,0
pc,0
Time (ms),CH1 Auto-Correlation
1.0,0.3979009687900543
2.0,0.36993083357810974
3.0,0.3448013663291931
4.0,0.3216859996318817
5.0,0.304001122713089
6.0,0.28641772270202637
7.0,0.2718280553817749
8.0,0.2571766972541809
9.0,0.24248003959655762
10.0,0.22726888954639435
11.0,0.2158045470714569
12.0,0.20442640781402588
13.0,0.19499732553958893
14.0,0.18738827109336853
15.0,0.17828865349292755
16.0,0.17183208465576172
18.0,0.15579022467136383
20.0,0.1451261192560196
22.0,0.13772226870059967
24.0,0.1285138875246048
26.0,0.12133034318685532
28.0,0.11451226472854614
30.0,0.10935283452272415
32.0,0.10267412662506104
36.0,0.09026242792606354
40.0,0.0821707546710968
44.0,0.08133559674024582
48.0,0.07606557756662369
52.0,0.06469675153493881
56.0,0.05733894556760788
60.0,0.05776948109269142
64.0,0.055140428245067596
72.0,0.03763207048177719
80.0,0.016082650050520897
88.0,0.012512784451246262
96.0,0.01496525015681982
104.0,0.022097060456871986
112.0,0.031779900193214417
120.0,0.032063134014606476
128.0,0.03432696312665939
144.0,0.02307141199707985
160.0,0.022332435473799706
176.0,0.021558400243520737
192.0,0.023954711854457855
208.0,0.01814080961048603
224.0,0.010776125825941563
240.0,0.004557709209620953
256.0,0.005392126273363829
288.0,0.0007609953754581511
320.0,-0.01225358434021473
352.0,-0.01747926138341427
384.0,-0.0052145300433039665
416.0,-0.004172854591161013
448.0,-0.002825993113219738
480.0,-0.0023810667917132378
512.0,0.005372779443860054
576.0,-0.003323256503790617
640.0,-0.0007482256623916328
704.0,-0.0031367409974336624
768.0,-0.007732922676950693
832.0,0.0020036965142935514
896.0,-0.00439548259600997
960.0,-0.0071149240247905254
1024.0,-0.014065202325582504
1152.0,-0.011052221991121769
1280.0,9.909205982694402e-05
1408.0,0.012108325958251953
1536.0,0.009178687818348408
1664.0,-0.00590928690508008
1792.0,-0.004442072473466396
1920.0,-0.016481414437294006
2048.0,-0.005133617669343948
2304.0,0.019892985001206398
2560.0,0.01591554842889309
2816.0,0.00047569701564498246
3072.0,0.0001342280302196741
3328.0,-0.017770230770111084
3584.0,-0.0062207323499023914
3840.0,0.017063073813915253
4096.0,0.0016973653109744191
4608.0,0.00634668068960309
5120.0,0.010872664861381054
5632.0,-0.011182268150150776
6144.0,-0.007059126161038876
6656.0,-0.010850614868104458
7168.0,0.0070328786969184875
7680.0,0.012719009071588516
8192.0,-0.0013498689513653517
9216.0,-0.01405212190002203
10240.0,0.006892575416713953
11264.0,-0.0322800874710083
12288.0,0.00579986022785306
13312.0,-0.024798721075057983
14336.0,0.003722280729562044
end
