version,3.0
numOfCh,1
type,point
parent_name,dirty_0dot1-1dot0
ch_type,1_1
kcount,1
numberNandB,1
brightnessNandB,1
carpet pos,0
pc,0
Time (ms),CH1 Auto-Correlation
1.0,0.45952123403549194
2.0,0.42423149943351746
3.0,0.3903031647205353
4.0,0.3594653606414795
5.0,0.3310914635658264
6.0,0.30948349833488464
7.0,0.2946273386478424
8.0,0.28258636593818665
9.0,0.2697334885597229
10.0,0.2587190270423889
11.0,0.2466505616903305
12.0,0.23482351005077362
13.0,0.22554196417331696
14.0,0.21527236700057983
15.0,0.20627540349960327
16.0,0.19801943004131317
18.0,0.18326835334300995
20.0,0.16811339557170868
22.0,0.1565580815076828
24.0,0.14695864915847778
26.0,0.13697358965873718
28.0,0.12683789432048798
30.0,0.11788423359394073
32.0,0.11047986894845963
36.0,0.1022213026881218
40.0,0.09567756950855255
44.0,0.08099983632564545
48.0,0.0682569220662117
52.0,0.06836630403995514
56.0,0.0727163776755333
60.0,0.07250669598579407
64.0,0.06689168512821198
72.0,0.05847243592143059
80.0,0.05497843772172928
88.0,0.04717203229665756
96.0,0.046879034489393234
104.0,0.048466671258211136
112.0,0.05592676252126694
120.0,0.05314171686768532
128.0,0.04659876227378845
144.0,0.03710641339421272
160.0,0.04087885096669197
176.0,0.04061669483780861
192.0,0.039368536323308945
208.0,0.030973687767982483
224.0,0.02913096733391285
240.0,0.0222368985414505
256.0,0.022339941933751106
288.0,0.029080640524625778
320.0,0.03113083727657795
352.0,0.029281940311193466
384.0,0.03461867570877075
416.0,0.02203056961297989
448.0,0.011801183223724365
480.0,0.020388852804899216
512.0,0.011929457075893879
576.0,0.004784008953720331
640.0,-0.0008895542705431581
704.0,0.017058303579688072
768.0,0.02242646925151348
832.0,0.0009645472164265811
896.0,-0.008394823409616947
960.0,0.006514735985547304
1024.0,-0.007281521800905466
1152.0,-0.0003298566734883934
1280.0,-0.01317006815224886
1408.0,-0.0022193952463567257
1536.0,-0.006549001205712557
1664.0,-0.01510726660490036
1792.0,-0.01393954548984766
1920.0,0.0031208235304802656
2048.0,0.0020080767571926117
2304.0,0.018041828647255898
2560.0,-0.012975119054317474
2816.0,-0.004542801063507795
3072.0,-0.01723821647465229
3328.0,-0.01780666597187519
3584.0,-0.0042829615995287895
3840.0,0.0005014747148379683
4096.0,0.012111704796552658
4608.0,0.01602717489004135
5120.0,-0.0028144342359155416
5632.0,-0.03515705093741417
6144.0,-0.030439699068665504
6656.0,-0.020594554021954536
7168.0,0.002154858550056815
7680.0,-0.015068091452121735
8192.0,-0.01679665967822075
9216.0,0.023770514875650406
10240.0,-0.011258075013756752
11264.0,0.00807195995002985
12288.0,-0.007194981910288334
13312.0,0.043380219489336014
14336.0,-0.023678677156567574
end
