version,3.0
numOfCh,1
type,point
parent_name,dirty_0dot1-1dot0
ch_type,1_1
kcount,1
numberNandB,1
brightnessNandB,1
carpet pos,0
pc,0
Time (ms),CH1 Auto-Correlation
1.0,0.27387651801109314
2.0,0.2526801824569702
3.0,0.23304212093353271
4.0,0.216677725315094
5.0,0.19991573691368103
6.0,0.18700581789016724
7.0,0.1776709109544754
8.0,0.16763794422149658
9.0,0.159786194562912
10.0,0.15156154334545135
11.0,0.14640192687511444
12.0,0.14270824193954468
13.0,0.13853949308395386
14.0,0.13282282650470734
15.0,0.12661708891391754
16.0,0.12005019187927246
18.0,0.1082194373011589
20.0,0.10270857810974121
22.0,0.09849863499403
24.0,0.0955200269818306
26.0,0.09481529146432877
28.0,0.09582772105932236
30.0,0.09799028187990189
32.0,0.10146719962358475
36.0,0.10292553156614304
40.0,0.0965760201215744
44.0,0.08893686532974243
48.0,0.08335500210523605
52.0,0.08044078946113586
56.0,0.07463394105434418
60.0,0.06684630364179611
64.0,0.060497868806123734
72.0,0.06622646749019623
80.0,0.05951782315969467
88.0,0.05037660151720047
96.0,0.03793279826641083
104.0,0.0351070873439312
112.0,0.0394640788435936
120.0,0.03523765504360199
128.0,0.0335802361369133
144.0,0.035301074385643005
160.0,0.025617625564336777
176.0,0.02382664382457733
192.0,0.018497878685593605
208.0,0.01562691666185856
224.0,0.012748545967042446
240.0,0.013545811176300049
256.0,0.026030823588371277
288.0,0.02578667737543583
320.0,0.03751740604639053
352.0,0.038954608142375946
384.0,0.024900296702980995
416.0,0.00891763437539339
448.0,0.004080447368323803
480.0,0.006478056777268648
512.0,0.006918173283338547
576.0,0.004159538075327873
640.0,0.00847289152443409
704.0,0.004035815130919218
768.0,0.0006228165584616363
832.0,0.0024204165674746037
896.0,-0.00047357368748635054
960.0,0.006442825309932232
1024.0,0.004617549944669008
1152.0,-0.008069480769336224
1280.0,-0.0010965903056785464
1408.0,0.0020453522447496653
1536.0,-0.004851859994232655
1664.0,-0.008043098263442516
1792.0,-0.0093193668872118
1920.0,-0.004288796801120043
2048.0,-0.0020451433956623077
2304.0,-0.0028693401254713535
2560.0,-0.0020272438414394855
2816.0,0.0008671506657265127
3072.0,-0.007627828978002071
3328.0,-0.012563816271722317
3584.0,-0.01533627137541771
3840.0,-0.017101988196372986
4096.0,-0.009443848393857479
4608.0,-0.005577513016760349
5120.0,0.0029404847882688046
5632.0,0.002391866873949766
6144.0,0.003522205865010619
6656.0,-0.00916194822639227
7168.0,0.013632173649966717
7680.0,0.014836649410426617
8192.0,0.0007143441471271217
9216.0,0.0006433574599213898
10240.0,0.0110232625156641
11264.0,0.0011096843518316746
12288.0,-0.04083346202969551
13312.0,-0.018887488171458244
14336.0,0.008820071816444397
end
