version,3.0
numOfCh,1
type,point
parent_name,714af_1dot0-0dot1
ch_type,1_1
kcount,1
numberNandB,1
brightnessNandB,1
carpet pos,0
pc,0
Time (ms),CH1 Auto-Correlation
1.0,0.09129364788532257
2.0,0.08461395651102066
3.0,0.07903420925140381
4.0,0.07417215406894684
5.0,0.06993222236633301
6.0,0.06620930880308151
7.0,0.06284179538488388
8.0,0.05989380180835724
9.0,0.057038601487874985
10.0,0.054333340376615524
11.0,0.05196802318096161
12.0,0.049866512417793274
13.0,0.04771747067570686
14.0,0.04592612013220787
15.0,0.04432431980967522
16.0,0.042640406638383865
18.0,0.039785366505384445
20.0,0.03722579777240753
22.0,0.0350911021232605
24.0,0.03303573653101921
26.0,0.03112993761897087
28.0,0.02919740229845047
30.0,0.02719283290207386
32.0,0.025783369317650795
36.0,0.02290239930152893
40.0,0.020695049315690994
44.0,0.0187783595174551
48.0,0.01739167608320713
52.0,0.016408145427703857
56.0,0.015272951684892178
60.0,0.013919922523200512
64.0,0.012519661337137222
72.0,0.011586936190724373
80.0,0.011122397147119045
88.0,0.010351310484111309
96.0,0.008195517584681511
104.0,0.005575999617576599
112.0,0.004415259230881929
120.0,0.004976974334567785
128.0,0.005177368875592947
144.0,0.005512197967618704
160.0,0.004551493097096682
176.0,0.004480475559830666
192.0,0.0015910149086266756
208.0,-0.0011240066960453987
224.0,-0.0003104720381088555
240.0,0.0018292446620762348
256.0,0.0023677581921219826
288.0,9.605474042473361e-05
320.0,-0.0001946787815541029
352.0,-0.002908773021772504
384.0,-0.0031418155413120985
416.0,-0.001301246345974505
448.0,-0.0034165934193879366
480.0,-0.0021155618596822023
512.0,-0.0013550420990213752
576.0,-0.00023166264872998
640.0,0.002101305639371276
704.0,0.003834383562207222
768.0,0.0033326956909149885
832.0,0.004766191355884075
896.0,-0.0008812940213829279
960.0,0.0011699916794896126
1024.0,0.0005773060256615281
1152.0,-0.0050654103979468346
1280.0,-0.0068316347897052765
1408.0,-0.0020858095958828926
1536.0,0.0016677663661539555
1664.0,0.0017096176743507385
1792.0,0.0022802946623414755
1920.0,0.0025919396430253983
2048.0,-0.002835312392562628
2304.0,0.000760062481276691
2560.0,0.0015531022800132632
2816.0,-0.003378708381205797
3072.0,0.0017823934322223067
3328.0,0.0029837293550372124
3584.0,-0.0018811501795426011
3840.0,0.0022566705010831356
4096.0,0.0037361113354563713
4608.0,0.00016605982091277838
5120.0,-0.0019191460451111197
5632.0,-0.00019328994676470757
6144.0,-0.0014386174734681845
6656.0,-0.0020159054547548294
7168.0,-0.0006046080379746854
7680.0,-0.0016602533869445324
8192.0,0.002609080635011196
end
