version,3.0
numOfCh,1
type,point
parent_name,714af_1dot0-0dot1
ch_type,1_1
kcount,1
numberNandB,1
brightnessNandB,1
carpet pos,0
pc,0
Time (ms),CH1 Auto-Correlation
1.0,0.09242495894432068
2.0,0.08577129989862442
3.0,0.08040105551481247
4.0,0.07588431239128113
5.0,0.0722055584192276
6.0,0.06882306933403015
7.0,0.06594134867191315
8.0,0.06343249976634979
9.0,0.06121896952390671
10.0,0.05879560112953186
11.0,0.05649463087320328
12.0,0.05444037541747093
13.0,0.05264657363295555
14.0,0.05093948915600777
15.0,0.049375299364328384
16.0,0.04766734316945076
18.0,0.044211458414793015
20.0,0.0412394180893898
22.0,0.03873522952198982
24.0,0.0366629958152771
26.0,0.03487028181552887
28.0,0.03351587429642677
30.0,0.03215046599507332
32.0,0.031092585995793343
36.0,0.03017575293779373
40.0,0.029746923595666885
44.0,0.029243579134345055
48.0,0.028363265097141266
52.0,0.02739226259291172
56.0,0.027012519538402557
60.0,0.026237906888127327
64.0,0.025354670360684395
72.0,0.023011082783341408
80.0,0.020028283819556236
88.0,0.017912302166223526
96.0,0.01630634069442749
104.0,0.014813685789704323
112.0,0.014577513560652733
120.0,0.014549562707543373
128.0,0.014976713806390762
144.0,0.01334321778267622
160.0,0.011392617598176003
176.0,0.011850596405565739
192.0,0.012537837028503418
208.0,0.011234644800424576
224.0,0.009661514312028885
240.0,0.008761814795434475
256.0,0.008356025442481041
288.0,0.0067372252233326435
320.0,0.004914575722068548
352.0,0.00877633411437273
384.0,0.008330680429935455
416.0,0.005513191223144531
448.0,0.0024021444842219353
480.0,0.002589360112324357
512.0,0.003305257996544242
576.0,0.00675635039806366
640.0,0.005440241191536188
704.0,0.003129847114905715
768.0,0.0032957387156784534
832.0,0.0034210938028991222
896.0,0.008297435007989407
960.0,0.011337804608047009
1024.0,0.01055651530623436
1152.0,0.006112908013164997
1280.0,0.005282637197524309
1408.0,0.0049116844311356544
1536.0,0.0018338477239012718
1664.0,0.00030409431201405823
1792.0,-0.006929831579327583
1920.0,-0.00942025613039732
2048.0,-0.00839382503181696
2304.0,-0.008935205638408661
2560.0,-0.0022987350821495056
2816.0,-0.009723987430334091
3072.0,-0.012210690416395664
3328.0,-0.014742701314389706
3584.0,-0.010556335560977459
3840.0,-0.00686064176261425
4096.0,-0.002268523443490267
4608.0,-0.007194973062723875
5120.0,0.0006368708563968539
5632.0,0.004571868106722832
6144.0,0.007745268288999796
6656.0,0.017534758895635605
7168.0,0.007787087466567755
7680.0,0.012869559228420258
8192.0,0.0008101073326542974
end
