version,3.0
numOfCh,1
type,point
parent_name,714af_1dot0-0dot1
ch_type,1_1
kcount,1
numberNandB,1
brightnessNandB,1
carpet pos,0
pc,0
Time (ms),CH1 Auto-Correlation
1.0,0.08883770555257797
2.0,0.08192908763885498
3.0,0.07592659443616867
4.0,0.07071320712566376
5.0,0.0664079561829567
6.0,0.06237795576453209
7.0,0.058638639748096466
8.0,0.055379875004291534
9.0,0.052322693169116974
10.0,0.049777787178754807
11.0,0.047439638525247574
12.0,0.045156028121709824
13.0,0.043080899864435196
14.0,0.04131191596388817
15.0,0.039674337953329086
16.0,0.038126856088638306
18.0,0.035620223730802536
20.0,0.03341897204518318
22.0,0.03177708387374878
24.0,0.030340543016791344
26.0,0.029293034225702286
28.0,0.02820432372391224
30.0,0.027005426585674286
32.0,0.02572908252477646
36.0,0.023913733661174774
40.0,0.022221943363547325
44.0,0.02142096497118473
48.0,0.021627558395266533
52.0,0.02127903141081333
56.0,0.01998724415898323
60.0,0.019002564251422882
64.0,0.018115520477294922
72.0,0.015208098106086254
80.0,0.013264002278447151
88.0,0.01144446525722742
96.0,0.010593686252832413
104.0,0.010595191270112991
112.0,0.009743592701852322
120.0,0.007503530941903591
128.0,0.008030547760426998
144.0,0.008607830852270126
160.0,0.007669492159038782
176.0,0.00641361391171813
192.0,0.007656486239284277
208.0,0.008377766236662865
224.0,0.00876167044043541
240.0,0.009916546754539013
256.0,0.012011244893074036
288.0,0.009520769119262695
320.0,0.007052158936858177
352.0,0.006699507590383291
384.0,0.006776250898838043
416.0,0.0033336938358843327
448.0,0.005567849613726139
480.0,0.008791712112724781
512.0,0.005521880928426981
576.0,0.002480490365996957
640.0,0.0007857090095058084
704.0,-0.0006410474888980389
768.0,0.0007632827619090676
832.0,0.0015199205372482538
896.0,0.005130827892571688
960.0,0.007592360954731703
1024.0,0.0011096608359366655
1152.0,-0.0012565020006150007
1280.0,0.00053018907783553
1408.0,0.002525684889405966
1536.0,-0.0033840027172118425
1664.0,0.0008385315304622054
1792.0,-0.00028829104849137366
1920.0,0.007613301742821932
2048.0,-0.00023803298245184124
2304.0,-0.0017422069795429707
2560.0,-0.002970737172290683
2816.0,-0.00021628245303872973
3072.0,-0.0009891135850921273
3328.0,-0.002598497085273266
3584.0,-0.0036895989906042814
3840.0,-0.0035745538771152496
4096.0,0.0006805647280998528
4608.0,-0.0005579281132668257
5120.0,-0.001023261109367013
5632.0,-0.007865960709750652
6144.0,-0.006664954125881195
6656.0,-0.0013636875664815307
7168.0,-0.00025296080275438726
7680.0,-0.0024782188702374697
8192.0,-0.008754270151257515
end
