version,3.0
numOfCh,1
type,point
parent_name,714af_1dot0-0dot1
ch_type,1_1
kcount,1
numberNandB,1
brightnessNandB,1
carpet pos,0
pc,0
Time (ms),CH1 Auto-Correlation
1.0,0.08342738449573517
2.0,0.07644759118556976
3.0,0.0706440880894661
4.0,0.06569968163967133
5.0,0.06130983680486679
6.0,0.057647958397865295
7.0,0.05445338040590286
8.0,0.05170266702771187
9.0,0.049344196915626526
10.0,0.047060392796993256
11.0,0.044702306389808655
12.0,0.04220881313085556
13.0,0.03995475918054581
14.0,0.037896279245615005
15.0,0.036076709628105164
16.0,0.03442418947815895
18.0,0.03192400559782982
20.0,0.02993672713637352
22.0,0.027892794460058212
24.0,0.02620120905339718
26.0,0.024615397676825523
28.0,0.02375316433608532
30.0,0.02319960668683052
32.0,0.022490764036774635
36.0,0.02118927426636219
40.0,0.019909771159291267
44.0,0.01800929382443428
48.0,0.016301441937685013
52.0,0.014482934959232807
56.0,0.01381246279925108
60.0,0.013501961715519428
64.0,0.012576189823448658
72.0,0.010045609436929226
80.0,0.009026040323078632
88.0,0.00862507801502943
96.0,0.009861132130026817
104.0,0.010802761651575565
112.0,0.009968547150492668
120.0,0.009304964914917946
128.0,0.009187918156385422
144.0,0.006132102105766535
160.0,0.0018797082593664527
176.0,0.0005235217395238578
192.0,-0.002021182794123888
208.0,-0.0029743367340415716
224.0,-0.0031590319704264402
240.0,0.0007705082534812391
256.0,0.0019832805264741182
288.0,-0.00017865130212157965
320.0,-0.0009685778059065342
352.0,0.0005674673593603075
384.0,0.0022082235664129257
416.0,0.0027831883635371923
448.0,0.0024739676155149937
480.0,0.006068659480661154
512.0,0.002121796365827322
576.0,-0.0005725232767872512
640.0,0.0007299918215721846
704.0,-0.0010115650948137045
768.0,-0.00038104160921648145
832.0,-0.006954752374440432
896.0,-0.0029085457790642977
960.0,-0.002971199108287692
1024.0,-0.002286673989146948
1152.0,-0.0048157949931919575
1280.0,-0.004209036938846111
1408.0,-0.0016092514852061868
1536.0,0.0011896428186446428
1664.0,0.002912528347223997
1792.0,-0.003533907001838088
1920.0,-0.004782535135746002
2048.0,0.003448805073276162
2304.0,0.002805320778861642
2560.0,0.0024025030434131622
2816.0,0.0008516805828548968
3072.0,0.000933323404751718
3328.0,-0.004476753994822502
3584.0,0.0004299092688597739
3840.0,-0.003774723969399929
4096.0,-0.00582577008754015
4608.0,-0.0013494609156623483
5120.0,0.007608682382851839
5632.0,0.0027401300612837076
6144.0,-0.004124834667891264
6656.0,-0.0008266252698376775
7168.0,0.00023536862863693386
7680.0,0.00013929772831033915
8192.0,0.0010585120180621743
end
