version,3.0
numOfCh,1
type,point
parent_name,714af_1dot0-0dot1
ch_type,1_1
kcount,1
numberNandB,1
brightnessNandB,1
carpet pos,0
pc,0
Time (ms),CH1 Auto-Correlation
1.0,0.09879789501428604
2.0,0.09157193452119827
3.0,0.08534602075815201
4.0,0.0798564925789833
5.0,0.0751982256770134
6.0,0.07090730220079422
7.0,0.06707709282636642
8.0,0.06353234499692917
9.0,0.06048967316746712
10.0,0.057918619364500046
11.0,0.055767957121133804
12.0,0.053853608667850494
13.0,0.05213132128119469
14.0,0.05054821819067001
15.0,0.04899502545595169
16.0,0.047596096992492676
18.0,0.04520293325185776
20.0,0.043135106563568115
22.0,0.04086067155003548
24.0,0.038743793964385986
26.0,0.03694608807563782
28.0,0.03542296215891838
30.0,0.033720485866069794
32.0,0.03232874348759651
36.0,0.030481789261102676
40.0,0.029420072212815285
44.0,0.028970768675208092
48.0,0.027954164892435074
52.0,0.02697502076625824
56.0,0.025624657049775124
60.0,0.024605153128504753
64.0,0.02376016601920128
72.0,0.021932076662778854
80.0,0.022012287750840187
88.0,0.02104904316365719
96.0,0.01915968954563141
104.0,0.017547719180583954
112.0,0.01605215109884739
120.0,0.014793370850384235
128.0,0.015172966755926609
144.0,0.015189793892204762
160.0,0.013250553049147129
176.0,0.011511679738759995
192.0,0.009412840008735657
208.0,0.008134244941174984
224.0,0.007706350181251764
240.0,0.007255082484334707
256.0,0.007076887879520655
288.0,0.007951664738357067
320.0,0.005658191628754139
352.0,0.0059987329877913
384.0,0.0030931755900382996
416.0,0.002669349778443575
448.0,0.00205051526427269
480.0,0.001740646897815168
512.0,0.0030606379732489586
576.0,0.0008026559371501207
640.0,0.0018356441287323833
704.0,-0.0018045634496957064
768.0,-0.0055660950019955635
832.0,-0.007488245144486427
896.0,-0.006665604654699564
960.0,-0.008859840221703053
1024.0,-0.006545374169945717
1152.0,-0.004504164680838585
1280.0,-0.0051299226470291615
1408.0,0.0001035579334711656
1536.0,0.0015587026719003916
1664.0,0.007778500206768513
1792.0,0.011705642566084862
1920.0,0.0005875887582078576
2048.0,0.0019752131775021553
2304.0,0.002629278227686882
2560.0,-0.001840302487835288
2816.0,-0.005064153112471104
3072.0,-0.005591579247266054
3328.0,0.0001634536893106997
3584.0,0.004221249371767044
3840.0,0.004247961565852165
4096.0,0.0049383086152374744
4608.0,-0.0028781802393496037
5120.0,-0.005897779017686844
5632.0,-0.0057599954307079315
6144.0,0.0063826716504991055
6656.0,0.001893302658572793
7168.0,-0.0058177136816084385
7680.0,-0.0007152147591114044
8192.0,-0.003991334233433008
end
