version,3.0
numOfCh,1
type,point
parent_name,714af_1dot0-0dot1
ch_type,1_1
kcount,1
numberNandB,1
brightnessNandB,1
carpet pos,0
pc,0
Time (ms),CH1 Auto-Correlation
1.0,0.09085100144147873
2.0,0.08408895879983902
3.0,0.07833391427993774
4.0,0.07329116016626358
5.0,0.06886746734380722
6.0,0.06505130976438522
7.0,0.06171245500445366
8.0,0.0588778592646122
9.0,0.056244492530822754
10.0,0.05388425663113594
11.0,0.051949724555015564
12.0,0.05057336390018463
13.0,0.04921529442071915
14.0,0.047876473516225815
15.0,0.04644209146499634
16.0,0.04513878747820854
18.0,0.04249287396669388
20.0,0.040335267782211304
22.0,0.03841213136911392
24.0,0.036650121212005615
26.0,0.035179004073143005
28.0,0.03414507955312729
30.0,0.033277951180934906
32.0,0.032204970717430115
36.0,0.029582912102341652
40.0,0.027491316199302673
44.0,0.025140685960650444
48.0,0.02397996000945568
52.0,0.02266480214893818
56.0,0.020223768427968025
60.0,0.018418336287140846
64.0,0.01744823157787323
72.0,0.015190817415714264
80.0,0.01328690443187952
88.0,0.013406901620328426
96.0,0.013326144777238369
104.0,0.013269826769828796
112.0,0.0104019520804286
120.0,0.009571896865963936
128.0,0.00892967451363802
144.0,0.006072110962122679
160.0,0.0045578270219266415
176.0,0.004367147572338581
192.0,0.006395055912435055
208.0,0.007437234278768301
224.0,0.007537156343460083
240.0,0.0070752305909991264
256.0,0.007397771347314119
288.0,0.009624365717172623
320.0,0.01220017671585083
352.0,0.012024780735373497
384.0,0.011133779771625996
416.0,0.011799713596701622
448.0,0.009493112564086914
480.0,0.00626881280913949
512.0,0.007626241073012352
576.0,0.0090092234313488
640.0,0.008097327314317226
704.0,0.0092333247885108
768.0,0.005511040333658457
832.0,0.008176290430128574
896.0,0.006471717730164528
960.0,0.0022902374621480703
1024.0,-0.0015653062146157026
1152.0,0.003455199534073472
1280.0,0.00524064339697361
1408.0,0.008955024182796478
1536.0,0.004753188230097294
1664.0,-0.001633840729482472
1792.0,0.0034533541183918715
1920.0,0.004151764325797558
2048.0,0.0019860330503433943
2304.0,-0.002092069946229458
2560.0,-0.0026369644328951836
2816.0,-0.004241660237312317
3072.0,-0.007266221102327108
3328.0,-0.00641248095780611
3584.0,-0.011476365849375725
3840.0,-0.013577044941484928
4096.0,-0.009532425552606583
4608.0,-0.00800546258687973
5120.0,-0.006398690398782492
5632.0,-0.005829928908497095
6144.0,-0.002966205356642604
6656.0,0.003259091405197978
7168.0,0.0034821471199393272
7680.0,0.0045516612008214
8192.0,0.005615434143692255
end
