version,3.0
numOfCh,1
type,point
parent_name,714af_1dot0-0dot1
ch_type,1_1
kcount,1
numberNandB,1
brightnessNandB,1
carpet pos,0
pc,0
Time (ms),CH1 Auto-Correlation
1.0,0.09405221045017242
2.0,0.08737706393003464
3.0,0.08170311152935028
4.0,0.0768514946103096
5.0,0.07253602147102356
6.0,0.06882204860448837
7.0,0.06552737951278687
8.0,0.06249960884451866
9.0,0.05982000380754471
10.0,0.05736810341477394
11.0,0.054992493242025375
12.0,0.05269784480333328
13.0,0.050489649176597595
14.0,0.04860645532608032
15.0,0.04676058888435364
16.0,0.04510954022407532
18.0,0.04247535765171051
20.0,0.04010564833879471
22.0,0.038210880011320114
24.0,0.03658590465784073
26.0,0.03488804027438164
28.0,0.033233750611543655
30.0,0.031697530299425125
32.0,0.030258407816290855
36.0,0.02708386443555355
40.0,0.024910908192396164
44.0,0.023140661418437958
48.0,0.022022534161806107
52.0,0.021192843094468117
56.0,0.019640881568193436
60.0,0.01800955832004547
64.0,0.016289284452795982
72.0,0.014329158701002598
80.0,0.011513156816363335
88.0,0.010234981775283813
96.0,0.009475357830524445
104.0,0.008796309120953083
112.0,0.00863900501281023
120.0,0.009363479912281036
128.0,0.009237900376319885
144.0,0.010580507107079029
160.0,0.012584853917360306
176.0,0.013027445413172245
192.0,0.012910437770187855
208.0,0.014028189703822136
224.0,0.01209991704672575
240.0,0.010038674809038639
256.0,0.008975294418632984
288.0,0.005901578813791275
320.0,0.004662620835006237
352.0,0.005219805985689163
384.0,0.006655548233538866
416.0,0.005527200642973185
448.0,0.004715434275567532
480.0,0.005927532911300659
512.0,0.005063844379037619
576.0,0.005794796161353588
640.0,0.003920148126780987
704.0,0.0015274094184860587
768.0,0.00025611973251216114
832.0,-0.0027296883054077625
896.0,-0.00309685617685318
960.0,-0.00320146675221622
1024.0,-0.007940201088786125
1152.0,-0.004411675035953522
1280.0,-0.004649710841476917
1408.0,-0.0019603916443884373
1536.0,-0.002314069541171193
1664.0,-0.0015504405600950122
1792.0,-0.0036882830318063498
1920.0,0.00027813256019726396
2048.0,-0.0038770362734794617
2304.0,-0.0026271252427250147
2560.0,0.0012958061415702105
2816.0,-0.0003885839250870049
3072.0,-0.0006828769110143185
3328.0,-0.004777663853019476
3584.0,-0.0008226967765949667
3840.0,-0.0014817223418504
4096.0,-0.0006995288422331214
4608.0,-0.0004294726240914315
5120.0,-0.0020338527392596006
5632.0,0.0011777372565120459
6144.0,0.002339390804991126
6656.0,0.006645037326961756
7168.0,0.0024889179039746523
7680.0,-0.00671366835013032
8192.0,-0.0011618775315582752
end
