version,3.0
numOfCh,1
type,point
parent_name,714af_1dot0-0dot1
ch_type,1_1
kcount,1
numberNandB,1
brightnessNandB,1
carpet pos,0
pc,0
Time (ms),CH1 Auto-Correlation
1.0,0.08979824185371399
2.0,0.08266998082399368
3.0,0.07671214640140533
4.0,0.07163995504379272
5.0,0.06701485067605972
6.0,0.06305370479822159
7.0,0.059470780193805695
8.0,0.056638848036527634
9.0,0.05414172634482384
10.0,0.051719069480895996
11.0,0.04955686628818512
12.0,0.04745756462216377
13.0,0.04559086635708809
14.0,0.04376034811139107
15.0,0.04203103482723236
16.0,0.040467873215675354
18.0,0.037594523280858994
20.0,0.03488968312740326
22.0,0.03264285624027252
24.0,0.030691321939229965
26.0,0.028797080740332603
28.0,0.027011625468730927
30.0,0.025447716936469078
32.0,0.023843303322792053
36.0,0.02088487334549427
40.0,0.018555408343672752
44.0,0.017157521098852158
48.0,0.016180548816919327
52.0,0.014914742670953274
56.0,0.014410522766411304
60.0,0.014535043388605118
64.0,0.014853318221867085
72.0,0.01398500520735979
80.0,0.012934016063809395
88.0,0.011780112981796265
96.0,0.01064777746796608
104.0,0.01034181285649538
112.0,0.010042112320661545
120.0,0.009876224212348461
128.0,0.010766705498099327
144.0,0.009877192787826061
160.0,0.0068867881782352924
176.0,0.005727923475205898
192.0,0.0030582668259739876
208.0,0.002860673936083913
224.0,0.0027198675088584423
240.0,0.0033671727869659662
256.0,0.0030554444529116154
288.0,-0.00029112884658388793
320.0,-0.004461405333131552
352.0,-0.0023211203515529633
384.0,-0.00027912345831282437
416.0,-0.002972890855744481
448.0,-0.0049787177704274654
480.0,-0.003688499331474304
512.0,-0.004762681666761637
576.0,-0.007686281576752663
640.0,-0.0049319141544401646
704.0,-0.010499422438442707
768.0,-0.008798414841294289
832.0,-0.004759193863719702
896.0,-0.001296895556151867
960.0,0.001293788431212306
1024.0,1.1867965667988756e-06
1152.0,0.00769449258223176
1280.0,0.005557190161198378
1408.0,0.00263659143820405
1536.0,0.000265878887148574
1664.0,-0.0023794325534254313
1792.0,-0.007008073851466179
1920.0,-0.01105643343180418
2048.0,-0.008781933225691319
2304.0,-0.0009127657394856215
2560.0,0.007376931607723236
2816.0,0.005003336351364851
3072.0,-0.0038733992259949446
3328.0,-0.0041322167962789536
3584.0,0.0013552977470681071
3840.0,0.006278823129832745
4096.0,0.0038067668210715055
4608.0,-0.004281219094991684
5120.0,0.0012770764296874404
5632.0,-0.0010033847065642476
6144.0,-0.0037287899758666754
6656.0,0.004461015108972788
7168.0,-0.001143758068792522
7680.0,4.2911899072350934e-05
8192.0,6.418627162929624e-05
end
