version,3.0
numOfCh,1
type,point
parent_name,714af_1dot0-0dot1
ch_type,1_1
kcount,1
numberNandB,1
brightnessNandB,1
carpet pos,0
pc,0
Time (ms),CH1 Auto-Correlation
1.0,0.0910259559750557
2.0,0.0841367244720459
3.0,0.07841711491346359
4.0,0.07337792217731476
5.0,0.06885802745819092
6.0,0.06492929905653
7.0,0.06148805469274521
8.0,0.05821291729807854
9.0,0.055481478571891785
10.0,0.05305876210331917
11.0,0.05087553337216377
12.0,0.048886772245168686
13.0,0.04702673479914665
14.0,0.04512643441557884
15.0,0.04348953068256378
16.0,0.04175395518541336
18.0,0.03862866759300232
20.0,0.03588328883051872
22.0,0.0332067534327507
24.0,0.031136121600866318
26.0,0.029498577117919922
28.0,0.02791135199368
30.0,0.026843011379241943
32.0,0.026005089282989502
36.0,0.02337438240647316
40.0,0.021767061203718185
44.0,0.020423561334609985
48.0,0.018750950694084167
52.0,0.017346879467368126
56.0,0.016905346885323524
60.0,0.016683757305145264
64.0,0.01700517162680626
72.0,0.014857166446745396
80.0,0.012333658523857594
88.0,0.010695724748075008
96.0,0.010021263733506203
104.0,0.009611094370484352
112.0,0.009706776589155197
120.0,0.009458024054765701
128.0,0.008678018115460873
144.0,0.00491678761318326
160.0,0.0036149644292891026
176.0,0.0034780940040946007
192.0,0.004626753274351358
208.0,0.003681632922962308
224.0,0.0056225634180009365
240.0,0.007837573997676373
256.0,0.007221120409667492
288.0,0.0068373605608940125
320.0,0.006263721268624067
352.0,0.0015421436401084065
384.0,0.0018096457934007049
416.0,0.003791721072047949
448.0,0.0017295461148023605
480.0,0.0009002131992019713
512.0,0.0063757216557860374
576.0,0.004319199826568365
640.0,0.004743223078548908
704.0,0.006301323417574167
768.0,0.0038451612927019596
832.0,0.00600659241899848
896.0,0.0029481269884854555
960.0,0.005764704663306475
1024.0,0.004307264927774668
1152.0,0.007960161194205284
1280.0,0.008066674694418907
1408.0,0.004427604377269745
1536.0,-0.00023549226170871407
1664.0,0.003813335206359625
1792.0,0.0035218449775129557
1920.0,0.00252841180190444
2048.0,0.004243065603077412
2304.0,0.0009332283516414464
2560.0,0.0033741553779691458
2816.0,-0.003837449010461569
3072.0,-0.002452549757435918
3328.0,0.002783826319500804
3584.0,0.0030922316946089268
3840.0,-0.0005763907101936638
4096.0,-0.0030649832915514708
4608.0,-0.004486197605729103
5120.0,-0.003875675378367305
5632.0,-0.003991903271526098
6144.0,-0.005692814476788044
6656.0,-0.006605746690183878
7168.0,-0.00273431115783751
7680.0,-0.0040978542529046535
8192.0,-0.0011103969300165772
end
