version,3.0
numOfCh,1
type,point
parent_name,714af_1dot0-0dot1
ch_type,1_1
kcount,1
numberNandB,1
brightnessNandB,1
carpet pos,0
pc,0
Time (ms),CH1 Auto-Correlation
1.0,0.1083347350358963
2.0,0.10110622644424438
3.0,0.09506810456514359
4.0,0.08993157744407654
5.0,0.08538677543401718
6.0,0.08116620779037476
7.0,0.07711463421583176
8.0,0.07339714467525482
9.0,0.07003342360258102
10.0,0.06715580821037292
11.0,0.0645504966378212
12.0,0.062193792313337326
13.0,0.05968828126788139
14.0,0.057510778307914734
15.0,0.05543600022792816
16.0,0.053690917789936066
18.0,0.05035291612148285
20.0,0.04717685654759407
22.0,0.044540464878082275
24.0,0.04200342670083046
26.0,0.04017164185643196
28.0,0.03887294977903366
30.0,0.03773248940706253
32.0,0.0365784727036953
36.0,0.034498970955610275
40.0,0.0334315188229084
44.0,0.03219760209321976
48.0,0.03153315931558609
52.0,0.03168480470776558
56.0,0.0317283496260643
60.0,0.03044915199279785
64.0,0.02865932136774063
72.0,0.02523907832801342
80.0,0.023755086585879326
88.0,0.021534467115998268
96.0,0.019764479249715805
104.0,0.01695394143462181
112.0,0.015233409591019154
120.0,0.015834543853998184
128.0,0.01473777461796999
144.0,0.009602608159184456
160.0,0.009460940957069397
176.0,0.0072077978402376175
192.0,0.006057498510926962
208.0,0.003983646165579557
224.0,0.001840850804001093
240.0,0.004892038647085428
256.0,0.00674064364284277
288.0,0.005789177492260933
320.0,0.005340386647731066
352.0,0.003564067417755723
384.0,0.003965305630117655
416.0,0.00709554273635149
448.0,0.00658284779638052
480.0,0.002296897117048502
512.0,4.119001823710278e-05
576.0,0.0037436215206980705
640.0,-9.861776925390586e-05
704.0,-0.0027003081049770117
768.0,-0.002596872625872493
832.0,-0.005146407056599855
896.0,-0.006649560760706663
960.0,-0.007702655624598265
1024.0,-0.005882803350687027
1152.0,-0.0013314607786014676
1280.0,0.0007704601739533246
1408.0,-0.00024730709264986217
1536.0,-0.002912745112553239
1664.0,-0.006909292656928301
1792.0,0.005740134045481682
1920.0,0.0037173416931182146
2048.0,0.0036670067347586155
2304.0,-0.00605901051312685
2560.0,-0.002517558401450515
2816.0,-0.002875453792512417
3072.0,-0.00282467738725245
3328.0,-9.266557026421651e-05
3584.0,-0.007543088868260384
3840.0,0.0008693185518495739
4096.0,0.00079016899690032
4608.0,0.011425592005252838
5120.0,0.005539566278457642
5632.0,-0.005213374271988869
6144.0,-0.008236593566834927
6656.0,-0.005295171402394772
7168.0,0.0032345084473490715
7680.0,-0.0038364133797585964
8192.0,-0.011381560936570168
end
