version,3.0
numOfCh,1
type,point
parent_name,714af_1dot0-0dot1
ch_type,1_1
kcount,1
numberNandB,1
brightnessNandB,1
carpet pos,0
pc,0
Time (ms),CH1 Auto-Correlation
1.0,0.08555464446544647
2.0,0.07887545228004456
3.0,0.07320602983236313
4.0,0.06828772276639938
5.0,0.06396310776472092
6.0,0.05998428910970688
7.0,0.056325823068618774
8.0,0.05313946306705475
9.0,0.05000324547290802
10.0,0.04691178724169731
11.0,0.04434890300035477
12.0,0.04197772964835167
13.0,0.03979233279824257
14.0,0.03797744959592819
15.0,0.036223918199539185
16.0,0.034560032188892365
18.0,0.03159799426794052
20.0,0.029156208038330078
22.0,0.02720140665769577
24.0,0.025352654978632927
26.0,0.023694433271884918
28.0,0.022339407354593277
30.0,0.021079568192362785
32.0,0.01944958046078682
36.0,0.017552651464939117
40.0,0.016004743054509163
44.0,0.014982121996581554
48.0,0.014237147755920887
52.0,0.012776080518960953
56.0,0.011457439512014389
60.0,0.010834775865077972
64.0,0.009966924786567688
72.0,0.010140703991055489
80.0,0.008812802843749523
88.0,0.007617726922035217
96.0,0.007350051775574684
104.0,0.0050812955014407635
112.0,0.0032580136321485043
120.0,0.002819168148562312
128.0,0.0034138911869376898
144.0,0.002027784939855337
160.0,0.0019384471233934164
176.0,0.0027566018979996443
192.0,0.002206222154200077
208.0,-0.00048437240184284747
224.0,0.0004194899811409414
240.0,0.0011638524010777473
256.0,0.002492535626515746
288.0,0.00025871722027659416
320.0,0.0017336951568722725
352.0,0.0005216074641793966
384.0,0.0015018548583611846
416.0,0.0036053385119885206
448.0,-0.0018933615647256374
480.0,-0.001568519975990057
512.0,-0.001351544284261763
576.0,-0.0009064538753591478
640.0,0.003320608753710985
704.0,-0.0007213301723822951
768.0,-0.004515602719038725
832.0,-0.0023298857267946005
896.0,0.001713713863864541
960.0,0.005476151127368212
1024.0,0.0028015400748699903
1152.0,0.00577131612226367
1280.0,0.00028912394191138446
1408.0,-0.002644093008711934
1536.0,0.0009182927897199988
1664.0,-0.0009000962600111961
1792.0,-0.002961730817332864
1920.0,-0.0007906406535767019
2048.0,0.0016290443018078804
2304.0,0.0004232625651638955
2560.0,-0.0021331023890525103
2816.0,-0.003532674163579941
3072.0,-0.0019034111173823476
3328.0,-0.003345083212479949
3584.0,-0.0006975832511670887
3840.0,-0.0020757592283189297
4096.0,-0.00022300872660707682
4608.0,0.0016024770447984338
5120.0,0.0011987430043518543
5632.0,0.003235142445191741
6144.0,-0.001166333444416523
6656.0,0.0018330554012209177
7168.0,0.0006814816733822227
7680.0,-0.0018459244165569544
8192.0,-0.007478979881852865
end
