version,3.0
numOfCh,1
type,point
parent_name,714af_1dot0-0dot1
ch_type,1_1
kcount,1
numberNandB,1
brightnessNandB,1
carpet pos,0
pc,0
Time (ms),CH1 Auto-Correlation
1.0,0.09511446207761765
2.0,0.08856279402971268
3.0,0.0828341469168663
4.0,0.07760801911354065
5.0,0.07292985916137695
6.0,0.06890030205249786
7.0,0.06534656882286072
8.0,0.062114328145980835
9.0,0.05930616706609726
10.0,0.05672457441687584
11.0,0.05444059520959854
12.0,0.05238530412316322
13.0,0.05059197545051575
14.0,0.048754822462797165
15.0,0.04719969630241394
16.0,0.0457041896879673
18.0,0.043164465576410294
20.0,0.04134237393736839
22.0,0.03989394009113312
24.0,0.03801634907722473
26.0,0.03581763058900833
28.0,0.03369772434234619
30.0,0.0319676510989666
32.0,0.030559903010725975
36.0,0.028459198772907257
40.0,0.02609683759510517
44.0,0.023982541635632515
48.0,0.02328101173043251
52.0,0.02293275110423565
56.0,0.02242913842201233
60.0,0.020580193027853966
64.0,0.018633363768458366
72.0,0.015977589413523674
80.0,0.01500240620225668
88.0,0.012731003575026989
96.0,0.011324483901262283
104.0,0.009516740217804909
112.0,0.008503716439008713
120.0,0.007338247261941433
128.0,0.0057633682154119015
144.0,0.007543304469436407
160.0,0.00816966313868761
176.0,0.005995826330035925
192.0,0.0033406794536858797
208.0,0.002492710016667843
224.0,0.0023844223469495773
240.0,0.003493900178000331
256.0,0.002717616967856884
288.0,0.0016706492751836777
320.0,0.004640089813619852
352.0,0.0057284897193312645
384.0,0.002113941591233015
416.0,0.001849150168709457
448.0,0.004859160166233778
480.0,0.006571518257260323
512.0,0.00985442940145731
576.0,0.006287539377808571
640.0,0.007307691499590874
704.0,0.0021262348163872957
768.0,0.0005436320789158344
832.0,0.0006792385247536004
896.0,-0.006700585130602121
960.0,-0.0023452453315258026
1024.0,-0.0031662960536777973
1152.0,-0.0031064797658473253
1280.0,-0.003287347499281168
1408.0,-0.0023953416384756565
1536.0,-0.004897072911262512
1664.0,-0.007645233999937773
1792.0,-0.006932097487151623
1920.0,-0.0016689249314367771
2048.0,-0.0003890852094627917
2304.0,0.001149445422925055
2560.0,0.003396561136469245
2816.0,0.006027613766491413
3072.0,0.0013728670310229063
3328.0,0.0046857381239533424
3584.0,-0.003587381448596716
3840.0,-0.0031188041903078556
4096.0,-0.004157971125096083
4608.0,-0.0031840556766837835
5120.0,0.0008981893770396709
5632.0,0.002341572195291519
6144.0,-0.0004309380310587585
6656.0,-0.003352574072778225
7168.0,-0.0017703536432236433
7680.0,0.0021590348333120346
8192.0,0.002843535738065839
end
