version,3.0
numOfCh,1
type,point
parent_name,714af_1dot0-0dot1
ch_type,1_1
kcount,1
numberNandB,1
brightnessNandB,1
carpet pos,0
pc,0
Time (ms),CH1 Auto-Correlation
1.0,0.09491854161024094
2.0,0.0879669114947319
3.0,0.08209587633609772
4.0,0.07671157270669937
5.0,0.0719020888209343
6.0,0.06775283813476562
7.0,0.06409348547458649
8.0,0.06073509901762009
9.0,0.05787777900695801
10.0,0.05517872795462608
11.0,0.05266004428267479
12.0,0.05033649131655693
13.0,0.048034168779850006
14.0,0.04618518427014351
15.0,0.0443551279604435
16.0,0.042642850428819656
18.0,0.03916901722550392
20.0,0.03553946688771248
22.0,0.03271297737956047
24.0,0.030209872871637344
26.0,0.027801327407360077
28.0,0.02572687156498432
30.0,0.023735160008072853
32.0,0.022150801494717598
36.0,0.020596478134393692
40.0,0.018910907208919525
44.0,0.0170915387570858
48.0,0.015402531251311302
52.0,0.013620609417557716
56.0,0.012295825406908989
60.0,0.011440055444836617
64.0,0.010560044087469578
72.0,0.009153608232736588
80.0,0.007496860809624195
88.0,0.007749637123197317
96.0,0.008369369432330132
104.0,0.00772033492103219
112.0,0.007115921005606651
120.0,0.00537462392821908
128.0,0.004757226444780827
144.0,0.0036521584261208773
160.0,0.0028411184903234243
176.0,0.0015053509268909693
192.0,0.0009905329206958413
208.0,0.0008864938281476498
224.0,0.0014586553443223238
240.0,0.0003646825789473951
256.0,0.0007343035540543497
288.0,0.0010435010772198439
320.0,0.004182053729891777
352.0,0.00542422803118825
384.0,0.0014031680766493082
416.0,0.003497201483696699
448.0,0.0018967634532600641
480.0,0.0006205429672263563
512.0,-0.0014410815201699734
576.0,0.0009125762153416872
640.0,0.0029522848781198263
704.0,-0.00022183431428857148
768.0,0.0010987668065354228
832.0,-0.00023608838091604412
896.0,0.000915766111575067
960.0,0.0009989133104681969
1024.0,0.004913794808089733
1152.0,0.00018311500025447458
1280.0,-0.0029405467212200165
1408.0,0.0002354718599235639
1536.0,-0.0031567823607474566
1664.0,-0.002022888045758009
1792.0,-0.0018137197475880384
1920.0,-0.004392291884869337
2048.0,-0.002003972651436925
2304.0,0.0015747027937322855
2560.0,0.0031171017326414585
2816.0,0.0017380791250616312
3072.0,-0.002497225534170866
3328.0,-0.003277579555287957
3584.0,-0.0020951854530721903
3840.0,-3.251482485211454e-05
4096.0,-0.004174398258328438
4608.0,-0.004566120449453592
5120.0,0.0001618636742932722
5632.0,-0.0011216811835765839
6144.0,-0.0006975667201913893
6656.0,0.00012676669575739652
7168.0,0.0017213691025972366
7680.0,0.004259997513145208
8192.0,0.0031319225672632456
end
