version,3.0
numOfCh,1
type,point
parent_name,714af_1dot0-0dot1
ch_type,1_1
kcount,1
numberNandB,1
brightnessNandB,1
carpet pos,0
pc,0
Time (ms),CH1 Auto-Correlation
1.0,0.08010272681713104
2.0,0.0733473002910614
3.0,0.06791216135025024
4.0,0.06302221119403839
5.0,0.05886189267039299
6.0,0.055035680532455444
7.0,0.05139492452144623
8.0,0.04822232946753502
9.0,0.045465368777513504
10.0,0.043262630701065063
11.0,0.041294969618320465
12.0,0.03953586146235466
13.0,0.03777570649981499
14.0,0.03613327443599701
15.0,0.03421463444828987
16.0,0.032420430332422256
18.0,0.029220249503850937
20.0,0.026780353859066963
22.0,0.025056714192032814
24.0,0.023665353655815125
26.0,0.022649021819233894
28.0,0.02153611369431019
30.0,0.020654773339629173
32.0,0.020037511363625526
36.0,0.019227156415581703
40.0,0.018122194334864616
44.0,0.01658284105360508
48.0,0.015403345227241516
52.0,0.014754533767700195
56.0,0.01466477382928133
60.0,0.014268103986978531
64.0,0.013340822421014309
72.0,0.010991555638611317
80.0,0.008060327731072903
88.0,0.006643638014793396
96.0,0.00762464664876461
104.0,0.009180518798530102
112.0,0.009157132357358932
120.0,0.008631621487438679
128.0,0.006883949972689152
144.0,0.0037753041833639145
160.0,0.0016291966894641519
176.0,0.0005429653683677316
192.0,0.0017598839476704597
208.0,0.0012727983994409442
224.0,0.0015829638577997684
240.0,-0.0006761291297152638
256.0,-0.002658825134858489
288.0,-0.002187588717788458
320.0,-0.0038603877183049917
352.0,-0.0029562064446508884
384.0,-0.0021238268818706274
416.0,-0.0013027825625613332
448.0,-0.00021174168796278536
480.0,0.002918619429692626
512.0,0.004925218876451254
576.0,0.0074506946839392185
640.0,0.004855429753661156
704.0,0.003817753866314888
768.0,0.004670324735343456
832.0,0.001132178120315075
896.0,-0.001162612228654325
960.0,-0.0007033208385109901
1024.0,-0.00588721688836813
1152.0,-0.0008707860251888633
1280.0,0.0018173608696088195
1408.0,0.0007488393457606435
1536.0,-0.003207350382581353
1664.0,-0.0035113138146698475
1792.0,-0.0010320235742256045
1920.0,-0.0005939617403782904
2048.0,-0.004080906044691801
2304.0,-0.0016217863885685802
2560.0,0.0011361768702045083
2816.0,-0.003821613034233451
3072.0,-0.0018930691294372082
3328.0,-1.3982745258545037e-05
3584.0,-0.003664545714855194
3840.0,0.0007142818649299443
4096.0,-0.0035859905183315277
4608.0,0.0001740558655001223
5120.0,0.00021751649910584092
5632.0,0.0006865613395348191
6144.0,0.001300676492974162
6656.0,0.00016383809270337224
7168.0,0.0021361480467021465
7680.0,0.0008276125299744308
8192.0,-0.0026454837061464787
end
