version,3.0
numOfCh,1
type,point
parent_name,714af_1dot0-0dot1
ch_type,1_1
kcount,1
numberNandB,1
brightnessNandB,1
carpet pos,0
pc,0
Time (ms),CH1 Auto-Correlation
1.0,0.07813277840614319
2.0,0.0716685801744461
3.0,0.06610637903213501
4.0,0.06131036579608917
5.0,0.057344499975442886
6.0,0.05417409539222717
7.0,0.051516395062208176
8.0,0.04894576966762543
9.0,0.046537648886442184
10.0,0.04430327191948891
11.0,0.04232453182339668
12.0,0.04042878374457359
13.0,0.038645267486572266
14.0,0.03685523942112923
15.0,0.03528793528676033
16.0,0.033984001725912094
18.0,0.031906500458717346
20.0,0.029988456517457962
22.0,0.028254305943846703
24.0,0.026870571076869965
26.0,0.025392690673470497
28.0,0.02357737347483635
30.0,0.02218872867524624
32.0,0.02114688791334629
36.0,0.018305158242583275
40.0,0.01614111289381981
44.0,0.014245335012674332
48.0,0.012834168039262295
52.0,0.012085317634046078
56.0,0.010809564031660557
60.0,0.009923357516527176
64.0,0.008678564801812172
72.0,0.00808679684996605
80.0,0.008668394759297371
88.0,0.008534626103937626
96.0,0.00857048761099577
104.0,0.008245423436164856
112.0,0.0067704166285693645
120.0,0.005663120653480291
128.0,0.004474780522286892
144.0,0.0009736289503052831
160.0,-0.0026343294885009527
176.0,-0.003539379220455885
192.0,-0.0042557744309306145
208.0,-0.004048579838126898
224.0,-0.0041309623047709465
240.0,-0.0035404555965214968
256.0,-0.0025082589127123356
288.0,-0.0027677291072905064
320.0,-0.0051377201452851295
352.0,-0.004023194778710604
384.0,-0.0027381007093936205
416.0,-0.00461483933031559
448.0,-0.0019137702183797956
480.0,-0.003751592943444848
512.0,0.0009470656514167786
576.0,0.004123523831367493
640.0,0.003053925931453705
704.0,0.0025444459170103073
768.0,0.005942740011960268
832.0,0.0026074089109897614
896.0,0.0019513936713337898
960.0,-0.0016593222972005606
1024.0,-0.0009527493384666741
1152.0,-0.001545364735648036
1280.0,0.0001724463072605431
1408.0,0.007378137204796076
1536.0,0.005138156469911337
1664.0,0.0007182179251685739
1792.0,-0.002592198085039854
1920.0,-0.002670414512977004
2048.0,-0.002631159732118249
2304.0,0.0038514132611453533
2560.0,0.00119647232349962
2816.0,-0.0002713720314204693
3072.0,0.001992779551073909
3328.0,-0.0030089090578258038
3584.0,-0.0008565373718738556
3840.0,0.002944014500826597
4096.0,8.35057144286111e-05
4608.0,-0.001351263839751482
5120.0,-0.001906162011437118
5632.0,-0.003237490076571703
6144.0,-0.0009711160091683269
6656.0,-0.0012149018002673984
7168.0,-0.002915050135925412
7680.0,0.0010930857388302684
8192.0,-0.0037071593105793
end
