version,3.0
numOfCh,1
type,point
parent_name,714af_1dot0-0dot1
ch_type,1_1
kcount,1
numberNandB,1
brightnessNandB,1
carpet pos,0
pc,0
Time (ms),CH1 Auto-Correlation
1.0,0.08493485301733017
2.0,0.07820834219455719
3.0,0.0724450871348381
4.0,0.06726038455963135
5.0,0.06279447674751282
6.0,0.05882302671670914
7.0,0.05541209504008293
8.0,0.052260417491197586
9.0,0.04927099123597145
10.0,0.04669974371790886
11.0,0.04443890601396561
12.0,0.04218234494328499
13.0,0.03983044996857643
14.0,0.03780418634414673
15.0,0.03598549962043762
16.0,0.03440035879611969
18.0,0.032213881611824036
20.0,0.03002936579287052
22.0,0.027704104781150818
24.0,0.025290686637163162
26.0,0.023261509835720062
28.0,0.021632395684719086
30.0,0.02062109485268593
32.0,0.019525405019521713
36.0,0.017499087378382683
40.0,0.01634668931365013
44.0,0.015280699357390404
48.0,0.014306938275694847
52.0,0.013634721748530865
56.0,0.012746849097311497
60.0,0.011932376772165298
64.0,0.010489681735634804
72.0,0.008717022836208344
80.0,0.0076369610615074635
88.0,0.0051043033599853516
96.0,0.002249502344056964
104.0,0.002286881674081087
112.0,0.0031697023659944534
120.0,0.003154053119942546
128.0,0.0032984446734189987
144.0,0.0005276597803458571
160.0,0.0009298945660702884
176.0,0.0016574582550674677
192.0,0.0007047323742881417
208.0,0.0014501397963613272
224.0,-0.0001809614768717438
240.0,-0.0023067535366863012
256.0,-0.00061360455583781
288.0,0.0008164961473084986
320.0,-1.976955718419049e-05
352.0,0.0037840635050088167
384.0,0.0021138666197657585
416.0,0.0007464861264452338
448.0,-0.0028698283713310957
480.0,-0.0021450172644108534
512.0,-0.004386829677969217
576.0,-0.0009825020097196102
640.0,-0.0006682969979010522
704.0,0.0009087640792131424
768.0,-0.0004569175944197923
832.0,0.00024854051298461854
896.0,-0.0006576671730726957
960.0,-0.0033483237493783236
1024.0,0.002187813399359584
1152.0,0.0009599096374586225
1280.0,-0.0024685992393642664
1408.0,0.0004502678057178855
1536.0,0.0008571731741540134
1664.0,-0.00230582058429718
1792.0,-0.0015669973799958825
1920.0,0.0025718335527926683
2048.0,-0.0005962624563835561
2304.0,-0.00019321755098644644
2560.0,-0.0050943451933562756
2816.0,0.001561116543598473
3072.0,0.00019209501624573022
3328.0,-0.0015105219790712
3584.0,-0.0013713485095649958
3840.0,0.00047899188939481974
4096.0,-0.00038834207225590944
4608.0,-0.0003423796151764691
5120.0,-0.00040108629036694765
5632.0,-0.004246137570589781
6144.0,0.0012335841311141849
6656.0,0.0018536892021074891
7168.0,-0.0026595275849103928
7680.0,-0.0034228379372507334
8192.0,3.4696295188041404e-05
end
