version,3.0
numOfCh,1
type,point
parent_name,714af_1dot0-0dot1
ch_type,1_1
kcount,1
numberNandB,1
brightnessNandB,1
carpet pos,0
pc,0
Time (ms),CH1 Auto-Correlation
1.0,0.08296797424554825
2.0,0.07631085067987442
3.0,0.07056626677513123
4.0,0.0656922459602356
5.0,0.0614653155207634
6.0,0.05763906240463257
7.0,0.05426317825913429
8.0,0.05110654979944229
9.0,0.04832197725772858
10.0,0.045817986130714417
11.0,0.04354800656437874
12.0,0.04155297577381134
13.0,0.03966506943106651
14.0,0.037791658192873
15.0,0.03609368950128555
16.0,0.03466997668147087
18.0,0.0322418287396431
20.0,0.030345015227794647
22.0,0.028465013951063156
24.0,0.026750123128294945
26.0,0.0252127256244421
28.0,0.023605355992913246
30.0,0.022200552746653557
32.0,0.020785000175237656
36.0,0.017934434115886688
40.0,0.015538574196398258
44.0,0.013641517609357834
48.0,0.012127947062253952
52.0,0.011389907449483871
56.0,0.010507366620004177
60.0,0.009766308590769768
64.0,0.008973497897386551
72.0,0.00961910467594862
80.0,0.01029875222593546
88.0,0.009587779641151428
96.0,0.0082542197778821
104.0,0.007648169063031673
112.0,0.0072021810337901115
120.0,0.006803510244935751
128.0,0.007197814527899027
144.0,0.004624154418706894
160.0,0.006355410907417536
176.0,0.008411292918026447
192.0,0.007054831366986036
208.0,0.004913986194878817
224.0,0.006362347863614559
240.0,0.006771816406399012
256.0,0.007672986015677452
288.0,0.004400881007313728
320.0,0.004735926166176796
352.0,0.0038838228210806847
384.0,0.0028440041933208704
416.0,0.0021650069393217564
448.0,-9.833960211835802e-05
480.0,0.0010661742417141795
512.0,-0.00298264529556036
576.0,-0.0012833188520744443
640.0,-0.0007204873254522681
704.0,-8.213399269152433e-05
768.0,9.286018757848069e-05
832.0,-0.0024047193583101034
896.0,-0.005226688459515572
960.0,0.0014200991718098521
1024.0,0.0011881020618602633
1152.0,1.3808124094794039e-05
1280.0,-0.0011610396904870868
1408.0,-0.0024886394385248423
1536.0,0.0009610737906768918
1664.0,-0.00041671530925668776
1792.0,0.002748245606198907
1920.0,0.0016322829760611057
2048.0,-0.0011112167267128825
2304.0,0.0012277461355552077
2560.0,0.0037174655590206385
2816.0,0.001021481934003532
3072.0,0.0005176818231120706
3328.0,-0.0006703645922243595
3584.0,-0.0013037159806117415
3840.0,-0.002625638386234641
4096.0,-0.002565654693171382
4608.0,-0.0006411042413674295
5120.0,-0.00013442903582472354
5632.0,-0.0015964306658133864
6144.0,-0.0006128564127720892
6656.0,-0.0005411164020188153
7168.0,-0.0001321532326983288
7680.0,0.004042269662022591
8192.0,-0.00010711963841458783
end
