version,3.0
numOfCh,1
type,point
parent_name,714af_1dot0-0dot1
ch_type,1_1
kcount,1
numberNandB,1
brightnessNandB,1
carpet pos,0
pc,0
Time (ms),CH1 Auto-Correlation
1.0,0.08515046536922455
2.0,0.07862761616706848
3.0,0.07297933846712112
4.0,0.06818068772554398
5.0,0.06372033059597015
6.0,0.059856489300727844
7.0,0.0563335157930851
8.0,0.05307476222515106
9.0,0.05009089410305023
10.0,0.04717973247170448
11.0,0.044501885771751404
12.0,0.042213067412376404
13.0,0.04019039124250412
14.0,0.03856547549366951
15.0,0.03716002404689789
16.0,0.03577359765768051
18.0,0.032972995191812515
20.0,0.03045191615819931
22.0,0.0283507127314806
24.0,0.026347624137997627
26.0,0.024719638749957085
28.0,0.023497199639678
30.0,0.022534381598234177
32.0,0.021584292873740196
36.0,0.020121369510889053
40.0,0.018578777089715004
44.0,0.016531838104128838
48.0,0.014834359288215637
52.0,0.013057426549494267
56.0,0.011288264766335487
60.0,0.010095403529703617
64.0,0.01005023717880249
72.0,0.010198884643614292
80.0,0.009081670083105564
88.0,0.007972749881446362
96.0,0.005863334983587265
104.0,0.0036592227406799793
112.0,0.002817475236952305
120.0,0.001992514356970787
128.0,2.927531113527948e-06
144.0,0.001309212064370513
160.0,0.0034094892907887697
176.0,0.0012732758186757565
192.0,0.0009664329118095338
208.0,-5.2055522246519104e-05
224.0,0.0010506423423066735
240.0,0.005266380496323109
256.0,0.005820734892040491
288.0,0.0013236835366114974
320.0,0.00349845876917243
352.0,0.0030347781721502542
384.0,0.001663351897150278
416.0,0.0034038785379379988
448.0,0.0041862837970256805
480.0,0.006629667244851589
512.0,0.008650559931993484
576.0,0.008570615202188492
640.0,0.00447423942387104
704.0,0.00270248600281775
768.0,0.0023523501586169004
832.0,0.0027380117680877447
896.0,0.0030291867442429066
960.0,0.004819064401090145
1024.0,0.008766123093664646
1152.0,0.0014129392802715302
1280.0,-0.0019228346645832062
1408.0,0.0011062403209507465
1536.0,0.001646809745579958
1664.0,0.00030903422157280147
1792.0,-0.006421942729502916
1920.0,-0.002622273052111268
2048.0,-0.0041315918788313866
2304.0,-0.0036119779106229544
2560.0,-0.004056371282786131
2816.0,-0.006440059747546911
3072.0,-0.004613292869180441
3328.0,-0.0056619117967784405
3584.0,-0.003461675252765417
3840.0,-0.0005066417506895959
4096.0,0.0006888547213748097
4608.0,0.003577417228370905
5120.0,0.0027621553745120764
5632.0,0.0020780283957719803
6144.0,0.00034354132367298007
6656.0,-0.0041552940383553505
7168.0,-0.004462620243430138
7680.0,-0.005519832484424114
8192.0,-0.003360293572768569
end
