version,3.0
numOfCh,1
type,point
parent_name,dirty_0dot08-1dot0
ch_type,1_1
kcount,1
numberNandB,1
brightnessNandB,1
carpet pos,0
pc,0
Time (ms),CH1 Auto-Correlation
1.0,0.09125135093927383
2.0,0.08631007373332977
3.0,0.0816676914691925
4.0,0.07743927091360092
5.0,0.07414469867944717
6.0,0.07123656570911407
7.0,0.06927239149808884
8.0,0.06735067814588547
9.0,0.0653441920876503
10.0,0.06352994590997696
11.0,0.06140267848968506
12.0,0.05975712463259697
13.0,0.05802719667553902
14.0,0.05693363770842552
15.0,0.05618807300925255
16.0,0.05498362332582474
18.0,0.053729359060525894
20.0,0.0517854169011116
22.0,0.04994920641183853
24.0,0.048083532601594925
26.0,0.046480242162942886
28.0,0.04516594856977463
30.0,0.0441642701625824
32.0,0.04335111752152443
36.0,0.039907414466142654
40.0,0.03588826209306717
44.0,0.03225068747997284
48.0,0.030002852901816368
52.0,0.0279272198677063
56.0,0.025362089276313782
60.0,0.022409822791814804
64.0,0.019657470285892487
72.0,0.016812847927212715
80.0,0.01489940658211708
88.0,0.01349717378616333
96.0,0.012431449256837368
104.0,0.01221114955842495
112.0,0.011515715159475803
120.0,0.01062321662902832
128.0,0.011499368585646152
144.0,0.008734182454645634
160.0,0.00560845946893096
176.0,0.00439832778647542
192.0,0.0026050338055938482
208.0,0.0025429336819797754
224.0,0.001617233268916607
240.0,0.0016162520041689277
256.0,0.0009845392778515816
288.0,0.0010091672884300351
320.0,0.0010208403691649437
352.0,0.0021736605558544397
384.0,0.006368630565702915
416.0,0.01284538209438324
448.0,0.01794835738837719
480.0,0.019376197829842567
512.0,0.01650196500122547
576.0,0.010640048421919346
640.0,0.0038638038095086813
704.0,-0.0023546284064650536
768.0,-0.002323627006262541
832.0,-0.002021532040089369
896.0,0.0012498549185693264
960.0,0.002255162224173546
1024.0,0.004100375808775425
1152.0,0.0001159278690465726
1280.0,-0.00579085573554039
1408.0,-0.004576357081532478
1536.0,0.0002515622181817889
1664.0,-0.001843116246163845
1792.0,-0.000644619285594672
1920.0,-0.007696768268942833
2048.0,-0.008462096564471722
2304.0,-0.004700094927102327
2560.0,-0.00419378699734807
2816.0,-9.193421283271164e-05
3072.0,0.0023863622918725014
3328.0,0.0006885307375341654
3584.0,-0.0002786590775940567
3840.0,-0.004838522989302874
4096.0,-0.00026797084137797356
4608.0,0.0025175793562084436
5120.0,0.00590536231175065
5632.0,0.00422239163890481
6144.0,0.0008961768471635878
6656.0,-0.005314032547175884
7168.0,-0.008559102192521095
7680.0,-0.005512166768312454
8192.0,-0.002004984999075532
9216.0,-0.002441968070343137
10240.0,0.005538624245673418
11264.0,0.0004721776058431715
12288.0,-0.013728347606956959
13312.0,0.001695669605396688
14336.0,0.010388707742094994
end
