version,3.0
numOfCh,1
type,point
parent_name,dirty_0dot08-1dot0
ch_type,1_1
kcount,1
numberNandB,1
brightnessNandB,1
carpet pos,0
pc,0
Time (ms),CH1 Auto-Correlation
1.0,0.10235883295536041
2.0,0.09498627483844757
3.0,0.08896832913160324
4.0,0.08452734351158142
5.0,0.08163090795278549
6.0,0.07836594432592392
7.0,0.07520471513271332
8.0,0.07189961522817612
9.0,0.06970510631799698
10.0,0.06809727847576141
11.0,0.06684650480747223
12.0,0.06593482196331024
13.0,0.06529765576124191
14.0,0.0645250678062439
15.0,0.0634629875421524
16.0,0.061801034957170486
18.0,0.058905333280563354
20.0,0.05603877827525139
22.0,0.05389822646975517
24.0,0.051670487970113754
26.0,0.04924197122454643
28.0,0.04783068969845772
30.0,0.04659837856888771
32.0,0.0448431521654129
36.0,0.04238344728946686
40.0,0.04146875813603401
44.0,0.04014279320836067
48.0,0.03839223459362984
52.0,0.03539073467254639
56.0,0.036090485751628876
60.0,0.03625393286347389
64.0,0.03529297932982445
72.0,0.033983055502176285
80.0,0.03226117789745331
88.0,0.030192693695425987
96.0,0.029772251844406128
104.0,0.02751155011355877
112.0,0.023657919839024544
120.0,0.020420769229531288
128.0,0.0181378573179245
144.0,0.015692496672272682
160.0,0.012782763689756393
176.0,0.008962579071521759
192.0,0.005510444287210703
208.0,0.002322847256436944
224.0,-0.00027450613561086357
240.0,-0.0015202512731775641
256.0,-0.0021881735883653164
288.0,-0.0017038470832630992
320.0,-0.0013223931891843677
352.0,0.0002013860212173313
384.0,0.0009950202656909823
416.0,-0.0002641442115418613
448.0,0.0023057872895151377
480.0,0.005381925031542778
512.0,0.009370646439492702
576.0,0.015296371653676033
640.0,0.016638819128274918
704.0,0.01901860721409321
768.0,0.009835097007453442
832.0,0.0031890948303043842
896.0,0.002406192710623145
960.0,0.0003978880704380572
1024.0,-0.0013580878730863333
1152.0,-0.00011408163118176162
1280.0,0.003749370574951172
1408.0,0.003127510193735361
1536.0,-0.0061434246599674225
1664.0,-0.00806709099560976
1792.0,-0.0020920487586408854
1920.0,0.0024550992529839277
2048.0,0.004017655737698078
2304.0,-0.0014792530564591289
2560.0,0.002425768878310919
2816.0,0.005161195527762175
3072.0,0.0024267316330224276
3328.0,0.0015394211513921618
3584.0,-0.0007614330388605595
3840.0,0.000377107469830662
4096.0,-0.005511751864105463
4608.0,-0.0017327115638181567
5120.0,-0.003551181172952056
5632.0,-0.0027482332661747932
6144.0,-0.0060928212478756905
6656.0,-0.00483826594427228
7168.0,-0.006018234882503748
7680.0,-0.0024981191381812096
8192.0,-0.0020415009930729866
9216.0,0.0007422437774948776
10240.0,0.0015852688811719418
11264.0,0.00038116672658361495
12288.0,0.0014672010438516736
13312.0,-0.002096498617902398
14336.0,-0.006340069230645895
end
