version,3.0
numOfCh,1
type,point
parent_name,dirty_0dot08-1dot0
ch_type,1_1
kcount,1
numberNandB,1
brightnessNandB,1
carpet pos,0
pc,0
Time (ms),CH1 Auto-Correlation
1.0,0.11887011677026749
2.0,0.11046478152275085
3.0,0.10347263514995575
4.0,0.09672537446022034
5.0,0.09101542085409164
6.0,0.08605007827281952
7.0,0.08099271357059479
8.0,0.07693295180797577
9.0,0.07291080802679062
10.0,0.06975552439689636
11.0,0.0665372982621193
12.0,0.06301869451999664
13.0,0.05922568589448929
14.0,0.05555599182844162
15.0,0.05248427018523216
16.0,0.05004040151834488
18.0,0.04652806743979454
20.0,0.04370142146945
22.0,0.04055000841617584
24.0,0.03745116665959358
26.0,0.03444327041506767
28.0,0.03184022754430771
30.0,0.030033869668841362
32.0,0.027961989864706993
36.0,0.025007635354995728
40.0,0.02406918816268444
44.0,0.023956529796123505
48.0,0.023231280967593193
52.0,0.021963223814964294
56.0,0.022582707926630974
60.0,0.022787654772400856
64.0,0.021467573940753937
72.0,0.020165985450148582
80.0,0.02093440480530262
88.0,0.020473681390285492
96.0,0.019236121326684952
104.0,0.013829364441335201
112.0,0.014309796504676342
120.0,0.013869228772819042
128.0,0.014754210598766804
144.0,0.01691483147442341
160.0,0.02045387402176857
176.0,0.01669583097100258
192.0,0.009669167920947075
208.0,0.01014189887791872
224.0,0.01157869677990675
240.0,0.00963631086051464
256.0,0.009853420779109001
288.0,0.008622417226433754
320.0,0.00933608878403902
352.0,0.004844983574002981
384.0,0.009266412816941738
416.0,0.015018225647509098
448.0,0.01021735742688179
480.0,0.010425910353660583
512.0,0.005169751588255167
576.0,0.008701729588210583
640.0,0.003270214656367898
704.0,-0.0015048825880512595
768.0,0.000900033104699105
832.0,-0.0012149879476055503
896.0,0.0011868446599692106
960.0,-0.0030106864869594574
1024.0,-0.00010010462574427947
1152.0,0.0026175931561738253
1280.0,0.005259371362626553
1408.0,0.0035954955965280533
1536.0,0.006656906567513943
1664.0,0.008682421408593655
1792.0,0.007737025152891874
1920.0,0.004860591609030962
2048.0,0.005750422365963459
2304.0,0.006199288181960583
2560.0,0.0003973546263296157
2816.0,0.001983754336833954
3072.0,0.003019583411514759
3328.0,0.00177567929495126
3584.0,0.0029474992770701647
3840.0,-0.00011938151874346659
4096.0,0.0030417582020163536
4608.0,-0.0005172714008949697
5120.0,0.0031409829389303923
5632.0,0.0001839137839851901
6144.0,0.00021945331536699086
6656.0,-0.00018561813340056688
7168.0,-0.002639190061017871
7680.0,4.486726174945943e-05
8192.0,0.0028662835247814655
9216.0,-0.003108052536845207
10240.0,-0.0055346679873764515
11264.0,-0.009055860340595245
12288.0,-0.006166118197143078
13312.0,-0.013211263343691826
14336.0,-0.03067649155855179
end
