version,3.0
numOfCh,1
type,point
parent_name,dirty_0dot08-1dot0
ch_type,1_1
kcount,1
numberNandB,1
brightnessNandB,1
carpet pos,0
pc,0
Time (ms),CH1 Auto-Correlation
1.0,0.22612951695919037
2.0,0.2102760374546051
3.0,0.19420483708381653
4.0,0.18173843622207642
5.0,0.16964475810527802
6.0,0.15776431560516357
7.0,0.146658256649971
8.0,0.13661116361618042
9.0,0.12723925709724426
10.0,0.11787290871143341
11.0,0.10909517854452133
12.0,0.10112449526786804
13.0,0.09432703256607056
14.0,0.0871749222278595
15.0,0.0813312903046608
16.0,0.0758008360862732
18.0,0.06804662942886353
20.0,0.06132679805159569
22.0,0.056012339890003204
24.0,0.05110672488808632
26.0,0.048817478120326996
28.0,0.04839364066720009
30.0,0.048200905323028564
32.0,0.050027910619974136
36.0,0.05391395092010498
40.0,0.05439190939068794
44.0,0.04604238644242287
48.0,0.036031629890203476
52.0,0.028577012941241264
56.0,0.02442004531621933
60.0,0.02192961424589157
64.0,0.01918374001979828
72.0,0.02043958380818367
80.0,0.019936444237828255
88.0,0.01788121834397316
96.0,0.016661059111356735
104.0,0.021364642307162285
112.0,0.02559080347418785
120.0,0.02809397503733635
128.0,0.02998308837413788
144.0,0.02064877189695835
160.0,0.019468339160084724
176.0,0.012790204957127571
192.0,0.0031396346166729927
208.0,0.005007491447031498
224.0,0.004542107228189707
240.0,0.014911780133843422
256.0,0.016481725499033928
288.0,0.017301160842180252
320.0,0.015689419582486153
352.0,0.010268311947584152
384.0,0.007734589744359255
416.0,0.0034059255849570036
448.0,0.009150181896984577
480.0,0.00644725514575839
512.0,0.0008349657873623073
576.0,-0.00023906408750917763
640.0,-8.016484935069457e-05
704.0,0.004449359606951475
768.0,0.0066998982802033424
832.0,0.0010039902990683913
896.0,0.007894852198660374
960.0,0.0017269807867705822
1024.0,-0.004063695203512907
1152.0,-0.005748929921537638
1280.0,-0.013506460003554821
1408.0,-0.008374986238777637
1536.0,-0.008617696352303028
1664.0,-0.008543748408555984
1792.0,0.0037055795546621084
1920.0,-0.0066767726093530655
2048.0,-0.004959569778293371
2304.0,-0.0006455449620261788
2560.0,0.002451054286211729
2816.0,0.005602018907666206
3072.0,-0.003105014795437455
3328.0,0.0029504941776394844
3584.0,-0.004454589914530516
3840.0,-0.006438484415411949
4096.0,-0.0025448668748140335
4608.0,-0.003334052860736847
5120.0,-0.001879032701253891
5632.0,0.0023281555622816086
6144.0,-0.0002884932910092175
6656.0,-0.0006112013943493366
7168.0,-0.002405461622402072
7680.0,-0.007132828235626221
8192.0,-0.001521536149084568
9216.0,0.007797461003065109
10240.0,0.0009510074160061777
11264.0,-0.013470591977238655
12288.0,-0.008958746679127216
13312.0,0.007673840504139662
14336.0,0.010045458562672138
end
