version,3.0
numOfCh,1
type,point
parent_name,dirty_0dot08-1dot0
ch_type,1_1
kcount,1
numberNandB,1
brightnessNandB,1
carpet pos,0
pc,0
Time (ms),CH1 Auto-Correlation
1.0,0.15163174271583557
2.0,0.14252936840057373
3.0,0.1363949030637741
4.0,0.13119225203990936
5.0,0.12692829966545105
6.0,0.12295996397733688
7.0,0.11832276731729507
8.0,0.11360763758420944
9.0,0.10805584490299225
10.0,0.10311441868543625
11.0,0.09907561540603638
12.0,0.09476906806230545
13.0,0.09064044058322906
14.0,0.08721266686916351
15.0,0.08413147181272507
16.0,0.08114420622587204
18.0,0.0734289288520813
20.0,0.06594188511371613
22.0,0.06086616590619087
24.0,0.05614131689071655
26.0,0.05207319185137749
28.0,0.04906000196933746
30.0,0.0456935316324234
32.0,0.04296794906258583
36.0,0.04102369025349617
40.0,0.03949456289410591
44.0,0.036886751651763916
48.0,0.034081339836120605
52.0,0.031096555292606354
56.0,0.028712762519717216
60.0,0.026045337319374084
64.0,0.025936048477888107
72.0,0.027435706928372383
80.0,0.029823381453752518
88.0,0.030912313610315323
96.0,0.03155234083533287
104.0,0.03330354765057564
112.0,0.03293157368898392
120.0,0.03412380814552307
128.0,0.03515985608100891
144.0,0.031153446063399315
160.0,0.02542758546769619
176.0,0.01954706385731697
192.0,0.017639880999922752
208.0,0.015158112160861492
224.0,0.020248008891940117
240.0,0.03100660629570484
256.0,0.031605564057826996
288.0,0.017511295154690742
320.0,0.015762295573949814
352.0,0.01231397408992052
384.0,0.001495107775554061
416.0,0.004992164671421051
448.0,0.006898423191159964
480.0,0.009208663366734982
512.0,0.006948164664208889
576.0,0.010532432235777378
640.0,0.01092902384698391
704.0,0.004854521714150906
768.0,0.0053189825266599655
832.0,0.008411631919443607
896.0,0.005805071908980608
960.0,0.0007291485671885312
1024.0,0.0021352709736675024
1152.0,0.005942215211689472
1280.0,0.005494650453329086
1408.0,0.01355544850230217
1536.0,0.013759538531303406
1664.0,0.016314510256052017
1792.0,0.010212964378297329
1920.0,0.010609745979309082
2048.0,0.006473136600106955
2304.0,-0.00010649579053279012
2560.0,-0.003430184442549944
2816.0,0.0014843764947727323
3072.0,0.0058449432253837585
3328.0,0.00972658395767212
3584.0,0.004810539074242115
3840.0,0.000609409820754081
4096.0,-0.0007638402748852968
4608.0,-0.0016142275417223573
5120.0,0.008537155576050282
5632.0,0.007238795980811119
6144.0,-0.007937021553516388
6656.0,-0.0033020884729921818
7168.0,-0.006384353619068861
7680.0,-0.014674576930701733
8192.0,-0.006868367549031973
9216.0,-0.006854409817606211
10240.0,-0.014277740381658077
11264.0,-0.019609523937106133
12288.0,-0.018197569996118546
13312.0,-0.018707187846302986
14336.0,0.0076808081939816475
end
