version,3.0
numOfCh,1
type,point
parent_name,dirty_0dot08-1dot0
ch_type,1_1
kcount,1
numberNandB,1
brightnessNandB,1
carpet pos,0
pc,0
Time (ms),CH1 Auto-Correlation
1.0,0.19608134031295776
2.0,0.18664313852787018
3.0,0.1768098622560501
4.0,0.16838106513023376
5.0,0.16080307960510254
6.0,0.15356098115444183
7.0,0.1476708948612213
8.0,0.141008198261261
9.0,0.13657644391059875
10.0,0.13261066377162933
11.0,0.12975440919399261
12.0,0.12525148689746857
13.0,0.12299922108650208
14.0,0.11985320597887039
15.0,0.11539760231971741
16.0,0.11153308302164078
18.0,0.10433437675237656
20.0,0.10074716061353683
22.0,0.09863857924938202
24.0,0.0974339172244072
26.0,0.09482201933860779
28.0,0.09064645320177078
30.0,0.0862937867641449
32.0,0.08206433057785034
36.0,0.07587847113609314
40.0,0.07086608558893204
44.0,0.06860987842082977
48.0,0.06752077490091324
52.0,0.06385853886604309
56.0,0.059679463505744934
60.0,0.0590997114777565
64.0,0.057038936764001846
72.0,0.051239028573036194
80.0,0.04639246687293053
88.0,0.04295564442873001
96.0,0.04447459056973457
104.0,0.044128257781267166
112.0,0.042684659361839294
120.0,0.04464389383792877
128.0,0.04968517646193504
144.0,0.04689570888876915
160.0,0.03454655408859253
176.0,0.02291053906083107
192.0,0.022213254123926163
208.0,0.0195189006626606
224.0,0.01555528026074171
240.0,0.01767670176923275
256.0,0.021275769919157028
288.0,0.033640388399362564
320.0,0.025766009464859962
352.0,0.012768726795911789
384.0,0.015729039907455444
416.0,0.024435335770249367
448.0,0.013081268407404423
480.0,0.009486867114901543
512.0,0.011825724504888058
576.0,0.011366290040314198
640.0,0.000757394649554044
704.0,-0.0033625795040279627
768.0,-0.007064571604132652
832.0,-0.007347020320594311
896.0,-0.006073715165257454
960.0,-0.004119509365409613
1024.0,-0.008392523974180222
1152.0,-0.011467643082141876
1280.0,-0.004114262294024229
1408.0,-0.006616286467760801
1536.0,-0.0077664414420723915
1664.0,-0.002002812922000885
1792.0,-0.0013870489783585072
1920.0,0.002393494127318263
2048.0,0.011439554393291473
2304.0,-0.0035519027151167393
2560.0,-0.008150911889970303
2816.0,-0.018129058182239532
3072.0,-0.022249186411499977
3328.0,-0.020856961607933044
3584.0,-0.013446912169456482
3840.0,-0.014671891927719116
4096.0,-0.002365432446822524
4608.0,0.0009642078075557947
5120.0,0.006189629435539246
5632.0,0.017365027219057083
6144.0,0.010206134058535099
6656.0,0.005078168120235205
7168.0,0.0028766130562871695
7680.0,0.004604617599397898
8192.0,-0.008270042948424816
9216.0,-0.019780199974775314
10240.0,0.00472509628161788
11264.0,-0.006152781657874584
12288.0,0.01636234112083912
13312.0,-0.0010245630983263254
14336.0,0.00474432623013854
end
