version,3.0
numOfCh,1
type,point
parent_name,dirty_0dot08-1dot0
ch_type,1_1
kcount,1
numberNandB,1
brightnessNandB,1
carpet pos,0
pc,0
Time (ms),CH1 Auto-Correlation
1.0,0.08353868871927261
2.0,0.07804837077856064
3.0,0.07292409986257553
4.0,0.06886786222457886
5.0,0.0659446194767952
6.0,0.06372476369142532
7.0,0.0614762045443058
8.0,0.05953246355056763
9.0,0.0572107657790184
10.0,0.055539775639772415
11.0,0.05414460971951485
12.0,0.052214398980140686
13.0,0.05088171362876892
14.0,0.04988054931163788
15.0,0.04871140047907829
16.0,0.04800114780664444
18.0,0.04679569974541664
20.0,0.04623045027256012
22.0,0.04494328051805496
24.0,0.04356143996119499
26.0,0.04181576892733574
28.0,0.040142301470041275
30.0,0.03850623220205307
32.0,0.037401992827653885
36.0,0.03442152589559555
40.0,0.0315733440220356
44.0,0.02891688048839569
48.0,0.026719434186816216
52.0,0.02516862563788891
56.0,0.024277985095977783
60.0,0.022830935195088387
64.0,0.021532652899622917
72.0,0.019836092367768288
80.0,0.018642909824848175
88.0,0.018797123804688454
96.0,0.018081003800034523
104.0,0.016906648874282837
112.0,0.017292877659201622
120.0,0.017947684973478317
128.0,0.017722237855196
144.0,0.01641889289021492
160.0,0.015047668479382992
176.0,0.012242025695741177
192.0,0.010393236763775349
208.0,0.009472154080867767
224.0,0.009908883832395077
240.0,0.011955575086176395
256.0,0.011087179183959961
288.0,0.00983467884361744
320.0,0.005906245671212673
352.0,0.003643499920144677
384.0,0.0022281541023403406
416.0,0.003793400013819337
448.0,0.00446405028924346
480.0,0.0021917487028986216
512.0,0.001945378608070314
576.0,0.001294935354962945
640.0,0.00021994690177962184
704.0,0.0020266142673790455
768.0,0.003347673686221242
832.0,0.00127560761757195
896.0,0.00199782638810575
960.0,0.002583545632660389
1024.0,0.0002847946889232844
1152.0,-0.0020007072016596794
1280.0,-0.0009612353751435876
1408.0,-0.0037837144918739796
1536.0,-0.00524774519726634
1664.0,0.00012117443111492321
1792.0,0.004273617640137672
1920.0,0.003982010763138533
2048.0,0.007993264123797417
2304.0,0.007076756097376347
2560.0,0.00488680973649025
2816.0,0.0022138552740216255
3072.0,0.006151337642222643
3328.0,-0.002406694693490863
3584.0,-0.004855346400290728
3840.0,-0.0009606208186596632
4096.0,0.0021731427405029535
4608.0,0.006288967095315456
5120.0,0.0011272260453552008
5632.0,-0.0013417162699624896
6144.0,-0.0035296904388815165
6656.0,0.003933736123144627
7168.0,0.0011683459160849452
7680.0,-0.0027760742232203484
8192.0,-0.00976959615945816
9216.0,-0.0006200673524290323
10240.0,-0.01257681380957365
11264.0,-0.003891170723363757
12288.0,-0.0036618204321712255
13312.0,-0.00449640117585659
14336.0,-0.004140749573707581
end
