version,3.0
numOfCh,1
type,point
parent_name,dirty_0dot08-1dot0
ch_type,1_1
kcount,1
numberNandB,1
brightnessNandB,1
carpet pos,0
pc,0
Time (ms),CH1 Auto-Correlation
1.0,0.13382986187934875
2.0,0.12549352645874023
3.0,0.11754893511533737
4.0,0.1104758232831955
5.0,0.10510098189115524
6.0,0.10050330311059952
7.0,0.09513605386018753
8.0,0.0907827764749527
9.0,0.08663521707057953
10.0,0.08352074027061462
11.0,0.08154486119747162
12.0,0.07949724793434143
13.0,0.07716987282037735
14.0,0.07493560761213303
15.0,0.07400565594434738
16.0,0.07277064025402069
18.0,0.06924431025981903
20.0,0.06618420779705048
22.0,0.06427844613790512
24.0,0.06236351653933525
26.0,0.059528909623622894
28.0,0.05731378123164177
30.0,0.05529921501874924
32.0,0.05382324010133743
36.0,0.049287036061286926
40.0,0.04414844512939453
44.0,0.04164772480726242
48.0,0.03674037754535675
52.0,0.031122330576181412
56.0,0.027870045974850655
60.0,0.02611592970788479
64.0,0.024913135915994644
72.0,0.0215239729732275
80.0,0.018309567123651505
88.0,0.016830407083034515
96.0,0.01303788647055626
104.0,0.011541006155312061
112.0,0.013301694765686989
120.0,0.013189955614507198
128.0,0.011043818667531013
144.0,0.0075956122018396854
160.0,0.0054555549286305904
176.0,0.006604905705899
192.0,0.0059255980886518955
208.0,0.007348082028329372
224.0,0.008252138271927834
240.0,0.008959347382187843
256.0,0.008648642338812351
288.0,0.006288621108978987
320.0,0.0028983165975660086
352.0,0.0032590837217867374
384.0,0.006104765925556421
416.0,0.00734201492741704
448.0,0.007025111000984907
480.0,0.007448899559676647
512.0,0.008339996449649334
576.0,0.00909586064517498
640.0,0.006071064621210098
704.0,0.0038372124545276165
768.0,0.0006170137203298509
832.0,0.0029995108488947153
896.0,0.002971894573420286
960.0,0.006271840073168278
1024.0,0.0011785055976361036
1152.0,0.0006130085093900561
1280.0,0.00403329124674201
1408.0,-0.0018492924282327294
1536.0,-0.0037781756836920977
1664.0,-0.009304950013756752
1792.0,-0.0033969352953135967
1920.0,-0.006907924078404903
2048.0,-0.006202219985425472
2304.0,-0.007852558977901936
2560.0,-0.009744379669427872
2816.0,-0.008064084686338902
3072.0,-0.00563846156001091
3328.0,-0.004181987605988979
3584.0,-0.007131226826459169
3840.0,-0.002628415124490857
4096.0,0.0015213681617751718
4608.0,0.0047741178423166275
5120.0,0.0072993566282093525
5632.0,0.0038966333959251642
6144.0,0.004045818001031876
6656.0,-0.00390683114528656
7168.0,-9.050622611539438e-05
7680.0,-0.00675405515357852
8192.0,-0.0039503606967628
9216.0,-0.00472223898395896
10240.0,0.0010267718462273479
11264.0,0.004065431654453278
12288.0,0.006614599376916885
13312.0,-0.0013785498449578881
14336.0,-0.006418494042009115
end
