version,3.0
numOfCh,1
type,point
parent_name,dirty_0dot08-1dot0
ch_type,1_1
kcount,1
numberNandB,1
brightnessNandB,1
carpet pos,0
pc,0
Time (ms),CH1 Auto-Correlation
1.0,0.19013047218322754
2.0,0.178147554397583
3.0,0.1682138442993164
4.0,0.15885649621486664
5.0,0.15024174749851227
6.0,0.14373986423015594
7.0,0.13771729171276093
8.0,0.13129791617393494
9.0,0.1246890053153038
10.0,0.1207275390625
11.0,0.11715278774499893
12.0,0.11347072571516037
13.0,0.10975484549999237
14.0,0.10691824555397034
15.0,0.10317306220531464
16.0,0.0991058498620987
18.0,0.09295327961444855
20.0,0.08770821988582611
22.0,0.08341305702924728
24.0,0.07889428734779358
26.0,0.0748991072177887
28.0,0.07120375335216522
30.0,0.0681581199169159
32.0,0.06461109220981598
36.0,0.05721314251422882
40.0,0.051995739340782166
44.0,0.048794105648994446
48.0,0.045388463884592056
52.0,0.04210007190704346
56.0,0.03979552164673805
60.0,0.03826971352100372
64.0,0.036020729690790176
72.0,0.03232549503445625
80.0,0.0341833122074604
88.0,0.03601029887795448
96.0,0.03511514142155647
104.0,0.034581877291202545
112.0,0.03390754386782646
120.0,0.03224939852952957
128.0,0.02980894222855568
144.0,0.02502567693591118
160.0,0.018746845424175262
176.0,0.019815178588032722
192.0,0.023457488045096397
208.0,0.020579230040311813
224.0,0.01776466704905033
240.0,0.013695740140974522
256.0,0.00858172494918108
288.0,0.0035786849912256002
320.0,0.003102015471085906
352.0,0.002082106424495578
384.0,6.132624548627064e-05
416.0,0.0009089790983125567
448.0,0.0020513683557510376
480.0,-7.996397471288219e-05
512.0,-0.002855685306712985
576.0,0.00014364301750902086
640.0,0.0027673435397446156
704.0,0.00046847452176734805
768.0,0.0038216388784348965
832.0,0.004306573886424303
896.0,-0.0019861431792378426
960.0,0.005868107080459595
1024.0,0.004920751787722111
1152.0,-0.010185906663537025
1280.0,0.005364688578993082
1408.0,0.00429237075150013
1536.0,-0.0016706902533769608
1664.0,-0.013988259248435497
1792.0,-0.021993562579154968
1920.0,-0.012486967258155346
2048.0,-0.0032506792340427637
2304.0,-0.003769654082134366
2560.0,-0.01029174868017435
2816.0,0.004630621988326311
3072.0,0.005211635027080774
3328.0,-0.0005430940072983503
3584.0,0.0045996359549462795
3840.0,0.0025619803927838802
4096.0,0.002221998991444707
4608.0,-0.0020790291018784046
5120.0,-0.000809815595857799
5632.0,-0.009722467511892319
6144.0,0.0016243678983300924
6656.0,0.008806110359728336
7168.0,0.001742130727507174
7680.0,-0.006667373701930046
8192.0,-0.008978874422609806
9216.0,-0.000985615304671228
10240.0,0.010262283496558666
11264.0,-0.005233933683484793
12288.0,-0.022012365981936455
13312.0,-0.0023058191873133183
14336.0,0.023769179359078407
end
