version,3.0
numOfCh,1
type,point
parent_name,dirty_0dot08-1dot0
ch_type,1_1
kcount,1
numberNandB,1
brightnessNandB,1
carpet pos,0
pc,0
Time (ms),CH1 Auto-Correlation
1.0,0.07517237216234207
2.0,0.0705738365650177
3.0,0.0668025016784668
4.0,0.06280538439750671
5.0,0.06028226017951965
6.0,0.058155447244644165
7.0,0.055887412279844284
8.0,0.05409795790910721
9.0,0.052661143243312836
10.0,0.05101214349269867
11.0,0.050155553966760635
12.0,0.048618461936712265
13.0,0.0470212884247303
14.0,0.045449353754520416
15.0,0.043837498873472214
16.0,0.04239489883184433
18.0,0.04058366268873215
20.0,0.03884544596076012
22.0,0.036940887570381165
24.0,0.035109519958496094
26.0,0.03368101641535759
28.0,0.03258577361702919
30.0,0.03176236152648926
32.0,0.030402863398194313
36.0,0.028578586876392365
40.0,0.027379849925637245
44.0,0.026579072698950768
48.0,0.025953754782676697
52.0,0.024850234389305115
56.0,0.024389995262026787
60.0,0.02400878816843033
64.0,0.02365739271044731
72.0,0.023869333788752556
80.0,0.024534016847610474
88.0,0.024038998410105705
96.0,0.023422926664352417
104.0,0.021983765065670013
112.0,0.02009488269686699
120.0,0.019078925251960754
128.0,0.018810920417308807
144.0,0.018749473616480827
160.0,0.018697349354624748
176.0,0.01683097705245018
192.0,0.015723377466201782
208.0,0.01344854012131691
224.0,0.013619285076856613
240.0,0.013183231465518475
256.0,0.012211848050355911
288.0,0.009502623230218887
320.0,0.007979129441082478
352.0,0.009549292735755444
384.0,0.008172128349542618
416.0,0.008249732665717602
448.0,0.006413903087377548
480.0,0.005153025034815073
512.0,0.003520193975418806
576.0,0.0026080815587192774
640.0,0.0028255204670131207
704.0,0.003629565006121993
768.0,0.003831704845651984
832.0,0.004591690842062235
896.0,0.004202728159725666
960.0,0.0003093976411037147
1024.0,0.0012470744550228119
1152.0,-0.001424941816367209
1280.0,-0.002282849745824933
1408.0,-0.006614211015403271
1536.0,-0.008040517568588257
1664.0,-0.011016820557415485
1792.0,-0.011326554231345654
1920.0,-0.010181457735598087
2048.0,-0.008856973610818386
2304.0,-0.005562200676649809
2560.0,-0.006544407457113266
2816.0,-0.0067298803478479385
3072.0,-0.0032697387505322695
3328.0,0.002228659810498357
3584.0,0.003902844153344631
3840.0,0.0020957374945282936
4096.0,0.0038641339633613825
4608.0,0.008775245398283005
5120.0,-0.0022969436831772327
5632.0,-0.0032218846026808023
6144.0,-0.007198974955826998
6656.0,-0.0013698759721592069
7168.0,-0.0003137073072139174
7680.0,-0.002077310113236308
8192.0,0.000338037934852764
9216.0,0.0006041698507033288
10240.0,0.0012398343533277512
11264.0,0.00029872619779780507
12288.0,-0.004604762885719538
13312.0,4.782084943144582e-05
14336.0,0.005711541976779699
end
