version,3.0
numOfCh,1
type,point
parent_name,dirty_0dot08-1dot0
ch_type,1_1
kcount,1
numberNandB,1
brightnessNandB,1
carpet pos,0
pc,0
Time (ms),CH1 Auto-Correlation
1.0,0.20006029307842255
2.0,0.18842096626758575
3.0,0.17903955280780792
4.0,0.16960759460926056
5.0,0.16163666546344757
6.0,0.15549468994140625
7.0,0.15024079382419586
8.0,0.14675971865653992
9.0,0.1435021460056305
10.0,0.13931137323379517
11.0,0.13539941608905792
12.0,0.1317150741815567
13.0,0.12747758626937866
14.0,0.12245415896177292
15.0,0.1179746612906456
16.0,0.11359748989343643
18.0,0.10723895579576492
20.0,0.1025385856628418
22.0,0.09515892714262009
24.0,0.08776631951332092
26.0,0.08259720355272293
28.0,0.07841050624847412
30.0,0.07382899522781372
32.0,0.07024838030338287
36.0,0.060253191739320755
40.0,0.05234368145465851
44.0,0.047108400613069534
48.0,0.043207161128520966
52.0,0.03886330500245094
56.0,0.03689746931195259
60.0,0.035749346017837524
64.0,0.0349893681704998
72.0,0.03396192565560341
80.0,0.03605959564447403
88.0,0.040542684495449066
96.0,0.041431400924921036
104.0,0.0398348830640316
112.0,0.03825453296303749
120.0,0.03229345381259918
128.0,0.029985623434185982
144.0,0.019933009520173073
160.0,0.022057002410292625
176.0,0.024259008467197418
192.0,0.0251031294465065
208.0,0.025470616295933723
224.0,0.028620023280382156
240.0,0.024413609877228737
256.0,0.022178692743182182
288.0,0.0252545028924942
320.0,0.01812984235584736
352.0,0.009975808672606945
384.0,0.003688414813950658
416.0,0.002086165128275752
448.0,0.000428840663516894
480.0,0.0024267667904496193
512.0,0.006156056188046932
576.0,0.0004826127551496029
640.0,-0.0033690950367599726
704.0,0.0030958254355937243
768.0,-0.0037968726828694344
832.0,-0.0025689469184726477
896.0,-0.0003935254644602537
960.0,-0.005774050485342741
1024.0,0.00018041234579868615
1152.0,0.0011808628914877772
1280.0,-0.005500879138708115
1408.0,0.0004246144089847803
1536.0,-0.0004557908687274903
1664.0,-0.0023028531577438116
1792.0,-0.0017226618947461247
1920.0,-0.008829991333186626
2048.0,-0.005266747437417507
2304.0,-0.0049882554449141026
2560.0,-0.004991027992218733
2816.0,0.0017510486068204045
3072.0,-0.006748361513018608
3328.0,5.341745418263599e-05
3584.0,0.0053064594976603985
3840.0,0.007555953226983547
4096.0,-0.001928678946569562
4608.0,0.0025241144467145205
5120.0,-0.005181016866117716
5632.0,-0.002043650019913912
6144.0,0.0019244301365688443
6656.0,-0.007267426699399948
7168.0,-0.0001709992066025734
7680.0,0.0005798235652036965
8192.0,0.025857286527752876
9216.0,-0.010742329061031342
10240.0,-0.02665221318602562
11264.0,0.017688890919089317
12288.0,-0.002352925715968013
13312.0,-0.0020442591048777103
14336.0,0.012290669605135918
end
