version,3.0
numOfCh,1
type,point
parent_name,dirty_0dot08-1dot0
ch_type,1_1
kcount,1
numberNandB,1
brightnessNandB,1
carpet pos,0
pc,0
Time (ms),CH1 Auto-Correlation
1.0,0.13014550507068634
2.0,0.12124885618686676
3.0,0.11405422538518906
4.0,0.10734730213880539
5.0,0.1012655720114708
6.0,0.09632518887519836
7.0,0.09253355860710144
8.0,0.08962038159370422
9.0,0.08649109303951263
10.0,0.08436702936887741
11.0,0.08231192082166672
12.0,0.07992130517959595
13.0,0.07728628814220428
14.0,0.07503081113100052
15.0,0.07254327088594437
16.0,0.06983088701963425
18.0,0.06542669981718063
20.0,0.06071922555565834
22.0,0.056593626737594604
24.0,0.05378435552120209
26.0,0.05154845118522644
28.0,0.04947170615196228
30.0,0.047536224126815796
32.0,0.04603154957294464
36.0,0.04332706332206726
40.0,0.040089406073093414
44.0,0.03737029433250427
48.0,0.03414522111415863
52.0,0.03188939392566681
56.0,0.03106740117073059
60.0,0.029642529785633087
64.0,0.027345135807991028
72.0,0.02578970417380333
80.0,0.02167673222720623
88.0,0.017501091584563255
96.0,0.014927027747035027
104.0,0.014288854785263538
112.0,0.013554355129599571
120.0,0.011220989748835564
128.0,0.010500475764274597
144.0,0.006683997809886932
160.0,0.002860014559701085
176.0,0.0015343341510742903
192.0,0.002617594553157687
208.0,0.0003346195153426379
224.0,-0.0003932625986635685
240.0,-0.0009382942807860672
256.0,-0.002448143670335412
288.0,-0.0016702613793313503
320.0,-0.004565604962408543
352.0,-0.006502261385321617
384.0,-0.008265022188425064
416.0,-0.011312509886920452
448.0,-0.009857726283371449
480.0,-0.007251347880810499
512.0,-0.006005395203828812
576.0,0.0003706035786308348
640.0,0.00888395681977272
704.0,0.009422256611287594
768.0,0.014359601773321629
832.0,0.00776115246117115
896.0,-0.0016291334759443998
960.0,-0.002083590254187584
1024.0,-0.006893614307045937
1152.0,-0.0015164917567744851
1280.0,0.0055068121291697025
1408.0,0.006079053971916437
1536.0,-0.0033807482104748487
1664.0,-0.004952669143676758
1792.0,-0.004445536527782679
1920.0,0.002366558648645878
2048.0,0.003780998522415757
2304.0,-0.004775063134729862
2560.0,-0.0019189695594832301
2816.0,-0.0027627001982182264
3072.0,-0.005728929303586483
3328.0,-0.004851107019931078
3584.0,-0.004746240098029375
3840.0,0.003301692195236683
4096.0,0.0011540738632902503
4608.0,-0.0028565351385623217
5120.0,-0.000735784531570971
5632.0,0.006412775255739689
6144.0,0.004762623459100723
6656.0,0.003575423499569297
7168.0,-0.003726291237398982
7680.0,-0.0006467237835749984
8192.0,-0.0004548243014141917
9216.0,-0.002883985172957182
10240.0,-0.0021178359165787697
11264.0,-0.001395342405885458
12288.0,0.0014834306202828884
13312.0,-0.004385414533317089
14336.0,-0.0015548012452200055
end
