version,3.0
numOfCh,1
type,point
parent_name,dirty_0dot08-1dot0
ch_type,1_1
kcount,1
numberNandB,1
brightnessNandB,1
carpet pos,0
pc,0
Time (ms),CH1 Auto-Correlation
1.0,0.19376443326473236
2.0,0.18126662075519562
3.0,0.17134815454483032
4.0,0.16291342675685883
5.0,0.1541777104139328
6.0,0.14660029113292694
7.0,0.14055338501930237
8.0,0.13535310328006744
9.0,0.13113795220851898
10.0,0.1270197629928589
11.0,0.1224159449338913
12.0,0.11760840564966202
13.0,0.11450881510972977
14.0,0.11134344339370728
15.0,0.10856668651103973
16.0,0.10620708763599396
18.0,0.09983091801404953
20.0,0.0946648046374321
22.0,0.09020346403121948
24.0,0.08861292898654938
26.0,0.0864584669470787
28.0,0.08443019539117813
30.0,0.08358568698167801
32.0,0.08361054211854935
36.0,0.08372978121042252
40.0,0.08364826440811157
44.0,0.08375796675682068
48.0,0.08183947950601578
52.0,0.07851146161556244
56.0,0.07355843484401703
60.0,0.0667295902967453
64.0,0.0604063980281353
72.0,0.04919503629207611
80.0,0.04607509449124336
88.0,0.044711362570524216
96.0,0.04409365728497505
104.0,0.03994176909327507
112.0,0.031858816742897034
120.0,0.028072908520698547
128.0,0.026043260470032692
144.0,0.02315583825111389
160.0,0.022213982418179512
176.0,0.02060333639383316
192.0,0.015751635655760765
208.0,0.01141323521733284
224.0,0.009020045399665833
240.0,0.011795934289693832
256.0,0.0120905302464962
288.0,0.014128243550658226
320.0,0.015260114334523678
352.0,0.013661758974194527
384.0,0.008100061677396297
416.0,0.008283570408821106
448.0,0.00827169418334961
480.0,0.007221717853099108
512.0,0.0027485995087772608
576.0,0.00132293242495507
640.0,-0.0012667911360040307
704.0,-0.0003649903228506446
768.0,0.002784418873488903
832.0,-0.000683077028952539
896.0,0.0037792741786688566
960.0,0.01509956642985344
1024.0,0.017871471121907234
1152.0,0.012232727371156216
1280.0,0.006733848247677088
1408.0,-0.0013060815399512649
1536.0,0.00047031271969899535
1664.0,-0.002656523371115327
1792.0,-0.0041915965266525745
1920.0,-0.003048660233616829
2048.0,0.0003636925539467484
2304.0,-0.00021429268235806376
2560.0,-0.007607810664921999
2816.0,-0.009027546271681786
3072.0,-0.007867835462093353
3328.0,0.0023477263748645782
3584.0,0.003606984158977866
3840.0,0.015745749697089195
4096.0,-0.009368483908474445
4608.0,-0.00453615840524435
5120.0,-0.003652625484392047
5632.0,0.01020784117281437
6144.0,-0.005571609362959862
6656.0,-0.004086577799171209
7168.0,-0.00014269363600760698
7680.0,0.001607293146662414
8192.0,-0.004548599943518639
9216.0,-0.008484224788844585
10240.0,-0.021169165149331093
11264.0,0.003317994996905327
12288.0,0.006115336902439594
13312.0,0.0032565935980528593
14336.0,-0.01208336092531681
end
