version,3.0
numOfCh,1
type,point
parent_name,dirty_0dot08-1dot0
ch_type,1_1
kcount,1
numberNandB,1
brightnessNandB,1
carpet pos,0
pc,0
Time (ms),CH1 Auto-Correlation
1.0,0.06409124284982681
2.0,0.06003357470035553
3.0,0.056628912687301636
4.0,0.05390172451734543
5.0,0.05172906443476677
6.0,0.05021443963050842
7.0,0.04859964922070503
8.0,0.046875931322574615
9.0,0.04541221261024475
10.0,0.043661199510097504
11.0,0.04245622828602791
12.0,0.041484296321868896
13.0,0.040357038378715515
14.0,0.039275843650102615
15.0,0.03796006739139557
16.0,0.0366852805018425
18.0,0.034306541085243225
20.0,0.032083868980407715
22.0,0.030553976073861122
24.0,0.029000375419855118
26.0,0.02745465561747551
28.0,0.026597535237669945
30.0,0.025975951924920082
32.0,0.02524724043905735
36.0,0.021976308897137642
40.0,0.019243646413087845
44.0,0.017695605754852295
48.0,0.01651640050113201
52.0,0.014590643346309662
56.0,0.012407639995217323
60.0,0.010590173304080963
64.0,0.010391143150627613
72.0,0.009117738343775272
80.0,0.008232268504798412
88.0,0.007524487562477589
96.0,0.0079024787992239
104.0,0.008584820665419102
112.0,0.008719850331544876
120.0,0.009744182229042053
128.0,0.011120178736746311
144.0,0.011541886255145073
160.0,0.008616766892373562
176.0,0.006492029409855604
192.0,0.004634911194443703
208.0,0.005002420395612717
224.0,0.005403838120400906
240.0,0.005237143021076918
256.0,0.0029118768870830536
288.0,-0.0002812077582348138
320.0,-8.216671994887292e-05
352.0,0.0013770360965281725
384.0,-0.0008901894907467067
416.0,-0.0024927272461354733
448.0,-0.0016122530214488506
480.0,-0.0012829431798309088
512.0,-0.0025801733136177063
576.0,-0.0017182808369398117
640.0,-0.0004821213660761714
704.0,9.599472105037421e-05
768.0,-0.0006605551461689174
832.0,0.00041075036278925836
896.0,0.00011996344255749136
960.0,-0.0005157207488082349
1024.0,-0.0020847690757364035
1152.0,-0.001787099288776517
1280.0,-0.0016412680270150304
1408.0,-0.0019373608520254493
1536.0,-0.0016087502008304
1664.0,-0.00049838941777125
1792.0,-0.0034632913302630186
1920.0,-0.0022606155835092068
2048.0,0.001228358130902052
2304.0,0.0034014922566711903
2560.0,-0.00020793548901565373
2816.0,-0.0017026574350893497
3072.0,0.0014274186687543988
3328.0,0.0013199681416153908
3584.0,4.603229172062129e-05
3840.0,-0.0028346474282443523
4096.0,-0.0020419256761670113
4608.0,-0.00018109918164554983
5120.0,-0.0035056229680776596
5632.0,-0.0006215283647179604
6144.0,-0.0003370747435837984
6656.0,0.001297416747547686
7168.0,-0.003753563854843378
7680.0,0.0017219842411577702
8192.0,0.00028971844585612416
9216.0,0.0013330793008208275
10240.0,-0.0006209011771716177
11264.0,0.003931040875613689
12288.0,-0.0006630035350099206
13312.0,-0.007530044764280319
14336.0,0.0008988403133116663
end
