version,3.0
numOfCh,1
type,point
parent_name,dirty_0dot08-1dot0
ch_type,1_1
kcount,1
numberNandB,1
brightnessNandB,1
carpet pos,0
pc,0
Time (ms),CH1 Auto-Correlation
1.0,0.12051929533481598
2.0,0.11377853900194168
3.0,0.10729590803384781
4.0,0.10185547918081284
5.0,0.09631600975990295
6.0,0.09109995514154434
7.0,0.08648556470870972
8.0,0.08212438970804214
9.0,0.07874448597431183
10.0,0.07582332193851471
11.0,0.07319290935993195
12.0,0.07066560536623001
13.0,0.06776060909032822
14.0,0.06535086780786514
15.0,0.0629144161939621
16.0,0.06122468784451485
18.0,0.05681023746728897
20.0,0.05330523103475571
22.0,0.049766700714826584
24.0,0.04697231948375702
26.0,0.044853679835796356
28.0,0.04263501241803169
30.0,0.04040222615003586
32.0,0.03831177204847336
36.0,0.03386509045958519
40.0,0.030733877792954445
44.0,0.029130684211850166
48.0,0.028557859361171722
52.0,0.0292871855199337
56.0,0.030586548149585724
60.0,0.031114336103200912
64.0,0.030329352244734764
72.0,0.025540702044963837
80.0,0.022998938336968422
88.0,0.020511852577328682
96.0,0.017570650205016136
104.0,0.01547327358275652
112.0,0.015234069898724556
120.0,0.017093874514102936
128.0,0.014736389741301537
144.0,0.014191577211022377
160.0,0.017000965774059296
176.0,0.020780248567461967
192.0,0.01770685985684395
208.0,0.013615102507174015
224.0,0.01788073405623436
240.0,0.017861930653452873
256.0,0.014885541051626205
288.0,0.005283985752612352
320.0,0.004283695016056299
352.0,0.004814098123461008
384.0,0.006836680229753256
416.0,0.008310186676681042
448.0,0.008426420390605927
480.0,0.003934001084417105
512.0,0.00471371179446578
576.0,0.0026625916361808777
640.0,0.0026440387591719627
704.0,0.00016769768262747675
768.0,-0.002569299889728427
832.0,-0.0036895181983709335
896.0,-0.003507498884573579
960.0,-0.004563848488032818
1024.0,-0.005284662824124098
1152.0,-0.006242120172828436
1280.0,-0.005924857221543789
1408.0,-0.00644261296838522
1536.0,-0.005048839841037989
1664.0,-0.004205547738820314
1792.0,-0.0031738504767417908
1920.0,-0.00304236332885921
2048.0,0.0013647624291479588
2304.0,-0.0005136849940754473
2560.0,-0.002926766173914075
2816.0,-0.003021762939170003
3072.0,-0.0007389185484498739
3328.0,-0.005369744263589382
3584.0,-0.002464079763740301
3840.0,-0.006162034347653389
4096.0,-0.005140307359397411
4608.0,0.004087457899004221
5120.0,0.0038799173198640347
5632.0,-0.006783362478017807
6144.0,-0.003431070363149047
6656.0,0.005896200891584158
7168.0,0.011506278067827225
7680.0,-0.0030094359535723925
8192.0,-0.006427763029932976
9216.0,-0.0034327281173318624
10240.0,-0.0009849830530583858
11264.0,0.003244824707508087
12288.0,0.010535582900047302
13312.0,-0.0030652410350739956
14336.0,-0.003450328717008233
end
