version,3.0
numOfCh,1
type,point
parent_name,dirty_0dot08-1dot0
ch_type,1_1
kcount,1
numberNandB,1
brightnessNandB,1
carpet pos,0
pc,0
Time (ms),CH1 Auto-Correlation
1.0,0.1927655190229416
2.0,0.1762164831161499
3.0,0.1631275862455368
4.0,0.15207625925540924
5.0,0.1412072777748108
6.0,0.13153351843357086
7.0,0.12470655143260956
8.0,0.11817418038845062
9.0,0.11264155060052872
10.0,0.1080724447965622
11.0,0.10467882454395294
12.0,0.10052375495433807
13.0,0.09692641347646713
14.0,0.09401649236679077
15.0,0.09185180813074112
16.0,0.09045001119375229
18.0,0.0868505910038948
20.0,0.08310163766145706
22.0,0.07808487862348557
24.0,0.07364810258150101
26.0,0.06942101567983627
28.0,0.06701062619686127
30.0,0.06339344382286072
32.0,0.06006507948040962
36.0,0.05472677946090698
40.0,0.05113662779331207
44.0,0.04771663248538971
48.0,0.04897775501012802
52.0,0.051809150725603104
56.0,0.04710479825735092
60.0,0.038975272327661514
64.0,0.03811916708946228
72.0,0.035651661455631256
80.0,0.03414935618638992
88.0,0.0338938906788826
96.0,0.03259987756609917
104.0,0.029002228751778603
112.0,0.026173191145062447
120.0,0.024266643449664116
128.0,0.023433590307831764
144.0,0.018559938296675682
160.0,0.01390931848436594
176.0,0.014284717850387096
192.0,0.008508188650012016
208.0,0.0017753911670297384
224.0,0.0033376896753907204
240.0,0.005368681624531746
256.0,0.00012619310291483998
288.0,0.0006118436576798558
320.0,-0.004549228586256504
352.0,-0.0073834494687616825
384.0,-0.010185406543314457
416.0,-0.00878472626209259
448.0,-0.001036064699292183
480.0,-0.0034008549991995096
512.0,-0.005946885794401169
576.0,-0.010923958383500576
640.0,-0.013407150283455849
704.0,-0.007434037979692221
768.0,-0.008428500965237617
832.0,-0.009799178689718246
896.0,-0.006993305403739214
960.0,0.001314819441176951
1024.0,0.0029915794730186462
1152.0,0.002791638020426035
1280.0,0.011551257222890854
1408.0,0.016666585579514503
1536.0,0.01168008428066969
1664.0,-0.007484661415219307
1792.0,0.0012247825507074594
1920.0,-0.0014659675071015954
2048.0,-0.004536377731710672
2304.0,-0.0067601557821035385
2560.0,-0.0011566223111003637
2816.0,0.0026637583505362272
3072.0,0.016546068713068962
3328.0,0.0023128166794776917
3584.0,-0.0017363434890285134
3840.0,-0.004649959970265627
4096.0,-0.0033126918133348227
4608.0,0.007896495051681995
5120.0,-0.006198050454258919
5632.0,-0.0019934207666665316
6144.0,0.002239199820905924
6656.0,-0.0077093481086194515
7168.0,-0.006650465540587902
7680.0,0.0015231376746669412
8192.0,-0.0009193147998303175
9216.0,-0.0004751710221171379
10240.0,-0.008283330127596855
11264.0,-0.001437103608623147
12288.0,-0.0003814719384536147
13312.0,-0.003995705395936966
14336.0,0.0011696957517415285
end
