version,3.0
numOfCh,1
type,point
parent_name,dirty_0dot08-1dot0
ch_type,1_1
kcount,1
numberNandB,1
brightnessNandB,1
carpet pos,0
pc,0
Time (ms),CH1 Auto-Correlation
1.0,0.19486044347286224
2.0,0.17918314039707184
3.0,0.16793149709701538
4.0,0.15801569819450378
5.0,0.14920201897621155
6.0,0.1396053284406662
7.0,0.13216529786586761
8.0,0.127111554145813
9.0,0.12167143821716309
10.0,0.11538747698068619
11.0,0.11029811203479767
12.0,0.10701292008161545
13.0,0.10583631694316864
14.0,0.10401460528373718
15.0,0.10176484286785126
16.0,0.09895502030849457
18.0,0.09565749019384384
20.0,0.09079989045858383
22.0,0.08654078096151352
24.0,0.08143908530473709
26.0,0.07477583736181259
28.0,0.06882140040397644
30.0,0.06457929313182831
32.0,0.06064683571457863
36.0,0.053082145750522614
40.0,0.04960671812295914
44.0,0.0459819920361042
48.0,0.04281221330165863
52.0,0.042422596365213394
56.0,0.04343724623322487
60.0,0.04112150892615318
64.0,0.03902941197156906
72.0,0.0346406064927578
80.0,0.03285224735736847
88.0,0.02870999276638031
96.0,0.029338892549276352
104.0,0.03199569508433342
112.0,0.03642154484987259
120.0,0.034928370267152786
128.0,0.03201708197593689
144.0,0.022986121475696564
160.0,0.0235502440482378
176.0,0.02121094986796379
192.0,0.016201220452785492
208.0,0.007330076768994331
224.0,0.003205364104360342
240.0,0.005081867333501577
256.0,0.005852386821061373
288.0,6.408913031918928e-05
320.0,-0.00481437798589468
352.0,-0.008234241046011448
384.0,-0.009085794910788536
416.0,-0.008129330351948738
448.0,-0.00863110926002264
480.0,-0.009748043492436409
512.0,-0.00832683127373457
576.0,-0.008268862031400204
640.0,-0.00694687757641077
704.0,-0.010494576767086983
768.0,-0.00418205838650465
832.0,-0.007695610169321299
896.0,-0.013849233277142048
960.0,-0.01610599271953106
1024.0,-0.003966358955949545
1152.0,-0.0016974989557638764
1280.0,-0.0049122474156320095
1408.0,-0.00916172843426466
1536.0,-0.0049941097386181355
1664.0,0.0035690264776349068
1792.0,0.023618184030056
1920.0,0.028689339756965637
2048.0,0.01754732057452202
2304.0,-0.011486941948533058
2560.0,-0.00868550967425108
2816.0,-0.0033698175102472305
3072.0,0.004059936385601759
3328.0,-0.012590640224516392
3584.0,0.0037864861078560352
3840.0,0.01759100705385208
4096.0,-0.0007759756990708411
4608.0,-0.0023097472731024027
5120.0,0.0005716450978070498
5632.0,0.0014730251859873533
6144.0,0.0006884837639518082
6656.0,-0.0007550689042545855
7168.0,-0.008491547778248787
7680.0,0.003768072696402669
8192.0,-0.002558957552537322
9216.0,-0.000871571188326925
10240.0,-0.0011173529783263803
11264.0,-0.0029468564316630363
12288.0,0.006385401356965303
13312.0,-0.013566620647907257
14336.0,0.010339216329157352
end
