version,3.0
numOfCh,1
type,point
parent_name,dirty_0dot08-1dot0
ch_type,1_1
kcount,1
numberNandB,1
brightnessNandB,1
carpet pos,0
pc,0
Time (ms),CH1 Auto-Correlation
1.0,0.06603557616472244
2.0,0.06161501631140709
3.0,0.05755129083991051
4.0,0.05434976518154144
5.0,0.05135580152273178
6.0,0.04878806695342064
7.0,0.04629732295870781
8.0,0.044902902096509933
9.0,0.04378272220492363
10.0,0.04290025681257248
11.0,0.0419437438249588
12.0,0.041019685566425323
13.0,0.04032612219452858
14.0,0.03941640257835388
15.0,0.03878363221883774
16.0,0.0379183292388916
18.0,0.03592810779809952
20.0,0.03352160379290581
22.0,0.03208477422595024
24.0,0.030469903722405434
26.0,0.028713906183838844
28.0,0.027827098965644836
30.0,0.027055099606513977
32.0,0.026063157245516777
36.0,0.023761559277772903
40.0,0.02229860983788967
44.0,0.020374903455376625
48.0,0.019389184191823006
52.0,0.018601709976792336
56.0,0.018046043813228607
60.0,0.018421964719891548
64.0,0.01862589828670025
72.0,0.017774391919374466
80.0,0.017447683960199356
88.0,0.016954710707068443
96.0,0.017567191272974014
104.0,0.01699245534837246
112.0,0.016075851395726204
120.0,0.014612605795264244
128.0,0.014279811643064022
144.0,0.012683073990046978
160.0,0.011063836514949799
176.0,0.010222574695944786
192.0,0.011334957554936409
208.0,0.011519379913806915
224.0,0.013624856248497963
240.0,0.012625149451196194
256.0,0.01160053163766861
288.0,0.00917060300707817
320.0,0.003919588401913643
352.0,0.0031023421324789524
384.0,0.003596266033127904
416.0,0.0015676070470362902
448.0,0.0022219051606953144
480.0,0.0036328283604234457
512.0,0.004495436791330576
576.0,0.0025269649922847748
640.0,0.00293105305172503
704.0,0.00332249840721488
768.0,0.0029537260998040438
832.0,0.003768226597458124
896.0,0.004758486989885569
960.0,0.004291330464184284
1024.0,0.0036956348922103643
1152.0,0.005585602018982172
1280.0,0.0027386262081563473
1408.0,0.002300518797710538
1536.0,0.0005182902095839381
1664.0,0.0028619300574064255
1792.0,0.004228341393172741
1920.0,0.0001758253201842308
2048.0,-0.0010412452975288033
2304.0,-0.007918237708508968
2560.0,-0.007248756941407919
2816.0,-5.818306090077385e-05
3072.0,0.0020512850023806095
3328.0,-0.0011347909457981586
3584.0,-0.0016598114743828773
3840.0,-0.0030264740344136953
4096.0,-0.0026170730125159025
4608.0,0.004788152873516083
5120.0,-0.00040603315574117005
5632.0,-0.00199182634241879
6144.0,-0.0002263869100715965
6656.0,-0.007251823786646128
7168.0,-0.0068448735401034355
7680.0,-0.0028608357533812523
8192.0,-0.006488049868494272
9216.0,0.0018143849447369576
10240.0,0.0006842773873358965
11264.0,-0.0034122068900614977
12288.0,-0.0018712059827521443
13312.0,-0.0008629262447357178
14336.0,0.007775341160595417
end
