version,3.0
numOfCh,1
type,point
parent_name,dirty_0dot08-1dot0
ch_type,1_1
kcount,1
numberNandB,1
brightnessNandB,1
carpet pos,0
pc,0
Time (ms),CH1 Auto-Correlation
1.0,0.05681917071342468
2.0,0.05346246808767319
3.0,0.05041247978806496
4.0,0.047580428421497345
5.0,0.04503607004880905
6.0,0.04277307912707329
7.0,0.040735386312007904
8.0,0.03886719048023224
9.0,0.037054430693387985
10.0,0.03522161394357681
11.0,0.0338946208357811
12.0,0.03283936530351639
13.0,0.03189658746123314
14.0,0.031035367399454117
15.0,0.03007460944354534
16.0,0.02895592525601387
18.0,0.027222424745559692
20.0,0.0263283159583807
22.0,0.025550922378897667
24.0,0.02491012215614319
26.0,0.024429205805063248
28.0,0.023579159751534462
30.0,0.022419823333621025
32.0,0.020845778286457062
36.0,0.01860436424612999
40.0,0.01801948808133602
44.0,0.016622290015220642
48.0,0.015423252247273922
52.0,0.014946408569812775
56.0,0.014124062843620777
60.0,0.013204912655055523
64.0,0.012861867435276508
72.0,0.012016196735203266
80.0,0.011439425870776176
88.0,0.009615824557840824
96.0,0.009187104180455208
104.0,0.006534246727824211
112.0,0.006211197469383478
120.0,0.00500788539648056
128.0,0.005388994235545397
144.0,0.004847493022680283
160.0,0.0035862147342413664
176.0,0.0025539021007716656
192.0,0.0023136213421821594
208.0,0.002004884881898761
224.0,0.0021869102492928505
240.0,0.0031065265648066998
256.0,0.0029623473528772593
288.0,0.0025025508366525173
320.0,0.003407619893550873
352.0,0.0033142941538244486
384.0,0.00250477553345263
416.0,0.0008912850171327591
448.0,0.0021807667799293995
480.0,0.0019662827253341675
512.0,0.0015023434534668922
576.0,0.0013514880556613207
640.0,0.0021090712398290634
704.0,0.0009129141690209508
768.0,-0.000738428148906678
832.0,-0.0024591756518930197
896.0,-0.0015018671983852983
960.0,-0.0010525902034714818
1024.0,-0.0011095915688201785
1152.0,-0.003499685088172555
1280.0,-0.0003841315919999033
1408.0,0.0022885312791913748
1536.0,-0.0026400377973914146
1664.0,0.00012021615111734718
1792.0,0.00015070481458678842
1920.0,0.0005558276898227632
2048.0,0.0014724412467330694
2304.0,0.0008837140630930662
2560.0,0.00241102185100317
2816.0,0.0006306483992375433
3072.0,0.0006627922412008047
3328.0,-0.0006074921111576259
3584.0,-0.003277993993833661
3840.0,-0.0022153849713504314
4096.0,-0.0008749228436499834
4608.0,-0.0005432929610833526
5120.0,0.0028107878752052784
5632.0,-0.00013751123333349824
6144.0,-0.0023642643354833126
6656.0,-0.0033826318103820086
7168.0,-0.002347318921238184
7680.0,-0.0005052026826888323
8192.0,-0.001868273364380002
9216.0,-0.001557337585836649
10240.0,0.0026904474943876266
11264.0,-0.001972222700715065
12288.0,0.0009340359247289598
13312.0,-9.096533176489174e-05
14336.0,0.0028211763128638268
end
