version,3.0
numOfCh,1
type,point
parent_name,dirty_0dot08-1dot0
ch_type,1_1
kcount,1
numberNandB,1
brightnessNandB,1
carpet pos,0
pc,0
Time (ms),CH1 Auto-Correlation
1.0,0.05276665464043617
2.0,0.04956502467393875
3.0,0.046981602907180786
4.0,0.044302452355623245
5.0,0.04208821803331375
6.0,0.040064480155706406
7.0,0.03860116004943848
8.0,0.037409164011478424
9.0,0.036102812737226486
10.0,0.0347314290702343
11.0,0.033168721944093704
12.0,0.031877391040325165
13.0,0.03092450648546219
14.0,0.03016987256705761
15.0,0.029130686074495316
16.0,0.028252212330698967
18.0,0.026269737631082535
20.0,0.024378037080168724
22.0,0.02285473234951496
24.0,0.021893786266446114
26.0,0.021040620282292366
28.0,0.01984926499426365
30.0,0.019372660666704178
32.0,0.019292054697871208
36.0,0.018577592447400093
40.0,0.01819533295929432
44.0,0.018437989056110382
48.0,0.018792614340782166
52.0,0.0181774590164423
56.0,0.01730639673769474
60.0,0.01606178842484951
64.0,0.014505099505186081
72.0,0.012321957387030125
80.0,0.010674294084310532
88.0,0.009371141903102398
96.0,0.008074598386883736
104.0,0.008355580270290375
112.0,0.007494763005524874
120.0,0.007718628738075495
128.0,0.007833871059119701
144.0,0.006823745556175709
160.0,0.005511472932994366
176.0,0.005004988517612219
192.0,0.004513781052082777
208.0,0.005536250304430723
224.0,0.006861148402094841
240.0,0.006805686745792627
256.0,0.006772893015295267
288.0,0.004222863353788853
320.0,0.0019452747656032443
352.0,0.0009638043120503426
384.0,0.0005654075066559017
416.0,-0.0004343538312241435
448.0,-0.001325925113633275
480.0,-0.00019198990776203573
512.0,-0.001229817746207118
576.0,-0.002835965482518077
640.0,-0.0037457544822245836
704.0,-0.004008305259048939
768.0,-0.003476979909464717
832.0,-0.002051657997071743
896.0,-0.0011841581435874104
960.0,-0.001348505262285471
1024.0,-0.00025540831848047674
1152.0,-0.0014504801947623491
1280.0,-0.004404915496706963
1408.0,-0.00439599622040987
1536.0,-0.0028333947993814945
1664.0,-0.00016188608424272388
1792.0,-0.0002999523712787777
1920.0,0.0001703848975012079
2048.0,0.001982427667826414
2304.0,0.0014820150099694729
2560.0,0.0009381378185935318
2816.0,-0.00045427039731293917
3072.0,-0.0009228564449585974
3328.0,-0.00113268184941262
3584.0,-0.0009132276172749698
3840.0,-0.000982398632913828
4096.0,-0.0023624380119144917
4608.0,0.0010277221444994211
5120.0,-0.0010968050919473171
5632.0,-0.0009739575325511396
6144.0,0.0027612580452114344
6656.0,-0.00027754329494200647
7168.0,-0.0026954729110002518
7680.0,-0.0029439139179885387
8192.0,0.0012129490496590734
9216.0,-0.0013825974892824888
10240.0,0.0021903691813349724
11264.0,0.0018342632101848722
12288.0,-0.00010911774006672204
13312.0,-0.0013004298089072108
14336.0,0.0005266098305583
end
