version,3.0
numOfCh,1
type,point
parent_name,dirty_0dot08-1dot0
ch_type,1_1
kcount,1
numberNandB,1
brightnessNandB,1
carpet pos,0
pc,0
Time (ms),CH1 Auto-Correlation
1.0,0.1885823756456375
2.0,0.17568527162075043
3.0,0.1627955287694931
4.0,0.1511095017194748
5.0,0.14163371920585632
6.0,0.13229086995124817
7.0,0.12425985932350159
8.0,0.11642662435770035
9.0,0.11059553176164627
10.0,0.1045864075422287
11.0,0.09996919333934784
12.0,0.09530985355377197
13.0,0.09137699753046036
14.0,0.08847519010305405
15.0,0.08678758889436722
16.0,0.08437206596136093
18.0,0.08018623292446136
20.0,0.07530239224433899
22.0,0.06999504566192627
24.0,0.06523352861404419
26.0,0.06156191602349281
28.0,0.05957118421792984
30.0,0.05940975621342659
32.0,0.059333764016628265
36.0,0.05391968786716461
40.0,0.04646385461091995
44.0,0.0420735739171505
48.0,0.04137362539768219
52.0,0.03786161169409752
56.0,0.03342485800385475
60.0,0.03269487991929054
64.0,0.03529056906700134
72.0,0.028970004990696907
80.0,0.03019481897354126
88.0,0.029646199196577072
96.0,0.02890080213546753
104.0,0.02310715802013874
112.0,0.022984132170677185
120.0,0.021105537191033363
128.0,0.01692785881459713
144.0,0.008618860505521297
160.0,0.005773077253252268
176.0,0.009271339513361454
192.0,0.0076688737608492374
208.0,0.011725998483598232
224.0,0.011767074465751648
240.0,0.008544611744582653
256.0,0.005035211332142353
288.0,0.005950036458671093
320.0,0.009444727562367916
352.0,0.004542335867881775
384.0,0.002879293402656913
416.0,0.009899783879518509
448.0,0.003281867830082774
480.0,-0.0015656689647585154
512.0,-0.0038551820907741785
576.0,-0.008324779570102692
640.0,-0.011229164898395538
704.0,-0.009180082008242607
768.0,-0.006600754335522652
832.0,-0.0043943808414042
896.0,-0.003761264029890299
960.0,-0.008525887504220009
1024.0,-0.009990464895963669
1152.0,-0.006046186666935682
1280.0,0.005293035414069891
1408.0,-0.007120916619896889
1536.0,-0.0027973547112196684
1664.0,0.01747792772948742
1792.0,0.0028683526907116175
1920.0,-0.002374561969190836
2048.0,-0.0007663663709536195
2304.0,-0.008045285008847713
2560.0,-0.004237098153680563
2816.0,-0.00017177750123664737
3072.0,0.002908261027187109
3328.0,-0.0011336120078340173
3584.0,-0.0007181778782978654
3840.0,-0.001968820346519351
4096.0,-0.0008464601123705506
4608.0,-0.0010437744203954935
5120.0,0.00520832696929574
5632.0,0.005820433143526316
6144.0,-0.005479749292135239
6656.0,-0.0012183076469227672
7168.0,0.00153969950042665
7680.0,0.002356839831918478
8192.0,-0.0008663678891025484
9216.0,-0.005162023939192295
10240.0,-0.0016201883554458618
11264.0,0.011310665868222713
12288.0,-0.0114747304469347
13312.0,-0.010957187972962856
14336.0,-0.005692970473319292
end
