version,3.0
numOfCh,1
type,point
parent_name,dirty_0dot08-1dot0
ch_type,1_1
kcount,1
numberNandB,1
brightnessNandB,1
carpet pos,0
pc,0
Time (ms),CH1 Auto-Correlation
1.0,0.08255612850189209
2.0,0.07722210139036179
3.0,0.07249987870454788
4.0,0.06886830180883408
5.0,0.06544343382120132
6.0,0.06244492158293724
7.0,0.06011992320418358
8.0,0.05766997113823891
9.0,0.05579393357038498
10.0,0.0541284903883934
11.0,0.05263012647628784
12.0,0.05131908133625984
13.0,0.049849364906549454
14.0,0.04855867847800255
15.0,0.04702822491526604
16.0,0.04548892378807068
18.0,0.043534960597753525
20.0,0.04150465130805969
22.0,0.039913974702358246
24.0,0.038016971200704575
26.0,0.036282483488321304
28.0,0.03433430939912796
30.0,0.03306048363447189
32.0,0.03197547420859337
36.0,0.029230603948235512
40.0,0.027045797556638718
44.0,0.02451716735959053
48.0,0.022271009162068367
52.0,0.021128159016370773
56.0,0.02083568088710308
60.0,0.021454572677612305
64.0,0.02109474502503872
72.0,0.02002805471420288
80.0,0.01950075663626194
88.0,0.019000699743628502
96.0,0.019599922001361847
104.0,0.020972803235054016
112.0,0.02258162945508957
120.0,0.022258246317505836
128.0,0.020528139546513557
144.0,0.01491063553839922
160.0,0.010079590603709221
176.0,0.008295710198581219
192.0,0.00785281602293253
208.0,0.007608469575643539
224.0,0.006416951771825552
240.0,0.004251751117408276
256.0,0.0014915392966941
288.0,-0.001071175909601152
320.0,-0.003418243257328868
352.0,-0.005270795430988073
384.0,-0.006203466095030308
416.0,-0.004869174677878618
448.0,-0.0050833155401051044
480.0,-0.0060149747878313065
512.0,-0.0040116687305271626
576.0,-0.00433184951543808
640.0,-0.005734783131629229
704.0,-0.008791948668658733
768.0,-0.008155670948326588
832.0,-0.009318196214735508
896.0,-0.00837372150272131
960.0,-0.008104812353849411
1024.0,-0.00739751011133194
1152.0,-0.0025783281307667494
1280.0,0.0022000852040946484
1408.0,0.0036320292856544256
1536.0,0.00453620171174407
1664.0,-0.0009510676609352231
1792.0,-0.002961664693430066
1920.0,-0.0017804516246542335
2048.0,-0.002102278871461749
2304.0,-0.0021949803922325373
2560.0,-0.0026903750840574503
2816.0,0.0035505639389157295
3072.0,0.00366198574192822
3328.0,0.0019283585716038942
3584.0,0.0005884297424927354
3840.0,0.0012404662556946278
4096.0,-0.002234927611425519
4608.0,-0.0006085827481001616
5120.0,-0.002990100299939513
5632.0,0.004172679968178272
6144.0,0.0012878801207989454
6656.0,-0.004285125993192196
7168.0,0.0016955910250544548
7680.0,-0.0019559720531105995
8192.0,-0.0016876131994649768
9216.0,0.0008817669004201889
10240.0,0.00031826188205741346
11264.0,-0.0020252044778317213
12288.0,0.0036605519708245993
13312.0,-0.004357959609478712
14336.0,0.004185891710221767
end
