version,3.0
numOfCh,1
type,point
parent_name,dirty_0dot08-1dot0
ch_type,1_1
kcount,1
numberNandB,1
brightnessNandB,1
carpet pos,0
pc,0
Time (ms),CH1 Auto-Correlation
1.0,0.1301557570695877
2.0,0.12222889810800552
3.0,0.11539846658706665
4.0,0.10969305038452148
5.0,0.10520844161510468
6.0,0.10134754329919815
7.0,0.0983463004231453
8.0,0.09581002593040466
9.0,0.09276732802391052
10.0,0.08996887505054474
11.0,0.08710955083370209
12.0,0.08401516079902649
13.0,0.08124528080224991
14.0,0.07882419973611832
15.0,0.07691292464733124
16.0,0.07509250938892365
18.0,0.07020826637744904
20.0,0.0648086741566658
22.0,0.05928501859307289
24.0,0.05408508703112602
26.0,0.04956016689538956
28.0,0.046833984553813934
30.0,0.04538540914654732
32.0,0.04473923146724701
36.0,0.042254574596881866
40.0,0.04118359461426735
44.0,0.04076675698161125
48.0,0.0399615578353405
52.0,0.040708377957344055
56.0,0.039336055517196655
60.0,0.03712209686636925
64.0,0.036623649299144745
72.0,0.0300858486443758
80.0,0.0231670830398798
88.0,0.019512588158249855
96.0,0.018658330664038658
104.0,0.017796926200389862
112.0,0.015162909403443336
120.0,0.013120395131409168
128.0,0.011875930242240429
144.0,0.014407404698431492
160.0,0.014915450476109982
176.0,0.01265785750001669
192.0,0.01441714446991682
208.0,0.01989361084997654
224.0,0.01925552263855934
240.0,0.015949586406350136
256.0,0.013794029131531715
288.0,0.012088557705283165
320.0,0.011208835057914257
352.0,0.01002758089452982
384.0,0.009686513803899288
416.0,0.009392431005835533
448.0,0.006200430914759636
480.0,0.006185057107359171
512.0,0.004440804943442345
576.0,0.005352300126105547
640.0,0.006205298937857151
704.0,0.006801356561481953
768.0,0.005947772413492203
832.0,0.0025486808735877275
896.0,0.0003108065284322947
960.0,0.003511829301714897
1024.0,0.00643521174788475
1152.0,0.008026632480323315
1280.0,0.00219356338493526
1408.0,-0.002001693705096841
1536.0,-0.0021289612632244825
1664.0,-0.0013750570360571146
1792.0,-0.0032446340192109346
1920.0,-0.0034522628411650658
2048.0,-0.005315035115927458
2304.0,0.0003331790503580123
2560.0,0.0035557725932449102
2816.0,0.000365088606486097
3072.0,-0.004225268494337797
3328.0,-0.0024929221253842115
3584.0,-0.00038878791383467615
3840.0,-0.0031637949869036674
4096.0,0.0036834049969911575
4608.0,-0.0010326699120923877
5120.0,-0.0037810143548995256
5632.0,-0.00988287664949894
6144.0,-0.010023398324847221
6656.0,-0.011341573670506477
7168.0,-0.007324778474867344
7680.0,-0.0017264814814552665
8192.0,-0.0021725259721279144
9216.0,0.0031237637158483267
10240.0,-0.004061304032802582
11264.0,0.004934479016810656
12288.0,0.0032670150976628065
13312.0,0.005358716007322073
14336.0,-0.003726099617779255
end
