version,3.0
numOfCh,1
type,point
parent_name,fe81d_3dot0-1dot0
ch_type,1_1
kcount,1
numberNandB,1
brightnessNandB,1
carpet pos,0
pc,0
Time (ms),CH1 Auto-Correlation
1.0,0.01628650166094303
2.0,0.013263601809740067
3.0,0.011216566897928715
4.0,0.009672137908637524
5.0,0.008553499355912209
6.0,0.007619922515004873
7.0,0.006953488104045391
8.0,0.006418542005121708
9.0,0.005847136490046978
10.0,0.005418312270194292
11.0,0.0050470270216465
12.0,0.004637519828975201
13.0,0.004401531536132097
14.0,0.004290467593818903
15.0,0.004096806515008211
16.0,0.0037947827950119972
18.0,0.00358373811468482
20.0,0.0031424392946064472
22.0,0.0027836249209940434
24.0,0.002699986333027482
26.0,0.0025465695653110743
28.0,0.002380870282649994
30.0,0.0022920742630958557
32.0,0.00220499443821609
36.0,0.0019820029847323895
40.0,0.001596695277839899
44.0,0.001441911212168634
48.0,0.0015690384898334742
52.0,0.0012965123169124126
56.0,0.0012128246016800404
60.0,0.0014570389175787568
64.0,0.0014526318991556764
72.0,0.0008008635486476123
80.0,0.000613661773968488
88.0,0.0005506168818101287
96.0,0.0006023406167514622
104.0,0.00030885852174833417
112.0,7.762564200675115e-05
120.0,-0.00025480202748440206
128.0,-0.0004151575267314911
144.0,-0.00043346366146579385
160.0,-0.0004840806359425187
176.0,-2.1031157302786596e-05
192.0,-3.407185431569815e-05
208.0,-0.0003077023138757795
224.0,0.00017681342433206737
240.0,0.00022232394258026034
256.0,-0.00023001090448815376
288.0,-9.299428347731009e-05
320.0,-0.0003307095030322671
352.0,-0.00019144998805131763
384.0,-0.00048465788131579757
416.0,-0.0012374987127259374
448.0,-0.0010983211686834693
480.0,-0.0008005513809621334
512.0,-0.00010877823660848662
576.0,0.0005284475046209991
640.0,4.867590178037062e-05
704.0,0.00028637790819630027
768.0,0.00034477480221539736
832.0,6.677686906186864e-05
896.0,0.000276353646768257
960.0,0.00020136384409852326
1024.0,-0.00018175120931118727
1152.0,0.00037636124761775136
1280.0,-0.00048815898480825126
1408.0,-0.0004761565651278943
1536.0,-0.0005600787699222565
1664.0,6.154094444354996e-05
1792.0,-9.047432104125619e-05
1920.0,-0.000114146874693688
2048.0,-0.0002822275273501873
2304.0,-0.00024484694586135447
2560.0,0.0003432540688663721
2816.0,-0.0001471849245717749
3072.0,-8.516112575307488e-05
3328.0,0.00020401978690642864
3584.0,7.109268335625529e-05
3840.0,-0.00019111584697384387
4096.0,-5.786996189272031e-05
4608.0,-1.1720587281160988e-05
5120.0,0.00024321925593540072
5632.0,-0.00026043911930173635
6144.0,3.670472142403014e-05
6656.0,3.2784428185550496e-05
7168.0,7.319888391066343e-05
7680.0,0.0004223077557981014
8192.0,-0.000644736981485039
end
