version,3.0
numOfCh,1
type,point
parent_name,fe81d_3dot0-1dot0
ch_type,1_1
kcount,1
numberNandB,1
brightnessNandB,1
carpet pos,0
pc,0
Time (ms),CH1 Auto-Correlation
1.0,0.01563986763358116
2.0,0.012717035599052906
3.0,0.010644539259374142
4.0,0.009082366712391376
5.0,0.007903872057795525
6.0,0.007043228950351477
7.0,0.006273177452385426
8.0,0.0057346876710653305
9.0,0.005175213795155287
10.0,0.004728297702968121
11.0,0.004340564366430044
12.0,0.0039293221198022366
13.0,0.0035198675468564034
14.0,0.0032791851554065943
15.0,0.00305656879208982
16.0,0.0028443799819797277
18.0,0.002374642062932253
20.0,0.0019314985256642103
22.0,0.001556531060487032
24.0,0.0011165676405653358
26.0,0.0008130502537824214
28.0,0.0008070265175774693
30.0,0.0007659420371055603
32.0,0.0007353047258220613
36.0,0.0005775753525085747
40.0,0.0007442364003509283
44.0,0.000776533386670053
48.0,0.0007379786693491042
52.0,0.0006281479727476835
56.0,0.0005695269210264087
60.0,0.0004939073114655912
64.0,0.0005072675994597375
72.0,0.0004132576868869364
80.0,-7.507709960918874e-05
88.0,-0.0006467265193350613
96.0,-0.000600877683609724
104.0,-0.00045669457176700234
112.0,0.00019036313460674137
120.0,0.0002638192963786423
128.0,0.0004466321843210608
144.0,0.0004257978580426425
160.0,0.0002563547750469297
176.0,0.00022387206263374537
192.0,0.0004877172759734094
208.0,0.0004148201260250062
224.0,0.0005592771922238171
240.0,8.04885621619178e-06
256.0,-0.0002347132976865396
288.0,8.63633758854121e-05
320.0,4.780491053679725e-06
352.0,7.842896593501791e-05
384.0,0.00022716356033924967
416.0,0.00032938882941380143
448.0,0.000510083104018122
480.0,-2.6599807370075723e-06
512.0,-6.281191599555314e-05
576.0,0.00041993666673079133
640.0,0.000400260032620281
704.0,-0.0001424128276994452
768.0,-3.864054087898694e-05
832.0,0.00023767052334733307
896.0,0.00010484924860065803
960.0,6.966002547414973e-05
1024.0,0.0004421005432959646
1152.0,-0.00014420555089600384
1280.0,0.00025494483998045325
1408.0,-0.00018517585704103112
1536.0,-6.79551885696128e-05
1664.0,-0.00010032185673480853
1792.0,-0.00012641501962207258
1920.0,3.7644993426511064e-05
2048.0,1.8051741790259257e-05
2304.0,-0.00013305892935022712
2560.0,9.816870442591608e-05
2816.0,-2.3098921246855753e-06
3072.0,-5.284853250486776e-05
3328.0,-0.00010465725790709257
3584.0,-0.00012617073662113398
3840.0,-0.00015937027637846768
4096.0,-0.0002572283265180886
4608.0,5.21612491866108e-05
5120.0,2.530789606680628e-05
5632.0,0.000206802025786601
6144.0,-6.634859892074019e-05
6656.0,-5.987495751469396e-05
7168.0,0.00014800205826759338
7680.0,-0.00016142801905516535
8192.0,-8.537595567759126e-05
end
