version,3.0
numOfCh,1
type,point
parent_name,fe81d_3dot0-1dot0
ch_type,1_1
kcount,1
numberNandB,1
brightnessNandB,1
carpet pos,0
pc,0
Time (ms),CH1 Auto-Correlation
1.0,0.017002703621983528
2.0,0.014014328829944134
3.0,0.011913441121578217
4.0,0.010399406775832176
5.0,0.009291061200201511
6.0,0.008282148279249668
7.0,0.007448658347129822
8.0,0.006797892041504383
9.0,0.006320780608803034
10.0,0.005844883155077696
11.0,0.005536567885428667
12.0,0.005374452099204063
13.0,0.005174978636205196
14.0,0.004964586813002825
15.0,0.004615423735231161
16.0,0.004266846925020218
18.0,0.0038080867379903793
20.0,0.0034514046274125576
22.0,0.00308236014097929
24.0,0.0029780783224850893
26.0,0.0029211104847490788
28.0,0.0028196272905915976
30.0,0.0026224865578114986
32.0,0.0026026980485767126
36.0,0.0023322703782469034
40.0,0.002196123357862234
44.0,0.002080179052427411
48.0,0.0018787466688081622
52.0,0.0017601128201931715
56.0,0.0016864894423633814
60.0,0.0020454637706279755
64.0,0.002073551993817091
72.0,0.0017550289630889893
80.0,0.001625665812753141
88.0,0.0013178465887904167
96.0,0.0009659748757258058
104.0,0.0010015037842094898
112.0,0.0006915316917002201
120.0,0.0005295623559504747
128.0,0.0005764938541688025
144.0,0.0008984248270280659
160.0,0.00029249550425447524
176.0,-0.00020646891789510846
192.0,-3.53801588062197e-05
208.0,-8.335876373166684e-06
224.0,-7.794530392857268e-05
240.0,-0.00012557089212350547
256.0,-0.0002645101340021938
288.0,-0.00020030239829793572
320.0,-0.0004538254579529166
352.0,-0.0002292035351274535
384.0,-0.0002847534487955272
416.0,0.0004810171958524734
448.0,0.0002501500421203673
480.0,0.0001972132158698514
512.0,0.0001920744398375973
576.0,8.655734563944861e-05
640.0,-0.00022675326908938587
704.0,0.00013684325676877052
768.0,-0.0005806812550872564
832.0,-0.0007235343218781054
896.0,-0.0003500384045764804
960.0,0.0004598595842253417
1024.0,0.000262709945673123
1152.0,0.0001682678412180394
1280.0,0.00033996504498645663
1408.0,4.863100912189111e-05
1536.0,-0.0002460838877595961
1664.0,-0.0005459318053908646
1792.0,-0.0007621045806445181
1920.0,0.00016168176080100238
2048.0,0.00023756687005516142
2304.0,-0.00032207285403274
2560.0,-4.10619359172415e-05
2816.0,-0.00042521380237303674
3072.0,0.00019461159536149353
3328.0,0.0002778517082333565
3584.0,0.0004208155442029238
3840.0,0.000182613919605501
4096.0,-0.00016123076784424484
4608.0,-0.0007438503089360893
5120.0,8.253980922745541e-05
5632.0,3.228888817830011e-05
6144.0,0.000184560616617091
6656.0,-0.00012717561912722886
7168.0,0.00022072531282901764
7680.0,-0.0009883419843390584
8192.0,-9.939848678186536e-05
end
