version,3.0
numOfCh,1
type,point
parent_name,fe81d_3dot0-1dot0
ch_type,1_1
kcount,1
numberNandB,1
brightnessNandB,1
carpet pos,0
pc,0
Time (ms),CH1 Auto-Correlation
1.0,0.015326201915740967
2.0,0.012384935282170773
3.0,0.010378182865679264
4.0,0.008865809999406338
5.0,0.007804130204021931
6.0,0.006896598730236292
7.0,0.006102341692894697
8.0,0.005511046387255192
9.0,0.0049986643716692924
10.0,0.0046422844752669334
11.0,0.004199440125375986
12.0,0.0038359372410923243
13.0,0.0033892837818711996
14.0,0.003092491766437888
15.0,0.0027794018387794495
16.0,0.002444148762151599
18.0,0.002040712395682931
20.0,0.0015496290288865566
22.0,0.001097748870961368
24.0,0.0008937915554270148
26.0,0.0008049969910643995
28.0,0.0006686974666081369
30.0,0.0005095062660984695
32.0,0.0003187746915500611
36.0,0.0003639172937255353
40.0,0.00032094487687572837
44.0,3.0961562060838332e-06
48.0,9.589580258761998e-06
52.0,8.270194666692987e-05
56.0,0.00013121812662575394
60.0,0.00029961022664792836
64.0,0.00016873276035767049
72.0,-0.00014959400868974626
80.0,-0.0003340472758281976
88.0,-0.0002690161927603185
96.0,-0.00019273770158179104
104.0,-1.3294619748194236e-05
112.0,0.0002769666607491672
120.0,0.00022012044792063534
128.0,0.0001584904530318454
144.0,0.0001828354870667681
160.0,0.0004427464446052909
176.0,0.0003796704113483429
192.0,0.0003000382275786251
208.0,-6.797207606723532e-05
224.0,4.852333222515881e-05
240.0,-6.15878525422886e-05
256.0,1.7856395061244257e-05
288.0,-8.252043335232884e-05
320.0,0.00012433514348231256
352.0,1.6032594203352346e-06
384.0,-0.0003484693297650665
416.0,-8.813834574539214e-05
448.0,-0.00017339600890409201
480.0,-0.0003752453194465488
512.0,6.529680831590667e-05
576.0,-5.664958734996617e-05
640.0,-2.444445271976292e-05
704.0,9.520032472210005e-05
768.0,-5.469789175549522e-05
832.0,1.3335266885405872e-05
896.0,7.993094914127141e-05
960.0,-1.261790771422966e-06
1024.0,-0.00035409044357948005
1152.0,-7.343873585341498e-05
1280.0,-0.00021529017249122262
1408.0,-3.743815977941267e-05
1536.0,-0.00022160008666105568
1664.0,0.00015432125655934215
1792.0,3.380649286555126e-05
1920.0,2.3595932361786254e-05
2048.0,8.28671472845599e-05
2304.0,-8.72130403877236e-05
2560.0,1.4818917406955734e-05
2816.0,0.00015868617629166692
3072.0,7.708677730988711e-05
3328.0,2.18213699554326e-05
3584.0,5.914022767683491e-05
3840.0,5.6405197028652765e-06
4096.0,-0.0001472460280638188
4608.0,1.318313138654048e-06
5120.0,6.28761772532016e-05
5632.0,1.4259283489082009e-05
6144.0,-0.00016526476247236133
6656.0,6.261754606384784e-05
7168.0,0.00017042162653524429
7680.0,-6.746354483766481e-05
8192.0,-6.345581641653553e-05
end
