version,3.0
numOfCh,1
type,point
parent_name,fe81d_3dot0-1dot0
ch_type,1_1
kcount,1
numberNandB,1
brightnessNandB,1
carpet pos,0
pc,0
Time (ms),CH1 Auto-Correlation
1.0,0.01635909453034401
2.0,0.01339840516448021
3.0,0.01136347558349371
4.0,0.009775817394256592
5.0,0.008526242338120937
6.0,0.0075741480104625225
7.0,0.006806826684623957
8.0,0.006269979290664196
9.0,0.00575918797403574
10.0,0.00526860635727644
11.0,0.004931493196636438
12.0,0.004588625859469175
13.0,0.004359161946922541
14.0,0.004176151007413864
15.0,0.003922482021152973
16.0,0.003666715230792761
18.0,0.0033461255952715874
20.0,0.0029963278211653233
22.0,0.0029044710099697113
24.0,0.0026209955103695393
26.0,0.002524315845221281
28.0,0.002416877308860421
30.0,0.002315524499863386
32.0,0.0019551303703337908
36.0,0.001617349567823112
40.0,0.001594714354723692
44.0,0.0014180789003148675
48.0,0.0009798930259421468
52.0,0.0004471848951652646
56.0,0.00038783231866545975
60.0,0.00013518735067918897
64.0,0.0003249400469940156
72.0,0.00015955790877342224
80.0,0.00010259937698720023
88.0,-1.4571569408872165e-05
96.0,-5.963554485788336e-06
104.0,0.00044701018487103283
112.0,0.00051051692571491
120.0,0.0003556569863576442
128.0,2.803475217660889e-05
144.0,0.0007216537487693131
160.0,0.0006009942735545337
176.0,0.000638475816231221
192.0,0.0009961181785911322
208.0,0.0006359664839692414
224.0,0.0002769629645626992
240.0,-0.0005840799422003329
256.0,-0.000452436477644369
288.0,-0.0005568583146668971
320.0,-6.22423758613877e-05
352.0,-0.0001331229432253167
384.0,0.0007022644858807325
416.0,0.00035772076807916164
448.0,-3.1488460081163794e-05
480.0,0.00021243428636807948
512.0,0.00026887314743362367
576.0,0.0008858283399604261
640.0,-3.8584104913752526e-05
704.0,9.971419785870239e-05
768.0,-0.0006139246979728341
832.0,-0.00046677241334691644
896.0,-0.0005282685160636902
960.0,-0.00032982806442305446
1024.0,0.0001862657954916358
1152.0,7.962862582644448e-05
1280.0,-2.5790308427531272e-05
1408.0,-6.418827524612425e-06
1536.0,0.0001120536180678755
1664.0,4.487306796363555e-05
1792.0,3.553463830030523e-05
1920.0,0.00017742706404533237
2048.0,-0.00010381730680819601
2304.0,-8.296545274788514e-05
2560.0,-3.0561051971744746e-05
2816.0,-0.00019852632249239832
3072.0,-0.0002686167135834694
3328.0,-9.700743248686194e-05
3584.0,0.0002904744469560683
3840.0,-0.00020266087085474283
4096.0,0.00024379014212172478
4608.0,-0.00034116499591618776
5120.0,0.00032855229801498353
5632.0,0.00013258762191981077
6144.0,-2.905728433688637e-05
6656.0,-9.462828165851533e-05
7168.0,0.00018190598348155618
7680.0,0.00017247280629817396
8192.0,-0.0004868201503995806
end
