version,3.0
numOfCh,1
type,point
parent_name,fe81d_3dot0-1dot0
ch_type,1_1
kcount,1
numberNandB,1
brightnessNandB,1
carpet pos,0
pc,0
Time (ms),CH1 Auto-Correlation
1.0,0.016374072059988976
2.0,0.01340701337903738
3.0,0.011282804422080517
4.0,0.009705926291644573
5.0,0.008528151549398899
6.0,0.0075538246892392635
7.0,0.006787283346056938
8.0,0.006229470018297434
9.0,0.005682430230081081
10.0,0.005379725247621536
11.0,0.00511088315397501
12.0,0.004835460335016251
13.0,0.0045545343309640884
14.0,0.004335932433605194
15.0,0.0041977656073868275
16.0,0.004067803267389536
18.0,0.003723658388480544
20.0,0.003308076411485672
22.0,0.0029568991158157587
24.0,0.002624026732519269
26.0,0.0022930167615413666
28.0,0.0018909168429672718
30.0,0.001595017034560442
32.0,0.0014816186157986522
36.0,0.0014672004617750645
40.0,0.0014673046534880996
44.0,0.0017710237298160791
48.0,0.0018984840717166662
52.0,0.0015711345477029681
56.0,0.0012566515943035483
60.0,0.0011086852755397558
64.0,0.0008643638575449586
72.0,0.0007220482220873237
80.0,0.0007125710253603756
88.0,0.00031936969025991857
96.0,0.0007800892344675958
104.0,0.000819061475340277
112.0,0.0008196795824915171
120.0,0.0004859982873313129
128.0,0.0005732553545385599
144.0,-3.941487011616118e-05
160.0,-2.2658741727354936e-05
176.0,-0.00011304627696517855
192.0,-0.0002301133645232767
208.0,0.0001179414612124674
224.0,-4.8678550228942186e-05
240.0,-0.00020922473049722612
256.0,-0.00018096940766554326
288.0,-0.0004540966765489429
320.0,-0.0003503254265524447
352.0,-0.00013399755698628724
384.0,5.5704909755149856e-05
416.0,-0.00031816441332921386
448.0,0.00018479929713066667
480.0,4.969512883690186e-05
512.0,-9.207305083691608e-06
576.0,-0.000137090144562535
640.0,0.000608591886702925
704.0,0.0007468415424227715
768.0,-0.00015094797709025443
832.0,-0.00039416499203071
896.0,-0.0006369221373461187
960.0,-0.00044181605335325
1024.0,-0.00040893605910241604
1152.0,-0.00019764085300266743
1280.0,0.00010612096230033785
1408.0,0.0004287993651814759
1536.0,-0.0001123354013543576
1664.0,2.2794689357397147e-05
1792.0,0.0001316452689934522
1920.0,-4.630292096408084e-05
2048.0,-4.9636892072157934e-06
2304.0,-5.453210150108134e-08
2560.0,0.00027048029005527496
2816.0,-0.00047768658259883523
3072.0,3.9704202208667994e-05
3328.0,-0.0003496795834507793
3584.0,-1.1667961189232301e-05
3840.0,0.00015561112377326936
4096.0,-1.961624002433382e-05
4608.0,-0.0002648239315021783
5120.0,0.0002257938904222101
5632.0,7.459570770151913e-05
6144.0,-0.00013746139302384108
6656.0,0.00012160725600551814
7168.0,0.0002098210243275389
7680.0,-0.00012672870070673525
8192.0,-0.00028533735894598067
end
