version,3.0
numOfCh,1
type,point
parent_name,fe81d_3dot0-1dot0
ch_type,1_1
kcount,1
numberNandB,1
brightnessNandB,1
carpet pos,0
pc,0
Time (ms),CH1 Auto-Correlation
1.0,0.01644660159945488
2.0,0.013440626673400402
3.0,0.011307742446660995
4.0,0.009737210348248482
5.0,0.00853621494024992
6.0,0.007613629102706909
7.0,0.006962871178984642
8.0,0.0064515057019889355
9.0,0.005930288229137659
10.0,0.0054304879158735275
11.0,0.005014427937567234
12.0,0.004687462002038956
13.0,0.0044041103683412075
14.0,0.0042315321043133736
15.0,0.004064496606588364
16.0,0.0038555534556508064
18.0,0.003577080788090825
20.0,0.0033264835365116596
22.0,0.0031825925689190626
24.0,0.003007331630215049
26.0,0.0028163380920886993
28.0,0.0024998593144118786
30.0,0.0022921054624021053
32.0,0.0020415058825165033
36.0,0.001701104803942144
40.0,0.001539244200102985
44.0,0.0014999906998127699
48.0,0.0013892360730096698
52.0,0.0011552918003872037
56.0,0.001047087600454688
60.0,0.000867374415975064
64.0,0.0006034044781699777
72.0,0.0007024810765869915
80.0,0.0006466140621341765
88.0,0.0005290861590765417
96.0,0.0005801362567581236
104.0,0.0010074230376631021
112.0,0.0010199514217674732
120.0,0.0006154379225336015
128.0,-7.15257046977058e-05
144.0,-0.0001447733520762995
160.0,-8.023605914786458e-05
176.0,0.00018053597887046635
192.0,0.0005765703972429037
208.0,0.0003881348529830575
224.0,0.00015236569743137807
240.0,3.753200508072041e-05
256.0,-0.00019960859208367765
288.0,-0.00012641660578083247
320.0,-0.00017500793910585344
352.0,-3.005085454788059e-05
384.0,-0.00017672851390670985
416.0,0.0003824278828687966
448.0,0.0007478794432245195
480.0,0.0003728174779098481
512.0,4.7230281779775396e-05
576.0,9.501391468802467e-05
640.0,0.0001610225735930726
704.0,0.0005951921921223402
768.0,0.0003865351900458336
832.0,-7.94309307821095e-05
896.0,-0.00023401377256959677
960.0,-0.000327575602568686
1024.0,-0.0006057482096366584
1152.0,-0.0002841771929524839
1280.0,-0.0003612130822148174
1408.0,-0.0003874225076287985
1536.0,0.00012176090240245685
1664.0,0.00010123348329216242
1792.0,-8.798257476883009e-05
1920.0,-0.00036059238482266665
2048.0,0.0002951702626887709
2304.0,0.0003418661071918905
2560.0,-0.00010562250099610537
2816.0,0.00012641001376323402
3072.0,-0.0003621394280344248
3328.0,-0.00029741600155830383
3584.0,4.9083514568337705e-06
3840.0,-0.0002755076566245407
4096.0,0.00010210361506324261
4608.0,9.143408533418551e-05
5120.0,4.605052527040243e-05
5632.0,-0.0003015756665263325
6144.0,-0.0004206123121548444
6656.0,0.0001843885111156851
7168.0,-6.304265843937173e-05
7680.0,-0.0005955876549705863
8192.0,-0.0002526942116674036
end
