version,3.0
numOfCh,1
type,point
parent_name,fe81d_3dot0-1dot0
ch_type,1_1
kcount,1
numberNandB,1
brightnessNandB,1
carpet pos,0
pc,0
Time (ms),CH1 Auto-Correlation
1.0,0.015833236277103424
2.0,0.012962720356881618
3.0,0.011029343120753765
4.0,0.009583313018083572
5.0,0.008412820287048817
6.0,0.0075392890721559525
7.0,0.0068413568660616875
8.0,0.006182860117405653
9.0,0.005571219604462385
10.0,0.005048634018748999
11.0,0.004729229956865311
12.0,0.004371665418148041
13.0,0.004042394924908876
14.0,0.0038566472940146923
15.0,0.0036362879909574986
16.0,0.0034629525616765022
18.0,0.00311149749904871
20.0,0.002862347522750497
22.0,0.002655742922797799
24.0,0.002343340776860714
26.0,0.002021581633016467
28.0,0.0020206302870064974
30.0,0.0019358880817890167
32.0,0.0017534334911033511
36.0,0.0016276814276352525
40.0,0.001503569888882339
44.0,0.0013310457579791546
48.0,0.0011337226023897529
52.0,0.001251776935532689
56.0,0.0011287889210507274
60.0,0.0009498429135419428
64.0,0.0008986069587990642
72.0,0.0009236897458322346
80.0,0.0009260409278795123
88.0,0.0007547576678916812
96.0,0.00046531768748536706
104.0,0.0003436827100813389
112.0,0.0003006144834216684
120.0,0.00037509779212996364
128.0,0.0005542768049053848
144.0,0.0006540943868458271
160.0,0.00046806238242425025
176.0,0.0004712786467280239
192.0,-3.5154411307303235e-05
208.0,-0.00025045647635124624
224.0,-0.00043718519737012684
240.0,-0.00028674252098426223
256.0,-0.00018956739222630858
288.0,5.76855345570948e-05
320.0,0.00039562175516039133
352.0,0.0005335421301424503
384.0,0.00033105153124779463
416.0,-1.2592273378686514e-05
448.0,-2.5529288905090652e-05
480.0,0.0006212336011230946
512.0,0.0002622070023790002
576.0,0.00015702297969255596
640.0,-3.222599480068311e-05
704.0,-0.00010168086737394333
768.0,-0.00028580272919498384
832.0,-1.4159596503304783e-05
896.0,7.687071047257632e-05
960.0,4.897285634797299e-07
1024.0,0.00022057771275285631
1152.0,-8.90103547135368e-05
1280.0,-0.0003507017099764198
1408.0,-0.0005189115181565285
1536.0,-7.376910070888698e-05
1664.0,-6.564880459336564e-05
1792.0,-0.00022614568297285587
1920.0,-0.0001998750667553395
2048.0,-0.00030050863279029727
2304.0,-0.00029865794931538403
2560.0,0.00024161962210200727
2816.0,-0.00013361574383452535
3072.0,3.3239295589737594e-05
3328.0,-9.466069968766533e-06
3584.0,0.0002764051023405045
3840.0,-0.00017466378631070256
4096.0,5.602609962807037e-05
4608.0,-0.00023968215100467205
5120.0,-5.301766941556707e-05
5632.0,0.0003649838035926223
6144.0,7.805898349033669e-05
6656.0,-0.0003629869606811553
7168.0,3.626282705226913e-05
7680.0,6.654689059359953e-05
8192.0,0.00048527150647714734
end
