version,3.0
numOfCh,1
type,point
parent_name,fe81d_3dot0-1dot0
ch_type,1_1
kcount,1
numberNandB,1
brightnessNandB,1
carpet pos,0
pc,0
Time (ms),CH1 Auto-Correlation
1.0,0.016856832429766655
2.0,0.013819641433656216
3.0,0.011709233745932579
4.0,0.010209712199866772
5.0,0.009093965403735638
6.0,0.00814842153340578
7.0,0.007313283160328865
8.0,0.006642697378993034
9.0,0.006137435790151358
10.0,0.0057241544127464294
11.0,0.005276545416563749
12.0,0.004981817211955786
13.0,0.004755910951644182
14.0,0.004486940335482359
15.0,0.004215699154883623
16.0,0.003967811819165945
18.0,0.003563724458217621
20.0,0.0032463115639984608
22.0,0.003265570616349578
24.0,0.003189524170011282
26.0,0.0030912160873413086
28.0,0.0028955929446965456
30.0,0.0027052254881709814
32.0,0.0025550280697643757
36.0,0.0022478688042610884
40.0,0.0017816214822232723
44.0,0.0016229269094765186
48.0,0.0016826551873236895
52.0,0.001433472614735365
56.0,0.0010564373806118965
60.0,0.0007641043630428612
64.0,0.000564974790904671
72.0,0.00048265786608681083
80.0,0.00065783248282969
88.0,0.00031767296604812145
96.0,3.049078986805398e-05
104.0,0.00019319848797749728
112.0,0.00031879759626463056
120.0,0.0002482724958099425
128.0,0.00038509228033944964
144.0,9.750107710715383e-05
160.0,-8.507973689120263e-06
176.0,-0.0002545188763178885
192.0,-0.0002474964421708137
208.0,-0.00037950725527480245
224.0,-0.0001744533219607547
240.0,-7.6850745244883e-05
256.0,3.9198923332151026e-05
288.0,0.00014925512368790805
320.0,-0.00018430141790304333
352.0,-0.00093597307568416
384.0,-0.0007378191221505404
416.0,-0.0006628346745856106
448.0,-0.0005432746256701648
480.0,-0.0007257146644406021
512.0,-0.00029137692763470113
576.0,-9.730390593176708e-05
640.0,-3.271044261055067e-05
704.0,0.00010935042519122362
768.0,-3.409720739000477e-05
832.0,2.593894578239997e-06
896.0,-1.2309281373745762e-05
960.0,-3.094019848504104e-05
1024.0,0.0004789578088093549
1152.0,0.00045565239270217717
1280.0,-0.0004904874367639422
1408.0,-0.0003790461050812155
1536.0,-0.00012918484571855515
1664.0,6.0578233387786895e-05
1792.0,0.0004992996109649539
1920.0,0.0003100703179370612
2048.0,9.813968790695071e-05
2304.0,-0.00031000663875602186
2560.0,0.00012143947242293507
2816.0,0.00012019901623716578
3072.0,0.00013010198017582297
3328.0,-0.00019888092356268317
3584.0,0.00010940150241367519
3840.0,-0.00017509634199086577
4096.0,-0.0002824895200319588
4608.0,-0.00015531266399193555
5120.0,0.0002663542400114238
5632.0,1.7001450032694265e-05
6144.0,0.00012244362733326852
6656.0,-2.4253695301013067e-05
7168.0,-0.00015576901205349714
7680.0,6.68439461151138e-05
8192.0,5.355754910851829e-05
end
