version,3.0
numOfCh,1
type,point
parent_name,fe81d_3dot0-1dot0
ch_type,1_1
kcount,1
numberNandB,1
brightnessNandB,1
carpet pos,0
pc,0
Time (ms),CH1 Auto-Correlation
1.0,0.016498832032084465
2.0,0.013536681421101093
3.0,0.011441138572990894
4.0,0.009852895513176918
5.0,0.008664955385029316
6.0,0.007697435561567545
7.0,0.006910914555191994
8.0,0.00628150487318635
9.0,0.005750562530010939
10.0,0.005332638509571552
11.0,0.005003607366234064
12.0,0.0047093830071389675
13.0,0.0043488903902471066
14.0,0.004119583405554295
15.0,0.0038522682152688503
16.0,0.003690808778628707
18.0,0.0034545171074569225
20.0,0.003124126000329852
22.0,0.002747301710769534
24.0,0.002463842509314418
26.0,0.0023149559274315834
28.0,0.0022172979079186916
30.0,0.0021930572111159563
32.0,0.0022037052549421787
36.0,0.0023339695762842894
40.0,0.0022551475558429956
44.0,0.002125405240803957
48.0,0.0020310115069150925
52.0,0.0016984690446406603
56.0,0.0012836938258260489
60.0,0.0010374323464930058
64.0,0.0009906955529004335
72.0,0.0006597743486054242
80.0,0.00017592075164429843
88.0,5.307302126311697e-05
96.0,-0.00040650475420989096
104.0,-0.0010176983196288347
112.0,-0.0009403139119967818
120.0,-0.000508502300363034
128.0,-0.00046193809248507023
144.0,-0.0006847886252216995
160.0,-0.00043346796883270144
176.0,-0.0005562379374168813
192.0,-0.000235054234508425
208.0,-9.517101716483012e-05
224.0,1.7906932043842971e-06
240.0,0.0002004198613576591
256.0,0.0003482757310848683
288.0,0.00014938361709937453
320.0,-7.757836283417419e-05
352.0,-6.685667904093862e-05
384.0,-0.00037331340718083084
416.0,-0.00019438679737504572
448.0,0.00021391923655755818
480.0,-0.00046482044854201376
512.0,7.136989006539807e-05
576.0,0.00024551653768867254
640.0,0.0004294770478736609
704.0,0.00012025680916849524
768.0,-0.00028361694421619177
832.0,-0.0003091416438110173
896.0,-9.236607002094388e-05
960.0,-0.00048612363752909005
1024.0,-0.0005651420215144753
1152.0,-0.00031193968607112765
1280.0,0.00019262921705376357
1408.0,4.808733137906529e-06
1536.0,-2.9518243536585942e-05
1664.0,0.0002821737725753337
1792.0,0.00020820593636017293
1920.0,2.7260781280347146e-05
2048.0,-4.14828973589465e-05
2304.0,-7.533981261076406e-05
2560.0,-9.433645755052567e-05
2816.0,-0.00018764428386930376
3072.0,0.00014459891826845706
3328.0,-0.00015570812684018165
3584.0,-6.072870746720582e-05
3840.0,-0.00014070553879719228
4096.0,-8.01087444415316e-05
4608.0,0.0002618452999740839
5120.0,-0.0002090061316266656
5632.0,-0.00035866591497324407
6144.0,0.00017329404363408685
6656.0,0.0001722646557027474
7168.0,-0.00018888324848376215
7680.0,-0.00014632717648055404
8192.0,3.3107186027336866e-05
end
