version,3.0
numOfCh,1
type,point
parent_name,fe81d_3dot0-1dot0
ch_type,1_1
kcount,1
numberNandB,1
brightnessNandB,1
carpet pos,0
pc,0
Time (ms),CH1 Auto-Correlation
1.0,0.017401136457920074
2.0,0.014476729556918144
3.0,0.012286818586289883
4.0,0.01070111058652401
5.0,0.009336500428617
6.0,0.008274709805846214
7.0,0.007366839796304703
8.0,0.006752287968993187
9.0,0.006233955733478069
10.0,0.005703415255993605
11.0,0.005367366597056389
12.0,0.00516319926828146
13.0,0.004877630155533552
14.0,0.004598327912390232
15.0,0.004294444341212511
16.0,0.004027849528938532
18.0,0.0037737302482128143
20.0,0.0033784578554332256
22.0,0.0030359411612153053
24.0,0.002977952593937516
26.0,0.003050300758332014
28.0,0.002820426831021905
30.0,0.0025753583759069443
32.0,0.0023346226662397385
36.0,0.0023019660729914904
40.0,0.0019062100909650326
44.0,0.0015780385583639145
48.0,0.0012369914911687374
52.0,0.0012545643839985132
56.0,0.001333865919150412
60.0,0.0010255292290821671
64.0,0.0007983118412084877
72.0,0.00037035177228972316
80.0,0.000523480586707592
88.0,0.0012561475159600377
96.0,0.0012849902268499136
104.0,0.0009661983349360526
112.0,0.0006741328979842365
120.0,0.0006229061400517821
128.0,0.00025619659572839737
144.0,-0.000598532147705555
160.0,-0.0008366885595023632
176.0,-0.00015486215124838054
192.0,0.00022251936024986207
208.0,0.0002784111420623958
224.0,0.000304898654576391
240.0,-0.0003214605967514217
256.0,-0.0010829668026417494
288.0,-0.0006157378666102886
320.0,-4.043168883072212e-05
352.0,-0.00046189947170205414
384.0,-0.00033596757566556334
416.0,3.1345027764473343e-06
448.0,1.9887322196154855e-05
480.0,0.0001566488790558651
512.0,0.0006329140160232782
576.0,0.0006974342395551503
640.0,-0.0002139616262866184
704.0,-0.0005458975210785866
768.0,-0.0008403633837588131
832.0,-0.0001778533187462017
896.0,-9.868908819044009e-05
960.0,0.00021510300575755537
1024.0,-7.843077037250623e-05
1152.0,0.00017160635616164654
1280.0,-0.0005307827959768474
1408.0,0.00012161643098806962
1536.0,0.0001830616529332474
1664.0,0.00024315647897310555
1792.0,-0.00047811464173719287
1920.0,-0.00022733796504326165
2048.0,-0.0003152059216517955
2304.0,-0.0002764247765298933
2560.0,-0.00022527060355059803
2816.0,0.00034129241248592734
3072.0,-0.00015370224718935788
3328.0,0.0005164782050997019
3584.0,-0.0007089815335348248
3840.0,0.0006149536930024624
4096.0,-0.0003961765323765576
4608.0,0.00019166895071975887
5120.0,-0.00033466730383224785
5632.0,-9.66365187196061e-05
6144.0,-0.00010460139310453087
6656.0,-5.052228516433388e-05
7168.0,0.00027589043020270765
7680.0,0.00011702737538143992
8192.0,-0.0002747656835708767
end
