version,3.0
numOfCh,1
type,point
parent_name,fe81d_3dot0-1dot0
ch_type,1_1
kcount,1
numberNandB,1
brightnessNandB,1
carpet pos,0
pc,0
Time (ms),CH1 Auto-Correlation
1.0,0.015614100731909275
2.0,0.012568611651659012
3.0,0.01057765819132328
4.0,0.009029142558574677
5.0,0.007909256964921951
6.0,0.007147960364818573
7.0,0.00638321740552783
8.0,0.005750664975494146
9.0,0.00519765866920352
10.0,0.004729269538074732
11.0,0.004220735281705856
12.0,0.003937794826924801
13.0,0.0035953777842223644
14.0,0.0032798994798213243
15.0,0.003045561956241727
16.0,0.0027905988972634077
18.0,0.0025172496680170298
20.0,0.0022086428944021463
22.0,0.0020586811006069183
24.0,0.0019772935193032026
26.0,0.0019647073931992054
28.0,0.001764691318385303
30.0,0.0016559696523472667
32.0,0.0015930626541376114
36.0,0.0014472580514848232
40.0,0.0013907421380281448
44.0,0.0012469231151044369
48.0,0.0007023822399787605
52.0,0.00043436975101940334
56.0,0.0004449653788469732
60.0,0.0005281149060465395
64.0,0.0007047136314213276
72.0,0.0007090174476616085
80.0,0.00022383984469342977
88.0,0.00016703599249012768
96.0,1.5438421542057768e-05
104.0,0.0002646354550961405
112.0,-7.800380990374833e-05
120.0,-2.6140749469050206e-05
128.0,-0.00010123700485564768
144.0,0.00024140237655956298
160.0,-0.0001856901653809473
176.0,-9.426637552678585e-05
192.0,-0.0002002888941206038
208.0,-0.00036882920539937913
224.0,-0.000587478862144053
240.0,-0.0004231157072354108
256.0,-0.00026622251607477665
288.0,7.278165139723569e-05
320.0,0.00028773813392035663
352.0,0.0004444316145963967
384.0,0.00026337316376157105
416.0,0.00030793657060712576
448.0,4.049103881698102e-05
480.0,0.00020060449605807662
512.0,-0.0002631819515954703
576.0,-0.00042132960516028106
640.0,-9.832724754232913e-05
704.0,0.0004660331760533154
768.0,0.0006997952004894614
832.0,0.0002686911029741168
896.0,-0.0002453461056575179
960.0,-0.00013807788491249084
1024.0,0.00034180382499471307
1152.0,0.0003328629245515913
1280.0,-0.0002680119941942394
1408.0,9.863142622634768e-05
1536.0,0.00027165026403963566
1664.0,-0.0004457617469597608
1792.0,-0.000140946707688272
1920.0,0.0001465778041165322
2048.0,-0.00031883997144177556
2304.0,-7.241457205964252e-05
2560.0,-0.0001798676821636036
2816.0,-0.00022310522035695612
3072.0,-0.00013730661885347217
3328.0,3.349240432726219e-05
3584.0,-1.1524791261763312e-05
3840.0,-0.00022813695250079036
4096.0,-8.423244435107335e-05
4608.0,0.00021063032909296453
5120.0,-0.00024106603814288974
5632.0,0.00029402520158328116
6144.0,-0.00021668900444637984
6656.0,-0.00012765114661306143
7168.0,-0.00010367378126829863
7680.0,-3.301971810287796e-05
8192.0,0.00023895195045042783
end
