version,3.0
numOfCh,1
type,point
parent_name,fe81d_3dot0-1dot0
ch_type,1_1
kcount,1
numberNandB,1
brightnessNandB,1
carpet pos,0
pc,0
Time (ms),CH1 Auto-Correlation
1.0,0.016838375478982925
2.0,0.013919095508754253
3.0,0.011805789545178413
4.0,0.010204317048192024
5.0,0.008981759659945965
6.0,0.007955663837492466
7.0,0.0071668014861643314
8.0,0.006596309598535299
9.0,0.0060134888626635075
10.0,0.005536715500056744
11.0,0.005086873192340136
12.0,0.004744586534798145
13.0,0.0045524584129452705
14.0,0.004278889857232571
15.0,0.004142429679632187
16.0,0.003910179249942303
18.0,0.0035929568111896515
20.0,0.003329189494252205
22.0,0.003076631808653474
24.0,0.0029330167453736067
26.0,0.002876525279134512
28.0,0.0027224135119467974
30.0,0.0023372736759483814
32.0,0.002062107203528285
36.0,0.0014671077951788902
40.0,0.001204013591632247
44.0,0.0011388539569452405
48.0,0.0009709224686957896
52.0,0.0008648709626868367
56.0,0.0011481104884296656
60.0,0.0012669538846239448
64.0,0.0013605707790702581
72.0,0.0010594574268907309
80.0,0.0006401833961717784
88.0,0.0006324545829556882
96.0,0.00038579953252337873
104.0,0.00017167549231089652
112.0,0.0001206352753797546
120.0,0.0003494138363748789
128.0,0.0004960633814334869
144.0,0.0003257860953453928
160.0,0.0001629242760827765
176.0,-0.0005195077392272651
192.0,-0.00037883836193941534
208.0,-0.00025402556639164686
224.0,0.00017252219549845904
240.0,0.0003282262186985463
256.0,0.0004152438777964562
288.0,-9.241869702236727e-05
320.0,-0.0007572229951620102
352.0,-0.0005599757423624396
384.0,-0.0004031407879665494
416.0,-0.001002488425001502
448.0,-0.00024262978695333004
480.0,-0.00045754024176858366
512.0,-0.00021104745974298567
576.0,-0.00015616146265529096
640.0,0.0004011794226244092
704.0,7.343261677306145e-05
768.0,-8.0842939496506e-05
832.0,-0.00011725095828296617
896.0,-0.00019283845904283226
960.0,-0.0004050885618198663
1024.0,-3.065299097215757e-05
1152.0,0.0003174599842168391
1280.0,0.0003221871447749436
1408.0,0.00013529173156712204
1536.0,-0.00015538746083620936
1664.0,-0.00038945465348660946
1792.0,-1.5658122720196843e-05
1920.0,0.00013243941066320986
2048.0,0.00010033980652224272
2304.0,0.0003096822474617511
2560.0,-6.746667349943891e-05
2816.0,-0.00031387151102535427
3072.0,1.9574203179217875e-05
3328.0,8.961801358964294e-05
3584.0,0.00015706560225225985
3840.0,-0.0003013309324160218
4096.0,-0.00011196942068636417
4608.0,0.00010785779159050435
5120.0,4.599536623572931e-05
5632.0,7.54026259528473e-05
6144.0,-0.00021961626771371812
6656.0,-5.134580987942172e-06
7168.0,0.0002874057972803712
7680.0,-0.00030941018485464156
8192.0,0.00010469541302882135
end
