version,3.0
numOfCh,1
type,point
parent_name,fe81d_3dot0-1dot0
ch_type,1_1
kcount,1
numberNandB,1
brightnessNandB,1
carpet pos,0
pc,0
Time (ms),CH1 Auto-Correlation
1.0,0.01599373295903206
2.0,0.013109074905514717
3.0,0.01103412825614214
4.0,0.009606834501028061
5.0,0.008562140166759491
6.0,0.007819104939699173
7.0,0.007218736689537764
8.0,0.006734372582286596
9.0,0.00621753977611661
10.0,0.005755779333412647
11.0,0.005324040073901415
12.0,0.004957783967256546
13.0,0.004701843950897455
14.0,0.004350694362074137
15.0,0.004094536881893873
16.0,0.0038762192707508802
18.0,0.003480995539575815
20.0,0.0030643735080957413
22.0,0.0027905513998121023
24.0,0.0026367667596787214
26.0,0.002463574055582285
28.0,0.002215392654761672
30.0,0.0020062054973095655
32.0,0.0019544907845556736
36.0,0.0019201603718101978
40.0,0.002166410442441702
44.0,0.0022145153488963842
48.0,0.0021933128591626883
52.0,0.002107954816892743
56.0,0.001841369434259832
60.0,0.001705579343251884
64.0,0.0013734016101807356
72.0,0.0013317785924300551
80.0,0.0014801721554249525
88.0,0.0015520404558628798
96.0,0.0013304164167493582
104.0,0.0011605770559981465
112.0,0.0008677139412611723
120.0,0.0009456207044422626
128.0,0.0008755170274525881
144.0,0.0007507343543693423
160.0,0.00021589724929071963
176.0,-6.558452150784433e-05
192.0,-9.545886132400483e-05
208.0,9.72118868958205e-05
224.0,2.6958101443597116e-05
240.0,0.0006021545268595219
256.0,0.0008715347503311932
288.0,0.00024751361343078315
320.0,0.000353499548509717
352.0,-1.2496958333940711e-05
384.0,1.1604934115894139e-05
416.0,-0.00047948129940778017
448.0,-0.0005402943352237344
480.0,-0.0004241163842380047
512.0,-0.00011271012772340328
576.0,-0.0001697897823760286
640.0,-6.0026686696801335e-05
704.0,-0.00012901544687338173
768.0,0.0004316150734666735
832.0,0.0002799806243274361
896.0,0.000187851648661308
960.0,-0.000639944919385016
1024.0,-0.000529515789821744
1152.0,-0.0006914117257110775
1280.0,-0.0008918188395909965
1408.0,0.00028214274789206684
1536.0,0.00045497698010876775
1664.0,0.0005026744329370558
1792.0,-2.731100539676845e-05
1920.0,-0.00035172438947483897
2048.0,-0.0007964246324263513
2304.0,-1.3713593034481164e-06
2560.0,-0.0002644224732648581
2816.0,-0.0007301394362002611
3072.0,-0.00018611519772093743
3328.0,6.487055361503735e-05
3584.0,-7.421163172693923e-05
3840.0,0.0003431689983699471
4096.0,0.000449859828222543
4608.0,-0.000212926504900679
5120.0,-0.00017125786689575762
5632.0,0.0005811972660012543
6144.0,0.0002658355806488544
6656.0,-0.00035020525683648884
7168.0,-0.000234562685363926
7680.0,-4.0446371713187546e-05
8192.0,-0.00015530455857515335
end
