version,3.0
numOfCh,1
type,point
parent_name,fe81d_3dot0-1dot0
ch_type,1_1
kcount,1
numberNandB,1
brightnessNandB,1
carpet pos,0
pc,0
Time (ms),CH1 Auto-Correlation
1.0,0.017220884561538696
2.0,0.014234880916774273
3.0,0.012141389772295952
4.0,0.010619228705763817
5.0,0.009387323632836342
6.0,0.008448932319879532
7.0,0.007777209393680096
8.0,0.007178694475442171
9.0,0.00665627047419548
10.0,0.0062301079742610455
11.0,0.0058051603846251965
12.0,0.005369106773287058
13.0,0.004873382393270731
14.0,0.0045160255394876
15.0,0.0042226905934512615
16.0,0.004008899908512831
18.0,0.00363500090315938
20.0,0.003385476302355528
22.0,0.003177757142111659
24.0,0.0031552130822092295
26.0,0.0030034692026674747
28.0,0.0028514349833130836
30.0,0.0026912412140518427
32.0,0.002483672695234418
36.0,0.0023090459872037172
40.0,0.0021977846045047045
44.0,0.0016813366673886776
48.0,0.0014073726488277316
52.0,0.001480773207731545
56.0,0.0013745276955887675
60.0,0.0009316689684055746
64.0,0.0010243505239486694
72.0,0.0009923113975673914
80.0,0.000803810718934983
88.0,0.0009619399788789451
96.0,0.0007747458294034004
104.0,0.001036620931699872
112.0,0.0010452718706801534
120.0,0.001195757882669568
128.0,0.0010980434017255902
144.0,0.0007320809527300298
160.0,0.000605186796747148
176.0,0.000661265745293349
192.0,0.0008861488895490766
208.0,0.0003736061917152256
224.0,0.0002466793230269104
240.0,0.0004084696411155164
256.0,0.0006166796083562076
288.0,0.00022530945716425776
320.0,-0.0003198149788659066
352.0,7.93318249634467e-05
384.0,-0.0005674485000781715
416.0,-3.7916076962574152e-06
448.0,0.00015493934915866703
480.0,-0.0008627374190837145
512.0,-0.0008575671236030757
576.0,-0.00022630771854892373
640.0,-0.00036560327862389386
704.0,-0.00013898314500693232
768.0,0.00034198156208731234
832.0,-0.0003287058789283037
896.0,-0.0006433080416172743
960.0,-0.0002879405510611832
1024.0,-0.00014862797979731113
1152.0,-3.170260242768563e-05
1280.0,0.00027931947261095047
1408.0,-1.0926547474809922e-05
1536.0,0.0003248283755965531
1664.0,-0.00038009442505426705
1792.0,-0.00044857533066533506
1920.0,-0.000825326656922698
2048.0,-0.0003454746911302209
2304.0,-0.00013776718697044998
2560.0,0.0006284434930421412
2816.0,0.00035396753810346127
3072.0,-4.7853445721557364e-05
3328.0,-1.5977269868017174e-05
3584.0,0.00011006695422111079
3840.0,0.00013722124276682734
4096.0,7.961173105286434e-05
4608.0,-0.00040134278242476285
5120.0,-0.0003806348249781877
5632.0,-6.710489105898887e-05
6144.0,-3.602559081627987e-05
6656.0,0.00025405402993783355
7168.0,0.0001905103854369372
7680.0,-0.00032981549156829715
8192.0,-0.00016824864724185318
end
