version,3.0
numOfCh,1
type,point
parent_name,fe81d_3dot0-1dot0
ch_type,1_1
kcount,1
numberNandB,1
brightnessNandB,1
carpet pos,0
pc,0
Time (ms),CH1 Auto-Correlation
1.0,0.01694575697183609
2.0,0.013946355320513248
3.0,0.01182267814874649
4.0,0.010214949026703835
5.0,0.008938671089708805
6.0,0.00807879213243723
7.0,0.007315774913877249
8.0,0.0068205175921320915
9.0,0.0065091196447610855
10.0,0.006208211649209261
11.0,0.005830544512718916
12.0,0.00550430454313755
13.0,0.005198214203119278
14.0,0.004922943189740181
15.0,0.004550456535071135
16.0,0.00439415592700243
18.0,0.0038911625742912292
20.0,0.0034276111982762814
22.0,0.0030343688558787107
24.0,0.0028491499833762646
26.0,0.0026126846205443144
28.0,0.0023697237484157085
30.0,0.002304204273968935
32.0,0.002310386626049876
36.0,0.002252275124192238
40.0,0.002310484414920211
44.0,0.002154738176614046
48.0,0.002108707558363676
52.0,0.0019355727126821876
56.0,0.0017892394680529833
60.0,0.0017774546286091208
64.0,0.0017088910099118948
72.0,0.0013399611925706267
80.0,0.0010976014891639352
88.0,0.0009003604645840824
96.0,0.0008728053653612733
104.0,0.0009093110566027462
112.0,0.0006101805483922362
120.0,0.00034599218633957207
128.0,0.00022782047744840384
144.0,0.00028599140932783484
160.0,0.0007435494335368276
176.0,0.000220673784497194
192.0,-0.0003373140061739832
208.0,-0.00037517352029681206
224.0,0.00027269532438367605
240.0,0.0003241429221816361
256.0,9.568898531142622e-05
288.0,-0.00019296024402137846
320.0,-0.00028909428510814905
352.0,-0.0007562384125776589
384.0,-0.0008012756588868797
416.0,-0.0009878802811726928
448.0,-0.0007082028896547854
480.0,-0.0005068420432507992
512.0,-0.000257967971265316
576.0,-0.00023542018607258797
640.0,0.00017080716497730464
704.0,0.0005792738520540297
768.0,0.00022084798547439277
832.0,-7.577590440632775e-05
896.0,0.0002679631288629025
960.0,0.0006039990112185478
1024.0,2.3551359845441766e-05
1152.0,-0.00012528699880931526
1280.0,0.00016551950830034912
1408.0,-0.00012866200995631516
1536.0,-0.000763435906264931
1664.0,-0.0001447277463739738
1792.0,-2.402145582891535e-05
1920.0,0.0005469322204589844
2048.0,0.00023974601936060935
2304.0,0.0002480152470525354
2560.0,-0.00033884443109855056
2816.0,0.00012622955546248704
3072.0,-0.0003962379414588213
3328.0,-0.00045436740037985146
3584.0,-0.0002531294885557145
3840.0,5.111295831738971e-05
4096.0,-0.0004194025823380798
4608.0,-0.00022895491565577686
5120.0,0.00011616160918492824
5632.0,9.064772166311741e-05
6144.0,0.00023899026564322412
6656.0,1.3445150216284674e-05
7168.0,6.320703687379137e-05
7680.0,0.00023822840012144297
8192.0,1.230629004567163e-05
end
