version,3.0
numOfCh,1
type,point
parent_name,fe81d_3dot0-1dot0
ch_type,1_1
kcount,1
numberNandB,1
brightnessNandB,1
carpet pos,0
pc,0
Time (ms),CH1 Auto-Correlation
1.0,0.01640825904905796
2.0,0.013457176275551319
3.0,0.011368290521204472
4.0,0.009947990998625755
5.0,0.008823290467262268
6.0,0.007825728505849838
7.0,0.007046205457299948
8.0,0.006404444109648466
9.0,0.005855802912265062
10.0,0.005583042278885841
11.0,0.005272753071039915
12.0,0.004984091967344284
13.0,0.004631956573575735
14.0,0.004335685633122921
15.0,0.004128855187445879
16.0,0.003837169846519828
18.0,0.0033899210393428802
20.0,0.003020568285137415
22.0,0.0026967779267579317
24.0,0.002594590652734041
26.0,0.002326098270714283
28.0,0.0020488062873482704
30.0,0.001829839893616736
32.0,0.0017778099281713367
36.0,0.0018360132817178965
40.0,0.001858340809121728
44.0,0.0019115739269182086
48.0,0.0017586792819201946
52.0,0.001397848129272461
56.0,0.0013126840349286795
60.0,0.0012479916913434863
64.0,0.001039997092448175
72.0,0.0006965164211578667
80.0,0.0007528219721280038
88.0,0.0005118965054862201
96.0,0.00035640737041831017
104.0,0.00032012679730542004
112.0,0.00033912091748788953
120.0,0.00028149751597084105
128.0,0.00019957890617661178
144.0,-0.000158395865582861
160.0,1.3633962225867435e-05
176.0,0.0001716785045573488
192.0,6.083793050493114e-05
208.0,0.00040930486284196377
224.0,0.00030800490640103817
240.0,-0.00010775330156320706
256.0,-0.00010565111733740196
288.0,-0.00025134047609753907
320.0,-0.0004178036469966173
352.0,-1.3666168342751916e-05
384.0,-0.00018729544535744935
416.0,0.000430658517871052
448.0,0.00013712402142118663
480.0,0.00019123624952044338
512.0,7.960108632687479e-05
576.0,-0.0004468770930543542
640.0,-0.00014163920423015952
704.0,-0.0005383296520449221
768.0,-0.00033575951238162816
832.0,-1.9178200091118924e-05
896.0,0.00010543145617702976
960.0,-0.0003220794606022537
1024.0,-0.00012533110566437244
1152.0,0.00018609811377245933
1280.0,-0.0002566868206486106
1408.0,-4.049503695569001e-05
1536.0,0.00046656953054480255
1664.0,0.00024634809233248234
1792.0,0.0001575942151248455
1920.0,3.676393134810496e-06
2048.0,1.54807603394147e-05
2304.0,-5.567971311393194e-05
2560.0,7.341911987168714e-05
2816.0,4.718270429293625e-05
3072.0,-2.8493279387475923e-05
3328.0,-0.0003932697291020304
3584.0,-0.00020994554506614804
3840.0,-0.00015319745580200106
4096.0,0.00010845969518413767
4608.0,-2.0358411347842775e-05
5120.0,-0.00022099354828242213
5632.0,-0.00039652237319387496
6144.0,0.00014432237367145717
6656.0,0.00030071724904701114
7168.0,-0.00024229625705629587
7680.0,6.579394539585337e-05
8192.0,0.00010434650903334841
end
