version,3.0
numOfCh,1
type,point
parent_name,fe81d_3dot0-1dot0
ch_type,1_1
kcount,1
numberNandB,1
brightnessNandB,1
carpet pos,0
pc,0
Time (ms),CH1 Auto-Correlation
1.0,0.016162116080522537
2.0,0.013325908221304417
3.0,0.011196437291800976
4.0,0.00971685815602541
5.0,0.008556078188121319
6.0,0.0076043009757995605
7.0,0.006755421869456768
8.0,0.00609654700383544
9.0,0.005572544410824776
10.0,0.005124006886035204
11.0,0.004692401271313429
12.0,0.0043544406071305275
13.0,0.004054245073348284
14.0,0.0036613752599805593
15.0,0.003387328004464507
16.0,0.0032441115472465754
18.0,0.0028434584382921457
20.0,0.0029118997044861317
22.0,0.0026930570602416992
24.0,0.0025519963819533587
26.0,0.0023286831565201283
28.0,0.002215215004980564
30.0,0.0021770810708403587
32.0,0.0022555028554052114
36.0,0.002338142367079854
40.0,0.002151327906176448
44.0,0.0018864654703065753
48.0,0.001635333406738937
52.0,0.001412353478372097
56.0,0.0013335782568901777
60.0,0.0011917159426957369
64.0,0.0010383966146036983
72.0,0.0010380783351138234
80.0,0.0010354043915867805
88.0,0.0008848715224303305
96.0,0.0011020016390830278
104.0,0.0008433963521383703
112.0,0.0008955217199400067
120.0,0.0004474741290323436
128.0,8.805982929516176e-07
144.0,0.0003012359666172415
160.0,0.0001318232243647799
176.0,-0.0002016335492953658
192.0,-8.114783850032836e-05
208.0,-0.0003978124586865306
224.0,-0.0003747677255887538
240.0,-0.0005250847316347063
256.0,-0.0003297176444903016
288.0,-0.00028875007410533726
320.0,-0.0003735932696145028
352.0,-0.0007044901140034199
384.0,-0.0007423019269481301
416.0,-0.000569586583878845
448.0,-0.00035147619200870395
480.0,-0.00026576415984891355
512.0,0.00011343100049998611
576.0,0.0006882015732116997
640.0,0.00026538415113464
704.0,-0.0002460232353769243
768.0,-0.0005964424926787615
832.0,-6.99680595062091e-06
896.0,-0.0005572682712227106
960.0,-0.0009645548998378217
1024.0,-0.0006000036955811083
1152.0,0.0002186672209063545
1280.0,0.0006485775229521096
1408.0,0.00024842197308316827
1536.0,-0.0005941101699136198
1664.0,-0.00033055045059882104
1792.0,0.0006463250610977411
1920.0,0.0004277934494893998
2048.0,-0.00020121947454754263
2304.0,-0.00010961225780192763
2560.0,-4.2344538087490946e-05
2816.0,-0.0004951892769895494
3072.0,0.0001770096569089219
3328.0,2.948454493889585e-05
3584.0,0.0002519195550121367
3840.0,-0.00013738813868258148
4096.0,-0.0005176056292839348
4608.0,-0.00014959093823563308
5120.0,0.00016137672355398536
5632.0,0.00011464956332929432
6144.0,-1.289984993491089e-05
6656.0,-1.941489608725533e-05
7168.0,-0.000123032063129358
7680.0,-0.0002407660795142874
8192.0,0.0001365024218102917
end
