version,3.0
numOfCh,1
type,point
parent_name,fe81d_3dot0-1dot0
ch_type,1_1
kcount,1
numberNandB,1
brightnessNandB,1
carpet pos,0
pc,0
Time (ms),CH1 Auto-Correlation
1.0,0.016830721870064735
2.0,0.013804035261273384
3.0,0.01169909443706274
4.0,0.010205315425992012
5.0,0.008960453793406487
6.0,0.00796918198466301
7.0,0.007152793928980827
8.0,0.0064547015354037285
9.0,0.0058107562363147736
10.0,0.005266380961984396
11.0,0.004844173323363066
12.0,0.004369583912193775
13.0,0.003960501868277788
14.0,0.0036992786917835474
15.0,0.00338605884462595
16.0,0.003203251399099827
18.0,0.0029214711394160986
20.0,0.0025100200437009335
22.0,0.0022346829064190388
24.0,0.00207369402050972
26.0,0.0018592794658616185
28.0,0.0014446780551224947
30.0,0.001218449673615396
32.0,0.0011614770628511906
36.0,0.0006739574018865824
40.0,0.0003719216329045594
44.0,0.0003441788721829653
48.0,5.765682726632804e-05
52.0,1.4006192941451445e-05
56.0,-1.6213973140111193e-05
60.0,6.108430534368381e-05
64.0,0.0001962430978892371
72.0,0.0005080983974039555
80.0,0.0006466567283496261
88.0,0.0003025290207006037
96.0,0.00018405749869998544
104.0,0.0002877123188227415
112.0,9.654414316173643e-05
120.0,-0.00040866670315153897
128.0,-0.0004720192519016564
144.0,-0.0003059149603359401
160.0,0.00012794623035006225
176.0,-0.0003871458175126463
192.0,-6.208074046298862e-05
208.0,0.0005160635337233543
224.0,8.136707765515894e-05
240.0,0.00032362734782509506
256.0,0.0007188802701421082
288.0,7.739870488876477e-05
320.0,0.00038249563658609986
352.0,0.00013907505490351468
384.0,0.0004015642625745386
416.0,0.0009424522868357599
448.0,0.0006278181681409478
480.0,0.00046927627408877015
512.0,-0.00011943437857553363
576.0,5.328307679519639e-07
640.0,-2.69770225713728e-05
704.0,4.883620567852631e-05
768.0,-3.561457197065465e-05
832.0,-0.00015400075062643737
896.0,1.9167437130818143e-06
960.0,-0.00017003428365569562
1024.0,-0.0001580987882334739
1152.0,-8.164790051523596e-05
1280.0,-1.8646926037035882e-05
1408.0,0.0004067331028636545
1536.0,-0.0005084211006760597
1664.0,-0.0005290654953569174
1792.0,-8.513953071087599e-05
1920.0,-5.471967233461328e-05
2048.0,-0.00013544230023398995
2304.0,7.302491212612949e-06
2560.0,0.00015602218627464026
2816.0,4.7392124542966485e-05
3072.0,-2.3759304895065725e-05
3328.0,0.00013845555076841265
3584.0,-7.578481017844751e-05
3840.0,3.878834377246676e-06
4096.0,-9.748994489200413e-05
4608.0,0.00019357551354914904
5120.0,0.00015372497728094459
5632.0,0.00021303415996953845
6144.0,5.839247387484647e-05
6656.0,-0.00010861973714781925
7168.0,-0.0003590809355955571
7680.0,-0.00033097571576945484
8192.0,-3.4928460081573576e-05
end
