version,3.0
numOfCh,1
type,point
parent_name,fe81d_3dot0-1dot0
ch_type,1_1
kcount,1
numberNandB,1
brightnessNandB,1
carpet pos,0
pc,0
Time (ms),CH1 Auto-Correlation
1.0,0.01660226099193096
2.0,0.013660548254847527
3.0,0.011587786488234997
4.0,0.009954533539712429
5.0,0.008549192920327187
6.0,0.0075423927046358585
7.0,0.0067380075342953205
8.0,0.006204285193234682
9.0,0.005582001525908709
10.0,0.005152090918272734
11.0,0.00477291364222765
12.0,0.0044873482547700405
13.0,0.0041924770921468735
14.0,0.003860914846882224
15.0,0.0035560368560254574
16.0,0.0033844399731606245
18.0,0.0029936288483440876
20.0,0.0027924743480980396
22.0,0.002604075474664569
24.0,0.0023297106381505728
26.0,0.001990930177271366
28.0,0.0019012202974408865
30.0,0.0020268389489501715
32.0,0.0021042695734649897
36.0,0.001790135051123798
40.0,0.001577723422087729
44.0,0.0014929741155356169
48.0,0.001223461702466011
52.0,0.0009161185589618981
56.0,0.0008512034546583891
60.0,0.0007088183774612844
64.0,0.0006235845503397286
72.0,0.0005000031087547541
80.0,0.00057890301104635
88.0,0.0005020457319915295
96.0,0.00024172067060135305
104.0,0.000739586481358856
112.0,0.0009558311430737376
120.0,0.0006116249714978039
128.0,0.0004633041680790484
144.0,0.0009834563825279474
160.0,0.0005329009727574885
176.0,0.0003711251192726195
192.0,-0.00017964231665246189
208.0,-0.0005432709585875273
224.0,-0.0006117353914305568
240.0,-0.00040234148036688566
256.0,-0.00038577005034312606
288.0,-0.0004053704906255007
320.0,-0.00029811859712935984
352.0,-0.0006000282010063529
384.0,-0.0005759612540714443
416.0,-0.0006306282593868673
448.0,8.668460213812068e-05
480.0,0.0005075559020042419
512.0,0.0009075752459466457
576.0,0.00012485228944569826
640.0,6.228417623788118e-05
704.0,-3.168314651702531e-05
768.0,-0.0002613695105537772
832.0,-0.00036279999767430127
896.0,-0.0003658025525510311
960.0,0.00019533117301762104
1024.0,0.00028386677149683237
1152.0,0.0003783690626733005
1280.0,0.00022804208856541663
1408.0,0.00039152687531895936
1536.0,0.00019640549726318568
1664.0,-0.00013033654249738902
1792.0,-0.00012222117220517248
1920.0,-0.0004517677298281342
2048.0,-0.0004286253242753446
2304.0,0.00017724852659739554
2560.0,-3.0317110031319316e-06
2816.0,5.428740041679703e-05
3072.0,-8.786783291725442e-05
3328.0,-0.0003385513264220208
3584.0,-2.161399788747076e-05
3840.0,-0.0002993331290781498
4096.0,-2.1705209292122163e-05
4608.0,-3.545959043549374e-05
5120.0,6.469827349064872e-05
5632.0,-9.790393232833594e-05
6144.0,1.716801534712431e-06
6656.0,0.00019424411584623158
7168.0,6.823368312325329e-05
7680.0,-7.798772276146337e-05
8192.0,0.00045449365279637277
end
