version,3.0
numOfCh,1
type,point
parent_name,fe81d_3dot0-1dot0
ch_type,1_1
kcount,1
numberNandB,1
brightnessNandB,1
carpet pos,0
pc,0
Time (ms),CH1 Auto-Correlation
1.0,0.015557965263724327
2.0,0.01268098596483469
3.0,0.010762272402644157
4.0,0.009238808415830135
5.0,0.00819825567305088
6.0,0.0073361885733902454
7.0,0.006567312870174646
8.0,0.005984813906252384
9.0,0.0054362076334655285
10.0,0.004968794994056225
11.0,0.004594169091433287
12.0,0.004332101438194513
13.0,0.004091901704668999
14.0,0.0038335355930030346
15.0,0.0036140186712145805
16.0,0.003413703991100192
18.0,0.002960352459922433
20.0,0.0025999986100941896
22.0,0.0023872603196650743
24.0,0.0021415934897959232
26.0,0.0019502992508932948
28.0,0.0018072092207148671
30.0,0.0016304865712299943
32.0,0.00132942630443722
36.0,0.0007948727579787374
40.0,0.0005972956423647702
44.0,0.0007028042455203831
48.0,0.0008603386231698096
52.0,0.001035611261613667
56.0,0.0007959452923387289
60.0,0.00036053822259418666
64.0,0.0001605379075044766
72.0,5.804753891425207e-05
80.0,0.00027244415832683444
88.0,0.00020513820345513523
96.0,-9.994851097872015e-06
104.0,-0.00022666077711619437
112.0,4.927462578052655e-05
120.0,0.00015191137208603323
128.0,9.008149208966643e-05
144.0,0.00013266394671518356
160.0,0.0004190132603980601
176.0,0.0006126444204710424
192.0,0.0005430722958408296
208.0,0.00014697879669256508
224.0,6.206834950717166e-05
240.0,-0.0003659722569864243
256.0,-0.0004977165372110903
288.0,0.00022683956194669008
320.0,0.00045047327876091003
352.0,0.0003189657290931791
384.0,0.00021109453518874943
416.0,-0.0005181697779335082
448.0,-7.2963819548022e-05
480.0,-0.00018677055777516216
512.0,-0.0004603272827807814
576.0,-0.00038721307646483183
640.0,-7.582639227621257e-05
704.0,1.018303373712115e-05
768.0,-1.3322236554813571e-05
832.0,0.00027806847356259823
896.0,0.00042659210157580674
960.0,1.3046416825091e-05
1024.0,0.00026214070385321975
1152.0,-4.5093031076248735e-05
1280.0,-0.0004098801000509411
1408.0,-0.00010744410246843472
1536.0,-0.00033799250377342105
1664.0,-0.0005769893759861588
1792.0,7.082404044922441e-05
1920.0,0.00025329607888124883
2048.0,0.0004911637515760958
2304.0,0.00017841666704043746
2560.0,-0.00012060596054652706
2816.0,-6.136143929325044e-05
3072.0,9.878246783046052e-05
3328.0,-0.00015918711142148823
3584.0,-9.283336839871481e-05
3840.0,0.0002778081689029932
4096.0,0.00025927036767825484
4608.0,0.00010461302008479834
5120.0,4.168939994997345e-05
5632.0,-0.00025806878693401814
6144.0,7.004723738646135e-05
6656.0,0.00020489946473389864
7168.0,-6.056385245756246e-05
7680.0,-0.00032405246747657657
8192.0,-0.00025530537823215127
end
