version,3.0
numOfCh,1
type,point
parent_name,fe81d_3dot0-1dot0
ch_type,1_1
kcount,1
numberNandB,1
brightnessNandB,1
carpet pos,0
pc,0
Time (ms),CH1 Auto-Correlation
1.0,0.016812797635793686
2.0,0.013758000917732716
3.0,0.011580731719732285
4.0,0.00998364482074976
5.0,0.008814511820673943
6.0,0.007836525328457355
7.0,0.0069830333814024925
8.0,0.006334776058793068
9.0,0.00584792997688055
10.0,0.005385782569646835
11.0,0.005069515202194452
12.0,0.0046926517970860004
13.0,0.004320347215980291
14.0,0.0040361047722399235
15.0,0.003906471189111471
16.0,0.0037350559141486883
18.0,0.0034572447184473276
20.0,0.003137000370770693
22.0,0.003056479850783944
24.0,0.002916209399700165
26.0,0.002714084694162011
28.0,0.002449067309498787
30.0,0.0023400415666401386
32.0,0.002156731439754367
36.0,0.001675061066634953
40.0,0.001351781189441681
44.0,0.001105868723243475
48.0,0.0009999796748161316
52.0,0.0006252352613955736
56.0,0.0005917657981626689
60.0,0.0008103180443868041
64.0,0.0009161901543848217
72.0,0.0007315163966268301
80.0,0.0005960586713626981
88.0,0.0006310926401056349
96.0,0.0004454993468243629
104.0,0.0002101374848280102
112.0,0.0002240495232399553
120.0,0.0006033434765413404
128.0,0.0008077609236352146
144.0,0.0005190927186049521
160.0,3.9025075238896534e-05
176.0,0.00021678782650269568
192.0,0.00022033503046259284
208.0,2.6130659534828737e-05
224.0,-0.0003165032248944044
240.0,0.00024899462005123496
256.0,0.00039463452412746847
288.0,2.8525584639282897e-05
320.0,-0.00023170655185822397
352.0,-0.00024992445833049715
384.0,0.00012510763190221041
416.0,0.0005123474984429777
448.0,0.00023508832964580506
480.0,-0.0002702732745092362
512.0,-4.200148759991862e-05
576.0,-3.016581649717409e-05
640.0,0.0004308817442506552
704.0,-0.00022188169532455504
768.0,-0.0007290034554898739
832.0,-0.00022400439775083214
896.0,0.0006362370331771672
960.0,0.0002343405067222193
1024.0,0.00022490146511700004
1152.0,-0.00032708447542972863
1280.0,-0.0003423555172048509
1408.0,-0.000501600734423846
1536.0,9.013780072564259e-05
1664.0,-0.00025613748584873974
1792.0,-0.00036523828748613596
1920.0,-0.00032088367152027786
2048.0,-0.0008631879463791847
2304.0,-0.00016504684754181653
2560.0,-0.0002638549485709518
2816.0,0.00021726878185290843
3072.0,0.00012795341899618506
3328.0,6.288565782597288e-05
3584.0,0.0002714933070819825
3840.0,0.0003538240271154791
4096.0,-4.6043489419389516e-05
4608.0,0.0001722037559375167
5120.0,-0.00018464797176420689
5632.0,-0.00022340078430715948
6144.0,-0.0003871664230246097
6656.0,-2.5580282454029657e-05
7168.0,-4.1195973608409986e-05
7680.0,0.00035791637492366135
8192.0,-0.00023753580171614885
end
