version,3.0
numOfCh,1
type,point
parent_name,fe81d_3dot0-1dot0
ch_type,1_1
kcount,1
numberNandB,1
brightnessNandB,1
carpet pos,0
pc,0
Time (ms),CH1 Auto-Correlation
1.0,0.016699114814400673
2.0,0.013718915171921253
3.0,0.01156243309378624
4.0,0.0100203612819314
5.0,0.008827470242977142
6.0,0.007908139377832413
7.0,0.007286824285984039
8.0,0.006748140789568424
9.0,0.006219560746103525
10.0,0.005784721579402685
11.0,0.005284169688820839
12.0,0.004908789414912462
13.0,0.004535077139735222
14.0,0.004186415579169989
15.0,0.003879272611811757
16.0,0.003704105271026492
18.0,0.003202322870492935
20.0,0.003224204992875457
22.0,0.0030930645298212767
24.0,0.0028669878374785185
26.0,0.0026021460071206093
28.0,0.0023164611775428057
30.0,0.0021639070473611355
32.0,0.0019595010671764612
36.0,0.0015230335993692279
40.0,0.0011184853501617908
44.0,0.0009253403404727578
48.0,0.00090647186152637
52.0,0.0009438082342967391
56.0,0.0009800804546102881
60.0,0.0009981613839045167
64.0,0.0008399008074775338
72.0,0.0005614873371087015
80.0,0.00035832857247442007
88.0,0.00024331775784958154
96.0,8.451884787064046e-05
104.0,0.00031069471151567996
112.0,0.00042842738912440836
120.0,0.00045191863318905234
128.0,0.0005957070970907807
144.0,0.0005836203927174211
160.0,0.00019839151354972273
176.0,0.00038661182043142617
192.0,0.0005290452390909195
208.0,0.00031544375815428793
224.0,0.00019623308617156
240.0,-0.00022634331253357232
256.0,-0.0004416523443069309
288.0,-0.0007280465797521174
320.0,-0.00016863254131749272
352.0,-0.0004450081614777446
384.0,-0.00017835863400250673
416.0,-5.5239914217963815e-05
448.0,7.168819865910336e-05
480.0,0.0001036892062984407
512.0,0.00018171088595408946
576.0,0.0002994773967657238
640.0,-3.163408473483287e-05
704.0,-0.0004229166661389172
768.0,-0.0002733210567384958
832.0,-4.17056362493895e-05
896.0,-0.00030515945400111377
960.0,-0.00012145020446041599
1024.0,7.428085518768057e-05
1152.0,-1.5402700228150934e-05
1280.0,-0.00010713512892834842
1408.0,0.00017201884475070983
1536.0,-7.824724161764607e-05
1664.0,-0.00018249978893436491
1792.0,1.2830789273721166e-05
1920.0,0.00018728431314229965
2048.0,0.0004490384890232235
2304.0,0.00020260567544028163
2560.0,-0.000216013882891275
2816.0,-0.00015252640878316015
3072.0,-0.00024498056154698133
3328.0,3.271492460044101e-05
3584.0,-0.00021290288714226335
3840.0,-0.0001622051786398515
4096.0,-8.936486847233027e-05
4608.0,-0.00043046302744187415
5120.0,0.00015605489898007363
5632.0,-9.282865357818082e-05
6144.0,0.00021494798420462757
6656.0,0.0002786366385407746
7168.0,9.712109749671072e-05
7680.0,6.78512078593485e-05
8192.0,3.7821282603545114e-05
end
