version,3.0
numOfCh,1
type,point
parent_name,fe81d_3dot0-1dot0
ch_type,1_1
kcount,1
numberNandB,1
brightnessNandB,1
carpet pos,0
pc,0
Time (ms),CH1 Auto-Correlation
1.0,0.016484389081597328
2.0,0.013474274426698685
3.0,0.011426663026213646
4.0,0.009929387830197811
5.0,0.008783814497292042
6.0,0.007924703881144524
7.0,0.00733929593116045
8.0,0.006774974521249533
9.0,0.006300322245806456
10.0,0.005814733449369669
11.0,0.005415880586951971
12.0,0.005014411173760891
13.0,0.004639085382223129
14.0,0.004394387360662222
15.0,0.0041442872025072575
16.0,0.0037608686834573746
18.0,0.0034785158932209015
20.0,0.00321242306381464
22.0,0.002985566621646285
24.0,0.0026660775765776634
26.0,0.002313492354005575
28.0,0.002121061785146594
30.0,0.002071897964924574
32.0,0.001917162211611867
36.0,0.0017417611088603735
40.0,0.0015615744050592184
44.0,0.0015435504028573632
48.0,0.0014975372469052672
52.0,0.0015556523576378822
56.0,0.0015744940610602498
60.0,0.0013573083560913801
64.0,0.0012973900884389877
72.0,0.000918119098059833
80.0,0.0006967068766243756
88.0,0.0007388761732727289
96.0,0.0007805859204381704
104.0,0.000642026832792908
112.0,0.00029077529325149953
120.0,-0.00011195929255336523
128.0,-0.0003665174590423703
144.0,0.00017083832062780857
160.0,0.0004916376783512533
176.0,0.0003990550758317113
192.0,0.00026592754875309765
208.0,-0.00011316785821691155
224.0,-0.0005039407406002283
240.0,-0.0005300883203744888
256.0,-0.0005325813544914126
288.0,6.222374213393778e-05
320.0,0.00023426496773026884
352.0,0.00010736024705693126
384.0,-2.535608655307442e-05
416.0,-0.00015077982970979065
448.0,-0.00029632021323777735
480.0,-4.8892707127379254e-05
512.0,-5.167837662156671e-05
576.0,0.000354683113982901
640.0,0.0002166061894968152
704.0,0.00023011800658423454
768.0,-9.603140642866492e-05
832.0,-0.0001373998384224251
896.0,-0.0005273451679386199
960.0,-0.000159339964739047
1024.0,-6.54955510981381e-05
1152.0,0.0003876839764416218
1280.0,-3.511424802127294e-05
1408.0,1.3249501535028685e-05
1536.0,0.000663755985442549
1664.0,0.0005468595772981644
1792.0,0.00023569815675728023
1920.0,0.0002618893631733954
2048.0,-0.0002786275581456721
2304.0,-1.5909268768155016e-05
2560.0,0.0002674134448170662
2816.0,-0.00019304046873003244
3072.0,-0.0002639023878145963
3328.0,0.0001485717948526144
3584.0,-7.533749158028513e-05
3840.0,-0.0006896209670230746
4096.0,-0.00014299845497589558
4608.0,-0.0003630740102380514
5120.0,-0.0003195043536834419
5632.0,-0.00015945470659062266
6144.0,-0.00016083111404441297
6656.0,-6.612982360820752e-06
7168.0,-0.000358319521183148
7680.0,-3.7737270304205595e-06
8192.0,0.00026412177248857915
end
