version,3.0
numOfCh,1
type,point
parent_name,fe81d_3dot0-1dot0
ch_type,1_1
kcount,1
numberNandB,1
brightnessNandB,1
carpet pos,0
pc,0
Time (ms),CH1 Auto-Correlation
1.0,0.016792673617601395
2.0,0.013859289698302746
3.0,0.011744143441319466
4.0,0.010144929401576519
5.0,0.009048204869031906
6.0,0.008253777399659157
7.0,0.007494249381124973
8.0,0.006772394757717848
9.0,0.0061551835387945175
10.0,0.005641303025186062
11.0,0.005211877636611462
12.0,0.0048920996487140656
13.0,0.004595510195940733
14.0,0.004212874453514814
15.0,0.0040306346490979195
16.0,0.0037981634959578514
18.0,0.0035681449808180332
20.0,0.0033543379977345467
22.0,0.003151001175865531
24.0,0.00309159723110497
26.0,0.00305574806407094
28.0,0.0029014579486101866
30.0,0.0024986753705888987
32.0,0.002141123404726386
36.0,0.0018102583708241582
40.0,0.001277581206522882
44.0,0.0008826812263578176
48.0,0.0006309917662292719
52.0,0.00038348062662407756
56.0,7.55843284423463e-05
60.0,9.834043157752603e-05
64.0,0.00037571194116026163
72.0,0.00034826190676540136
80.0,0.0002638172882143408
88.0,3.5488264984451234e-05
96.0,-0.00039213939453475177
104.0,3.0286741093732417e-05
112.0,0.0003251936286687851
120.0,9.745176794240251e-05
128.0,0.0001903505326481536
144.0,0.00044836581218987703
160.0,0.0004104812105651945
176.0,0.0006922864122316241
192.0,0.0005808526766486466
208.0,0.0005268702516332269
224.0,0.0006553495186381042
240.0,0.00037690464523620903
256.0,0.00010225382720818743
288.0,-0.00014643245958723128
320.0,4.329198054620065e-05
352.0,-0.00038674697862006724
384.0,9.245666296919808e-05
416.0,-0.0002555155660957098
448.0,-0.0001738850842230022
480.0,-0.0007370144012384117
512.0,-0.00022830571106169373
576.0,0.00015927718777675182
640.0,-0.00010271501378156245
704.0,0.0003446715709287673
768.0,0.00020138052059337497
832.0,0.00016370070807170123
896.0,-0.0003032252425327897
960.0,-5.010414679418318e-05
1024.0,0.0007093302556313574
1152.0,-0.00010216235386906192
1280.0,2.5769606963876868e-06
1408.0,3.2977775845211e-05
1536.0,0.0001486127293901518
1664.0,3.8277023122645915e-05
1792.0,-5.800552389700897e-05
1920.0,-0.0004762975440826267
2048.0,-0.0005874140188097954
2304.0,-0.0001798219163902104
2560.0,0.000216969070606865
2816.0,0.00011405324039515108
3072.0,-5.528017209144309e-05
3328.0,-0.00036094855749979615
3584.0,-0.00019149750005453825
3840.0,4.281762085156515e-05
4096.0,0.00014200416626408696
4608.0,2.6532010451774113e-05
5120.0,5.568535561906174e-05
5632.0,5.1946291932836175e-05
6144.0,-0.00016168851288966835
6656.0,-0.00030441294074989855
7168.0,-8.95765915629454e-05
7680.0,-0.00030520817381329834
8192.0,-1.697037077974528e-05
end
