version,3.0
numOfCh,1
type,point
parent_name,fe81d_3dot0-1dot0
ch_type,1_1
kcount,1
numberNandB,1
brightnessNandB,1
carpet pos,0
pc,0
Time (ms),CH1 Auto-Correlation
1.0,0.015984034165740013
2.0,0.013059054501354694
3.0,0.010922580026090145
4.0,0.009357831440865993
5.0,0.00815487839281559
6.0,0.007327029947191477
7.0,0.006585836876183748
8.0,0.006008918862789869
9.0,0.00553880212828517
10.0,0.005272589158266783
11.0,0.00502824829891324
12.0,0.004741817247122526
13.0,0.004483932163566351
14.0,0.004134441260248423
15.0,0.003901223186403513
16.0,0.003564762882888317
18.0,0.003127502975985408
20.0,0.002743601333349943
22.0,0.0024760793894529343
24.0,0.002153316279873252
26.0,0.0019391393288969994
28.0,0.0019532511942088604
30.0,0.0018606047378852963
32.0,0.0018972766119986773
36.0,0.0018479834543541074
40.0,0.0016507310792803764
44.0,0.0012264926917850971
48.0,0.001090846722945571
52.0,0.0009337798692286015
56.0,0.0004019374609924853
60.0,0.00020335213048383594
64.0,0.00018281159282196313
72.0,0.0003795793163590133
80.0,0.000582764158025384
88.0,0.000636888260487467
96.0,0.0006021527224220335
104.0,0.0007944703102111816
112.0,0.0009838282130658627
120.0,0.0007229053881019354
128.0,0.0003885117475874722
144.0,0.0004086551780346781
160.0,2.9181943318690173e-05
176.0,-0.00038361322367563844
192.0,-0.0004116881755180657
208.0,-0.0006459623109549284
224.0,-3.536053327479749e-06
240.0,-0.00016858208982739598
256.0,-0.00046905153430998325
288.0,0.00042302877409383655
320.0,0.0007189915631897748
352.0,0.00018028869817499071
384.0,-0.00012294744374230504
416.0,0.00010529819701332599
448.0,0.0003256454656366259
480.0,-0.00018336552602704614
512.0,8.774545131018385e-05
576.0,-3.244736581109464e-05
640.0,-0.00027101257001049817
704.0,-0.00042867165757343173
768.0,-0.0006297965301200747
832.0,-0.00041568028973415494
896.0,-3.150232805637643e-05
960.0,-0.00033258178154937923
1024.0,-6.048440627637319e-05
1152.0,-0.00025085650850087404
1280.0,-0.0001418975298292935
1408.0,-0.00031638448126614094
1536.0,-0.0002455358626320958
1664.0,4.37872995462385e-06
1792.0,0.0004993628244847059
1920.0,0.00028971058782190084
2048.0,0.0001370248501189053
2304.0,0.00036290643038228154
2560.0,-0.00020407649572007358
2816.0,1.204494674311718e-05
3072.0,-0.0003644270764198154
3328.0,-0.0004425597726367414
3584.0,0.0002720934571698308
3840.0,0.0001072687518899329
4096.0,0.0004559426160994917
4608.0,-1.466479261580389e-05
5120.0,-0.00015463988529518247
5632.0,-2.8800888685509562e-05
6144.0,8.03984294179827e-05
6656.0,-0.0004043782246299088
7168.0,-4.835948857362382e-05
7680.0,0.0001541686651762575
8192.0,-0.0002567368792369962
end
