version,3.0
numOfCh,1
type,point
parent_name,fe81d_3dot0-1dot0
ch_type,1_1
kcount,1
numberNandB,1
brightnessNandB,1
carpet pos,0
pc,0
Time (ms),CH1 Auto-Correlation
1.0,0.015790769830346107
2.0,0.012736309319734573
3.0,0.010616009123623371
4.0,0.009171511977910995
5.0,0.008072440512478352
6.0,0.007211902178823948
7.0,0.006482988130301237
8.0,0.005758031737059355
9.0,0.005203751381486654
10.0,0.004744625184684992
11.0,0.004405753221362829
12.0,0.004180147312581539
13.0,0.003950431011617184
14.0,0.0037421060260385275
15.0,0.0035520081873983145
16.0,0.003292460460215807
18.0,0.0027633332647383213
20.0,0.0022862146142870188
22.0,0.0019458604510873556
24.0,0.0017240247689187527
26.0,0.0015865318709984422
28.0,0.001470861490815878
30.0,0.0012556433212012053
32.0,0.0010194428032264113
36.0,0.0008723694481886923
40.0,0.0006558369495905936
44.0,0.0008846549317240715
48.0,0.0009190362179651856
52.0,0.0005469921743497252
56.0,0.00026844997773878276
60.0,0.00023610718199051917
64.0,5.5945107305888087e-05
72.0,-3.2918487704591826e-05
80.0,-0.00013422731717582792
88.0,-2.8867523724329658e-05
96.0,0.00048373008030466735
104.0,0.0004826105141546577
112.0,0.0002518308174330741
120.0,-1.0173495866183657e-05
128.0,-6.803632277296856e-05
144.0,0.00011673650442389771
160.0,-4.6685639972565696e-05
176.0,-2.0453910110518336e-05
192.0,4.276815161574632e-05
208.0,-0.0001376791624352336
224.0,1.5350913599831983e-05
240.0,-2.1660440324922092e-05
256.0,-0.0005512567586265504
288.0,-0.0004779900482390076
320.0,-0.00022661492403130978
352.0,0.00026899619842879474
384.0,0.00026364909717813134
416.0,-4.8712226998759434e-05
448.0,-6.723107799189165e-05
480.0,0.00025830272352322936
512.0,8.53387318784371e-05
576.0,-0.0001522284874226898
640.0,0.00013174262130632997
704.0,0.00012084659829270095
768.0,-0.0004424258368089795
832.0,-7.263506267918274e-05
896.0,5.8069577789865434e-05
960.0,-0.00012955826241523027
1024.0,-0.00016756719560362399
1152.0,-3.7540354242082685e-05
1280.0,-0.00020174180099274963
1408.0,3.370966442162171e-05
1536.0,-5.933314241701737e-05
1664.0,-0.00016045670781750232
1792.0,6.482907338067889e-05
1920.0,0.00011489838652778417
2048.0,0.000390484812669456
2304.0,5.4235417337622494e-05
2560.0,8.902741683414206e-05
2816.0,5.425538620329462e-05
3072.0,-0.00013520359061658382
3328.0,-0.0002457179070916027
3584.0,-2.0925323042320088e-05
3840.0,6.504645625682315e-06
4096.0,-0.00011522325075929984
4608.0,-0.00023304903879761696
5120.0,-0.00012506661005318165
5632.0,0.00024012010544538498
6144.0,0.00010726533218985423
6656.0,-0.00030121312011033297
7168.0,-0.00010817728616530076
7680.0,0.00043701977119781077
8192.0,0.00023059562954586
end
