version,3.0
numOfCh,1
type,point
parent_name,fe81d_3dot0-1dot0
ch_type,1_1
kcount,1
numberNandB,1
brightnessNandB,1
carpet pos,0
pc,0
Time (ms),CH1 Auto-Correlation
1.0,0.01644340343773365
2.0,0.013485048897564411
3.0,0.011320594698190689
4.0,0.009657730348408222
5.0,0.008428315632045269
6.0,0.007411608472466469
7.0,0.006679451558738947
8.0,0.006074808072298765
9.0,0.005482902284711599
10.0,0.004992300644516945
11.0,0.0044600022956728935
12.0,0.004120787605643272
13.0,0.0038565117865800858
14.0,0.0034682098776102066
15.0,0.0032617845572531223
16.0,0.0030545725021511316
18.0,0.002608078997582197
20.0,0.00232152477838099
22.0,0.002072261180728674
24.0,0.0017552636563777924
26.0,0.0015568893868476152
28.0,0.0015839021652936935
30.0,0.0016047684475779533
32.0,0.0015018120175227523
36.0,0.0014119374100118876
40.0,0.001298698247410357
44.0,0.0013767166528850794
48.0,0.0013118331553414464
52.0,0.0008743245853111148
56.0,0.0005313876317813993
60.0,0.00039730416028760374
64.0,0.00010906700481427833
72.0,0.0003387985343579203
80.0,0.0003497219004202634
88.0,0.0003543758066371083
96.0,5.773331940872595e-05
104.0,1.409539891028544e-05
112.0,0.00014384547830559313
120.0,-0.00011464027920737863
128.0,-0.00019853698904626071
144.0,0.0004582450201269239
160.0,0.0004529898287728429
176.0,0.00040217101923190057
192.0,0.0003508614609017968
208.0,0.00031480431789532304
224.0,0.000373538990970701
240.0,0.00036513927625492215
256.0,-0.00024556240532547235
288.0,-0.000229821220273152
320.0,6.845431926194578e-05
352.0,0.00028110225684940815
384.0,0.0002211878017988056
416.0,9.040633813128807e-06
448.0,-0.0003645347314886749
480.0,3.931809260393493e-05
512.0,8.981407154351473e-05
576.0,-7.36183428671211e-05
640.0,9.114658314501867e-05
704.0,0.0004885813104920089
768.0,-4.57709284091834e-05
832.0,-0.0006273797480389476
896.0,-1.2313787010498345e-05
960.0,-2.1468276827363297e-05
1024.0,8.255600550910458e-05
1152.0,-0.00013193320774007589
1280.0,-0.00016316131222993135
1408.0,-0.0003269041480962187
1536.0,-0.0002837932261172682
1664.0,0.00019204917771276087
1792.0,0.0002469414903316647
1920.0,0.00016960379434749484
2048.0,0.00034574029268696904
2304.0,-0.0005117459804750979
2560.0,-0.00022429751697927713
2816.0,-0.0004315075057093054
3072.0,-0.0004479487251956016
3328.0,-2.3371465431409888e-05
3584.0,0.0002547993208281696
3840.0,0.0005572140798904002
4096.0,-2.4159984604921192e-05
4608.0,2.9819995688740164e-05
5120.0,-1.7302468222624157e-06
5632.0,0.00030492962105199695
6144.0,-0.00010543805547058582
6656.0,-4.01543547923211e-05
7168.0,-0.0001787141227396205
7680.0,0.00012389093171805143
8192.0,-0.00010246245074085891
end
