version,3.0
numOfCh,1
type,point
parent_name,34766_0dot2-0dot1
ch_type,1_1
kcount,1
numberNandB,1
brightnessNandB,1
carpet pos,0
pc,0
Time (ms),CH1 Auto-Correlation
1.0,0.06007834151387215
2.0,0.058812811970710754
3.0,0.05758417770266533
4.0,0.056420087814331055
5.0,0.05529803782701492
6.0,0.05426358804106712
7.0,0.053265608847141266
8.0,0.05233096703886986
9.0,0.05141802877187729
10.0,0.05048343539237976
11.0,0.04956350103020668
12.0,0.04869648441672325
13.0,0.04785812646150589
14.0,0.047030769288539886
15.0,0.04627375677227974
16.0,0.04557020962238312
18.0,0.044223036617040634
20.0,0.04292730987071991
22.0,0.04167689010500908
24.0,0.04053439572453499
26.0,0.03943747654557228
28.0,0.03834286704659462
30.0,0.037243425846099854
32.0,0.03624286130070686
36.0,0.034143440425395966
40.0,0.03219639137387276
44.0,0.030293267220258713
48.0,0.028428412973880768
52.0,0.026655498892068863
56.0,0.024969713762402534
60.0,0.023706331849098206
64.0,0.02261437103152275
72.0,0.021178925409913063
80.0,0.020209798589348793
88.0,0.019513092935085297
96.0,0.01876426674425602
104.0,0.01807144097983837
112.0,0.017652353271842003
120.0,0.01691683940589428
128.0,0.015617668628692627
144.0,0.013085284270346165
160.0,0.0112755186855793
176.0,0.01021892111748457
192.0,0.009337996132671833
208.0,0.009205009788274765
224.0,0.008965394459664822
240.0,0.008457905612885952
256.0,0.008276817388832569
288.0,0.00993564072996378
320.0,0.011695518158376217
352.0,0.012000149115920067
384.0,0.009272522293031216
416.0,0.0066692158579826355
448.0,0.006276447791606188
480.0,0.005297022871673107
512.0,0.0038607525639235973
576.0,0.001466600806452334
640.0,0.0020453217439353466
704.0,0.001174686010926962
768.0,0.0029329669196158648
832.0,0.0018973569385707378
896.0,-0.0006640247302129865
960.0,-0.006474377121776342
1024.0,-0.00826264452189207
1152.0,-0.0040105474181473255
1280.0,-0.0059766643680632114
1408.0,-0.010877384804189205
1536.0,-0.010454959236085415
1664.0,-0.00880235992372036
1792.0,-0.008132289163768291
1920.0,-0.0037785309832543135
2048.0,0.00026878213975578547
2304.0,-0.004050172865390778
2560.0,-0.0007303511374630034
2816.0,-0.0012650367571040988
3072.0,-0.00015523128968197852
3328.0,0.0053071011789143085
3584.0,0.002305061789229512
3840.0,0.003662895644083619
4096.0,0.0006446545594371855
4608.0,-0.009815136902034283
5120.0,-0.009612645953893661
5632.0,0.004454579204320908
6144.0,0.011317526921629906
6656.0,0.005133986938744783
7168.0,0.0001544797996757552
7680.0,0.0013101529330015182
8192.0,-0.00430861534550786
end
