version,3.0
numOfCh,1
type,point
parent_name,34766_0dot2-0dot1
ch_type,1_1
kcount,1
numberNandB,1
brightnessNandB,1
carpet pos,0
pc,0
Time (ms),CH1 Auto-Correlation
1.0,0.064989373087883
2.0,0.06371109932661057
3.0,0.062445078045129776
4.0,0.06121465563774109
5.0,0.06002430245280266
6.0,0.05885922163724899
7.0,0.057714127004146576
8.0,0.05654732510447502
9.0,0.05544103682041168
10.0,0.054365210235118866
11.0,0.053305499255657196
12.0,0.05231042951345444
13.0,0.051375582814216614
14.0,0.05044909566640854
15.0,0.049530211836099625
16.0,0.048645079135894775
18.0,0.04697847738862038
20.0,0.045371342450380325
22.0,0.04386992007493973
24.0,0.04242898151278496
26.0,0.04102076217532158
28.0,0.03967387601733208
30.0,0.038455452769994736
32.0,0.037312768399715424
36.0,0.035478778183460236
40.0,0.03411705419421196
44.0,0.03274640068411827
48.0,0.03138137608766556
52.0,0.030123477801680565
56.0,0.02898184396326542
60.0,0.027966730296611786
64.0,0.026785414665937424
72.0,0.024245450273156166
80.0,0.022179661318659782
88.0,0.020412946119904518
96.0,0.019030297175049782
104.0,0.018008429557085037
112.0,0.01719808392226696
120.0,0.015889324247837067
128.0,0.014707832597196102
144.0,0.012222480960190296
160.0,0.010055562481284142
176.0,0.009850667789578438
192.0,0.008113772608339787
208.0,0.005882710684090853
224.0,0.005224797409027815
240.0,0.005665413103997707
256.0,0.0067689260467886925
288.0,0.007601732853800058
320.0,0.008447864092886448
352.0,0.008408503606915474
384.0,0.007642381824553013
416.0,0.006607607938349247
448.0,0.006003601010888815
480.0,0.0050502619706094265
512.0,0.0036468040198087692
576.0,0.0029645683243870735
640.0,0.003710079938173294
704.0,0.00437690457329154
768.0,0.005991094280034304
832.0,0.0012155079748481512
896.0,0.0016743525629863143
960.0,0.004983090329915285
1024.0,0.0020665391348302364
1152.0,0.0036945203319191933
1280.0,0.002875198842957616
1408.0,-0.002675851108506322
1536.0,0.0008999139536172152
1664.0,0.0008783451630733907
1792.0,-0.0027435419615358114
1920.0,-0.004137914162129164
2048.0,-0.0033288097474724054
2304.0,-0.004041064530611038
2560.0,-0.0033728519920259714
2816.0,-0.004822516813874245
3072.0,-0.005130324047058821
3328.0,-0.0006985206855461001
3584.0,0.004349998198449612
3840.0,0.005235616117715836
4096.0,0.0038329260423779488
4608.0,0.005400137975811958
5120.0,0.0025745138991624117
5632.0,-0.0036842534318566322
6144.0,-0.0038099191151559353
6656.0,-0.0025567123666405678
7168.0,-0.002065650885924697
7680.0,-0.005015070550143719
8192.0,-0.00018051560618914664
end
