version,3.0
numOfCh,1
type,point
parent_name,34766_0dot2-0dot1
ch_type,1_1
kcount,1
numberNandB,1
brightnessNandB,1
carpet pos,0
pc,0
Time (ms),CH1 Auto-Correlation
1.0,0.06297952681779861
2.0,0.0617215670645237
3.0,0.060484543442726135
4.0,0.05928846821188927
5.0,0.0581185407936573
6.0,0.05699934437870979
7.0,0.05589683726429939
8.0,0.05484004691243172
9.0,0.053807348012924194
10.0,0.052802253514528275
11.0,0.05182775482535362
12.0,0.050909481942653656
13.0,0.050076283514499664
14.0,0.04928983375430107
15.0,0.04851366952061653
16.0,0.04773792251944542
18.0,0.04618801549077034
20.0,0.04467510059475899
22.0,0.04329533502459526
24.0,0.04197629168629646
26.0,0.0406348817050457
28.0,0.03928462415933609
30.0,0.03795551881194115
32.0,0.03662212938070297
36.0,0.034035179764032364
40.0,0.03163386508822441
44.0,0.02959616109728813
48.0,0.02779911644756794
52.0,0.026076577603816986
56.0,0.024373173713684082
60.0,0.02265087701380253
64.0,0.0209190733730793
72.0,0.018288221210241318
80.0,0.016543421894311905
88.0,0.014987880364060402
96.0,0.013893118128180504
104.0,0.01356884092092514
112.0,0.012901294976472855
120.0,0.012178320437669754
128.0,0.011780651286244392
144.0,0.010546009056270123
160.0,0.008747695945203304
176.0,0.007314710412174463
192.0,0.0059679471887648106
208.0,0.0051330989226698875
224.0,0.00500136474147439
240.0,0.004724364262074232
256.0,0.004525300115346909
288.0,0.0017785443924367428
320.0,-0.0019019257742911577
352.0,-0.005000660661607981
384.0,-0.004148845095187426
416.0,-0.001489998772740364
448.0,0.0007217798265628517
480.0,0.00013184208364691585
512.0,-0.0013976851478219032
576.0,-2.458903873048257e-05
640.0,-0.0017332868883386254
704.0,-0.0011000731028616428
768.0,-0.0011327475076541305
832.0,-0.00027268307167105377
896.0,-0.0009214408928528428
960.0,-0.0013779544970020652
1024.0,-0.0008751021232455969
1152.0,-0.0029416203033179045
1280.0,-0.002133625792339444
1408.0,-0.005625931080430746
1536.0,-0.005881776101887226
1664.0,-5.252819391898811e-05
1792.0,0.000790452875662595
1920.0,-0.0014751390554010868
2048.0,-0.004355211276561022
2304.0,-0.001842953497543931
2560.0,0.000672139402013272
2816.0,0.0030409314204007387
3072.0,-0.0007441788911819458
3328.0,-0.005760712083429098
3584.0,0.0013671297347173095
3840.0,0.0025924823712557554
4096.0,-0.0009756420622579753
4608.0,-0.00027262201183475554
5120.0,0.0005402743699960411
5632.0,0.0019782811868935823
6144.0,4.42027194367256e-05
6656.0,0.0034476364962756634
7168.0,-0.008450309745967388
7680.0,-0.005070025101304054
8192.0,0.0019598461221903563
end
