version,3.0
numOfCh,1
type,point
parent_name,34766_0dot2-0dot1
ch_type,1_1
kcount,1
numberNandB,1
brightnessNandB,1
carpet pos,0
pc,0
Time (ms),CH1 Auto-Correlation
1.0,0.07260681688785553
2.0,0.0712352767586708
3.0,0.06993978470563889
4.0,0.06870481371879578
5.0,0.06758219748735428
6.0,0.06651242822408676
7.0,0.06548340618610382
8.0,0.0644538477063179
9.0,0.06346084177494049
10.0,0.06249234825372696
11.0,0.06154333055019379
12.0,0.06067345291376114
13.0,0.059834446758031845
14.0,0.059046193957328796
15.0,0.058232326060533524
16.0,0.05751146748661995
18.0,0.056141581386327744
20.0,0.054870154708623886
22.0,0.0537303201854229
24.0,0.052520591765642166
26.0,0.051370155066251755
28.0,0.05023624747991562
30.0,0.04915367439389229
32.0,0.04811576008796692
36.0,0.0461287721991539
40.0,0.044356346130371094
44.0,0.042809776961803436
48.0,0.04129946976900101
52.0,0.039786700159311295
56.0,0.03834991529583931
60.0,0.03702897951006889
64.0,0.03597810119390488
72.0,0.033909380435943604
80.0,0.031809985637664795
88.0,0.029746999964118004
96.0,0.02790231443941593
104.0,0.026149749755859375
112.0,0.02438257448375225
120.0,0.0228801928460598
128.0,0.020858606323599815
144.0,0.018308868631720543
160.0,0.01699954643845558
176.0,0.015653762966394424
192.0,0.01456117257475853
208.0,0.013478456996381283
224.0,0.012426783330738544
240.0,0.012301269918680191
256.0,0.012316443026065826
288.0,0.01268104836344719
320.0,0.013574606738984585
352.0,0.013566714711487293
384.0,0.012605498544871807
416.0,0.011268884874880314
448.0,0.011217817664146423
480.0,0.009336995892226696
512.0,0.007977903820574284
576.0,0.006767892278730869
640.0,0.007751367520540953
704.0,0.006290058605372906
768.0,0.008035795763134956
832.0,0.005570977460592985
896.0,0.005044962279498577
960.0,-0.0024409962352365255
1024.0,-0.009167095646262169
1152.0,-0.01033791247755289
1280.0,-0.008314679376780987
1408.0,-0.00602473970502615
1536.0,-0.004960705526173115
1664.0,-0.0031677125953137875
1792.0,-0.007048455532640219
1920.0,-0.01092077698558569
2048.0,-0.011795633472502232
2304.0,-0.0062585617415606976
2560.0,-0.004252211656421423
2816.0,-0.008642777800559998
3072.0,-0.00431783776730299
3328.0,-0.0009226120891980827
3584.0,-0.0075706616044044495
3840.0,0.00013947377738077193
4096.0,0.006131569389253855
4608.0,0.005490169860422611
5120.0,-9.099376620724797e-05
5632.0,0.004343755077570677
6144.0,0.004309786017984152
6656.0,0.000853475765325129
7168.0,-0.005738169886171818
7680.0,-0.01558519247919321
8192.0,-0.018933096900582314
end
