version,3.0
numOfCh,1
type,point
parent_name,34766_0dot2-0dot1
ch_type,1_1
kcount,1
numberNandB,1
brightnessNandB,1
carpet pos,0
pc,0
Time (ms),CH1 Auto-Correlation
1.0,0.07119425386190414
2.0,0.06988842785358429
3.0,0.06861421465873718
4.0,0.06737616658210754
5.0,0.06613610684871674
6.0,0.06492418795824051
7.0,0.06379059702157974
8.0,0.06267264485359192
9.0,0.06163594499230385
10.0,0.06064210087060928
11.0,0.059724077582359314
12.0,0.05883883312344551
13.0,0.05800396203994751
14.0,0.05720333382487297
15.0,0.056419771164655685
16.0,0.055652838200330734
18.0,0.05418895557522774
20.0,0.05284116789698601
22.0,0.05160439386963844
24.0,0.05050128325819969
26.0,0.04951488971710205
28.0,0.04857993125915527
30.0,0.0476793572306633
32.0,0.04682794585824013
36.0,0.0452495776116848
40.0,0.04358750954270363
44.0,0.04211178421974182
48.0,0.04056234285235405
52.0,0.03896147757768631
56.0,0.03752085193991661
60.0,0.03628857061266899
64.0,0.03512725606560707
72.0,0.032842230051755905
80.0,0.029967479407787323
88.0,0.02720739133656025
96.0,0.02537594363093376
104.0,0.024181099608540535
112.0,0.022755661979317665
120.0,0.021200882270932198
128.0,0.01981484517455101
144.0,0.01851165108382702
160.0,0.017050279304385185
176.0,0.014547833241522312
192.0,0.011699981056153774
208.0,0.009862215258181095
224.0,0.008652400225400925
240.0,0.008316119201481342
256.0,0.008151126094162464
288.0,0.006463560741394758
320.0,0.005505386274307966
352.0,0.004535293206572533
384.0,0.004677373915910721
416.0,0.004988840315490961
448.0,0.004689862951636314
480.0,0.004683178849518299
512.0,0.0029488124419003725
576.0,-0.001499659032560885
640.0,-0.0037305383011698723
704.0,-0.0062982686795294285
768.0,-0.006958694662898779
832.0,-0.007695191074162722
896.0,-0.004568805452436209
960.0,-0.0014844672987237573
1024.0,-0.0057383510284125805
1152.0,-0.00812016986310482
1280.0,-0.002775577362626791
1408.0,0.0034837047569453716
1536.0,0.00624456163495779
1664.0,0.006312170997262001
1792.0,0.0022061795461922884
1920.0,0.00027613656129688025
2048.0,0.0025903002824634314
2304.0,0.005825027357786894
2560.0,-0.0002526403986848891
2816.0,-0.003644760698080063
3072.0,-0.002315821358934045
3328.0,-0.006379623431712389
3584.0,-0.0016143206739798188
3840.0,0.0065998598001897335
4096.0,0.0032784370705485344
4608.0,-0.0046419063583016396
5120.0,-0.008442034013569355
5632.0,-5.0942380767082796e-05
6144.0,4.512960367719643e-05
6656.0,-0.004321704152971506
7168.0,-0.004422948230057955
7680.0,0.0035154290962964296
8192.0,-0.0005285071674734354
end
