version,3.0
numOfCh,1
type,point
parent_name,34766_0dot2-0dot1
ch_type,1_1
kcount,1
numberNandB,1
brightnessNandB,1
carpet pos,0
pc,0
Time (ms),CH1 Auto-Correlation
1.0,0.18992163240909576
2.0,0.18407580256462097
3.0,0.17843914031982422
4.0,0.17296774685382843
5.0,0.167852520942688
6.0,0.16479071974754333
7.0,0.16201624274253845
8.0,0.15766176581382751
9.0,0.15302178263664246
10.0,0.1487840861082077
11.0,0.14491239190101624
12.0,0.1407187432050705
13.0,0.1364280879497528
14.0,0.13193023204803467
15.0,0.12843267619609833
16.0,0.12422748655080795
18.0,0.11799874156713486
20.0,0.11207138001918793
22.0,0.10496543347835541
24.0,0.09830974042415619
26.0,0.0939873680472374
28.0,0.08898890018463135
30.0,0.08401834219694138
32.0,0.0783839151263237
36.0,0.061767108738422394
40.0,0.057523950934410095
44.0,0.05427621677517891
48.0,0.05169463902711868
52.0,0.04929254576563835
56.0,0.047172967344522476
60.0,0.04590611532330513
64.0,0.04411224275827408
72.0,0.04176824539899826
80.0,0.04336171969771385
88.0,0.04851797968149185
96.0,0.05052006617188454
104.0,0.05041612684726715
112.0,0.05131271108984947
120.0,0.044721540063619614
128.0,0.031398069113492966
144.0,0.025647422298789024
160.0,0.024201389402151108
176.0,0.016832150518894196
192.0,0.007095877081155777
208.0,-0.0006723626866005361
224.0,-0.007034360431134701
240.0,-0.00623006047680974
256.0,-0.002277063438668847
288.0,0.0011698236921802163
320.0,0.0008661176543682814
352.0,0.0029503097757697105
384.0,0.008441717363893986
416.0,0.014542165212333202
448.0,0.01688898354768753
480.0,0.021825697273015976
512.0,0.02882705070078373
576.0,0.009694991633296013
640.0,0.005123680457472801
704.0,-0.00839067343622446
768.0,-0.014258611015975475
832.0,-0.01300965715199709
896.0,-0.012625664472579956
960.0,-0.0035736446734517813
1024.0,-0.0007026345119811594
1152.0,-0.004469084553420544
1280.0,-0.0009361394913867116
1408.0,-0.002799543784931302
1536.0,-0.003595628309994936
1664.0,-0.004743942525237799
1792.0,0.0030724769458174706
1920.0,0.0009616031893528998
2048.0,0.005742692854255438
2304.0,0.006311692763119936
2560.0,0.0002444536949042231
2816.0,0.002485931385308504
3072.0,0.0019197604851797223
3328.0,0.003033516462892294
3584.0,0.0023089786991477013
3840.0,-0.0009578155586495996
4096.0,-0.0013259775005280972
4608.0,7.364479824900627e-05
5120.0,-0.0015685837715864182
5632.0,-0.001930876518599689
6144.0,-0.00891855824738741
6656.0,0.0027427629102021456
7168.0,0.006002867128700018
7680.0,-0.005958046298474073
8192.0,-0.00747239775955677
end
