version,3.0
numOfCh,1
type,point
parent_name,34766_0dot2-0dot1
ch_type,1_1
kcount,1
numberNandB,1
brightnessNandB,1
carpet pos,0
pc,0
Time (ms),CH1 Auto-Correlation
1.0,0.059155285358428955
2.0,0.057980556041002274
3.0,0.05686437711119652
4.0,0.05582651123404503
5.0,0.05482938140630722
6.0,0.05385517701506615
7.0,0.052913300693035126
8.0,0.05203887075185776
9.0,0.05121411010622978
10.0,0.05044480040669441
11.0,0.04969048872590065
12.0,0.04892030358314514
13.0,0.04818500950932503
14.0,0.04748821631073952
15.0,0.04686318337917328
16.0,0.04625924676656723
18.0,0.04509160667657852
20.0,0.04398995265364647
22.0,0.04294572398066521
24.0,0.041941165924072266
26.0,0.041032977402210236
28.0,0.04010779410600662
30.0,0.039232704788446426
32.0,0.03833434358239174
36.0,0.036737240850925446
40.0,0.03537080064415932
44.0,0.033985674381256104
48.0,0.0327436700463295
52.0,0.03155352547764778
56.0,0.03037753887474537
60.0,0.029148560017347336
64.0,0.028005477041006088
72.0,0.025779400020837784
80.0,0.023664381355047226
88.0,0.022121090441942215
96.0,0.02089077979326248
104.0,0.02009880356490612
112.0,0.020279014483094215
120.0,0.020742135122418404
128.0,0.020880430936813354
144.0,0.01998019777238369
160.0,0.018860433250665665
176.0,0.018073733896017075
192.0,0.01738240197300911
208.0,0.016911212354898453
224.0,0.015116821974515915
240.0,0.013578196987509727
256.0,0.012687848880887032
288.0,0.011779538355767727
320.0,0.01118538063019514
352.0,0.011495347134768963
384.0,0.011692594736814499
416.0,0.010594801977276802
448.0,0.007969895377755165
480.0,0.005770761054009199
512.0,0.004202543757855892
576.0,0.001868042047135532
640.0,-0.00035775548894889653
704.0,0.00015216317842714489
768.0,0.001563381403684616
832.0,0.0003838628181256354
896.0,5.907005106564611e-05
960.0,0.0015102444449439645
1024.0,0.0031024825293570757
1152.0,0.0022586502600461245
1280.0,0.002166664693504572
1408.0,0.004597642924636602
1536.0,0.0013990638544782996
1664.0,0.0025541207287460566
1792.0,0.005111964885145426
1920.0,-0.0006481391028501093
2048.0,-0.0016309223137795925
2304.0,-0.0024495585821568966
2560.0,-0.010748816654086113
2816.0,-0.0028838287107646465
3072.0,-0.002694682450965047
3328.0,-0.002245851792395115
3584.0,0.0013979017967358232
3840.0,-0.005261980462819338
4096.0,-0.003668525256216526
4608.0,-0.005323504563421011
5120.0,-0.006613769102841616
5632.0,-0.0060054948553442955
6144.0,-0.002987851854413748
6656.0,-0.004986660089343786
7168.0,-0.0003969967656303197
7680.0,0.009848733432590961
8192.0,0.005329510662704706
end
