version,3.0
numOfCh,1
type,point
parent_name,34766_0dot2-0dot1
ch_type,1_1
kcount,1
numberNandB,1
brightnessNandB,1
carpet pos,0
pc,0
Time (ms),CH1 Auto-Correlation
1.0,0.05845526233315468
2.0,0.05724531039595604
3.0,0.05608678609132767
4.0,0.05495840311050415
5.0,0.053834304213523865
6.0,0.05274564027786255
7.0,0.051718562841415405
8.0,0.050736408680677414
9.0,0.04976806417107582
10.0,0.048822540789842606
11.0,0.047894950956106186
12.0,0.046987440437078476
13.0,0.04609259217977524
14.0,0.04521724581718445
15.0,0.04435421898961067
16.0,0.04351051524281502
18.0,0.04191112518310547
20.0,0.04037044942378998
22.0,0.03884216398000717
24.0,0.03734875097870827
26.0,0.03587194159626961
28.0,0.034445397555828094
30.0,0.03313625231385231
32.0,0.0319034643471241
36.0,0.029624996706843376
40.0,0.0275868009775877
44.0,0.025929035618901253
48.0,0.024396203458309174
52.0,0.023054011166095734
56.0,0.02185913175344467
60.0,0.020745454356074333
64.0,0.019854001700878143
72.0,0.018701573833823204
80.0,0.01803426630795002
88.0,0.017237046733498573
96.0,0.01594351790845394
104.0,0.014514566399157047
112.0,0.013171331956982613
120.0,0.011920303106307983
128.0,0.010569559410214424
144.0,0.008334632031619549
160.0,0.006561041809618473
176.0,0.005897772964090109
192.0,0.0060076480731368065
208.0,0.006329112220555544
224.0,0.005797238554805517
240.0,0.0041511645540595055
256.0,0.0025084044318646193
288.0,0.0006479887524619699
320.0,-0.0008043983252719045
352.0,-0.0031508959364145994
384.0,-0.004343945067375898
416.0,-0.0037323259748518467
448.0,-0.00015816587256267667
480.0,0.002157228533178568
512.0,0.003325200406834483
576.0,0.005713652819395065
640.0,0.00272484146989882
704.0,-0.0007497473270632327
768.0,-0.001219803816638887
832.0,-0.001369387493468821
896.0,0.0024423873983323574
960.0,0.004516243003308773
1024.0,0.0036540180444717407
1152.0,0.005139433778822422
1280.0,0.0022378249559551477
1408.0,0.002662400249391794
1536.0,0.0035964285489171743
1664.0,0.005624089390039444
1792.0,0.0041877515614032745
1920.0,0.003026502439752221
2048.0,0.00010286495671607554
2304.0,0.0030401258263736963
2560.0,0.003560832468792796
2816.0,-0.0004477842594496906
3072.0,0.00043149551493115723
3328.0,0.002862765220925212
3584.0,0.00017823814414441586
3840.0,-0.0005800182116217911
4096.0,0.0023487184662371874
4608.0,-0.006117970682680607
5120.0,-0.004370003938674927
5632.0,0.0021126694045960903
6144.0,-0.007549735251814127
6656.0,-0.0007418841123580933
7168.0,-0.002470250241458416
7680.0,-0.004931381903588772
8192.0,-0.0024536200799047947
end
