version,3.0
numOfCh,1
type,point
parent_name,34766_0dot2-0dot1
ch_type,1_1
kcount,1
numberNandB,1
brightnessNandB,1
carpet pos,0
pc,0
Time (ms),CH1 Auto-Correlation
1.0,0.062385499477386475
2.0,0.06107696145772934
3.0,0.05984548479318619
4.0,0.05867345258593559
5.0,0.05757344141602516
6.0,0.056527502834796906
7.0,0.05548457056283951
8.0,0.054498106241226196
9.0,0.0535864531993866
10.0,0.052677351981401443
11.0,0.05178574472665787
12.0,0.050906505435705185
13.0,0.050032034516334534
14.0,0.04917453974485397
15.0,0.048307470977306366
16.0,0.04745063558220863
18.0,0.04580453038215637
20.0,0.04431728273630142
22.0,0.04291872680187225
24.0,0.04162575677037239
26.0,0.04042355716228485
28.0,0.03923077508807182
30.0,0.03802692890167236
32.0,0.036934904754161835
36.0,0.035036638379096985
40.0,0.03332658112049103
44.0,0.03190759941935539
48.0,0.030878569930791855
52.0,0.029856236651539803
56.0,0.02893088571727276
60.0,0.0280520711094141
64.0,0.027058057487010956
72.0,0.025454500690102577
80.0,0.023814871907234192
88.0,0.022460227832198143
96.0,0.021527759730815887
104.0,0.020566148683428764
112.0,0.019273070618510246
120.0,0.01788683980703354
128.0,0.016823457553982735
144.0,0.015727488324046135
160.0,0.01490671094506979
176.0,0.012923848815262318
192.0,0.011911283247172832
208.0,0.01194718200713396
224.0,0.011839576065540314
240.0,0.010764962062239647
256.0,0.010421646758913994
288.0,0.00943487323820591
320.0,0.0074358475394546986
352.0,0.004268195480108261
384.0,0.0015557837905362248
416.0,-0.00044993316987529397
448.0,-0.0034090036060661077
480.0,-0.0044840178452432156
512.0,-0.002524361712858081
576.0,0.0004737013659905642
640.0,0.0033430501352995634
704.0,0.0027037886902689934
768.0,0.0011579693527892232
832.0,0.002745270263403654
896.0,0.0016845579957589507
960.0,0.0025365957990288734
1024.0,0.0015870626084506512
1152.0,-0.007159435655921698
1280.0,-0.0045705619268119335
1408.0,-0.0019776751287281513
1536.0,-0.004127017222344875
1664.0,-0.0055687036365270615
1792.0,-0.012255086563527584
1920.0,-0.009422600269317627
2048.0,-0.006744039244949818
2304.0,-0.007456053514033556
2560.0,0.0029227351769804955
2816.0,0.009979220107197762
3072.0,0.003322608768939972
3328.0,-0.0029551638290286064
3584.0,0.00011117683607153594
3840.0,-0.0024221583735197783
4096.0,-0.0029148149769753218
4608.0,-0.008555842563509941
5120.0,-0.004705133847892284
5632.0,0.005236153490841389
6144.0,0.005046091973781586
6656.0,0.007967757992446423
7168.0,0.00432600500062108
7680.0,-0.005540889222174883
8192.0,0.006507687736302614
end
