version,3.0
numOfCh,1
type,point
parent_name,34766_0dot2-0dot1
ch_type,1_1
kcount,1
numberNandB,1
brightnessNandB,1
carpet pos,0
pc,0
Time (ms),CH1 Auto-Correlation
1.0,0.07310982048511505
2.0,0.07181914150714874
3.0,0.07060784846544266
4.0,0.06941907852888107
5.0,0.06826359778642654
6.0,0.06713631749153137
7.0,0.06603580713272095
8.0,0.06499648094177246
9.0,0.06397490948438644
10.0,0.06296415627002716
11.0,0.062008149921894073
12.0,0.061026431620121
13.0,0.06006572023034096
14.0,0.05910720303654671
15.0,0.0581451915204525
16.0,0.05722879618406296
18.0,0.05550028011202812
20.0,0.05384358763694763
22.0,0.05234590172767639
24.0,0.05088772997260094
26.0,0.04951152205467224
28.0,0.04825975000858307
30.0,0.047135643661022186
32.0,0.046098172664642334
36.0,0.04428385570645332
40.0,0.04277286306023598
44.0,0.04153520613908768
48.0,0.040430471301078796
52.0,0.03919300436973572
56.0,0.0379779115319252
60.0,0.03696984052658081
64.0,0.03621800243854523
72.0,0.03482956439256668
80.0,0.03337062522768974
88.0,0.03151782602071762
96.0,0.029723579064011574
104.0,0.028186410665512085
112.0,0.026491208001971245
120.0,0.024489987641572952
128.0,0.02276964671909809
144.0,0.01953335478901863
160.0,0.016907742246985435
176.0,0.01600082777440548
192.0,0.015126386657357216
208.0,0.013181214220821857
224.0,0.011372031643986702
240.0,0.010079099796712399
256.0,0.00994646456092596
288.0,0.007913918234407902
320.0,0.006908200681209564
352.0,0.006638167425990105
384.0,0.006173474248498678
416.0,0.00508778216317296
448.0,0.005913252010941505
480.0,0.00590524123981595
512.0,0.006592178251594305
576.0,0.007649349048733711
640.0,0.0033762073144316673
704.0,-1.8022141375695355e-05
768.0,-0.0009755417704582214
832.0,-0.0019499857444316149
896.0,-0.0017009393777698278
960.0,0.0005834748153574765
1024.0,-0.0014146481407806277
1152.0,-0.007181425113230944
1280.0,-0.00332076009362936
1408.0,-0.0019146415870636702
1536.0,-0.0063712517730891705
1664.0,-0.007660923060029745
1792.0,-0.00721185514703393
1920.0,-0.007794246077537537
2048.0,-0.014079009182751179
2304.0,-0.007562059909105301
2560.0,-0.01000318955630064
2816.0,-0.00014795109746046364
3072.0,0.003869464620947838
3328.0,0.013317987322807312
3584.0,0.009104541502892971
3840.0,0.007100102491676807
4096.0,0.007949994876980782
4608.0,-0.005051970016211271
5120.0,-0.007994651794433594
5632.0,-0.007498355116695166
6144.0,5.919206887483597e-05
6656.0,0.008822087198495865
7168.0,0.007054582703858614
7680.0,-0.0035001207143068314
8192.0,-0.004226977005600929
end
