version,3.0
numOfCh,1
type,point
parent_name,34766_0dot2-0dot1
ch_type,1_1
kcount,1
numberNandB,1
brightnessNandB,1
carpet pos,0
pc,0
Time (ms),CH1 Auto-Correlation
1.0,0.06495151668787003
2.0,0.06353780627250671
3.0,0.06225419044494629
4.0,0.06100163608789444
5.0,0.05976725369691849
6.0,0.058596786111593246
7.0,0.05747205391526222
8.0,0.05637256056070328
9.0,0.055336158722639084
10.0,0.05432511121034622
11.0,0.053324442356824875
12.0,0.052385736256837845
13.0,0.05145418271422386
14.0,0.05058706924319267
15.0,0.04976985231041908
16.0,0.04901815205812454
18.0,0.04767425358295441
20.0,0.04641297459602356
22.0,0.04525066912174225
24.0,0.044060252606868744
26.0,0.043011076748371124
28.0,0.042018014937639236
30.0,0.04095635563135147
32.0,0.03993133828043938
36.0,0.03792942687869072
40.0,0.036004163324832916
44.0,0.034011129289865494
48.0,0.03242649883031845
52.0,0.031011411920189857
56.0,0.029773356392979622
60.0,0.02832580730319023
64.0,0.02686518430709839
72.0,0.024023020640015602
80.0,0.021299252286553383
88.0,0.018892548978328705
96.0,0.016641369089484215
104.0,0.014356845989823341
112.0,0.012364783324301243
120.0,0.010843029245734215
128.0,0.009470842778682709
144.0,0.0077899666503071785
160.0,0.00677313469350338
176.0,0.006258808542042971
192.0,0.006676057819277048
208.0,0.005914674140512943
224.0,0.0050122858956456184
240.0,0.004282310605049133
256.0,0.004201551899313927
288.0,0.0031729128677397966
320.0,0.0026610903441905975
352.0,0.0025216531939804554
384.0,0.004241011571139097
416.0,0.0068709333427250385
448.0,0.005987104494124651
480.0,0.0026719754096120596
512.0,-5.4858763178344816e-05
576.0,-0.002546181669458747
640.0,-0.0009733826736919582
704.0,0.0005237280856817961
768.0,-0.0006505080382339656
832.0,0.0022021420300006866
896.0,0.006930528208613396
960.0,0.004301418084651232
1024.0,0.0009274203330278397
1152.0,-0.005039575044065714
1280.0,-0.006336505990475416
1408.0,-0.011074664071202278
1536.0,-0.010165913961827755
1664.0,-0.006721136160194874
1792.0,-0.007789315655827522
1920.0,-0.006572382990270853
2048.0,0.0008546194876544178
2304.0,-0.001004534773528576
2560.0,0.003726104274392128
2816.0,0.006545595359057188
3072.0,0.006431594956666231
3328.0,0.0025501882191747427
3584.0,-0.00012543515185825527
3840.0,-0.00042124593164771795
4096.0,-0.007070358842611313
4608.0,-0.009685230441391468
5120.0,-0.0022912821732461452
5632.0,0.000844669237267226
6144.0,0.008899817243218422
6656.0,0.0032678665593266487
7168.0,-0.0011833006283268332
7680.0,-0.003993374761193991
8192.0,-0.006259097717702389
end
