version,3.0
numOfCh,1
type,point
parent_name,34766_0dot2-0dot1
ch_type,1_1
kcount,1
numberNandB,1
brightnessNandB,1
carpet pos,0
pc,0
Time (ms),CH1 Auto-Correlation
1.0,0.055634431540966034
2.0,0.05440610647201538
3.0,0.05319442227482796
4.0,0.052048973739147186
5.0,0.050977401435375214
6.0,0.0499383918941021
7.0,0.048954643309116364
8.0,0.04800417646765709
9.0,0.04705100134015083
10.0,0.046122290194034576
11.0,0.045201558619737625
12.0,0.04430609196424484
13.0,0.04346287623047829
14.0,0.042649999260902405
15.0,0.041876476258039474
16.0,0.04111284762620926
18.0,0.03964310511946678
20.0,0.03823481872677803
22.0,0.03691771999001503
24.0,0.03565192595124245
26.0,0.03449016064405441
28.0,0.033355630934238434
30.0,0.032273512333631516
32.0,0.031210927292704582
36.0,0.029233982786536217
40.0,0.027617553249001503
44.0,0.02624635025858879
48.0,0.024960560724139214
52.0,0.02372153289616108
56.0,0.02242053858935833
60.0,0.02115054428577423
64.0,0.019985055550932884
72.0,0.017852524295449257
80.0,0.015995511785149574
88.0,0.014679900370538235
96.0,0.013662337325513363
104.0,0.012460478581488132
112.0,0.011131299659609795
120.0,0.009778126142919064
128.0,0.008406315930187702
144.0,0.007420772220939398
160.0,0.007695246487855911
176.0,0.00797091145068407
192.0,0.007496492937207222
208.0,0.00669291103258729
224.0,0.006488936021924019
240.0,0.005998465232551098
256.0,0.0064261979423463345
288.0,0.008197233080863953
320.0,0.00830109417438507
352.0,0.0070059034042060375
384.0,0.004664462059736252
416.0,0.0040263463743031025
448.0,0.002946109278127551
480.0,0.0013140583178028464
512.0,0.0009914976544678211
576.0,0.0018224044470116496
640.0,0.0034952880814671516
704.0,0.004386418033391237
768.0,0.0033090219367295504
832.0,0.003908080514520407
896.0,0.004103902727365494
960.0,0.00434640608727932
1024.0,0.0029724205378443003
1152.0,0.00038028613198548555
1280.0,0.0019218326779082417
1408.0,-0.0018033417873084545
1536.0,0.002275359584018588
1664.0,0.0034718653187155724
1792.0,0.0006957305013202131
1920.0,0.0011287223314866424
2048.0,-0.0018682194640859962
2304.0,0.0017755253938958049
2560.0,0.001972509315237403
2816.0,-0.0012241099029779434
3072.0,-0.0020719552412629128
3328.0,-0.002529669087380171
3584.0,-0.0008552598301321268
3840.0,-0.004227358847856522
4096.0,-0.005351492203772068
4608.0,-0.0006308372248895466
5120.0,-0.0003622259246185422
5632.0,-0.00491698132827878
6144.0,-0.005005475599318743
6656.0,-0.006112697999924421
7168.0,-0.005708207376301289
7680.0,-0.0038739810697734356
8192.0,-0.002901801373809576
end
