version,3.0
numOfCh,1
type,point
parent_name,34766_0dot2-0dot1
ch_type,1_1
kcount,1
numberNandB,1
brightnessNandB,1
carpet pos,0
pc,0
Time (ms),CH1 Auto-Correlation
1.0,0.0794854462146759
2.0,0.07739930599927902
3.0,0.07566440850496292
4.0,0.07393581420183182
5.0,0.07247958332300186
6.0,0.07124543935060501
7.0,0.07020223140716553
8.0,0.06919389218091965
9.0,0.06823226809501648
10.0,0.06717710196971893
11.0,0.06602620333433151
12.0,0.06503589451313019
13.0,0.06407767534255981
14.0,0.06312395632266998
15.0,0.062222935259342194
16.0,0.061448726803064346
18.0,0.05987076461315155
20.0,0.05846913158893585
22.0,0.05696090683341026
24.0,0.05536523461341858
26.0,0.05401903763413429
28.0,0.052880190312862396
30.0,0.051677804440259933
32.0,0.05044440180063248
36.0,0.0483517125248909
40.0,0.046601176261901855
44.0,0.04458366706967354
48.0,0.042744994163513184
52.0,0.04096939414739609
56.0,0.039239685982465744
60.0,0.03792468458414078
64.0,0.03690504655241966
72.0,0.03452932462096214
80.0,0.032718077301979065
88.0,0.03190148249268532
96.0,0.030693601816892624
104.0,0.029517386108636856
112.0,0.028173023834824562
120.0,0.026558296754956245
128.0,0.025574766099452972
144.0,0.023199420422315598
160.0,0.02056678757071495
176.0,0.017544927075505257
192.0,0.01541049126535654
208.0,0.014506236650049686
224.0,0.01334045547991991
240.0,0.011586526408791542
256.0,0.00970630906522274
288.0,0.00882391631603241
320.0,0.008398337289690971
352.0,0.008021213114261627
384.0,0.005144234746694565
416.0,0.0031947195529937744
448.0,0.004001041408628225
480.0,0.0037182748783379793
512.0,0.00348460185341537
576.0,0.0035275991540402174
640.0,0.0023499263916164637
704.0,-0.0017013336764648557
768.0,-0.0069213020615279675
832.0,-0.009263996034860611
896.0,-0.009556606411933899
960.0,-0.005903188604861498
1024.0,-0.002224744064733386
1152.0,0.0022428196389228106
1280.0,-0.0008806508267298341
1408.0,-0.00610993430018425
1536.0,-0.0013389646774157882
1664.0,-0.0056665558367967606
1792.0,-0.003302206750959158
1920.0,-0.004119080491364002
2048.0,-0.009766842238605022
2304.0,-0.005517445970326662
2560.0,-0.00670523289591074
2816.0,-0.0062296041287481785
3072.0,-7.379538874374703e-05
3328.0,0.00036125234328210354
3584.0,-0.0027777892537415028
3840.0,-0.004458585754036903
4096.0,-0.005184302572160959
4608.0,0.003511667251586914
5120.0,0.005260544829070568
5632.0,0.0060988739132881165
6144.0,0.004570777527987957
6656.0,-0.0017449933802708983
7168.0,-0.009639643132686615
7680.0,-0.007914911024272442
8192.0,-0.008636905811727047
end
