version,3.0
numOfCh,1
type,point
parent_name,34766_0dot2-0dot1
ch_type,1_1
kcount,1
numberNandB,1
brightnessNandB,1
carpet pos,0
pc,0
Time (ms),CH1 Auto-Correlation
1.0,0.06489335000514984
2.0,0.06345506757497787
3.0,0.06213439628481865
4.0,0.060905009508132935
5.0,0.059686437249183655
6.0,0.05852069705724716
7.0,0.05744267255067825
8.0,0.05642049014568329
9.0,0.05547422543168068
10.0,0.054571256041526794
11.0,0.05371866747736931
12.0,0.05289255082607269
13.0,0.05210249871015549
14.0,0.05130535736680031
15.0,0.050519876182079315
16.0,0.04970883950591087
18.0,0.04822199046611786
20.0,0.046828482300043106
22.0,0.0455109104514122
24.0,0.04432596266269684
26.0,0.04322509467601776
28.0,0.04208137094974518
30.0,0.04100622609257698
32.0,0.03999628126621246
36.0,0.038044340908527374
40.0,0.03622407466173172
44.0,0.03451886400580406
48.0,0.03305470198392868
52.0,0.03164773806929588
56.0,0.03015890344977379
60.0,0.028830884024500847
64.0,0.02755456231534481
72.0,0.02602871134877205
80.0,0.025051206350326538
88.0,0.023756692185997963
96.0,0.021894466131925583
104.0,0.020269379019737244
112.0,0.01901295781135559
120.0,0.018287193030118942
128.0,0.017870455980300903
144.0,0.016178550198674202
160.0,0.014149336144328117
176.0,0.0125228026881814
192.0,0.010378911159932613
208.0,0.00889300461858511
224.0,0.007483296096324921
240.0,0.005817896220833063
256.0,0.00457582576200366
288.0,0.003482505213469267
320.0,0.003439531661570072
352.0,0.002591413212940097
384.0,0.003325242083519697
416.0,0.003789056558161974
448.0,0.0035424164962023497
480.0,0.003364582546055317
512.0,0.004728836007416248
576.0,0.002015060046687722
640.0,0.0002209042286267504
704.0,0.0021100419107824564
768.0,0.002046619076281786
832.0,0.0012921425513923168
896.0,-0.002914045937359333
960.0,-0.007123781368136406
1024.0,-0.009177010506391525
1152.0,-0.006894517689943314
1280.0,-0.003165139816701412
1408.0,-0.002232091734185815
1536.0,-0.0013522462686523795
1664.0,0.0028202577959746122
1792.0,-0.001037366921082139
1920.0,-0.0023340266197919846
2048.0,-0.002708316780626774
2304.0,-0.010091551579535007
2560.0,-0.011008207686245441
2816.0,-0.012127997353672981
3072.0,-0.0017995683010667562
3328.0,0.0033341008238494396
3584.0,0.0064929756335914135
3840.0,0.003942833747714758
4096.0,-0.001788618159480393
4608.0,0.005475005134940147
5120.0,0.005374286789447069
5632.0,0.0058235833421349525
6144.0,-0.0021824808791279793
6656.0,-0.0058343973942101
7168.0,-0.00480671925470233
7680.0,-0.004038313869386911
8192.0,-0.007156421430408955
end
