version,3.0
numOfCh,1
type,point
parent_name,34766_0dot2-0dot1
ch_type,1_1
kcount,1
numberNandB,1
brightnessNandB,1
carpet pos,0
pc,0
Time (ms),CH1 Auto-Correlation
1.0,0.08055389672517776
2.0,0.07931657135486603
3.0,0.07815282791852951
4.0,0.07703343033790588
5.0,0.07596521824598312
6.0,0.07492747157812119
7.0,0.0739387571811676
8.0,0.07301703095436096
9.0,0.0721287652850151
10.0,0.07124215364456177
11.0,0.07039303332567215
12.0,0.0695565938949585
13.0,0.06873204559087753
14.0,0.06790929287672043
15.0,0.06711242347955704
16.0,0.06637377291917801
18.0,0.06497069448232651
20.0,0.06362611055374146
22.0,0.062372837215662
24.0,0.06122638285160065
26.0,0.06017061322927475
28.0,0.05917604640126228
30.0,0.058268047869205475
32.0,0.057358548045158386
36.0,0.05554278567433357
40.0,0.05380069464445114
44.0,0.05239027738571167
48.0,0.0511021614074707
52.0,0.04965678229928017
56.0,0.04826794192194939
60.0,0.04696002975106239
64.0,0.04567628726363182
72.0,0.043032754212617874
80.0,0.04102984070777893
88.0,0.03979765623807907
96.0,0.038848914206027985
104.0,0.03769870847463608
112.0,0.03637208044528961
120.0,0.03508472442626953
128.0,0.03411560505628586
144.0,0.032797910273075104
160.0,0.030619362369179726
176.0,0.028555549681186676
192.0,0.02742764540016651
208.0,0.02682315930724144
224.0,0.025784550234675407
240.0,0.02456212230026722
256.0,0.023990347981452942
288.0,0.022568615153431892
320.0,0.02177508734166622
352.0,0.01861410215497017
384.0,0.01792014203965664
416.0,0.019439836964011192
448.0,0.021101197227835655
480.0,0.02385614439845085
512.0,0.02327379584312439
576.0,0.020184079185128212
640.0,0.01875627413392067
704.0,0.018166957423090935
768.0,0.017431646585464478
832.0,0.015854256227612495
896.0,0.01339051779359579
960.0,0.011060776188969612
1024.0,0.009189576841890812
1152.0,0.012627404183149338
1280.0,0.014211882837116718
1408.0,0.014783881604671478
1536.0,0.012105941772460938
1664.0,0.0116451820358634
1792.0,0.01121693104505539
1920.0,0.013178342022001743
2048.0,0.012253065593540668
2304.0,0.007348921615630388
2560.0,0.0006449068896472454
2816.0,-0.00035773057607002556
3072.0,-0.0019116346957162023
3328.0,-0.006057270336896181
3584.0,-0.004801867995411158
3840.0,-0.006623105611652136
4096.0,-0.009346087463200092
4608.0,-0.012530341744422913
5120.0,-0.018114671111106873
5632.0,-0.014738292433321476
6144.0,-0.01225273497402668
6656.0,-0.015511292032897472
7168.0,-0.010825036093592644
7680.0,-0.004211703315377235
8192.0,-0.0016372044337913394
end
