version,3.0
numOfCh,1
type,point
parent_name,34766_0dot2-0dot1
ch_type,1_1
kcount,1
numberNandB,1
brightnessNandB,1
carpet pos,0
pc,0
Time (ms),CH1 Auto-Correlation
1.0,0.07783379405736923
2.0,0.07625482976436615
3.0,0.0747314840555191
4.0,0.07332593202590942
5.0,0.07201255112886429
6.0,0.07080559432506561
7.0,0.0696519985795021
8.0,0.06850546598434448
9.0,0.06735824793577194
10.0,0.06625234335660934
11.0,0.06513233482837677
12.0,0.06411239504814148
13.0,0.0631263330578804
14.0,0.06215585395693779
15.0,0.061194561421871185
16.0,0.060218170285224915
18.0,0.058268580585718155
20.0,0.05633099377155304
22.0,0.05455798655748367
24.0,0.05292839556932449
26.0,0.05142323672771454
28.0,0.050019506365060806
30.0,0.048651307821273804
32.0,0.04723047465085983
36.0,0.04467279091477394
40.0,0.04240274801850319
44.0,0.04007723927497864
48.0,0.03790390491485596
52.0,0.03595789894461632
56.0,0.03425758332014084
60.0,0.032589804381132126
64.0,0.0308977197855711
72.0,0.027810633182525635
80.0,0.024743301793932915
88.0,0.022024841979146004
96.0,0.01936633326113224
104.0,0.01723623275756836
112.0,0.015804249793291092
120.0,0.014734316617250443
128.0,0.013845919631421566
144.0,0.011043441481888294
160.0,0.008667511865496635
176.0,0.0073635028675198555
192.0,0.007052388042211533
208.0,0.007050477433949709
224.0,0.006605999078601599
240.0,0.004379946272820234
256.0,0.0023934526834636927
288.0,-0.00029866417753510177
320.0,-0.0007811901741661131
352.0,0.0016879768809303641
384.0,0.0023016855120658875
416.0,0.003554581431671977
448.0,0.002913813106715679
480.0,0.0026707439683377743
512.0,0.0016583389369770885
576.0,0.00029052465106360614
640.0,-0.0018273290479555726
704.0,-0.0046518538147211075
768.0,-0.005814023315906525
832.0,0.00030144897755235434
896.0,0.0007450407720170915
960.0,0.0002851448080036789
1024.0,-0.00028518380713649094
1152.0,0.0015364630380645394
1280.0,0.0016561783850193024
1408.0,0.008759954944252968
1536.0,0.0015227379044517875
1664.0,-0.003432195633649826
1792.0,-0.004341846331954002
1920.0,0.002752880332991481
2048.0,0.0052569108083844185
2304.0,0.005570458248257637
2560.0,0.0007416328880935907
2816.0,-0.007352715823799372
3072.0,-0.002066211309283972
3328.0,-0.006828395649790764
3584.0,-0.004272961989045143
3840.0,-0.007982296869158745
4096.0,-0.005297515541315079
4608.0,-0.003036536043509841
5120.0,-0.008248608559370041
5632.0,-0.0014027169672772288
6144.0,0.00040484563214704394
6656.0,0.004561386536806822
7168.0,-0.0015199721092358232
7680.0,-0.007188762538135052
8192.0,0.009931652806699276
end
