version,3.0
numOfCh,1
type,point
parent_name,34766_0dot2-0dot1
ch_type,1_1
kcount,1
numberNandB,1
brightnessNandB,1
carpet pos,0
pc,0
Time (ms),CH1 Auto-Correlation
1.0,0.08457784354686737
2.0,0.08326669037342072
3.0,0.08201770484447479
4.0,0.08076193183660507
5.0,0.07959125190973282
6.0,0.07850253582000732
7.0,0.07742062211036682
8.0,0.07639844715595245
9.0,0.07543853670358658
10.0,0.07446911185979843
11.0,0.07354487478733063
12.0,0.07265976816415787
13.0,0.07179203629493713
14.0,0.07092465460300446
15.0,0.07008487731218338
16.0,0.06927365809679031
18.0,0.06771113723516464
20.0,0.06616383790969849
22.0,0.06467069685459137
24.0,0.06329865008592606
26.0,0.06199749559164047
28.0,0.06081628426909447
30.0,0.059741366654634476
32.0,0.058760274201631546
36.0,0.0569307841360569
40.0,0.05524298548698425
44.0,0.05375424772500992
48.0,0.0524599514901638
52.0,0.05131379887461662
56.0,0.050277579575777054
60.0,0.04919843748211861
64.0,0.04785354435443878
72.0,0.04552321881055832
80.0,0.04353012517094612
88.0,0.041393499821424484
96.0,0.03969544172286987
104.0,0.0382196381688118
112.0,0.037053655833005905
120.0,0.03628789633512497
128.0,0.035645052790641785
144.0,0.03418726846575737
160.0,0.03431112319231033
176.0,0.03371526673436165
192.0,0.03173293173313141
208.0,0.02878836914896965
224.0,0.026974638924002647
240.0,0.024486035108566284
256.0,0.02193133346736431
288.0,0.020269565284252167
320.0,0.016832590103149414
352.0,0.014520175755023956
384.0,0.011656172573566437
416.0,0.009541713632643223
448.0,0.00759037584066391
480.0,0.006031973287463188
512.0,0.006215532310307026
576.0,0.00952024757862091
640.0,0.009398918598890305
704.0,0.004718192853033543
768.0,0.0018286567647010088
832.0,0.0026583774015307426
896.0,0.003373091109097004
960.0,0.000293178774882108
1024.0,-0.0007555541815236211
1152.0,-0.0017334634903818369
1280.0,-0.005676808767020702
1408.0,-0.010533648543059826
1536.0,-0.01563331112265587
1664.0,-0.020234297960996628
1792.0,-0.014894012361764908
1920.0,-0.013006139546632767
2048.0,-0.011381507851183414
2304.0,-0.008882502093911171
2560.0,-0.013098778203129768
2816.0,-0.0011488834861665964
3072.0,-0.002173809101805091
3328.0,0.008565343916416168
3584.0,0.00543785747140646
3840.0,0.011776378378272057
4096.0,0.019131474196910858
4608.0,0.007821963168680668
5120.0,0.0004188584571238607
5632.0,-0.0027141559403389692
6144.0,-0.026693474501371384
6656.0,0.0014590582577511668
7168.0,-0.006373308598995209
7680.0,0.0022524509113281965
8192.0,0.009717646986246109
end
