version,3.0
numOfCh,1
type,point
parent_name,34766_0dot2-0dot1
ch_type,1_1
kcount,1
numberNandB,1
brightnessNandB,1
carpet pos,0
pc,0
Time (ms),CH1 Auto-Correlation
1.0,0.07520085573196411
2.0,0.0721379742026329
3.0,0.07054535299539566
4.0,0.06897518038749695
5.0,0.06763014942407608
6.0,0.0663921982049942
7.0,0.0651327446103096
8.0,0.06392356008291245
9.0,0.06285185366868973
10.0,0.06189967319369316
11.0,0.06102093309164047
12.0,0.06007596105337143
13.0,0.059008583426475525
14.0,0.05788049101829529
15.0,0.056790586560964584
16.0,0.055697064846754074
18.0,0.053524199873209
20.0,0.05174899473786354
22.0,0.05012154579162598
24.0,0.04860294982790947
26.0,0.047262731939554214
28.0,0.045695919543504715
30.0,0.044078439474105835
32.0,0.04246201366186142
36.0,0.039976052939891815
40.0,0.03789939358830452
44.0,0.035899341106414795
48.0,0.034278884530067444
52.0,0.032614585012197495
56.0,0.0310294758528471
60.0,0.029986916109919548
64.0,0.02883089706301689
72.0,0.026712611317634583
80.0,0.025246044620871544
88.0,0.023613274097442627
96.0,0.022432655096054077
104.0,0.02145111747086048
112.0,0.020281894132494926
120.0,0.01836448162794113
128.0,0.016412748023867607
144.0,0.013178189285099506
160.0,0.011848504655063152
176.0,0.01145864836871624
192.0,0.011123262345790863
208.0,0.010655945166945457
224.0,0.009462503716349602
240.0,0.009712204337120056
256.0,0.009649666026234627
288.0,0.010084259323775768
320.0,0.007782017346471548
352.0,0.007305655628442764
384.0,0.008407065644860268
416.0,0.0067813945934176445
448.0,0.004198068752884865
480.0,0.004885926377028227
512.0,0.004555390682071447
576.0,0.0008817543275654316
640.0,0.0026505442801862955
704.0,-9.792017954168841e-05
768.0,-0.001987346913665533
832.0,-0.0007053348235785961
896.0,0.0018272908637300134
960.0,-0.00013591564493253827
1024.0,-0.00547091756016016
1152.0,-0.006068011280149221
1280.0,-0.00419832207262516
1408.0,-0.009172121994197369
1536.0,-0.007409276906400919
1664.0,-0.00744816567748785
1792.0,-0.0014108128380030394
1920.0,0.0007839144673198462
2048.0,0.001706614624708891
2304.0,0.004846916068345308
2560.0,0.0001726788905216381
2816.0,-0.00365009275265038
3072.0,-0.005884872283786535
3328.0,-0.011333519592881203
3584.0,-0.006821445655077696
3840.0,-0.002028313698247075
4096.0,0.0019463046919554472
4608.0,0.005169440060853958
5120.0,0.0030294700991362333
5632.0,-0.004587437026202679
6144.0,-0.005268263164907694
6656.0,0.0022196925710886717
7168.0,0.0003294721827842295
7680.0,-0.013871786184608936
8192.0,-0.007389612961560488
end
