version,3.0
numOfCh,1
type,point
parent_name,34766_0dot2-0dot1
ch_type,1_1
kcount,1
numberNandB,1
brightnessNandB,1
carpet pos,0
pc,0
Time (ms),CH1 Auto-Correlation
1.0,0.05977838486433029
2.0,0.05857124924659729
3.0,0.057414013892412186
4.0,0.05628696456551552
5.0,0.05519522726535797
6.0,0.05413108691573143
7.0,0.05306611955165863
8.0,0.05200162157416344
9.0,0.05098358169198036
10.0,0.05002538487315178
11.0,0.049135953187942505
12.0,0.04828593507409096
13.0,0.04748517647385597
14.0,0.0467502735555172
15.0,0.04603290557861328
16.0,0.04535664618015289
18.0,0.04413245990872383
20.0,0.04292565584182739
22.0,0.0417751781642437
24.0,0.040606312453746796
26.0,0.03939078375697136
28.0,0.0382227897644043
30.0,0.03707537055015564
32.0,0.03599158301949501
36.0,0.034017354249954224
40.0,0.032391760498285294
44.0,0.030834786593914032
48.0,0.029362259432673454
52.0,0.028120825067162514
56.0,0.026891713961958885
60.0,0.025670098140835762
64.0,0.02463199570775032
72.0,0.02219500206410885
80.0,0.01986558549106121
88.0,0.01796157844364643
96.0,0.01632961630821228
104.0,0.015039673075079918
112.0,0.014158662408590317
120.0,0.013343908824026585
128.0,0.012889977544546127
144.0,0.011980455368757248
160.0,0.010582813993096352
176.0,0.008828514255583286
192.0,0.007186579052358866
208.0,0.006051014643162489
224.0,0.004620920401066542
240.0,0.0033601210452616215
256.0,0.002912553958594799
288.0,0.0010692323558032513
320.0,-0.0008549012127332389
352.0,0.0004363316693343222
384.0,0.001004425110295415
416.0,0.0019905860535800457
448.0,0.0029069394804537296
480.0,0.004189550876617432
512.0,0.004557748790830374
576.0,0.005520415026694536
640.0,0.005509789101779461
704.0,0.007044285070151091
768.0,0.007112857885658741
832.0,0.004400111734867096
896.0,0.00382516928948462
960.0,0.003336747409775853
1024.0,0.00686020590364933
1152.0,0.006641947198659182
1280.0,0.0042656175792217255
1408.0,0.0009032025118358433
1536.0,-0.000403050595195964
1664.0,-0.0019591841846704483
1792.0,0.0028352125082165003
1920.0,0.005244895815849304
2048.0,0.0019538274500519037
2304.0,-8.36253966554068e-05
2560.0,-0.0007097756606526673
2816.0,0.0005428315489552915
3072.0,-0.0022312842775136232
3328.0,-0.002830680925399065
3584.0,-0.00464359438046813
3840.0,-0.002715689828619361
4096.0,-0.0063376398757100105
4608.0,-0.005205322522670031
5120.0,-0.006933319848030806
5632.0,-0.005885502323508263
6144.0,-0.003059417475014925
6656.0,0.0009817444952204823
7168.0,-0.001186476438306272
7680.0,0.0026859461795538664
8192.0,-0.0034946203231811523
end
