version,3.0
numOfCh,1
type,point
parent_name,c1204_0dot08-0dot01
ch_type,1_1
kcount,1
numberNandB,1
brightnessNandB,1
carpet pos,0
pc,0
Time (ms),CH1 Auto-Correlation
1.0,0.03621751070022583
2.0,0.03581561520695686
3.0,0.03543633967638016
4.0,0.035095881670713425
5.0,0.03474554419517517
6.0,0.03440229222178459
7.0,0.03407866880297661
8.0,0.033761344850063324
9.0,0.033441536128520966
10.0,0.03312023729085922
11.0,0.03279927000403404
12.0,0.03248891234397888
13.0,0.03218332678079605
14.0,0.031874243170022964
15.0,0.03158942982554436
16.0,0.03130553290247917
18.0,0.030696546658873558
20.0,0.03024115413427353
22.0,0.0297685619443655
24.0,0.029305702075362206
26.0,0.028817012906074524
28.0,0.028337350115180016
30.0,0.02789251133799553
32.0,0.02746807225048542
36.0,0.026606779545545578
40.0,0.025739025324583054
44.0,0.024978378787636757
48.0,0.02422356605529785
52.0,0.023557011038064957
56.0,0.02288977988064289
60.0,0.022131258621811867
64.0,0.021420283243060112
72.0,0.020130794495344162
80.0,0.019169718027114868
88.0,0.018204348161816597
96.0,0.017341654747724533
104.0,0.01663859561085701
112.0,0.016040781512856483
120.0,0.015522821806371212
128.0,0.015084302984178066
144.0,0.01453789696097374
160.0,0.013830788433551788
176.0,0.01338803581893444
192.0,0.013213573023676872
208.0,0.013325157575309277
224.0,0.01369999349117279
240.0,0.014138788916170597
256.0,0.014119534753262997
288.0,0.013528656214475632
320.0,0.01159579586237669
352.0,0.009787976741790771
384.0,0.008525402285158634
416.0,0.007410017773509026
448.0,0.0066233729012310505
480.0,0.006011597346514463
512.0,0.00469854474067688
576.0,0.003949121572077274
640.0,0.003777129342779517
704.0,0.0028097783215343952
768.0,0.0022872351109981537
832.0,0.0009832875803112984
896.0,0.00024508964270353317
960.0,0.0017984937876462936
1024.0,0.0013813148252665997
1152.0,0.0019107083790004253
1280.0,0.004606171045452356
1408.0,0.002120488090440631
1536.0,-0.001007560989819467
1664.0,-0.002110713394358754
1792.0,-0.0001562765974085778
1920.0,-0.00022293394431471825
2048.0,0.0018465728498995304
2304.0,0.003552728798240423
2560.0,0.005225523374974728
2816.0,0.0006266910932026803
3072.0,-0.005852954927831888
3328.0,-0.010145311243832111
3584.0,-0.008473915979266167
3840.0,-0.005713358521461487
4096.0,-0.0035720544401556253
4608.0,5.048726234235801e-05
5120.0,-0.0023631921503692865
5632.0,-0.0031902026385068893
6144.0,-0.0008481238037347794
6656.0,0.007914568297564983
7168.0,0.007759509142488241
7680.0,-0.006323786918073893
8192.0,-0.005692133679986
end
