version,3.0
numOfCh,1
type,point
parent_name,c1204_0dot08-0dot01
ch_type,1_1
kcount,1
numberNandB,1
brightnessNandB,1
carpet pos,0
pc,0
Time (ms),CH1 Auto-Correlation
1.0,0.030525945127010345
2.0,0.03026541694998741
3.0,0.030010389164090157
4.0,0.029757486656308174
5.0,0.02951120212674141
6.0,0.029272230342030525
7.0,0.029032740741968155
8.0,0.028798602521419525
9.0,0.02857440896332264
10.0,0.028360387310385704
11.0,0.028153685852885246
12.0,0.027946649119257927
13.0,0.027735941112041473
14.0,0.027527445927262306
15.0,0.027314623817801476
16.0,0.027110835537314415
18.0,0.02671796642243862
20.0,0.02634294703602791
22.0,0.025966092944145203
24.0,0.025593064725399017
26.0,0.025218334048986435
28.0,0.02483081817626953
30.0,0.024447482079267502
32.0,0.024078015238046646
36.0,0.02338218502700329
40.0,0.022733619436621666
44.0,0.022094236686825752
48.0,0.02150387316942215
52.0,0.020954418927431107
56.0,0.020420560613274574
60.0,0.019910436123609543
64.0,0.019468314945697784
72.0,0.018722228705883026
80.0,0.01801745779812336
88.0,0.017384842038154602
96.0,0.016835812479257584
104.0,0.016332902014255524
112.0,0.01582014001905918
120.0,0.01534282136708498
128.0,0.014888220466673374
144.0,0.01387900672852993
160.0,0.012951971963047981
176.0,0.011889131739735603
192.0,0.010937760584056377
208.0,0.010286975651979446
224.0,0.009551910683512688
240.0,0.008804542012512684
256.0,0.00805206224322319
288.0,0.006298278924077749
320.0,0.005147544201463461
352.0,0.004896411206573248
384.0,0.00428093783557415
416.0,0.0037800485733896494
448.0,0.0035628287587314844
480.0,0.0032197581604123116
512.0,0.0024636578746140003
576.0,0.00224028411321342
640.0,0.001772150513716042
704.0,0.0004701925499830395
768.0,-0.0014703937340527773
832.0,-0.0012677412014454603
896.0,-0.0010123210959136486
960.0,-0.0011564050801098347
1024.0,-0.0014810842694714665
1152.0,-0.0004315494152251631
1280.0,-0.00024368829326704144
1408.0,0.00045668071834370494
1536.0,0.002614347031340003
1664.0,0.0027043456211686134
1792.0,0.0010970787843689322
1920.0,-0.0006106405053287745
2048.0,0.0002553186204750091
2304.0,0.0013332631206139922
2560.0,-0.00039572385139763355
2816.0,-0.0017345454543828964
3072.0,-0.0043288301676511765
3328.0,-0.00459766760468483
3584.0,-0.00571044534444809
3840.0,-0.003333102911710739
4096.0,-0.006433497648686171
4608.0,-0.001305865473113954
5120.0,-0.0010072991717606783
5632.0,-0.0030074475798755884
6144.0,-0.0012646319810301065
6656.0,0.0008783401572145522
7168.0,0.0028256000950932503
7680.0,0.0028981920331716537
8192.0,-0.0006753109628334641
9216.0,0.00062864541541785
10240.0,-0.0017134855734184384
11264.0,-0.00040458570583723485
12288.0,0.0014697810402140021
13312.0,-0.00036634920979849994
14336.0,0.00025707727763801813
end
