version,3.0
numOfCh,1
type,point
parent_name,c1204_0dot08-0dot01
ch_type,1_1
kcount,1
numberNandB,1
brightnessNandB,1
carpet pos,0
pc,0
Time (ms),CH1 Auto-Correlation
1.0,0.03751356527209282
2.0,0.03721751272678375
3.0,0.036928482353687286
4.0,0.036646079272031784
5.0,0.03637078404426575
6.0,0.03609577566385269
7.0,0.03583081439137459
8.0,0.03556601330637932
9.0,0.03531089797616005
10.0,0.03505351394414902
11.0,0.034800849854946136
12.0,0.03456594794988632
13.0,0.03434218466281891
14.0,0.03410730138421059
15.0,0.033869896084070206
16.0,0.03363377973437309
18.0,0.03316311910748482
20.0,0.03269055858254433
22.0,0.03222205489873886
24.0,0.031781770288944244
26.0,0.031378962099552155
28.0,0.03098706342279911
30.0,0.030616452917456627
32.0,0.030266018584370613
36.0,0.029607119038701057
40.0,0.028969163075089455
44.0,0.02835569903254509
48.0,0.027725964784622192
52.0,0.02707885578274727
56.0,0.02646774984896183
60.0,0.0258775781840086
64.0,0.025285756215453148
72.0,0.02417062036693096
80.0,0.023167649284005165
88.0,0.022263186052441597
96.0,0.021433904767036438
104.0,0.020782487466931343
112.0,0.020263126119971275
120.0,0.01969951018691063
128.0,0.01910417526960373
144.0,0.017963435500860214
160.0,0.016977403312921524
176.0,0.016033397987484932
192.0,0.0150173744186759
208.0,0.01377117820084095
224.0,0.012441590428352356
240.0,0.011375085450708866
256.0,0.010461220517754555
288.0,0.008255445398390293
320.0,0.0068208868615329266
352.0,0.006079479120671749
384.0,0.005729107651859522
416.0,0.005126784555613995
448.0,0.004683917388319969
480.0,0.003747053211554885
512.0,0.003144841408357024
576.0,0.0024996378924697638
640.0,0.0038675586692988873
704.0,0.004391811788082123
768.0,0.005312749650329351
832.0,0.005866110324859619
896.0,0.00586296571418643
960.0,0.00557147990912199
1024.0,0.004930402617901564
1152.0,0.004092664457857609
1280.0,0.004038413520902395
1408.0,0.0019355597905814648
1536.0,-0.0030182672198861837
1664.0,-0.004407417494803667
1792.0,-0.0021269810386002064
1920.0,0.0026714152190834284
2048.0,0.005226059351116419
2304.0,-0.0015389157924801111
2560.0,-0.004856223240494728
2816.0,0.0017587213078513741
3072.0,-0.0017371557187289
3328.0,-0.002255252795293927
3584.0,-0.011637960560619831
3840.0,-0.008060396648943424
4096.0,-0.009277934208512306
4608.0,-0.004379697144031525
5120.0,-0.0071769882924854755
5632.0,-0.01281709037721157
6144.0,-0.0038924873806536198
6656.0,-0.005090083461254835
7168.0,-0.0031712735071778297
end
