version,3.0
numOfCh,1
type,point
parent_name,c1204_0dot08-0dot01
ch_type,1_1
kcount,1
numberNandB,1
brightnessNandB,1
carpet pos,0
pc,0
Time (ms),CH1 Auto-Correlation
1.0,0.027689069509506226
2.0,0.027401797473430634
3.0,0.027117978781461716
4.0,0.026833483949303627
5.0,0.02655087038874626
6.0,0.026270654052495956
7.0,0.025988714769482613
8.0,0.025713806971907616
9.0,0.025441400706768036
10.0,0.025173073634505272
11.0,0.024910632520914078
12.0,0.02465851604938507
13.0,0.024403007701039314
14.0,0.024159923195838928
15.0,0.023919813334941864
16.0,0.023688415065407753
18.0,0.023257549852132797
20.0,0.022826451808214188
22.0,0.022406939417123795
24.0,0.022019583731889725
26.0,0.021658893674612045
28.0,0.021308187395334244
30.0,0.020968707278370857
32.0,0.020647630095481873
36.0,0.020000798627734184
40.0,0.019353464245796204
44.0,0.01874593086540699
48.0,0.018165094777941704
52.0,0.017604172229766846
56.0,0.017118671908974648
60.0,0.01671937294304371
64.0,0.016337241977453232
72.0,0.015485581010580063
80.0,0.014757486060261726
88.0,0.013921537436544895
96.0,0.013135559856891632
104.0,0.01252519991248846
112.0,0.011856784112751484
120.0,0.01113209780305624
128.0,0.010538604110479355
144.0,0.009447108954191208
160.0,0.008327062241733074
176.0,0.007902254350483418
192.0,0.008210888132452965
208.0,0.008257902227342129
224.0,0.008171206340193748
240.0,0.008495631627738476
256.0,0.008583246730268002
288.0,0.007645799778401852
320.0,0.006817484740167856
352.0,0.006020075175911188
384.0,0.004869748372584581
416.0,0.003390275640413165
448.0,0.001158510916866362
480.0,-0.00011429722508182749
512.0,-6.839977140771225e-05
576.0,0.0007938308408483863
640.0,0.000598060549236834
704.0,-0.0006574451108463109
768.0,-0.0005255482974462211
832.0,-0.00031611783197149634
896.0,0.0007629132596775889
960.0,0.0015568096423521638
1024.0,0.002522706985473633
1152.0,0.00019824443734250963
1280.0,-0.001658175839111209
1408.0,-0.0034281343687325716
1536.0,-0.005787361413240433
1664.0,-0.006739352364093065
1792.0,-0.010977653786540031
1920.0,-0.011540424078702927
2048.0,-0.011063710786402225
2304.0,-0.003041849471628666
2560.0,0.0017178925918415189
2816.0,0.0017577380640432239
3072.0,0.0003207427798770368
3328.0,0.004028606694191694
3584.0,0.009980007074773312
3840.0,0.01043536327779293
4096.0,0.0032129900064319372
4608.0,-0.002243477152660489
5120.0,-0.0018509700894355774
5632.0,-0.006000458728522062
6144.0,0.002616623882204294
6656.0,0.0004249673802405596
7168.0,0.0018110205419361591
end
