version,3.0
numOfCh,1
type,point
parent_name,c1204_0dot08-0dot01
ch_type,1_1
kcount,1
numberNandB,1
brightnessNandB,1
carpet pos,0
pc,0
Time (ms),CH1 Auto-Correlation
1.0,0.03249217942357063
2.0,0.03217663615942001
3.0,0.03186362236738205
4.0,0.03155352175235748
5.0,0.03125941380858421
6.0,0.030979841947555542
7.0,0.03070760890841484
8.0,0.03044533170759678
9.0,0.03018888831138611
10.0,0.029925808310508728
11.0,0.029656322672963142
12.0,0.02938215807080269
13.0,0.029110997915267944
14.0,0.028844693675637245
15.0,0.028598453849554062
16.0,0.02835530787706375
18.0,0.027866465970873833
20.0,0.027377299964427948
22.0,0.0269179567694664
24.0,0.026461994275450706
26.0,0.026038218289613724
28.0,0.02563098818063736
30.0,0.02522294595837593
32.0,0.024828940629959106
36.0,0.024070167914032936
40.0,0.023398304358124733
44.0,0.022835228592157364
48.0,0.02234796993434429
52.0,0.021916257217526436
56.0,0.021532105281949043
60.0,0.02117367647588253
64.0,0.02079113759100437
72.0,0.02002963423728943
80.0,0.019216619431972504
88.0,0.01854311116039753
96.0,0.017999419942498207
104.0,0.01750349998474121
112.0,0.01704624481499195
120.0,0.016487469896674156
128.0,0.015799803659319878
144.0,0.014460273087024689
160.0,0.013438332825899124
176.0,0.012748745270073414
192.0,0.012068845331668854
208.0,0.011401738040149212
224.0,0.010529440827667713
240.0,0.00951477512717247
256.0,0.008504497818648815
288.0,0.006329392548650503
320.0,0.004509238991886377
352.0,0.0028979782946407795
384.0,0.00114775775000453
416.0,0.0003878254210576415
448.0,-0.0001445376401534304
480.0,-0.0008755382150411606
512.0,-0.002444390906020999
576.0,-0.004590172786265612
640.0,-0.005561963655054569
704.0,-0.004205438774079084
768.0,-0.003139988286420703
832.0,-0.0029261447489261627
896.0,-0.0009483785834163427
960.0,0.00043180910870432854
1024.0,-0.00019605339912232012
1152.0,0.0008770728018134832
1280.0,0.0025415215641260147
1408.0,0.0026580761186778545
1536.0,0.0014958428218960762
1664.0,-0.0007334348047152162
1792.0,-0.0031456376891583204
1920.0,-0.0051419991068542
2048.0,-0.006752172484993935
2304.0,-0.0028565004467964172
2560.0,0.003716415259987116
2816.0,0.0011208818759769201
3072.0,-0.006841209251433611
3328.0,-0.004241438116878271
3584.0,-0.0003672901075333357
3840.0,0.004727652762085199
4096.0,0.004997540730983019
4608.0,-0.004099846351891756
5120.0,0.005070686340332031
5632.0,0.0018191433046013117
6144.0,-0.0026951117906719446
6656.0,0.0009532758267596364
7168.0,-0.005527305416762829
7680.0,-0.001334650325588882
8192.0,-0.008566119708120823
end
