version,3.0
numOfCh,1
type,point
parent_name,c1204_0dot08-0dot01
ch_type,1_1
kcount,1
numberNandB,1
brightnessNandB,1
carpet pos,0
pc,0
Time (ms),CH1 Auto-Correlation
1.0,0.032370924949645996
2.0,0.032080549746751785
3.0,0.03178860992193222
4.0,0.031492214649915695
5.0,0.03120044618844986
6.0,0.030912330374121666
7.0,0.030643552541732788
8.0,0.030379643663764
9.0,0.030121885240077972
10.0,0.029865620657801628
11.0,0.029607299715280533
12.0,0.02935907430946827
13.0,0.029110705479979515
14.0,0.02887071669101715
15.0,0.02862653136253357
16.0,0.02839203178882599
18.0,0.027917178347706795
20.0,0.027449723333120346
22.0,0.026993725448846817
24.0,0.026523973792791367
26.0,0.026068249717354774
28.0,0.025624150410294533
30.0,0.025191523134708405
32.0,0.024772699922323227
36.0,0.0239736195653677
40.0,0.023226561024785042
44.0,0.0225463155657053
48.0,0.021943867206573486
52.0,0.021403290331363678
56.0,0.020907776430249214
60.0,0.020376455038785934
64.0,0.019796455278992653
72.0,0.01868126168847084
80.0,0.01757349632680416
88.0,0.01649216189980507
96.0,0.01549113541841507
104.0,0.014674754813313484
112.0,0.014002231881022453
120.0,0.013418233022093773
128.0,0.012878420762717724
144.0,0.01174311712384224
160.0,0.010606452822685242
176.0,0.009553646668791771
192.0,0.008588756434619427
208.0,0.00800680834800005
224.0,0.007486219052225351
240.0,0.006973030976951122
256.0,0.006414697505533695
288.0,0.005668511614203453
320.0,0.004811496008187532
352.0,0.003963300958275795
384.0,0.003399819601327181
416.0,0.003104503033682704
448.0,0.003001405391842127
480.0,0.0024339023511856794
512.0,0.001461779815144837
576.0,-0.0011305303778499365
640.0,-0.0014997015241533518
704.0,-0.0014408715069293976
768.0,-0.0005332743749022484
832.0,-0.0001221068378072232
896.0,-0.00010740245488705114
960.0,-0.001210824935697019
1024.0,-0.0019064954249188304
1152.0,-0.003174171317368746
1280.0,-0.0021838208194822073
1408.0,-0.0009686327539384365
1536.0,-0.0008368021226488054
1664.0,0.0003869254142045975
1792.0,0.0013833760749548674
1920.0,-0.000559547683224082
2048.0,-0.0008392415475100279
2304.0,0.0001482650259276852
2560.0,0.0009795963997021317
2816.0,0.0018539727898314595
3072.0,-0.0002191078820032999
3328.0,-0.0017458699876442552
3584.0,-0.004462066106498241
3840.0,-0.006055645179003477
4096.0,-0.0018492731032893062
4608.0,-0.0003215345204807818
5120.0,0.005420331377536058
5632.0,3.372771243448369e-05
6144.0,-0.003997912630438805
6656.0,-0.007454676553606987
7168.0,-0.003698368091136217
7680.0,0.00275649712421
8192.0,-9.340624092146754e-05
end
