version,3.0
numOfCh,1
type,point
parent_name,c1204_0dot08-0dot01
ch_type,1_1
kcount,1
numberNandB,1
brightnessNandB,1
carpet pos,0
pc,0
Time (ms),CH1 Auto-Correlation
1.0,0.045612651854753494
2.0,0.04535507410764694
3.0,0.045110397040843964
4.0,0.044868651777505875
5.0,0.04463043063879013
6.0,0.044397372752428055
7.0,0.04416344314813614
8.0,0.043926890939474106
9.0,0.04368520900607109
10.0,0.0434410385787487
11.0,0.043196793645620346
12.0,0.04295960068702698
13.0,0.04272114112973213
14.0,0.0424811951816082
15.0,0.04224560037255287
16.0,0.04200869798660278
18.0,0.04153848811984062
20.0,0.04107438027858734
22.0,0.040618013590574265
24.0,0.040176019072532654
26.0,0.03974234685301781
28.0,0.03933029994368553
30.0,0.03892967104911804
32.0,0.03854956105351448
36.0,0.03781720623373985
40.0,0.037089113146066666
44.0,0.03639111667871475
48.0,0.035750482231378555
52.0,0.03511274233460426
56.0,0.03448309004306793
60.0,0.03389721363782883
64.0,0.03333034738898277
72.0,0.032233938574790955
80.0,0.031174074858427048
88.0,0.03015006147325039
96.0,0.02918291464447975
104.0,0.028314370661973953
112.0,0.02745332010090351
120.0,0.02660531736910343
128.0,0.02579175867140293
144.0,0.02416929602622986
160.0,0.022572891786694527
176.0,0.021305914968252182
192.0,0.020065875723958015
208.0,0.018880052492022514
224.0,0.01767747290432453
240.0,0.016548363491892815
256.0,0.015613466501235962
288.0,0.01448216661810875
320.0,0.013482129201292992
352.0,0.012870973907411098
384.0,0.01237011794000864
416.0,0.012394940480589867
448.0,0.012551120482385159
480.0,0.012411250732839108
512.0,0.01111066248267889
576.0,0.008570139296352863
640.0,0.0069015659391880035
704.0,0.005747102666646242
768.0,0.006184075027704239
832.0,0.007443991955369711
896.0,0.006744791753590107
960.0,0.005061720963567495
1024.0,0.002716601826250553
1152.0,0.000773184874560684
1280.0,0.0008389140130020678
1408.0,0.0024537385907024145
1536.0,0.0028278199024498463
1664.0,0.005227908957749605
1792.0,0.0056738657876849174
1920.0,0.002032254356890917
2048.0,-0.0017560460837557912
2304.0,-0.003458727616816759
2560.0,-0.008919469080865383
2816.0,-0.009712069295346737
3072.0,-0.007389355916529894
3328.0,-0.006298830267041922
3584.0,-0.00791872851550579
3840.0,-0.009814431890845299
4096.0,-0.007410180289298296
4608.0,-0.006929944735020399
5120.0,-0.00014204940816853195
5632.0,-0.004500280600041151
6144.0,0.002532821847125888
6656.0,0.005428834352642298
7168.0,0.004050901625305414
7680.0,0.007564928848296404
8192.0,0.008348846808075905
end
