version,3.0
numOfCh,1
type,point
parent_name,c1204_0dot08-0dot01
ch_type,1_1
kcount,1
numberNandB,1
brightnessNandB,1
carpet pos,0
pc,0
Time (ms),CH1 Auto-Correlation
1.0,0.027207300066947937
2.0,0.026950955390930176
3.0,0.02670508436858654
4.0,0.02646503411233425
5.0,0.026234203949570656
6.0,0.02600974589586258
7.0,0.025791874155402184
8.0,0.025573115795850754
9.0,0.025353923439979553
10.0,0.025129394605755806
11.0,0.024902814999222755
12.0,0.02467522770166397
13.0,0.02444206364452839
14.0,0.02422250807285309
15.0,0.024008430540561676
16.0,0.023801064118742943
18.0,0.023386603221297264
20.0,0.02297484129667282
22.0,0.022571749985218048
24.0,0.022173691540956497
26.0,0.021782441064715385
28.0,0.02140176296234131
30.0,0.021027352660894394
32.0,0.020662274211645126
36.0,0.01989852823317051
40.0,0.01911434531211853
44.0,0.018337244167923927
48.0,0.017660176381468773
52.0,0.017027784138917923
56.0,0.016416000202298164
60.0,0.01585427112877369
64.0,0.015312908217310905
72.0,0.014356570318341255
80.0,0.013603271916508675
88.0,0.01292404718697071
96.0,0.012232760898768902
104.0,0.011607801541686058
112.0,0.01099633239209652
120.0,0.010457421652972698
128.0,0.010106735862791538
144.0,0.009387857280671597
160.0,0.009001238271594048
176.0,0.008785299956798553
192.0,0.008586381562054157
208.0,0.008650742471218109
224.0,0.008542196825146675
240.0,0.008105137385427952
256.0,0.0073421248234808445
288.0,0.005607547704130411
320.0,0.004723117221146822
352.0,0.004139264114201069
384.0,0.0038486854173243046
416.0,0.003658818081021309
448.0,0.002566670300439
480.0,0.0013324993196874857
512.0,0.0009339153184555471
576.0,-0.000252455472946167
640.0,-0.0005572957452386618
704.0,-0.000405775906983763
768.0,-0.000546912953723222
832.0,-0.0014068040763959289
896.0,-0.00174714473541826
960.0,-0.0014647318748757243
1024.0,-0.001588977873325348
1152.0,-0.0022419115994125605
1280.0,-0.0024269651621580124
1408.0,-0.004555878695100546
1536.0,-0.004512792453169823
1664.0,-0.003755010198801756
1792.0,-0.0018151882104575634
1920.0,8.159413846442476e-05
2048.0,0.0017027293797582388
2304.0,0.00230153976008296
2560.0,-0.000403873244067654
2816.0,-0.0017316985176876187
3072.0,0.00201524724252522
3328.0,0.0031775981187820435
3584.0,-0.0012514053378254175
3840.0,-0.0027526358608156443
4096.0,-0.0008038404048420489
4608.0,-0.0038643223233520985
5120.0,0.0006451368681155145
5632.0,0.007676958572119474
6144.0,0.0024663242511451244
6656.0,-0.0031297241803258657
7168.0,-0.009041120298206806
7680.0,-0.0090118907392025
8192.0,-0.018577948212623596
end
