version,3.0
numOfCh,1
type,point
parent_name,c1204_0dot08-0dot01
ch_type,1_1
kcount,1
numberNandB,1
brightnessNandB,1
carpet pos,0
pc,0
Time (ms),CH1 Auto-Correlation
1.0,0.6734370589256287
2.0,0.6724404692649841
3.0,0.6714524030685425
4.0,0.6704984307289124
5.0,0.6695520877838135
6.0,0.6685589551925659
7.0,0.6675940155982971
8.0,0.6666201949119568
9.0,0.6656928658485413
10.0,0.6648173332214355
11.0,0.6639042496681213
12.0,0.6629905700683594
13.0,0.6620398163795471
14.0,0.6610801219940186
15.0,0.6601498126983643
16.0,0.6591739654541016
18.0,0.6569350957870483
20.0,0.654924213886261
22.0,0.6527721285820007
24.0,0.6504812240600586
26.0,0.6480907201766968
28.0,0.6457812190055847
30.0,0.6435554623603821
32.0,0.6413783431053162
36.0,0.6375077962875366
40.0,0.6337960362434387
44.0,0.6301575899124146
48.0,0.6263117790222168
52.0,0.6226716637611389
56.0,0.6191756725311279
60.0,0.6157783269882202
64.0,0.6125171780586243
72.0,0.6033106446266174
80.0,0.5956090092658997
88.0,0.5883851051330566
96.0,0.5808817744255066
104.0,0.5723961591720581
112.0,0.5657446980476379
120.0,0.5603306889533997
128.0,0.5548645853996277
144.0,0.5449445247650146
160.0,0.5391791462898254
176.0,0.5339242219924927
192.0,0.5294691920280457
208.0,0.5275939106941223
224.0,0.5282977223396301
240.0,0.528520405292511
256.0,0.5287670493125916
288.0,0.525226891040802
320.0,0.5135373473167419
352.0,0.4986763894557953
384.0,0.4876869022846222
416.0,0.48039284348487854
448.0,0.48153939843177795
480.0,0.481731653213501
512.0,0.479884535074234
576.0,0.44773319363594055
640.0,0.4077734351158142
704.0,0.36744293570518494
768.0,0.3433973491191864
832.0,0.33398550748825073
896.0,0.32321426272392273
960.0,0.30523765087127686
1024.0,0.27523577213287354
1152.0,0.1863967478275299
1280.0,0.14509181678295135
1408.0,0.1259283721446991
1536.0,0.09403665363788605
1664.0,0.04705007001757622
1792.0,0.030346307903528214
1920.0,0.04626499488949776
2048.0,0.010479406453669071
2304.0,-0.04333527758717537
2560.0,-0.04943940043449402
2816.0,-0.0697941705584526
3072.0,-0.0698467567563057
3328.0,-0.09669969230890274
3584.0,-0.09975311160087585
3840.0,-0.1203308030962944
4096.0,-0.14425157010555267
4608.0,-0.18531131744384766
5120.0,-0.24293960630893707
5632.0,-0.2786356508731842
6144.0,-0.32560810446739197
6656.0,-0.4040125012397766
7168.0,-0.6280453205108643
7680.0,-0.7968534827232361
8192.0,-0.7343924641609192
end
