version,3.0
numOfCh,1
type,point
parent_name,c1204_0dot08-0dot01
ch_type,1_1
kcount,1
numberNandB,1
brightnessNandB,1
carpet pos,0
pc,0
Time (ms),CH1 Auto-Correlation
1.0,0.11512487381696701
2.0,0.11469827592372894
3.0,0.11427974700927734
4.0,0.11384173482656479
5.0,0.11340785771608353
6.0,0.11299528926610947
7.0,0.11258123070001602
8.0,0.1121479943394661
9.0,0.11172176152467728
10.0,0.11127956211566925
11.0,0.11083900183439255
12.0,0.11040941625833511
13.0,0.11000153422355652
14.0,0.1096041351556778
15.0,0.10919339209794998
16.0,0.10880553722381592
18.0,0.10804019868373871
20.0,0.10726000368595123
22.0,0.10648739337921143
24.0,0.1056823804974556
26.0,0.10483285039663315
28.0,0.1039394959807396
30.0,0.10305462032556534
32.0,0.10217151790857315
36.0,0.1004861444234848
40.0,0.09878509491682053
44.0,0.09694898873567581
48.0,0.09493617713451385
52.0,0.09289741516113281
56.0,0.0907629132270813
60.0,0.08867824822664261
64.0,0.08659695833921432
72.0,0.08287841081619263
80.0,0.07947371155023575
88.0,0.07614147663116455
96.0,0.07274790853261948
104.0,0.06966671347618103
112.0,0.0666426494717598
120.0,0.06378350406885147
128.0,0.06107555329799652
144.0,0.05546412616968155
160.0,0.04925013706088066
176.0,0.04349967837333679
192.0,0.0386219322681427
208.0,0.03440636396408081
224.0,0.03184735029935837
240.0,0.03002917766571045
256.0,0.029150692746043205
288.0,0.02634894847869873
320.0,0.021725110709667206
352.0,0.016796080395579338
384.0,0.01270964089781046
416.0,0.008597537875175476
448.0,0.004823076073080301
480.0,0.0014602948212996125
512.0,-0.0014206598279997706
576.0,-0.005083008669316769
640.0,-0.004482841584831476
704.0,-0.0020501480903476477
768.0,0.00152535957749933
832.0,0.005844856146723032
896.0,0.005566402338445187
960.0,0.0030330405570566654
1024.0,-0.004214358050376177
1152.0,-0.01236458495259285
1280.0,-0.014211372472345829
1408.0,-0.00825411919504404
1536.0,-0.02208791859447956
1664.0,-0.026211438700556755
1792.0,-0.02203170396387577
1920.0,-0.021688979119062424
2048.0,-0.017443424090743065
2304.0,0.0009633254376240075
2560.0,-0.000670664245262742
2816.0,0.0006485131452791393
3072.0,0.014444959349930286
3328.0,0.007311352528631687
3584.0,-0.029142919927835464
3840.0,-0.03954329341650009
4096.0,-0.02170443721115589
end
