version,3.0
numOfCh,1
type,point
parent_name,c1204_0dot08-0dot01
ch_type,1_1
kcount,1
numberNandB,1
brightnessNandB,1
carpet pos,0
pc,0
Time (ms),CH1 Auto-Correlation
1.0,0.04150274023413658
2.0,0.04123741015791893
3.0,0.0409696064889431
4.0,0.040715113282203674
5.0,0.04047020152211189
6.0,0.04023892059922218
7.0,0.040011804550886154
8.0,0.0397883802652359
9.0,0.03956713154911995
10.0,0.03936123475432396
11.0,0.03916097432374954
12.0,0.03895244747400284
13.0,0.038750384002923965
14.0,0.03854529187083244
15.0,0.03833698108792305
16.0,0.03812836483120918
18.0,0.0377025306224823
20.0,0.037298332899808884
22.0,0.036912064999341965
24.0,0.03654445335268974
26.0,0.036202579736709595
28.0,0.03588355705142021
30.0,0.03556392341852188
32.0,0.035253215581178665
36.0,0.03463142737746239
40.0,0.03405413404107094
44.0,0.033519260585308075
48.0,0.032985884696245193
52.0,0.03245620056986809
56.0,0.03192269057035446
60.0,0.0313725620508194
64.0,0.030854564160108566
72.0,0.029925556853413582
80.0,0.029136642813682556
88.0,0.0283217616379261
96.0,0.027415094897150993
104.0,0.026523087173700333
112.0,0.02570776641368866
120.0,0.024912329390645027
128.0,0.024097807705402374
144.0,0.02242790348827839
160.0,0.020843658596277237
176.0,0.019587865099310875
192.0,0.018631016835570335
208.0,0.01783437468111515
224.0,0.01701434515416622
240.0,0.01636417955160141
256.0,0.015747200697660446
288.0,0.014772044494748116
320.0,0.014183863066136837
352.0,0.013685216195881367
384.0,0.01335958857089281
416.0,0.012943963520228863
448.0,0.012754643335938454
480.0,0.01283570658415556
512.0,0.012531167827546597
576.0,0.011528180912137032
640.0,0.010754688642919064
704.0,0.010129795409739017
768.0,0.008391926065087318
832.0,0.00710800476372242
896.0,0.005792939104139805
960.0,0.00546747911721468
1024.0,0.005252612754702568
1152.0,0.0044914958998560905
1280.0,0.00263492320664227
1408.0,0.0031045612413436174
1536.0,0.004175251815468073
1664.0,0.0029633757658302784
1792.0,0.003379272297024727
1920.0,0.006766600534319878
2048.0,0.009256621822714806
2304.0,0.00405149394646287
2560.0,-0.0023734443821012974
2816.0,-0.003914790228009224
3072.0,-0.0028833914548158646
3328.0,-0.00590879749506712
3584.0,-0.007386926095932722
3840.0,-0.004822157323360443
4096.0,-0.005302283447235823
4608.0,-0.007336867041885853
5120.0,-0.010350455529987812
5632.0,-0.011092151515185833
6144.0,-0.00970911793410778
6656.0,-0.0029025233816355467
7168.0,0.001748806331306696
7680.0,0.0008761741919443011
8192.0,-0.0017198427813127637
end
