version,3.0
numOfCh,1
type,point
parent_name,c1204_0dot08-0dot01
ch_type,1_1
kcount,1
numberNandB,1
brightnessNandB,1
carpet pos,0
pc,0
Time (ms),CH1 Auto-Correlation
1.0,0.03979533165693283
2.0,0.03953273966908455
3.0,0.03927554562687874
4.0,0.03902268409729004
5.0,0.03877817094326019
6.0,0.03853219747543335
7.0,0.038288868963718414
8.0,0.03805072233080864
9.0,0.03781014308333397
10.0,0.03757770359516144
11.0,0.037347447127103806
12.0,0.03711916506290436
13.0,0.036891620606184006
14.0,0.03666945919394493
15.0,0.03643932566046715
16.0,0.036217473447322845
18.0,0.03578869253396988
20.0,0.035369474440813065
22.0,0.034953322261571884
24.0,0.03454122319817543
26.0,0.03413049876689911
28.0,0.03372249752283096
30.0,0.03330991789698601
32.0,0.03290075436234474
36.0,0.03213046118617058
40.0,0.03140513598918915
44.0,0.030715642496943474
48.0,0.030041828751564026
52.0,0.029403692111372948
56.0,0.02880561724305153
60.0,0.028231557458639145
64.0,0.02770203724503517
72.0,0.026736898347735405
80.0,0.025830181315541267
88.0,0.025015579536557198
96.0,0.02435476705431938
104.0,0.023682966828346252
112.0,0.02305278554558754
120.0,0.022479310631752014
128.0,0.021845068782567978
144.0,0.02071979269385338
160.0,0.019671278074383736
176.0,0.018584677949547768
192.0,0.017273463308811188
208.0,0.016040338203310966
224.0,0.015072910115122795
240.0,0.01425962708890438
256.0,0.013436664827167988
288.0,0.011282929219305515
320.0,0.008904527872800827
352.0,0.006449373904615641
384.0,0.004917435348033905
416.0,0.0045508649200201035
448.0,0.0044662063010036945
480.0,0.003834677394479513
512.0,0.0031459310557693243
576.0,0.0014083426212891936
640.0,0.00032957360963337123
704.0,0.0007713852101005614
768.0,0.0010992219904437661
832.0,0.0004702708392869681
896.0,-4.598069790517911e-05
960.0,-0.0007315641851164401
1024.0,-0.0019226687727496028
1152.0,-0.003972799517214298
1280.0,-0.003395027481019497
1408.0,-0.004644423723220825
1536.0,-0.001465670415200293
1664.0,-0.0011397461639717221
1792.0,0.00036039893166162074
1920.0,0.0004635444493032992
2048.0,-9.724586561787874e-05
2304.0,-0.006708656437695026
2560.0,-0.008769494481384754
2816.0,-0.0027597746811807156
3072.0,-0.0042145573534071445
3328.0,-0.006235972978174686
3584.0,-0.0076544382609426975
3840.0,-0.008440886624157429
4096.0,-0.0053229983896017075
4608.0,-0.00019892625277861953
5120.0,0.00621877470985055
5632.0,0.0023673439864069223
6144.0,0.005990300327539444
6656.0,0.011188264936208725
7168.0,0.0039359210059046745
7680.0,-0.00026638185954652727
8192.0,-0.0058874282985925674
end
