version,3.0
numOfCh,1
type,point
parent_name,c1204_0dot08-0dot01
ch_type,1_1
kcount,1
numberNandB,1
brightnessNandB,1
carpet pos,0
pc,0
Time (ms),CH1 Auto-Correlation
1.0,0.25485265254974365
2.0,0.2537171542644501
3.0,0.25260815024375916
4.0,0.25155624747276306
5.0,0.25052309036254883
6.0,0.24949154257774353
7.0,0.24844211339950562
8.0,0.24739256501197815
9.0,0.24633267521858215
10.0,0.24527274072170258
11.0,0.2442169338464737
12.0,0.24312834441661835
13.0,0.24199500679969788
14.0,0.24088679254055023
15.0,0.2398151010274887
16.0,0.23879404366016388
18.0,0.23648779094219208
20.0,0.23446834087371826
22.0,0.2323666214942932
24.0,0.23018817603588104
26.0,0.2280835658311844
28.0,0.22616156935691833
30.0,0.22424906492233276
32.0,0.2223159819841385
36.0,0.2186710685491562
40.0,0.21532191336154938
44.0,0.2118067592382431
48.0,0.20869840681552887
52.0,0.20578312873840332
56.0,0.20317600667476654
60.0,0.20093943178653717
64.0,0.19897456467151642
72.0,0.19689437747001648
80.0,0.1959323137998581
88.0,0.1953359991312027
96.0,0.1948835849761963
104.0,0.19395220279693604
112.0,0.19349630177021027
120.0,0.19360513985157013
128.0,0.19319815933704376
144.0,0.18972817063331604
160.0,0.18745620548725128
176.0,0.1838296353816986
192.0,0.1797095239162445
208.0,0.176709845662117
224.0,0.17338372766971588
240.0,0.1698882281780243
256.0,0.16861367225646973
288.0,0.16674906015396118
320.0,0.1621064841747284
352.0,0.16086328029632568
384.0,0.16443726420402527
416.0,0.15993613004684448
448.0,0.1479104608297348
480.0,0.14082948863506317
512.0,0.13924024999141693
576.0,0.14018338918685913
640.0,0.13949480652809143
704.0,0.15052857995033264
768.0,0.1397010087966919
832.0,0.13383269309997559
896.0,0.12091398984193802
960.0,0.11847058683633804
1024.0,0.10248246043920517
1152.0,0.0628402903676033
1280.0,0.04434401914477348
1408.0,0.04088473320007324
1536.0,0.03333040699362755
1664.0,0.03004644066095352
1792.0,0.020919576287269592
1920.0,0.005788327194750309
2048.0,0.005178047344088554
2304.0,0.0034660089295357466
2560.0,0.00018888324848376215
2816.0,-0.010779744945466518
3072.0,-0.025542331859469414
3328.0,-0.03559178486466408
3584.0,-0.038083817809820175
3840.0,-0.04804392531514168
4096.0,-0.0578160434961319
4608.0,-0.07506832480430603
5120.0,-0.09631875902414322
5632.0,-0.10159792006015778
6144.0,-0.08889857679605484
6656.0,-0.08737944066524506
7168.0,-0.12912802398204803
7680.0,-0.18679365515708923
8192.0,-0.22138644754886627
end
