version,3.0
numOfCh,1
type,point
parent_name,c1204_0dot08-0dot01
ch_type,1_1
kcount,1
numberNandB,1
brightnessNandB,1
carpet pos,0
pc,0
Time (ms),CH1 Auto-Correlation
1.0,0.13959898054599762
2.0,0.1387273520231247
3.0,0.13781848549842834
4.0,0.13690976798534393
5.0,0.1360110193490982
6.0,0.13508565723896027
7.0,0.13421382009983063
8.0,0.1333826631307602
9.0,0.13258635997772217
10.0,0.13177131116390228
11.0,0.1309272199869156
12.0,0.1300869733095169
13.0,0.1291714310646057
14.0,0.12831592559814453
15.0,0.12747471034526825
16.0,0.12658266723155975
18.0,0.12465857714414597
20.0,0.12296456843614578
22.0,0.12127504497766495
24.0,0.11961794644594193
26.0,0.11825162172317505
28.0,0.11703889071941376
30.0,0.1158241331577301
32.0,0.1146918386220932
36.0,0.1126963198184967
40.0,0.11088880896568298
44.0,0.10920977592468262
48.0,0.10766363143920898
52.0,0.10654664784669876
56.0,0.10563784837722778
60.0,0.10482213646173477
64.0,0.10429058969020844
72.0,0.10186668485403061
80.0,0.09979387372732162
88.0,0.09720952808856964
96.0,0.09433309733867645
104.0,0.09191341698169708
112.0,0.08965210616588593
120.0,0.08771392703056335
128.0,0.08697690069675446
144.0,0.08702650666236877
160.0,0.08730854839086533
176.0,0.0849580392241478
192.0,0.08101467043161392
208.0,0.07764501869678497
224.0,0.07534053176641464
240.0,0.07241978496313095
256.0,0.06883206218481064
288.0,0.06165071576833725
320.0,0.05547225475311279
352.0,0.048264674842357635
384.0,0.04833901301026344
416.0,0.04802472144365311
448.0,0.046130698174238205
480.0,0.04686593636870384
512.0,0.04268116131424904
576.0,0.03797382116317749
640.0,0.03885197266936302
704.0,0.039387140423059464
768.0,0.03593761846423149
832.0,0.03410441055893898
896.0,0.03280768170952797
960.0,0.033490125089883804
1024.0,0.034168001264333725
1152.0,0.04077351838350296
1280.0,0.03818999230861664
1408.0,0.02496088482439518
1536.0,0.024435898289084435
1664.0,0.023693986237049103
1792.0,0.015645483508706093
1920.0,-0.0018379436805844307
2048.0,-0.014313723891973495
2304.0,-0.02593175694346428
2560.0,-0.03910720720887184
2816.0,-0.059648964554071426
3072.0,-0.0741250142455101
3328.0,-0.0705844908952713
3584.0,-0.09336256235837936
3840.0,-0.08628107607364655
4096.0,-0.052991196513175964
end
