version,3.0
numOfCh,1
type,point
parent_name,c1204_0dot08-0dot01
ch_type,1_1
kcount,1
numberNandB,1
brightnessNandB,1
carpet pos,0
pc,0
Time (ms),CH1 Auto-Correlation
1.0,0.03381604701280594
2.0,0.03354836627840996
3.0,0.03327842801809311
4.0,0.03300989419221878
5.0,0.032743629068136215
6.0,0.032484907656908035
7.0,0.03223775699734688
8.0,0.031997401267290115
9.0,0.03176894783973694
10.0,0.03153643757104874
11.0,0.031307026743888855
12.0,0.031082455068826675
13.0,0.03085245192050934
14.0,0.030628710985183716
15.0,0.030409768223762512
16.0,0.030185922980308533
18.0,0.029743922874331474
20.0,0.02930365689098835
22.0,0.02886236645281315
24.0,0.02842322178184986
26.0,0.027996720746159554
28.0,0.027580657973885536
30.0,0.027186600491404533
32.0,0.02678169310092926
36.0,0.025986596941947937
40.0,0.025266582146286964
44.0,0.024603696539998055
48.0,0.02394556812942028
52.0,0.02328089065849781
56.0,0.02260604128241539
60.0,0.021918844431638718
64.0,0.021270127967000008
72.0,0.02002398483455181
80.0,0.018886862322688103
88.0,0.01794150471687317
96.0,0.017081772908568382
104.0,0.016223838552832603
112.0,0.015304726548492908
120.0,0.014450331218540668
128.0,0.013696584850549698
144.0,0.012424253858625889
160.0,0.011267260648310184
176.0,0.010243845172226429
192.0,0.009334527887403965
208.0,0.0086070466786623
224.0,0.008185885846614838
240.0,0.007981953211128712
256.0,0.007789478171616793
288.0,0.007724333088845015
320.0,0.0076861451379954815
352.0,0.007139328867197037
384.0,0.006334840785712004
416.0,0.006018706131726503
448.0,0.0064149051904678345
480.0,0.006503417622298002
512.0,0.006727446336299181
576.0,0.005411222577095032
640.0,0.0025930057745426893
704.0,0.001150165917351842
768.0,0.0007862218772061169
832.0,-7.342850585700944e-05
896.0,-0.0012318076333031058
960.0,-0.001059201662428677
1024.0,-0.00022192140750121325
1152.0,0.005009765271097422
1280.0,0.002770050661638379
1408.0,0.0005409289733506739
1536.0,-0.0007894448353908956
1664.0,-0.00041753650293685496
1792.0,-0.0026859918143600225
1920.0,-0.000280690670479089
2048.0,-5.4290456318994984e-05
2304.0,0.00026595985400490463
2560.0,0.001818827004171908
2816.0,-0.0028523725923150778
3072.0,-0.0010399245657026768
3328.0,0.0014432631433010101
3584.0,0.004259848967194557
3840.0,0.003153109224513173
4096.0,-0.0012849548365920782
4608.0,0.0002575193939264864
5120.0,-0.00034940693876706064
5632.0,-0.0030542281456291676
6144.0,-0.004151367582380772
6656.0,-0.0046455697156488895
7168.0,-0.00041078287176787853
7680.0,-0.0032301684841513634
8192.0,-0.004306526388972998
end
