version,3.0
numOfCh,1
type,point
parent_name,c1204_0dot08-0dot01
ch_type,1_1
kcount,1
numberNandB,1
brightnessNandB,1
carpet pos,0
pc,0
Time (ms),CH1 Auto-Correlation
1.0,0.03924262151122093
2.0,0.03896307572722435
3.0,0.03868258744478226
4.0,0.03841443359851837
5.0,0.038149625062942505
6.0,0.0378856286406517
7.0,0.0376269705593586
8.0,0.03736694157123566
9.0,0.037117019295692444
10.0,0.03686375916004181
11.0,0.03661743551492691
12.0,0.03638087585568428
13.0,0.036154910922050476
14.0,0.035935740917921066
15.0,0.035715632140636444
16.0,0.03550298884510994
18.0,0.03507332503795624
20.0,0.034660909324884415
22.0,0.03425886854529381
24.0,0.033869609236717224
26.0,0.03349369391798973
28.0,0.03313324600458145
30.0,0.03279298171401024
32.0,0.03249567374587059
36.0,0.031958356499671936
40.0,0.03147216886281967
44.0,0.031006187200546265
48.0,0.030550917610526085
52.0,0.030128387734293938
56.0,0.029708649963140488
60.0,0.0293105598539114
64.0,0.02890709415078163
72.0,0.02805987559258938
80.0,0.027244389057159424
88.0,0.02646661177277565
96.0,0.02576438896358013
104.0,0.025216687470674515
112.0,0.024735823273658752
120.0,0.024268317967653275
128.0,0.023723579943180084
144.0,0.022633276879787445
160.0,0.021593447774648666
176.0,0.020547041669487953
192.0,0.01957208290696144
208.0,0.018719041720032692
224.0,0.01827457919716835
240.0,0.017740970477461815
256.0,0.017195964232087135
288.0,0.015799617394804955
320.0,0.014053495600819588
352.0,0.012182680889964104
384.0,0.01112405676394701
416.0,0.010971827432513237
448.0,0.010993754491209984
480.0,0.010870374739170074
512.0,0.010192005895078182
576.0,0.008389244787395
640.0,0.007188871502876282
704.0,0.006624891888350248
768.0,0.006106846034526825
832.0,0.006634578574448824
896.0,0.00710549671202898
960.0,0.007638012059032917
1024.0,0.008874321356415749
1152.0,0.010174043476581573
1280.0,0.008639197796583176
1408.0,0.006655971985310316
1536.0,0.0034047127701342106
1664.0,0.0009157538879662752
1792.0,-0.0010938341729342937
1920.0,-0.0015962658217176795
2048.0,-0.0007910252898000181
2304.0,-0.0026360510382801294
2560.0,-0.002438458614051342
2816.0,-0.0043741436675190926
3072.0,-0.005052811466157436
3328.0,-0.004878722131252289
3584.0,-0.005550983361899853
3840.0,-0.005587321240454912
4096.0,-0.004164972808212042
4608.0,-0.00529099814593792
5120.0,-0.0050661033019423485
5632.0,-0.005087884608656168
6144.0,-0.0024095678236335516
6656.0,-0.002749923150986433
7168.0,-0.005755926948040724
7680.0,0.005003244150429964
8192.0,-0.001873063389211893
end
