version,3.0
numOfCh,1
type,point
parent_name,c1204_0dot08-0dot01
ch_type,1_1
kcount,1
numberNandB,1
brightnessNandB,1
carpet pos,0
pc,0
Time (ms),CH1 Auto-Correlation
1.0,0.04177716746926308
2.0,0.041496094316244125
3.0,0.04122220352292061
4.0,0.040942929685115814
5.0,0.040667127817869186
6.0,0.04040222242474556
7.0,0.04014131426811218
8.0,0.0398855097591877
9.0,0.03962799906730652
10.0,0.03937464579939842
11.0,0.039124228060245514
12.0,0.038870714604854584
13.0,0.03861187398433685
14.0,0.03835788741707802
15.0,0.03811167553067207
16.0,0.03787076473236084
18.0,0.03739064186811447
20.0,0.03694276884198189
22.0,0.036508917808532715
24.0,0.03609985485672951
26.0,0.03569049760699272
28.0,0.035269077867269516
30.0,0.03485953062772751
32.0,0.034470606595277786
36.0,0.03373747691512108
40.0,0.03308779001235962
44.0,0.03246666491031647
48.0,0.031854383647441864
52.0,0.031273312866687775
56.0,0.030730262398719788
60.0,0.03021516278386116
64.0,0.02969464845955372
72.0,0.028624245896935463
80.0,0.027571281418204308
88.0,0.026417873799800873
96.0,0.025282399728894234
104.0,0.024318397045135498
112.0,0.023356398567557335
120.0,0.02239256165921688
128.0,0.02154880203306675
144.0,0.020101528614759445
160.0,0.019053522497415543
176.0,0.01813359186053276
192.0,0.017189811915159225
208.0,0.016214149072766304
224.0,0.01566476747393608
240.0,0.015143309719860554
256.0,0.014648418873548508
288.0,0.013430597260594368
320.0,0.012532871216535568
352.0,0.011108063161373138
384.0,0.010021938942372799
416.0,0.009039587341248989
448.0,0.008278404362499714
480.0,0.007820338010787964
512.0,0.008316833525896072
576.0,0.009489087387919426
640.0,0.0086697181686759
704.0,0.007060115225613117
768.0,0.00608846778050065
832.0,0.005749119911342859
896.0,0.002902259584516287
960.0,0.00025870403624139726
1024.0,-3.796605233219452e-05
1152.0,0.003062641713768244
1280.0,0.0011992453364655375
1408.0,-0.0009631947614252567
1536.0,-0.0028575013857334852
1664.0,-0.00389364967122674
1792.0,-0.0042282892391085625
1920.0,-0.007796792779117823
2048.0,-0.0125809907913208
2304.0,-0.015014349482953548
2560.0,-0.010171487927436829
2816.0,-0.008807472884654999
3072.0,-0.006812097039073706
3328.0,-0.005364368669688702
3584.0,-0.003923659212887287
3840.0,-0.0017551156925037503
4096.0,0.0010506012476980686
4608.0,0.0005627520149573684
5120.0,-0.0019301206339150667
5632.0,0.00032310656388290226
6144.0,-0.006051849108189344
6656.0,0.01187267154455185
7168.0,0.0015086634084582329
7680.0,0.009771013632416725
8192.0,0.008256197907030582
end
