version,3.0
numOfCh,1
type,point
parent_name,c1204_0dot08-0dot01
ch_type,1_1
kcount,1
numberNandB,1
brightnessNandB,1
carpet pos,0
pc,0
Time (ms),CH1 Auto-Correlation
1.0,0.03304572030901909
2.0,0.03275982663035393
3.0,0.03247760236263275
4.0,0.032198406755924225
5.0,0.03192746266722679
6.0,0.03165893629193306
7.0,0.03140980005264282
8.0,0.031158652156591415
9.0,0.03091193176805973
10.0,0.030681265518069267
11.0,0.030461356043815613
12.0,0.03024529479444027
13.0,0.03002331033349037
14.0,0.02980915457010269
15.0,0.029604606330394745
16.0,0.029382208362221718
18.0,0.0289542805403471
20.0,0.028534770011901855
22.0,0.028128543868660927
24.0,0.02773200161755085
26.0,0.027344748377799988
28.0,0.02697467803955078
30.0,0.026621179655194283
32.0,0.026275429874658585
36.0,0.025564594194293022
40.0,0.02489185892045498
44.0,0.024266637861728668
48.0,0.02369420975446701
52.0,0.023171842098236084
56.0,0.022655537351965904
60.0,0.022148601710796356
64.0,0.02166777290403843
72.0,0.02071741223335266
80.0,0.019968491047620773
88.0,0.019356131553649902
96.0,0.018862754106521606
104.0,0.018285250291228294
112.0,0.017688602209091187
120.0,0.016992881894111633
128.0,0.01637800596654415
144.0,0.015295264311134815
160.0,0.014342263340950012
176.0,0.013364509679377079
192.0,0.012722550891339779
208.0,0.01201279740780592
224.0,0.011122150346636772
240.0,0.010358566418290138
256.0,0.00983448512852192
288.0,0.008849667385220528
320.0,0.00757748493924737
352.0,0.006736225448548794
384.0,0.006360739003866911
416.0,0.006082007195800543
448.0,0.005087797064334154
480.0,0.003595195012167096
512.0,0.002266296185553074
576.0,0.0012064629700034857
640.0,0.0021476061083376408
704.0,0.0033015678636729717
768.0,0.0029281440656632185
832.0,0.002572491765022278
896.0,0.0008247975492849946
960.0,-0.00023153606161940843
1024.0,-0.00034145524841733277
1152.0,0.0006357833044603467
1280.0,0.001035122200846672
1408.0,-0.00042978086275979877
1536.0,-0.0035851835273206234
1664.0,-0.005309706088155508
1792.0,-0.0052577899768948555
1920.0,-0.0046258228830993176
2048.0,-0.0013618605444207788
2304.0,0.0013584067346528172
2560.0,0.0009757622610777617
2816.0,-0.0021724647376686335
3072.0,-0.0018249546410515904
3328.0,-0.0027376317884773016
3584.0,-0.0038219785783439875
3840.0,-0.0033365734852850437
4096.0,-0.004817511420696974
4608.0,-0.0070647504180669785
5120.0,-0.006450117565691471
5632.0,-0.002525454154238105
6144.0,0.004113639704883099
6656.0,0.00648126658052206
7168.0,0.00019403027545195073
7680.0,-0.0013241962296888232
8192.0,-0.0006010975921526551
end
