version,3.0
numOfCh,1
type,point
parent_name,c1204_0dot08-0dot01
ch_type,1_1
kcount,1
numberNandB,1
brightnessNandB,1
carpet pos,0
pc,0
Time (ms),CH1 Auto-Correlation
1.0,0.02887573651969433
2.0,0.028633972629904747
3.0,0.028391975909471512
4.0,0.028161708265542984
5.0,0.027931952849030495
6.0,0.02770140767097473
7.0,0.027472101151943207
8.0,0.027247266843914986
9.0,0.02702398970723152
10.0,0.02679603174328804
11.0,0.026576289907097816
12.0,0.026362808421254158
13.0,0.026146577671170235
14.0,0.025931065902113914
15.0,0.025716202333569527
16.0,0.025508295744657516
18.0,0.025105947628617287
20.0,0.024724740535020828
22.0,0.024360576644539833
24.0,0.023990703746676445
26.0,0.023620111867785454
28.0,0.02325054444372654
30.0,0.022891636937856674
32.0,0.022541867569088936
36.0,0.021865200251340866
40.0,0.021225066855549812
44.0,0.020604485645890236
48.0,0.01999049447476864
52.0,0.01941678673028946
56.0,0.0188685841858387
60.0,0.018343372270464897
64.0,0.017861563712358475
72.0,0.016970759257674217
80.0,0.016244005411863327
88.0,0.01564297080039978
96.0,0.015083693899214268
104.0,0.014615384861826897
112.0,0.01412826869636774
120.0,0.013599669560790062
128.0,0.013171939179301262
144.0,0.012373124249279499
160.0,0.011559195816516876
176.0,0.01073802262544632
192.0,0.009999469853937626
208.0,0.009465438313782215
224.0,0.009157548658549786
240.0,0.009042738936841488
256.0,0.008778980001807213
288.0,0.008037528954446316
320.0,0.007506512105464935
352.0,0.006931201089173555
384.0,0.006326216738671064
416.0,0.006035337690263987
448.0,0.005643371492624283
480.0,0.005169188603758812
512.0,0.004702932666987181
576.0,0.004823246039450169
640.0,0.004424540791660547
704.0,0.003668194403871894
768.0,0.002417127601802349
832.0,0.002149259438738227
896.0,0.0023737510200589895
960.0,0.002762847812846303
1024.0,0.00269531412050128
1152.0,0.0007028048858046532
1280.0,-0.000306448811898008
1408.0,-0.0009370720363222063
1536.0,-0.0007505661924369633
1664.0,-0.002155038295313716
1792.0,-0.0017187806079164147
1920.0,-0.0010246073361486197
2048.0,-0.000540133158210665
2304.0,0.000947546970564872
2560.0,-0.000603258318733424
2816.0,-0.0034452895633876324
3072.0,-6.223023774509784e-06
3328.0,0.0008003730326890945
3584.0,-0.0007142515387386084
3840.0,-0.0027636305894702673
4096.0,-0.0021412442438304424
4608.0,-0.0036714428570121527
5120.0,-0.006214217282831669
5632.0,-0.005714474245905876
6144.0,-0.005353947170078754
6656.0,-0.0025882411282509565
7168.0,0.0032658239360898733
7680.0,0.0038717512506991625
8192.0,0.001867542858235538
end
