version,3.0
numOfCh,1
type,point
parent_name,c1204_0dot08-0dot01
ch_type,1_1
kcount,1
numberNandB,1
brightnessNandB,1
carpet pos,0
pc,0
Time (ms),CH1 Auto-Correlation
1.0,0.03631681948900223
2.0,0.03603881224989891
3.0,0.03576219454407692
4.0,0.035482462495565414
5.0,0.03520342335104942
6.0,0.03492951765656471
7.0,0.03466629609465599
8.0,0.034410327672958374
9.0,0.034166768193244934
10.0,0.03392501547932625
11.0,0.03368782997131348
12.0,0.033458106219768524
13.0,0.03323410451412201
14.0,0.033014677464962006
15.0,0.03280769661068916
16.0,0.03259853273630142
18.0,0.032195258885622025
20.0,0.031804002821445465
22.0,0.03142732009291649
24.0,0.03105129860341549
26.0,0.03067687526345253
28.0,0.030308760702610016
30.0,0.029951008036732674
32.0,0.029602007940411568
36.0,0.028954165056347847
40.0,0.028286537155508995
44.0,0.02762361243367195
48.0,0.02692115306854248
52.0,0.026224102824926376
56.0,0.025562239810824394
60.0,0.024915285408496857
64.0,0.024301286786794662
72.0,0.023170312866568565
80.0,0.02211899496614933
88.0,0.02111159637570381
96.0,0.020181026309728622
104.0,0.019422639161348343
112.0,0.018634576350450516
120.0,0.017909178510308266
128.0,0.01717386208474636
144.0,0.015622524544596672
160.0,0.014396686106920242
176.0,0.01346101239323616
192.0,0.012762998230755329
208.0,0.012232133187353611
224.0,0.011778043583035469
240.0,0.011412257328629494
256.0,0.010946123860776424
288.0,0.010026597417891026
320.0,0.009240173734724522
352.0,0.008470559492707253
384.0,0.007841827347874641
416.0,0.0073979017324745655
448.0,0.007015685550868511
480.0,0.0072171795181930065
512.0,0.007578705903142691
576.0,0.008230246603488922
640.0,0.007989661768078804
704.0,0.006061829160898924
768.0,0.005362756550312042
832.0,0.004688980523496866
896.0,0.0035032955929636955
960.0,0.0033979627769440413
1024.0,0.004354024305939674
1152.0,0.005597249139100313
1280.0,0.006251936312764883
1408.0,0.004642721265554428
1536.0,0.0028349021449685097
1664.0,0.0018678507767617702
1792.0,0.0011094638612121344
1920.0,0.0005189813673496246
2048.0,0.00042629081872291863
2304.0,-0.0005732194986194372
2560.0,-0.0025002018082886934
2816.0,-0.004247612319886684
3072.0,-0.0023635351099073887
3328.0,-0.005448221229016781
3584.0,-0.004282339476048946
3840.0,-0.007135181687772274
4096.0,-0.012024782598018646
4608.0,-0.007947446778416634
5120.0,-0.007028139661997557
5632.0,-0.008742405101656914
6144.0,-0.0030250365380197763
6656.0,0.00045884569408372045
7168.0,0.002036522375419736
7680.0,0.001462375745177269
8192.0,0.004382024984806776
end
