version,3.0
numOfCh,1
type,point
parent_name,c1204_0dot08-0dot01
ch_type,1_1
kcount,1
numberNandB,1
brightnessNandB,1
carpet pos,0
pc,0
Time (ms),CH1 Auto-Correlation
1.0,0.03055739402770996
2.0,0.030289331451058388
3.0,0.03002055361866951
4.0,0.02976370044052601
5.0,0.029506942257285118
6.0,0.029253872111439705
7.0,0.02899996191263199
8.0,0.028754593804478645
9.0,0.028507180511951447
10.0,0.028262536972761154
11.0,0.028025398030877113
12.0,0.02779202349483967
13.0,0.02756820246577263
14.0,0.027355877682566643
15.0,0.02714502066373825
16.0,0.026942403987050056
18.0,0.026522913947701454
20.0,0.026128053665161133
22.0,0.02574591152369976
24.0,0.025376059114933014
26.0,0.025011306628584862
28.0,0.02464575320482254
30.0,0.024289365857839584
32.0,0.023953000083565712
36.0,0.02332712709903717
40.0,0.02273685485124588
44.0,0.022182192653417587
48.0,0.02167515829205513
52.0,0.021208522841334343
56.0,0.02075144462287426
60.0,0.02034112624824047
64.0,0.02001374214887619
72.0,0.019336242228746414
80.0,0.018594184890389442
88.0,0.01789357326924801
96.0,0.017211874946951866
104.0,0.016634875908493996
112.0,0.016240697354078293
120.0,0.01586577296257019
128.0,0.015520521439611912
144.0,0.014873040840029716
160.0,0.014220235869288445
176.0,0.013394295237958431
192.0,0.012717824429273605
208.0,0.011987616308033466
224.0,0.01109232846647501
240.0,0.010209254920482635
256.0,0.009335944429039955
288.0,0.008288390934467316
320.0,0.007975295186042786
352.0,0.007472238503396511
384.0,0.00690710311755538
416.0,0.006120938807725906
448.0,0.005532286129891872
480.0,0.0049982573837041855
512.0,0.004376594442874193
576.0,0.004684642888605595
640.0,0.005162851884961128
704.0,0.005495554301887751
768.0,0.005667777732014656
832.0,0.005746783688664436
896.0,0.006656062323600054
960.0,0.006623005028814077
1024.0,0.006688963621854782
1152.0,0.00511904014274478
1280.0,0.003866559360176325
1408.0,0.0013594821793958545
1536.0,0.0003516007855068892
1664.0,0.0013624553102999926
1792.0,0.00262691592797637
1920.0,0.0019390842644497752
2048.0,0.0007109669386409223
2304.0,0.0006043212488293648
2560.0,-0.001965909730643034
2816.0,-0.0020865199621766806
3072.0,-0.0011604793835431337
3328.0,-0.0014169005444273353
3584.0,-0.0010615047067403793
3840.0,-0.0034864088520407677
4096.0,-0.0027302249800413847
4608.0,-0.0062558334320783615
5120.0,-0.010296588763594627
5632.0,-0.008008596487343311
6144.0,-0.007240074221044779
6656.0,-0.002023980487138033
7168.0,0.00043776133679784834
7680.0,0.005358535796403885
8192.0,0.004922647960484028
end
