version,3.0
numOfCh,1
type,point
parent_name,dirty_0dot6-0dot01
ch_type,1_1
kcount,1
numberNandB,1
brightnessNandB,1
carpet pos,0
pc,0
Time (ms),CH1 Auto-Correlation
1.0,0.25333908200263977
2.0,0.2525171637535095
3.0,0.251772403717041
4.0,0.2510850727558136
5.0,0.2504274249076843
6.0,0.24980485439300537
7.0,0.2492029219865799
8.0,0.2486296147108078
9.0,0.24808502197265625
10.0,0.24758481979370117
11.0,0.24711446464061737
12.0,0.24664585292339325
13.0,0.2461974322795868
14.0,0.2457524687051773
15.0,0.24529670178890228
16.0,0.24485397338867188
18.0,0.24396555125713348
20.0,0.24310877919197083
22.0,0.2423069030046463
24.0,0.24151910841464996
26.0,0.2407645881175995
28.0,0.2401048094034195
30.0,0.23945510387420654
32.0,0.23884782195091248
36.0,0.23783279955387115
40.0,0.23689451813697815
44.0,0.23601461946964264
48.0,0.23525986075401306
52.0,0.23451165854930878
56.0,0.23379693925380707
60.0,0.2330731749534607
64.0,0.23238183557987213
72.0,0.23083044588565826
80.0,0.22923357784748077
88.0,0.22789232432842255
96.0,0.22651293873786926
104.0,0.22548960149288177
112.0,0.22469140589237213
120.0,0.22391535341739655
128.0,0.22311803698539734
144.0,0.22133183479309082
160.0,0.21970543265342712
176.0,0.21854114532470703
192.0,0.2177649885416031
208.0,0.21658308804035187
224.0,0.21487528085708618
240.0,0.21343958377838135
256.0,0.2125740647315979
288.0,0.20978455245494843
320.0,0.2064475417137146
352.0,0.20314808189868927
384.0,0.1997588574886322
416.0,0.19640661776065826
448.0,0.19575557112693787
480.0,0.19542795419692993
512.0,0.19294843077659607
576.0,0.18600966036319733
640.0,0.1804371327161789
704.0,0.17671765387058258
768.0,0.17310267686843872
832.0,0.16640125215053558
896.0,0.15704947710037231
960.0,0.15112949907779694
1024.0,0.14686910808086395
1152.0,0.1389143168926239
1280.0,0.13156723976135254
1408.0,0.12487475574016571
1536.0,0.11548694968223572
1664.0,0.10129862278699875
1792.0,0.08461306244134903
1920.0,0.07500600069761276
2048.0,0.06357019394636154
2304.0,0.03652503341436386
2560.0,0.021837199106812477
2816.0,0.019769107922911644
3072.0,0.01789521612226963
3328.0,0.011755956336855888
3584.0,0.0006354168872348964
3840.0,-0.011457557789981365
4096.0,-0.017455339431762695
4608.0,-0.025754256173968315
5120.0,-0.03589982911944389
5632.0,-0.04401378706097603
6144.0,-0.04105806723237038
6656.0,-0.04025693237781525
7168.0,-0.04464133828878403
7680.0,-0.04937899112701416
8192.0,-0.05341211333870888
9216.0,-0.08514895290136337
10240.0,-0.0945689007639885
11264.0,-0.12515585124492645
12288.0,-0.1502305567264557
13312.0,-0.15165898203849792
14336.0,-0.12687501311302185
end
