version,3.0
numOfCh,1
type,point
parent_name,dirty_0dot6-0dot01
ch_type,1_1
kcount,1
numberNandB,1
brightnessNandB,1
carpet pos,0
pc,0
Time (ms),CH1 Auto-Correlation
1.0,0.024491839110851288
2.0,0.023395460098981857
3.0,0.022385621443390846
4.0,0.02146238647401333
5.0,0.020619481801986694
6.0,0.019863653928041458
7.0,0.01913524977862835
8.0,0.01844768039882183
9.0,0.017819397151470184
10.0,0.01724272035062313
11.0,0.016690043732523918
12.0,0.01615152321755886
13.0,0.015621171332895756
14.0,0.015127713792026043
15.0,0.014661732129752636
16.0,0.014215377159416676
18.0,0.013408344238996506
20.0,0.012659014202654362
22.0,0.011987912468612194
24.0,0.011431897059082985
26.0,0.010960852727293968
28.0,0.010581419803202152
30.0,0.010187768377363682
32.0,0.009821600280702114
36.0,0.00918697938323021
40.0,0.008631382137537003
44.0,0.008253490552306175
48.0,0.007870753295719624
52.0,0.007451074197888374
56.0,0.007030433509498835
60.0,0.006567356642335653
64.0,0.006000513676553965
72.0,0.0052671367302536964
80.0,0.004746734164655209
88.0,0.004085504449903965
96.0,0.0035545050632208586
104.0,0.0028730991762131453
112.0,0.002257352462038398
120.0,0.0020083594135940075
128.0,0.001976615283638239
144.0,0.001857128692790866
160.0,0.0022626027930527925
176.0,0.0026440632063895464
192.0,0.002978609874844551
208.0,0.002857104642316699
224.0,0.002843742026016116
240.0,0.0027520740404725075
256.0,0.002362285042181611
288.0,0.0020956951193511486
320.0,0.0015527249779552221
352.0,0.0006067049107514322
384.0,0.0005726143717765808
416.0,0.0005940404371358454
448.0,0.0005220156745053828
480.0,0.00013820522872265428
512.0,0.0010065960232168436
576.0,-0.00023494732158724219
640.0,-0.00018407216703053564
704.0,0.0003254541370552033
768.0,-0.00036510542850010097
832.0,-0.001103348913602531
896.0,-0.0013859508326277137
960.0,-0.0009104898781515658
1024.0,-0.001031565247103572
1152.0,-0.0012065969640389085
1280.0,-0.0010822736658155918
1408.0,-0.0015405748272314668
1536.0,-0.00027378348750062287
1664.0,-0.0013437769375741482
1792.0,-0.00043107903911732137
1920.0,-0.0014171106740832329
2048.0,-0.0004020290507469326
2304.0,-0.00040799827547743917
2560.0,0.0005449536838568747
2816.0,-0.001100930036045611
3072.0,-0.0012113552074879408
3328.0,-0.0009243701351806521
3584.0,-0.0010244486620649695
3840.0,0.00023845391115173697
4096.0,0.0017194559331983328
4608.0,-0.0011039434466511011
5120.0,0.00017512227350380272
5632.0,0.0006105267093516886
6144.0,-0.0007874217699281871
6656.0,0.0006683201645500958
7168.0,0.000661507248878479
7680.0,0.0003367813478689641
8192.0,-8.260587492259219e-05
9216.0,0.0015637275064364076
10240.0,-0.0010540569201111794
11264.0,-0.0007674543303437531
12288.0,0.0004503568634390831
13312.0,0.0005454805213958025
14336.0,-7.903002551756799e-05
end
