version,3.0
numOfCh,1
type,point
parent_name,dirty_0dot6-0dot01
ch_type,1_1
kcount,1
numberNandB,1
brightnessNandB,1
carpet pos,0
pc,0
Time (ms),CH1 Auto-Correlation
1.0,0.024201015010476112
2.0,0.02307613007724285
3.0,0.0220316331833601
4.0,0.02106744982302189
5.0,0.020161695778369904
6.0,0.01931832730770111
7.0,0.018551135435700417
8.0,0.017858529463410378
9.0,0.017209533601999283
10.0,0.0166037455201149
11.0,0.016059141606092453
12.0,0.015529120340943336
13.0,0.014999103732407093
14.0,0.014486433006823063
15.0,0.014022081159055233
16.0,0.013622686266899109
18.0,0.012816514819860458
20.0,0.012084675021469593
22.0,0.011471736244857311
24.0,0.010967452079057693
26.0,0.010515352711081505
28.0,0.010091410018503666
30.0,0.009712430648505688
32.0,0.009457327425479889
36.0,0.0090249665081501
40.0,0.008764094673097134
44.0,0.008624938316643238
48.0,0.008321558125317097
52.0,0.007948796264827251
56.0,0.007595878094434738
60.0,0.007124883122742176
64.0,0.006595882121473551
72.0,0.0060013672336936
80.0,0.005703046917915344
88.0,0.005147597752511501
96.0,0.004415569361299276
104.0,0.004068431444466114
112.0,0.003876608796417713
120.0,0.003489777445793152
128.0,0.002837155945599079
144.0,0.002473312197253108
160.0,0.002586119342595339
176.0,0.002021025400608778
192.0,0.0014629517681896687
208.0,0.00130521971732378
224.0,0.0008579605491831899
240.0,0.00012497011630330235
256.0,-0.000769447477068752
288.0,-0.000988591811619699
320.0,-0.0014498616801574826
352.0,-0.000886695459485054
384.0,-0.0013787334319204092
416.0,-0.0008976119570434093
448.0,-0.0011036251671612263
480.0,-0.0006484751356765628
512.0,-0.0005528603796847165
576.0,0.0013639553217217326
640.0,0.0012065067421644926
704.0,0.0008237722795456648
768.0,0.00030587660148739815
832.0,-0.0010953089222311974
896.0,-0.0007667891914024949
960.0,-0.0009392621577717364
1024.0,-0.0029829242266714573
1152.0,-0.0014889633748680353
1280.0,-0.0004660827398765832
1408.0,-0.0016899534966796637
1536.0,-0.00223856745287776
1664.0,-0.0015993159031495452
1792.0,-0.0006080518360249698
1920.0,2.5818673748290166e-05
2048.0,-0.0003318930685054511
2304.0,-0.00039195388671942055
2560.0,0.0004919188213534653
2816.0,0.0016007490921765566
3072.0,0.0018677416956052184
3328.0,0.0011580503778532147
3584.0,-0.001033353852108121
3840.0,-5.929268809268251e-07
4096.0,-0.0004883732763119042
4608.0,-0.0016668133903294802
5120.0,0.0007231823983602226
5632.0,0.0002912854833994061
6144.0,0.0014185865875333548
6656.0,-0.0004632851341739297
7168.0,-0.0007499896455556154
7680.0,-0.0009250796283595264
8192.0,0.000866175105329603
9216.0,0.00047945178812369704
10240.0,0.00022843349142931402
11264.0,-0.0005670908140018582
12288.0,-0.000716034322977066
13312.0,-0.00016810151282697916
14336.0,-0.0008821324445307255
end
