version,3.0
numOfCh,1
type,point
parent_name,dirty_0dot6-0dot01
ch_type,1_1
kcount,1
numberNandB,1
brightnessNandB,1
carpet pos,0
pc,0
Time (ms),CH1 Auto-Correlation
1.0,0.021996010094881058
2.0,0.020862454548478127
3.0,0.019830742850899696
4.0,0.01888197660446167
5.0,0.01800445094704628
6.0,0.017177587375044823
7.0,0.016435541212558746
8.0,0.01576576568186283
9.0,0.015146089717745781
10.0,0.014574430882930756
11.0,0.01402986329048872
12.0,0.013533968478441238
13.0,0.013082965277135372
14.0,0.012612836435437202
15.0,0.01216689869761467
16.0,0.011765522882342339
18.0,0.011053508147597313
20.0,0.010429315268993378
22.0,0.00989989098161459
24.0,0.009411651641130447
26.0,0.008974730968475342
28.0,0.008630638010799885
30.0,0.008338767103850842
32.0,0.008107353001832962
36.0,0.007711466867476702
40.0,0.0074537103064358234
44.0,0.007123177871108055
48.0,0.006720883771777153
52.0,0.0062822746112942696
56.0,0.005721244029700756
60.0,0.005014077760279179
64.0,0.004476475529372692
72.0,0.0035836363676935434
80.0,0.002758097369223833
88.0,0.002335792873054743
96.0,0.002109798602759838
104.0,0.0019498050678521395
112.0,0.0013266538735479116
120.0,0.0006037759594619274
128.0,0.000271825585514307
144.0,-8.557087130611762e-05
160.0,0.0002513881481718272
176.0,6.85626218910329e-05
192.0,-0.0004090989241376519
208.0,-0.00039547329652123153
224.0,-0.0005255040596239269
240.0,-0.0004575125058181584
256.0,-0.0008278458844870329
288.0,-0.00013760699948761612
320.0,9.375293302582577e-05
352.0,0.0003503310144878924
384.0,0.00022234646894503385
416.0,0.0003165174857713282
448.0,-5.600217264145613e-05
480.0,-0.000668757245875895
512.0,-0.0006099330494180322
576.0,0.00018157123122364283
640.0,-0.00018715056648943573
704.0,-8.513755346939433e-06
768.0,0.0016065648524090648
832.0,0.001278552575968206
896.0,0.0014945513103157282
960.0,0.0017210140358656645
1024.0,0.00044941221131011844
1152.0,-0.002325404202565551
1280.0,-0.0013449705438688397
1408.0,-0.0011441813549026847
1536.0,-8.247314690379426e-05
1664.0,0.0005079634138382971
1792.0,0.000645485008135438
1920.0,-0.0002424384147161618
2048.0,-0.0018358639208599925
2304.0,-0.0005858466611243784
2560.0,0.0007349932566285133
2816.0,-0.00021240211208350956
3072.0,-0.001089645316824317
3328.0,9.021261939778924e-05
3584.0,1.806918953661807e-05
3840.0,-0.0008291865815408528
4096.0,0.0002136814291588962
4608.0,0.00038699779543094337
5120.0,-4.322476888773963e-05
5632.0,-0.0005471514305099845
6144.0,-0.000476460816571489
6656.0,1.2070019693055656e-05
7168.0,0.0005557422409765422
7680.0,-7.003109203651547e-05
8192.0,9.769644384505227e-05
9216.0,0.0008783352095633745
10240.0,-0.0009636200848035514
11264.0,3.8503210816998035e-05
12288.0,-0.00023087904264684767
13312.0,0.0004725609323941171
14336.0,0.0006069734808988869
end
