version,3.0
numOfCh,1
type,point
parent_name,dirty_0dot6-0dot01
ch_type,1_1
kcount,1
numberNandB,1
brightnessNandB,1
carpet pos,0
pc,0
Time (ms),CH1 Auto-Correlation
1.0,0.41249915957450867
2.0,0.41166025400161743
3.0,0.4108372926712036
4.0,0.41002097725868225
5.0,0.4092317819595337
6.0,0.4084402918815613
7.0,0.40767738223075867
8.0,0.40691104531288147
9.0,0.4061427414417267
10.0,0.4054008424282074
11.0,0.4046832025051117
12.0,0.403985857963562
13.0,0.4033106863498688
14.0,0.402657151222229
15.0,0.40200275182724
16.0,0.40135514736175537
18.0,0.4000767767429352
20.0,0.39883169531822205
22.0,0.3976140320301056
24.0,0.3964214026927948
26.0,0.39527004957199097
28.0,0.3942038118839264
30.0,0.3931868374347687
32.0,0.3921836316585541
36.0,0.39024776220321655
40.0,0.38829752802848816
44.0,0.3863583207130432
48.0,0.38438284397125244
52.0,0.38227662444114685
56.0,0.3800533413887024
60.0,0.37786805629730225
64.0,0.3758622407913208
72.0,0.37210366129875183
80.0,0.3687271773815155
88.0,0.36555221676826477
96.0,0.3624425232410431
104.0,0.3591362237930298
112.0,0.35602837800979614
120.0,0.3530607521533966
128.0,0.3498761057853699
144.0,0.3438074290752411
160.0,0.3393654227256775
176.0,0.33510902523994446
192.0,0.33137136697769165
208.0,0.3291679918766022
224.0,0.32792016863822937
240.0,0.32754993438720703
256.0,0.32692810893058777
288.0,0.3215738534927368
320.0,0.31247735023498535
352.0,0.3031022250652313
384.0,0.2952563762664795
416.0,0.287854939699173
448.0,0.28114351630210876
480.0,0.27657952904701233
512.0,0.2765534222126007
576.0,0.2781706154346466
640.0,0.2712540328502655
704.0,0.2599714696407318
768.0,0.24806363880634308
832.0,0.24285081028938293
896.0,0.23249684274196625
960.0,0.21910227835178375
1024.0,0.20667746663093567
1152.0,0.19752061367034912
1280.0,0.17930029332637787
1408.0,0.16059009730815887
1536.0,0.15808391571044922
1664.0,0.14189842343330383
1792.0,0.13745465874671936
1920.0,0.12322225421667099
2048.0,0.09679371863603592
2304.0,0.07202768325805664
2560.0,0.05224393680691719
2816.0,0.05099967494606972
3072.0,0.0552743561565876
3328.0,0.03374229744076729
3584.0,0.012824119068682194
3840.0,-0.040697965770959854
4096.0,-0.08228158950805664
4608.0,-0.15101468563079834
5120.0,-0.2179342806339264
5632.0,-0.26753854751586914
6144.0,-0.28848350048065186
6656.0,-0.26123127341270447
7168.0,-0.2383607029914856
7680.0,-0.21820898354053497
8192.0,-0.18807175755500793
9216.0,-0.11016761511564255
10240.0,0.04880281165242195
11264.0,0.13867498934268951
12288.0,0.15639373660087585
13312.0,0.18427111208438873
14336.0,0.2165239006280899
end
