version,3.0
numOfCh,1
type,point
parent_name,dirty_0dot6-0dot01
ch_type,1_1
kcount,1
numberNandB,1
brightnessNandB,1
carpet pos,0
pc,0
Time (ms),CH1 Auto-Correlation
1.0,0.4448475241661072
2.0,0.4439321458339691
3.0,0.44308677315711975
4.0,0.4423050880432129
5.0,0.44155406951904297
6.0,0.44082382321357727
7.0,0.4401074945926666
8.0,0.43940573930740356
9.0,0.43872159719467163
10.0,0.4380514919757843
11.0,0.437433660030365
12.0,0.4368493854999542
13.0,0.43630144000053406
14.0,0.4357810616493225
15.0,0.435242235660553
16.0,0.4347146451473236
18.0,0.4336269795894623
20.0,0.43253520131111145
22.0,0.43142175674438477
24.0,0.43033987283706665
26.0,0.42927655577659607
28.0,0.4282265901565552
30.0,0.427194744348526
32.0,0.4261263608932495
36.0,0.42416441440582275
40.0,0.42219555377960205
44.0,0.42028987407684326
48.0,0.4184151589870453
52.0,0.41664373874664307
56.0,0.41477522253990173
60.0,0.41294142603874207
64.0,0.41102492809295654
72.0,0.40703609585762024
80.0,0.40264204144477844
88.0,0.3984545171260834
96.0,0.39498668909072876
104.0,0.39223751425743103
112.0,0.3893605172634125
120.0,0.38632991909980774
128.0,0.38303497433662415
144.0,0.37590816617012024
160.0,0.36875516176223755
176.0,0.3625711500644684
192.0,0.3570558428764343
208.0,0.3523745536804199
224.0,0.348377525806427
240.0,0.3450480103492737
256.0,0.3414286971092224
288.0,0.33199596405029297
320.0,0.3214970529079437
352.0,0.3092327415943146
384.0,0.2954600751399994
416.0,0.2823614180088043
448.0,0.2692016661167145
480.0,0.2565561830997467
512.0,0.24624307453632355
576.0,0.22528035938739777
640.0,0.19699543714523315
704.0,0.16198760271072388
768.0,0.1270429939031601
832.0,0.09964065998792648
896.0,0.07855083793401718
960.0,0.058632154017686844
1024.0,0.035279303789138794
1152.0,0.00023532097111456096
1280.0,-0.023748129606246948
1408.0,-0.03457643836736679
1536.0,-0.028505098074674606
1664.0,-0.008345040492713451
1792.0,0.0187145434319973
1920.0,0.05228270962834358
2048.0,0.08723834156990051
2304.0,0.12588447332382202
2560.0,0.11074244976043701
2816.0,0.07906144857406616
3072.0,0.009279205463826656
3328.0,-0.04490204155445099
3584.0,-0.08628086745738983
3840.0,-0.10484021157026291
4096.0,-0.10661397874355316
4608.0,-0.07463891804218292
5120.0,-0.06005510687828064
5632.0,-0.05216357484459877
6144.0,-0.04388416185975075
6656.0,-0.049572888761758804
7168.0,-0.05167243629693985
7680.0,-0.05797330662608147
8192.0,-0.0643317699432373
9216.0,-0.11797617375850677
10240.0,-0.11079423129558563
11264.0,-0.029653027653694153
12288.0,-0.04321588948369026
13312.0,0.04888584837317467
14336.0,0.054934144020080566
end
