version,3.0
numOfCh,1
type,point
parent_name,dirty_0dot6-0dot01
ch_type,1_1
kcount,1
numberNandB,1
brightnessNandB,1
carpet pos,0
pc,0
Time (ms),CH1 Auto-Correlation
1.0,0.2618849575519562
2.0,0.26074451208114624
3.0,0.2596832513809204
4.0,0.25870680809020996
5.0,0.25775960087776184
6.0,0.2568861246109009
7.0,0.2559998631477356
8.0,0.25518161058425903
9.0,0.25437837839126587
10.0,0.2535993456840515
11.0,0.2528688311576843
12.0,0.2521345615386963
13.0,0.25142064690589905
14.0,0.25068846344947815
15.0,0.24992670118808746
16.0,0.24914608895778656
18.0,0.24765068292617798
20.0,0.24624751508235931
22.0,0.24483828246593475
24.0,0.24335522949695587
26.0,0.24190905690193176
28.0,0.24051818251609802
30.0,0.23907582461833954
32.0,0.23768498003482819
36.0,0.2348056435585022
40.0,0.23191705346107483
44.0,0.22908161580562592
48.0,0.2260674387216568
52.0,0.22261439263820648
56.0,0.21911056339740753
60.0,0.2155461311340332
64.0,0.2116728276014328
72.0,0.20438924431800842
80.0,0.1972028911113739
88.0,0.18999560177326202
96.0,0.1826888769865036
104.0,0.175345778465271
112.0,0.16820533573627472
120.0,0.16170848906040192
128.0,0.15574295818805695
144.0,0.1443757861852646
160.0,0.13423258066177368
176.0,0.12520909309387207
192.0,0.117027647793293
208.0,0.1101049929857254
224.0,0.10425477474927902
240.0,0.09944416582584381
256.0,0.09625612199306488
288.0,0.09135140478610992
320.0,0.0855405181646347
352.0,0.07855522632598877
384.0,0.07036581635475159
416.0,0.06054806336760521
448.0,0.050564706325531006
480.0,0.04093390330672264
512.0,0.03205768018960953
576.0,0.02610788494348526
640.0,0.026887228712439537
704.0,0.022119605913758278
768.0,0.014280048198997974
832.0,0.009364272467792034
896.0,0.005822456441819668
960.0,-0.0002253495913464576
1024.0,-0.008410024456679821
1152.0,-0.026718435809016228
1280.0,-0.03270465135574341
1408.0,-0.03581572324037552
1536.0,-0.034574512392282486
1664.0,-0.032637760043144226
1792.0,-0.03218647092580795
1920.0,-0.03823241591453552
2048.0,-0.04276130348443985
2304.0,-0.03395333141088486
2560.0,-0.025906186550855637
2816.0,-0.026558585464954376
3072.0,-0.024757374078035355
3328.0,-0.013865756802260876
3584.0,-0.0012571422848850489
3840.0,0.02099684067070484
4096.0,0.06071028858423233
4608.0,0.05643785744905472
5120.0,-0.005158088635653257
5632.0,-0.037297796458005905
6144.0,-0.04171888157725334
6656.0,-0.028168827295303345
7168.0,-0.0324808768928051
7680.0,-0.03493371978402138
8192.0,-0.022796588018536568
9216.0,0.035894185304641724
10240.0,-0.018468113616108894
11264.0,-0.03128834441304207
12288.0,-0.031975165009498596
13312.0,0.11264021694660187
14336.0,-0.035223472863435745
end
