version,3.0
numOfCh,1
type,point
parent_name,dirty_0dot6-0dot01
ch_type,1_1
kcount,1
numberNandB,1
brightnessNandB,1
carpet pos,0
pc,0
Time (ms),CH1 Auto-Correlation
1.0,0.3002318739891052
2.0,0.29955264925956726
3.0,0.2989029288291931
4.0,0.29826900362968445
5.0,0.2976582944393158
6.0,0.2970782220363617
7.0,0.29651468992233276
8.0,0.29596567153930664
9.0,0.2954398989677429
10.0,0.2949486970901489
11.0,0.294449120759964
12.0,0.29397276043891907
13.0,0.29351019859313965
14.0,0.2930641770362854
15.0,0.2926497757434845
16.0,0.29221901297569275
18.0,0.29140183329582214
20.0,0.2906170189380646
22.0,0.28988197445869446
24.0,0.2892513573169708
26.0,0.28862181305885315
28.0,0.2880381941795349
30.0,0.28745168447494507
32.0,0.286862850189209
36.0,0.28576162457466125
40.0,0.28463664650917053
44.0,0.2835007309913635
48.0,0.28238266706466675
52.0,0.28126266598701477
56.0,0.2801957130432129
60.0,0.27917665243148804
64.0,0.2781517505645752
72.0,0.27602165937423706
80.0,0.2738955318927765
88.0,0.2717394530773163
96.0,0.2694084048271179
104.0,0.2669004499912262
112.0,0.2644580006599426
120.0,0.2621181607246399
128.0,0.2596797049045563
144.0,0.2547992169857025
160.0,0.2501543164253235
176.0,0.24571505188941956
192.0,0.24118155241012573
208.0,0.23584987223148346
224.0,0.2309151291847229
240.0,0.22635114192962646
256.0,0.22171896696090698
288.0,0.2108616679906845
320.0,0.20034462213516235
352.0,0.18938717246055603
384.0,0.17884467542171478
416.0,0.16917727887630463
448.0,0.15974344313144684
480.0,0.1507183015346527
512.0,0.14281001687049866
576.0,0.12780138850212097
640.0,0.11200512200593948
704.0,0.1004650816321373
768.0,0.09073594212532043
832.0,0.08032912760972977
896.0,0.06811755895614624
960.0,0.055914878845214844
1024.0,0.044785890728235245
1152.0,0.023503946140408516
1280.0,0.005156041122972965
1408.0,-0.007810281589627266
1536.0,-0.016115453094244003
1664.0,-0.020940657705068588
1792.0,-0.019158268347382545
1920.0,-0.016396936029195786
2048.0,-0.009533737786114216
2304.0,-0.002218840178102255
2560.0,-0.012040670961141586
2816.0,-0.03576028347015381
3072.0,-0.05275670811533928
3328.0,-0.06433738768100739
3584.0,-0.07309383153915405
3840.0,-0.07634250074625015
4096.0,-0.0724441409111023
4608.0,-0.08218476176261902
5120.0,-0.07918225973844528
5632.0,-0.07360941916704178
6144.0,-0.07357867807149887
6656.0,-0.06758518517017365
7168.0,-0.035583823919296265
7680.0,0.028562216088175774
8192.0,0.09928291290998459
9216.0,0.03503439575433731
10240.0,0.015081445686519146
11264.0,-0.012454916723072529
12288.0,0.0836026594042778
13312.0,-0.026237135753035545
14336.0,-0.06328772753477097
end
