version,3.0
numOfCh,1
type,point
parent_name,dirty_0dot6-0dot01
ch_type,1_1
kcount,1
numberNandB,1
brightnessNandB,1
carpet pos,0
pc,0
Time (ms),CH1 Auto-Correlation
1.0,0.2556440234184265
2.0,0.2550484538078308
3.0,0.25449737906455994
4.0,0.25396716594696045
5.0,0.25345075130462646
6.0,0.25296151638031006
7.0,0.25249597430229187
8.0,0.25205978751182556
9.0,0.25165683031082153
10.0,0.2512577474117279
11.0,0.2508660852909088
12.0,0.25047820806503296
13.0,0.2500858008861542
14.0,0.24969756603240967
15.0,0.24933652579784393
16.0,0.24899031221866608
18.0,0.24832287430763245
20.0,0.2476637214422226
22.0,0.24702101945877075
24.0,0.2463674396276474
26.0,0.24572201073169708
28.0,0.24508734047412872
30.0,0.24449919164180756
32.0,0.2439575493335724
36.0,0.24290798604488373
40.0,0.24188131093978882
44.0,0.24093487858772278
48.0,0.24011127650737762
52.0,0.23929837346076965
56.0,0.23841850459575653
60.0,0.23751522600650787
64.0,0.23665635287761688
72.0,0.23494261503219604
80.0,0.23335964977741241
88.0,0.2318176031112671
96.0,0.23012271523475647
104.0,0.22825391590595245
112.0,0.22616523504257202
120.0,0.22426752746105194
128.0,0.22230234742164612
144.0,0.21823954582214355
160.0,0.21449248492717743
176.0,0.21066008508205414
192.0,0.2066829949617386
208.0,0.20319166779518127
224.0,0.20024752616882324
240.0,0.19738586246967316
256.0,0.1944493055343628
288.0,0.18868832290172577
320.0,0.18444134294986725
352.0,0.180730938911438
384.0,0.17485153675079346
416.0,0.16994068026542664
448.0,0.16568194329738617
480.0,0.16086679697036743
512.0,0.15691649913787842
576.0,0.15216606855392456
640.0,0.14467035233974457
704.0,0.135999858379364
768.0,0.12525959312915802
832.0,0.11386604607105255
896.0,0.10349825024604797
960.0,0.09308631718158722
1024.0,0.08448753505945206
1152.0,0.07522056996822357
1280.0,0.07181408256292343
1408.0,0.06674408167600632
1536.0,0.05644946172833443
1664.0,0.04628826305270195
1792.0,0.041155844926834106
1920.0,0.03469697758555412
2048.0,0.034564774483442307
2304.0,0.04476677626371384
2560.0,0.06366845220327377
2816.0,0.08507414162158966
3072.0,0.08669594675302505
3328.0,0.08423788100481033
3584.0,0.07789678871631622
3840.0,0.06730907410383224
4096.0,0.05648046359419823
4608.0,0.029872005805373192
5120.0,0.005573195870965719
5632.0,-0.0008538069669157267
6144.0,-0.01916641928255558
6656.0,-0.05476600304245949
7168.0,-0.069620281457901
7680.0,-0.08605223149061203
8192.0,-0.12380613386631012
9216.0,-0.1414211094379425
10240.0,-0.08558305352926254
11264.0,-0.11866508424282074
12288.0,-0.17994928359985352
13312.0,-0.16644370555877686
14336.0,-0.12793181836605072
end
