version,3.0
numOfCh,1
type,point
parent_name,dirty_0dot6-0dot01
ch_type,1_1
kcount,1
numberNandB,1
brightnessNandB,1
carpet pos,0
pc,0
Time (ms),CH1 Auto-Correlation
1.0,0.40127164125442505
2.0,0.4003048539161682
3.0,0.39937081933021545
4.0,0.3984573185443878
5.0,0.3975696265697479
6.0,0.39673033356666565
7.0,0.39595431089401245
8.0,0.39518657326698303
9.0,0.3943954408168793
10.0,0.393645703792572
11.0,0.392879843711853
12.0,0.3921607732772827
13.0,0.3914770185947418
14.0,0.39081594347953796
15.0,0.39017000794410706
16.0,0.38950425386428833
18.0,0.3882174491882324
20.0,0.38695958256721497
22.0,0.38571977615356445
24.0,0.3844674825668335
26.0,0.383279412984848
28.0,0.3820546865463257
30.0,0.3808023929595947
32.0,0.3795485198497772
36.0,0.3768745958805084
40.0,0.3741966784000397
44.0,0.3716333508491516
48.0,0.3689922094345093
52.0,0.3665160834789276
56.0,0.3640812337398529
60.0,0.361715167760849
64.0,0.35941922664642334
72.0,0.35528406500816345
80.0,0.35141339898109436
88.0,0.34748002886772156
96.0,0.34377458691596985
104.0,0.3402708172798157
112.0,0.33707624673843384
120.0,0.33442452549934387
128.0,0.3321058750152588
144.0,0.3271891474723816
160.0,0.32130351662635803
176.0,0.31501373648643494
192.0,0.3087387979030609
208.0,0.3022690713405609
224.0,0.2956540584564209
240.0,0.2902003824710846
256.0,0.2864616811275482
288.0,0.27939116954803467
320.0,0.26991304755210876
352.0,0.2600595951080322
384.0,0.25121861696243286
416.0,0.2446938008069992
448.0,0.2380356639623642
480.0,0.23137328028678894
512.0,0.22534024715423584
576.0,0.21627001464366913
640.0,0.2010105550289154
704.0,0.18909120559692383
768.0,0.17529349029064178
832.0,0.15944603085517883
896.0,0.14539799094200134
960.0,0.12794938683509827
1024.0,0.11011214554309845
1152.0,0.06473521143198013
1280.0,0.03260127454996109
1408.0,0.021286247298121452
1536.0,0.018619462847709656
1664.0,0.011825265362858772
1792.0,0.008730974979698658
1920.0,0.01034961361438036
2048.0,0.012263801880180836
2304.0,0.020695682615041733
2560.0,0.055286381393671036
2816.0,0.09859839826822281
3072.0,0.14465396106243134
3328.0,0.16014464199543
3584.0,0.15345627069473267
3840.0,0.12267977744340897
4096.0,0.0730459913611412
4608.0,0.0073865000158548355
5120.0,-0.022486943751573563
5632.0,-0.039588164538145065
6144.0,-0.034911926835775375
6656.0,-0.0560285858809948
7168.0,-0.0946151614189148
7680.0,-0.12162918597459793
8192.0,-0.13988102972507477
9216.0,-0.13520756363868713
10240.0,-0.1180243045091629
11264.0,-0.14523886144161224
12288.0,-0.20829342305660248
13312.0,-0.23569510877132416
14336.0,-0.1711847484111786
end
