version,3.0
numOfCh,1
type,point
parent_name,dirty_0dot6-0dot01
ch_type,1_1
kcount,1
numberNandB,1
brightnessNandB,1
carpet pos,0
pc,0
Time (ms),CH1 Auto-Correlation
1.0,0.295576810836792
2.0,0.29470711946487427
3.0,0.29386788606643677
4.0,0.2930598855018616
5.0,0.29225078225135803
6.0,0.29148292541503906
7.0,0.2907180190086365
8.0,0.28997883200645447
9.0,0.2892548143863678
10.0,0.288551926612854
11.0,0.2878362536430359
12.0,0.2871500253677368
13.0,0.28648531436920166
14.0,0.2858259677886963
15.0,0.2851647436618805
16.0,0.28450191020965576
18.0,0.2831372618675232
20.0,0.28179144859313965
22.0,0.28044289350509644
24.0,0.279148131608963
26.0,0.2779075503349304
28.0,0.27665889263153076
30.0,0.2753877639770508
32.0,0.2741642892360687
36.0,0.2717970609664917
40.0,0.26933711767196655
44.0,0.2669118642807007
48.0,0.26452136039733887
52.0,0.2622574269771576
56.0,0.2600729167461395
60.0,0.25795379281044006
64.0,0.2558978497982025
72.0,0.25193294882774353
80.0,0.24813243746757507
88.0,0.2443634271621704
96.0,0.2408462017774582
104.0,0.2374451756477356
112.0,0.2341972291469574
120.0,0.230803981423378
128.0,0.22739501297473907
144.0,0.22073112428188324
160.0,0.21362970769405365
176.0,0.20540405809879303
192.0,0.1971895396709442
208.0,0.18949724733829498
224.0,0.18235601484775543
240.0,0.17612123489379883
256.0,0.1702757477760315
288.0,0.15719392895698547
320.0,0.14525017142295837
352.0,0.136883944272995
384.0,0.1297016441822052
416.0,0.12159841507673264
448.0,0.11390948295593262
480.0,0.1080758199095726
512.0,0.10181993246078491
576.0,0.08678986132144928
640.0,0.06864473968744278
704.0,0.052106186747550964
768.0,0.038411084562540054
832.0,0.025910165160894394
896.0,0.01585976965725422
960.0,0.009167494252324104
1024.0,-0.001232827897183597
1152.0,-0.01815236359834671
1280.0,-0.027353625744581223
1408.0,-0.03079894185066223
1536.0,-0.039289820939302444
1664.0,-0.04387509822845459
1792.0,-0.04162750020623207
1920.0,-0.03602786362171173
2048.0,-0.02967683970928192
2304.0,-0.04636488854885101
2560.0,-0.06581616401672363
2816.0,-0.06440111994743347
3072.0,-0.07355694472789764
3328.0,-0.02611805684864521
3584.0,0.014215609058737755
3840.0,0.04034389182925224
4096.0,0.05691353604197502
4608.0,0.04846736416220665
5120.0,-0.016667230054736137
5632.0,-0.04379800707101822
6144.0,-0.04924957454204559
6656.0,-0.08679260313510895
7168.0,-0.07865291833877563
7680.0,-0.010273940861225128
8192.0,0.10053907334804535
9216.0,0.05466802418231964
10240.0,-0.010478261858224869
11264.0,-0.11183780431747437
12288.0,0.05492589995265007
13312.0,0.1685630828142166
14336.0,-0.1548176109790802
end
