version,3.0
numOfCh,1
type,point
parent_name,484af_10dot0-0dot1
ch_type,1_1
kcount,1
numberNandB,1
brightnessNandB,1
carpet pos,0
pc,0
Time (ms),CH1 Auto-Correlation
1.0,0.02514384500682354
2.0,0.017234012484550476
3.0,0.013399087823927402
4.0,0.010675609111785889
5.0,0.008610012009739876
6.0,0.00757507374510169
7.0,0.006600441876798868
8.0,0.005823726300150156
9.0,0.005062767304480076
10.0,0.004523649346083403
11.0,0.00380987417884171
12.0,0.0033234048169106245
13.0,0.0028935668524354696
14.0,0.0030332382302731276
15.0,0.00263990624807775
16.0,0.0021124547347426414
18.0,0.0018210160778835416
20.0,0.0014042290858924389
22.0,0.0010997880017384887
24.0,0.0011602382874116302
26.0,0.0004645558074116707
28.0,-0.0001435146841686219
30.0,0.0001545899867778644
32.0,0.00010418016609037295
36.0,0.00024114041298162192
40.0,0.00022620370145887136
44.0,0.000505966367200017
48.0,0.0007323485915549099
52.0,0.0007775381673127413
56.0,0.0003445404872763902
60.0,0.00026090090977959335
64.0,-0.00011494163481984288
72.0,7.216266385512426e-05
80.0,-0.00011762877693399787
88.0,-0.00032902826205827296
96.0,-0.0007441128836944699
104.0,-0.0004938318161293864
112.0,-3.0712009902345017e-05
120.0,9.393815707881004e-05
128.0,-6.929839582880959e-05
144.0,-0.00017816181934904307
160.0,-0.0006208569393493235
176.0,0.0005268589593470097
192.0,0.000697441166266799
208.0,4.014244768768549e-05
224.0,-0.00014994321099948138
240.0,0.00019002420594915748
256.0,0.0004913960583508015
288.0,0.00041869046981446445
320.0,0.000548003357835114
352.0,0.0002383301907684654
384.0,3.410650242585689e-05
416.0,-0.0001739457220537588
448.0,0.00045532704098150134
480.0,-6.606606621062383e-05
512.0,0.0006811683997511864
576.0,0.0001455047313356772
640.0,-0.0003220768121536821
704.0,7.453476882801624e-06
768.0,9.492875688010827e-05
832.0,-5.1304043154232204e-05
896.0,0.0001252930233022198
960.0,1.6510055502294563e-05
1024.0,-0.000304048735415563
1152.0,0.00035484469844959676
1280.0,-0.00025388639187440276
1408.0,9.360368858324364e-05
1536.0,0.00011520474799908698
1664.0,2.297105675097555e-05
1792.0,4.581337998388335e-05
1920.0,6.306215800577775e-05
2048.0,-0.00032071713940240443
2304.0,-0.0002496885135769844
2560.0,7.969832222443074e-05
2816.0,-0.00011250421812292188
3072.0,0.0001345849595963955
3328.0,-0.000126585247926414
3584.0,3.372946957824752e-05
3840.0,0.00011479459499241784
4096.0,8.50024152896367e-05
4608.0,-6.736358773196116e-05
5120.0,-0.00027681211940944195
5632.0,6.618833867833018e-05
6144.0,-3.768528767977841e-05
6656.0,-0.00019342961604706943
7168.0,4.1950017475755885e-05
7680.0,9.162707283394411e-05
8192.0,0.0001099552828236483
end
