version,3.0
numOfCh,1
type,point
parent_name,34a6d_0dot1-0dot1
ch_type,1_1
kcount,1
numberNandB,1
brightnessNandB,1
carpet pos,0
pc,0
Time (ms),CH1 Auto-Correlation
1.0,0.07129881531000137
2.0,0.07070503383874893
3.0,0.07013462483882904
4.0,0.06958068162202835
5.0,0.06902994215488434
6.0,0.06850240379571915
7.0,0.06798893213272095
8.0,0.06748132407665253
9.0,0.06696975231170654
10.0,0.06645528227090836
11.0,0.06594575196504593
12.0,0.06544065475463867
13.0,0.06492453813552856
14.0,0.06441711634397507
15.0,0.06390944123268127
16.0,0.06339599192142487
18.0,0.0623888336122036
20.0,0.061483290046453476
22.0,0.0605938658118248
24.0,0.05971821770071983
26.0,0.058896757662296295
28.0,0.05812092497944832
30.0,0.057426270097494125
32.0,0.05680282413959503
36.0,0.05548075959086418
40.0,0.05403399467468262
44.0,0.05257917195558548
48.0,0.05108897387981415
52.0,0.04957875609397888
56.0,0.04820458963513374
60.0,0.04694748669862747
64.0,0.045819394290447235
72.0,0.04397005960345268
80.0,0.04223190248012543
88.0,0.04066047817468643
96.0,0.03918798267841339
104.0,0.038000721484422684
112.0,0.03699539974331856
120.0,0.036195505410432816
128.0,0.03556174039840698
144.0,0.03413698077201843
160.0,0.03229060769081116
176.0,0.030165009200572968
192.0,0.02842123620212078
208.0,0.0267651230096817
224.0,0.025208735838532448
240.0,0.023634763434529305
256.0,0.021836793050169945
288.0,0.02073182351887226
320.0,0.01923658326268196
352.0,0.017530392855405807
384.0,0.016865037381649017
416.0,0.014696522615849972
448.0,0.01248328946530819
480.0,0.01082544308155775
512.0,0.008740721270442009
576.0,0.0033129423391073942
640.0,-0.00012695990153588355
704.0,-0.002003931673243642
768.0,-0.0034888864029198885
832.0,-0.005397348199039698
896.0,-0.009108307771384716
960.0,-0.010700981132686138
1024.0,-0.009221340529620647
1152.0,-0.00477290665730834
1280.0,-0.005682445131242275
1408.0,-0.003977557644248009
1536.0,-0.0011629404034465551
1664.0,-0.0017730507533997297
1792.0,-0.0027396914083510637
1920.0,0.00028544728411361575
2048.0,8.690617687534541e-05
2304.0,-0.005567789077758789
2560.0,-0.008530640043318272
2816.0,-0.01188053097575903
3072.0,-0.010823100805282593
3328.0,-0.007730781566351652
3584.0,-0.0008036288782022893
3840.0,0.0063202572055161
4096.0,0.007314648013561964
4608.0,-0.0006506153149530292
5120.0,-0.003321195486932993
5632.0,-0.0062895785085856915
6144.0,-0.007329709827899933
6656.0,0.002302852226421237
7168.0,-0.0005494050565175712
7680.0,0.01180646475404501
8192.0,0.022244753316044807
end
