version,3.0
numOfCh,1
type,point
parent_name,34a6d_0dot1-0dot1
ch_type,1_1
kcount,1
numberNandB,1
brightnessNandB,1
carpet pos,0
pc,0
Time (ms),CH1 Auto-Correlation
1.0,0.06979633122682571
2.0,0.06918392330408096
3.0,0.06859585642814636
4.0,0.06804531067609787
5.0,0.06752262264490128
6.0,0.067002072930336
7.0,0.06648793816566467
8.0,0.06599313765764236
9.0,0.06552762538194656
10.0,0.06507415324449539
11.0,0.06464938819408417
12.0,0.06422603130340576
13.0,0.06382885575294495
14.0,0.06341186165809631
15.0,0.06300223618745804
16.0,0.06260094791650772
18.0,0.06183207035064697
20.0,0.06108750030398369
22.0,0.06036106497049332
24.0,0.05965283140540123
26.0,0.05896199867129326
28.0,0.058305248618125916
30.0,0.0576971098780632
32.0,0.05712058022618294
36.0,0.05606023222208023
40.0,0.05498937517404556
44.0,0.053987205028533936
48.0,0.05302158743143082
52.0,0.0520414374768734
56.0,0.05112757906317711
60.0,0.05025417357683182
64.0,0.049401141703128815
72.0,0.04753529280424118
80.0,0.045898426324129105
88.0,0.04451639950275421
96.0,0.04308611527085304
104.0,0.04169903323054314
112.0,0.040661685168743134
120.0,0.03987646475434303
128.0,0.03904983028769493
144.0,0.03689533472061157
160.0,0.03504710644483566
176.0,0.0332396924495697
192.0,0.0318179726600647
208.0,0.030161671340465546
224.0,0.028534268960356712
240.0,0.026242336258292198
256.0,0.024228384718298912
288.0,0.021479137241840363
320.0,0.01826155185699463
352.0,0.015371876768767834
384.0,0.012311716563999653
416.0,0.010048171505331993
448.0,0.009609882719814777
480.0,0.010118781588971615
512.0,0.011235963553190231
576.0,0.010865213349461555
640.0,0.012355005368590355
704.0,0.014059754088521004
768.0,0.01634564995765686
832.0,0.01946946792304516
896.0,0.021634839475154877
960.0,0.02386341616511345
1024.0,0.023338036611676216
1152.0,0.021788354963064194
1280.0,0.01201675646007061
1408.0,0.0016028217505663633
1536.0,-0.0007002985803410411
1664.0,0.000538740074262023
1792.0,0.0062399632297456264
1920.0,0.00754676153883338
2048.0,0.006759116426110268
2304.0,0.002993977162986994
2560.0,0.003235092619433999
2816.0,-0.0017713207053020597
3072.0,-0.005247338674962521
3328.0,-0.001064129057340324
3584.0,0.00637697521597147
3840.0,0.002285065595060587
4096.0,-0.0013443201314657927
4608.0,0.0010518984636291862
5120.0,0.00056846794905141
5632.0,0.0020001509692519903
6144.0,-0.0019850016105920076
6656.0,-0.0040717837400734425
7168.0,-0.018656613305211067
7680.0,-0.02287040464580059
8192.0,-0.03398912400007248
end
