version,3.0
numOfCh,1
type,point
parent_name,34a6d_0dot1-0dot1
ch_type,1_1
kcount,1
numberNandB,1
brightnessNandB,1
carpet pos,0
pc,0
Time (ms),CH1 Auto-Correlation
1.0,0.04723634570837021
2.0,0.04661327973008156
3.0,0.046020448207855225
4.0,0.04543570801615715
5.0,0.04486822709441185
6.0,0.04430815950036049
7.0,0.04375569522380829
8.0,0.04320082068443298
9.0,0.04263334721326828
10.0,0.042085953056812286
11.0,0.041533615440130234
12.0,0.04097142815589905
13.0,0.040446020662784576
14.0,0.039929356426000595
15.0,0.03945948928594589
16.0,0.038969412446022034
18.0,0.038095682859420776
20.0,0.037266507744789124
22.0,0.03649316355586052
24.0,0.035785138607025146
26.0,0.03513413295149803
28.0,0.03451908752322197
30.0,0.033947769552469254
32.0,0.033396098762750626
36.0,0.032345645129680634
40.0,0.03128370642662048
44.0,0.030253682285547256
48.0,0.029221029952168465
52.0,0.02823144569993019
56.0,0.027305107563734055
60.0,0.026434442028403282
64.0,0.025569744408130646
72.0,0.024052323773503304
80.0,0.02270197868347168
88.0,0.021596692502498627
96.0,0.020687062293291092
104.0,0.01986309140920639
112.0,0.018994348123669624
120.0,0.01819094456732273
128.0,0.01744901016354561
144.0,0.016190771013498306
160.0,0.014959333464503288
176.0,0.014279959723353386
192.0,0.014641121961176395
208.0,0.015197760425508022
224.0,0.01501490268856287
240.0,0.014626513235270977
256.0,0.013943525962531567
288.0,0.012887978926301003
320.0,0.011758052743971348
352.0,0.009876617230474949
384.0,0.008073635399341583
416.0,0.00820037629455328
448.0,0.008910291828215122
480.0,0.008401638828217983
512.0,0.0082042645663023
576.0,0.006526425015181303
640.0,0.0030558027792721987
704.0,0.0011243729386478662
768.0,-2.636644603626337e-05
832.0,0.00017699095769785345
896.0,0.0019121331861242652
960.0,0.0019835003186017275
1024.0,0.0013768195640295744
1152.0,-0.004636078141629696
1280.0,-0.006117995362728834
1408.0,-0.00185393076390028
1536.0,0.0009352880879305303
1664.0,0.001524614286608994
1792.0,0.0005478977109305561
1920.0,0.0032826147507876158
2048.0,0.0012761831749230623
2304.0,0.001346519566141069
2560.0,0.0013078100746497512
2816.0,-0.0018699989886954427
3072.0,-0.004192042164504528
3328.0,-0.0028038369491696358
3584.0,-0.005799673963338137
3840.0,-0.0026003625243902206
4096.0,0.003458199789747596
4608.0,-0.0010890028206631541
5120.0,0.001355782151222229
5632.0,-0.0018438005354255438
6144.0,-0.003254513954743743
6656.0,0.006386652588844299
7168.0,0.001636999542824924
7680.0,-0.004944167099893093
8192.0,-0.007637037429958582
end
