version,3.0
numOfCh,1
type,point
parent_name,34a6d_0dot1-0dot1
ch_type,1_1
kcount,1
numberNandB,1
brightnessNandB,1
carpet pos,0
pc,0
Time (ms),CH1 Auto-Correlation
1.0,0.06408101320266724
2.0,0.06326059252023697
3.0,0.06248190999031067
4.0,0.06176506727933884
5.0,0.06104206666350365
6.0,0.060349173843860626
7.0,0.0596555694937706
8.0,0.058997444808483124
9.0,0.05838426947593689
10.0,0.05773354694247246
11.0,0.05711858347058296
12.0,0.056540597230196
13.0,0.05603734403848648
14.0,0.05553169921040535
15.0,0.055038221180438995
16.0,0.0545613169670105
18.0,0.053552281111478806
20.0,0.05255713313817978
22.0,0.05159047991037369
24.0,0.05069781467318535
26.0,0.04988054186105728
28.0,0.04916603863239288
30.0,0.04853549972176552
32.0,0.04789057374000549
36.0,0.046570636332035065
40.0,0.04530280828475952
44.0,0.04392578452825546
48.0,0.04261299967765808
52.0,0.041332174092531204
56.0,0.0400971844792366
60.0,0.039058953523635864
64.0,0.03821650519967079
72.0,0.03671387583017349
80.0,0.03504793345928192
88.0,0.033134348690509796
96.0,0.03125525638461113
104.0,0.029572106897830963
112.0,0.028242137283086777
120.0,0.027310548350214958
128.0,0.026634633541107178
144.0,0.02488008327782154
160.0,0.02310057543218136
176.0,0.02156769298017025
192.0,0.020417088642716408
208.0,0.01898682676255703
224.0,0.017990494146943092
240.0,0.0164719820022583
256.0,0.01463297102600336
288.0,0.012241222895681858
320.0,0.01258719153702259
352.0,0.012538936920464039
384.0,0.010085348971188068
416.0,0.008397147990763187
448.0,0.007737808860838413
480.0,0.007274689618498087
512.0,0.0063622319139540195
576.0,0.0025682791601866484
640.0,-0.0014950343174859881
704.0,-0.003252540249377489
768.0,-0.0065537248738110065
832.0,-0.00859404169023037
896.0,-0.008807930164039135
960.0,-0.01118096336722374
1024.0,-0.01019089575856924
1152.0,-0.01089517492800951
1280.0,-0.014728501439094543
1408.0,-0.011071347631514072
1536.0,-0.004510538652539253
1664.0,-0.0034192046150565147
1792.0,-0.002860048785805702
1920.0,0.0021159190218895674
2048.0,0.0056717791594564915
2304.0,0.006960937287658453
2560.0,0.010486788116395473
2816.0,0.010238408111035824
3072.0,0.008265851996839046
3328.0,0.0032001053914427757
3584.0,-0.0018085103947669268
3840.0,-0.00875028409063816
4096.0,-0.007074188441038132
4608.0,-0.002044857246801257
5120.0,-0.00043638149509206414
5632.0,-0.0032199041452258825
6144.0,0.0038236200343817472
6656.0,0.0003882354067172855
7168.0,-0.007916385307908058
7680.0,-0.013255140744149685
8192.0,-0.01533171720802784
end
