version,3.0
numOfCh,1
type,point
parent_name,34a6d_0dot1-0dot1
ch_type,1_1
kcount,1
numberNandB,1
brightnessNandB,1
carpet pos,0
pc,0
Time (ms),CH1 Auto-Correlation
1.0,0.04515757039189339
2.0,0.0446014441549778
3.0,0.04407363757491112
4.0,0.04354812949895859
5.0,0.04302282631397247
6.0,0.042535167187452316
7.0,0.04206164553761482
8.0,0.04156138375401497
9.0,0.041070062667131424
10.0,0.040596988052129745
11.0,0.040136802941560745
12.0,0.039657071232795715
13.0,0.039204612374305725
14.0,0.03875938802957535
15.0,0.03834228217601776
16.0,0.037946056574583054
18.0,0.03719794377684593
20.0,0.03643419221043587
22.0,0.03566104918718338
24.0,0.034941766411066055
26.0,0.03422700986266136
28.0,0.03355583921074867
30.0,0.03294682502746582
32.0,0.03232315555214882
36.0,0.031139124184846878
40.0,0.03011125512421131
44.0,0.029240813106298447
48.0,0.028442444279789925
52.0,0.027745265513658524
56.0,0.0270527470856905
60.0,0.02635067142546177
64.0,0.02567770518362522
72.0,0.024451255798339844
80.0,0.02346567064523697
88.0,0.0223811324685812
96.0,0.021112624555826187
104.0,0.019838806241750717
112.0,0.018735503777861595
120.0,0.017794180661439896
128.0,0.016935143619775772
144.0,0.01545792818069458
160.0,0.014175690710544586
176.0,0.012778224423527718
192.0,0.010975594632327557
208.0,0.00944085605442524
224.0,0.008204727433621883
240.0,0.006993259768933058
256.0,0.005454405210912228
288.0,0.0027567935176193714
320.0,0.0018001297721639276
352.0,0.0006268356810323894
384.0,-0.0001371548423776403
416.0,0.0003289748856332153
448.0,0.0004477785259950906
480.0,0.000398630480049178
512.0,0.0005996456020511687
576.0,0.0011715018190443516
640.0,0.002816773485392332
704.0,0.003029721789062023
768.0,0.004383820574730635
832.0,0.004326804541051388
896.0,0.0047709038481116295
960.0,0.006603528745472431
1024.0,0.005573748145252466
1152.0,0.0034671577159315348
1280.0,-0.0005329849664121866
1408.0,-0.0004017174942418933
1536.0,0.0031587916892021894
1664.0,0.0026251182425767183
1792.0,0.002453071065247059
1920.0,-0.0005140030989423394
2048.0,-0.002485772827640176
2304.0,-0.003995353821665049
2560.0,-0.0033993241377174854
2816.0,-0.004438707139343023
3072.0,-0.00435006245970726
3328.0,-0.00018583892961032689
3584.0,-0.0034871120005846024
3840.0,-0.004415736999362707
4096.0,0.0024157315492630005
4608.0,0.0019071605056524277
5120.0,-0.0046458011493086815
5632.0,-0.003781156614422798
6144.0,-0.006773253437131643
6656.0,-0.004107323009520769
7168.0,-0.008274945430457592
7680.0,-5.2354935178300366e-05
8192.0,0.0034691467881202698
end
