version,3.0
numOfCh,1
type,point
parent_name,34a6d_0dot1-0dot1
ch_type,1_1
kcount,1
numberNandB,1
brightnessNandB,1
carpet pos,0
pc,0
Time (ms),CH1 Auto-Correlation
1.0,0.05047005042433739
2.0,0.049717582762241364
3.0,0.048984870314598083
4.0,0.04829506203532219
5.0,0.04766754433512688
6.0,0.047072216868400574
7.0,0.046494293957948685
8.0,0.04591768980026245
9.0,0.04539668187499046
10.0,0.04487766698002815
11.0,0.044399965554475784
12.0,0.04391879960894585
13.0,0.0434669628739357
14.0,0.04301653057336807
15.0,0.0425751730799675
16.0,0.042138922959566116
18.0,0.04133689031004906
20.0,0.04064590111374855
22.0,0.04000363498926163
24.0,0.03938623145222664
26.0,0.03877260908484459
28.0,0.03814210742712021
30.0,0.03754674270749092
32.0,0.036990996450185776
36.0,0.036072053015232086
40.0,0.035238027572631836
44.0,0.03431965038180351
48.0,0.03329979255795479
52.0,0.03226077929139137
56.0,0.031236309558153152
60.0,0.030182767659425735
64.0,0.029156707227230072
72.0,0.02740504778921604
80.0,0.025710083544254303
88.0,0.02416093647480011
96.0,0.022982746362686157
104.0,0.021665308624505997
112.0,0.020344795659184456
120.0,0.019112858921289444
128.0,0.017791924998164177
144.0,0.0159806739538908
160.0,0.014561844989657402
176.0,0.01325282920151949
192.0,0.012435379438102245
208.0,0.011799832805991173
224.0,0.011909431777894497
240.0,0.012036862783133984
256.0,0.012199386022984982
288.0,0.01187607180327177
320.0,0.010087709873914719
352.0,0.008659410290420055
384.0,0.007477096281945705
416.0,0.004275132901966572
448.0,0.0013676367234438658
480.0,-0.001250696019269526
512.0,-0.003330838168039918
576.0,-0.007035809103399515
640.0,-0.007336700335144997
704.0,-0.004570700228214264
768.0,-0.003290128195658326
832.0,-0.0038358010351657867
896.0,-0.0036317920312285423
960.0,-0.003495540702715516
1024.0,-0.0011434148764237761
1152.0,0.003822129685431719
1280.0,0.005162115674465895
1408.0,0.004650291986763477
1536.0,0.005524792708456516
1664.0,-7.395534339593723e-05
1792.0,-0.006674367934465408
1920.0,-0.004913640208542347
2048.0,-0.0050900597125291824
2304.0,-0.002430939581245184
2560.0,-0.0014609989011660218
2816.0,0.0010172930778935552
3072.0,0.0036356293130666018
3328.0,-0.00013501396460924298
3584.0,-0.0014288041274994612
3840.0,0.006157111842185259
4096.0,0.006783057935535908
4608.0,-0.00689728045836091
5120.0,0.00041375693399459124
5632.0,-0.005202979780733585
6144.0,-0.010081195272505283
6656.0,0.008351797237992287
7168.0,-0.00711432658135891
7680.0,-0.0069011785089969635
8192.0,-0.0025646777357906103
end
