version,3.0
numOfCh,1
type,point
parent_name,34a6d_0dot1-0dot1
ch_type,1_1
kcount,1
numberNandB,1
brightnessNandB,1
carpet pos,0
pc,0
Time (ms),CH1 Auto-Correlation
1.0,0.050185080617666245
2.0,0.04961540177464485
3.0,0.04907077178359032
4.0,0.048526979982852936
5.0,0.04798923432826996
6.0,0.047460734844207764
7.0,0.04694685339927673
8.0,0.0464392751455307
9.0,0.04596312716603279
10.0,0.04551400989294052
11.0,0.04506829008460045
12.0,0.04462899640202522
13.0,0.0442204624414444
14.0,0.043807465583086014
15.0,0.04340922459959984
16.0,0.043022919446229935
18.0,0.04228723794221878
20.0,0.04160487651824951
22.0,0.040966641157865524
24.0,0.04036622494459152
26.0,0.03974807634949684
28.0,0.03917085379362106
30.0,0.038622353225946426
32.0,0.03809100016951561
36.0,0.03701120615005493
40.0,0.03595287352800369
44.0,0.03495073318481445
48.0,0.03395046666264534
52.0,0.03302953019738197
56.0,0.03224358707666397
60.0,0.03158411756157875
64.0,0.030968807637691498
72.0,0.029817819595336914
80.0,0.028688551858067513
88.0,0.027539724484086037
96.0,0.026444166898727417
104.0,0.02526220679283142
112.0,0.024114251136779785
120.0,0.023044096305966377
128.0,0.022062059491872787
144.0,0.02059776708483696
160.0,0.019391726702451706
176.0,0.0176924429833889
192.0,0.015805652365088463
208.0,0.014028213918209076
224.0,0.01231546513736248
240.0,0.01081453450024128
256.0,0.009553183801472187
288.0,0.007572144269943237
320.0,0.006690413225442171
352.0,0.006533263251185417
384.0,0.006547735072672367
416.0,0.006563147529959679
448.0,0.006615747231990099
480.0,0.006453798618167639
512.0,0.007111740298569202
576.0,0.007762966677546501
640.0,0.007288477849215269
704.0,0.008448091335594654
768.0,0.010089010000228882
832.0,0.009819361381232738
896.0,0.011313233524560928
960.0,0.013121304102241993
1024.0,0.01379387080669403
1152.0,0.012275917455554008
1280.0,0.0091087706387043
1408.0,0.007591628935188055
1536.0,0.006239509675651789
1664.0,0.007006713654845953
1792.0,0.012025905773043633
1920.0,0.013289883732795715
2048.0,0.012798544950783253
2304.0,0.0013294467935338616
2560.0,0.004266250412911177
2816.0,0.008447917178273201
3072.0,0.006136108189821243
3328.0,6.880143246235093e-06
3584.0,0.0017210280057042837
3840.0,1.3723343727178872e-05
4096.0,8.948748291004449e-05
4608.0,-0.0018683098023757339
5120.0,0.0007719832356087863
5632.0,-0.0023179929703474045
6144.0,-0.002766640158370137
6656.0,-0.0021678113844245672
7168.0,-0.007029842119663954
7680.0,-0.005745091941207647
8192.0,-0.01432083360850811
end
