version,3.0
numOfCh,1
type,point
parent_name,34a6d_0dot1-0dot1
ch_type,1_1
kcount,1
numberNandB,1
brightnessNandB,1
carpet pos,0
pc,0
Time (ms),CH1 Auto-Correlation
1.0,0.04466589167714119
2.0,0.04409826919436455
3.0,0.04355071857571602
4.0,0.04301465302705765
5.0,0.04250102862715721
6.0,0.04199334606528282
7.0,0.04147239774465561
8.0,0.04096824675798416
9.0,0.04047978296875954
10.0,0.040020477026700974
11.0,0.03955840691924095
12.0,0.03911558538675308
13.0,0.0387054905295372
14.0,0.038301900029182434
15.0,0.037906844168901443
16.0,0.03752130642533302
18.0,0.036810848861932755
20.0,0.036103956401348114
22.0,0.03545123711228371
24.0,0.0348188616335392
26.0,0.03418552502989769
28.0,0.03357180953025818
30.0,0.03291420638561249
32.0,0.03226538747549057
36.0,0.03099094144999981
40.0,0.029872259125113487
44.0,0.02886233851313591
48.0,0.027896085754036903
52.0,0.026992082595825195
56.0,0.02600167691707611
60.0,0.02498919516801834
64.0,0.023990090936422348
72.0,0.02231978066265583
80.0,0.021048307418823242
88.0,0.019809797406196594
96.0,0.018592091277241707
104.0,0.017551695927977562
112.0,0.016459817066788673
120.0,0.015460340306162834
128.0,0.01464970875531435
144.0,0.013238332234323025
160.0,0.011898217722773552
176.0,0.010436835698783398
192.0,0.009148682467639446
208.0,0.008035842329263687
224.0,0.0073954216204583645
240.0,0.006648732349276543
256.0,0.006122062914073467
288.0,0.005801998544484377
320.0,0.00523761659860611
352.0,0.004996397532522678
384.0,0.005291965790092945
416.0,0.0047379485331475735
448.0,0.00400576600804925
480.0,0.0034598014317452908
512.0,0.0019517007749527693
576.0,0.001597692957147956
640.0,0.000580187828745693
704.0,0.0004110693989787251
768.0,-0.0005212253308854997
832.0,-0.002541035646572709
896.0,-0.003930071368813515
960.0,-0.003663858165964484
1024.0,-0.0032427883706986904
1152.0,-0.004827816039323807
1280.0,-0.003114287741482258
1408.0,-0.0034634731709957123
1536.0,-0.0021653911098837852
1664.0,0.0004287140618544072
1792.0,0.00032836670288816094
1920.0,0.0027416646480560303
2048.0,0.005516790319234133
2304.0,0.004065416753292084
2560.0,0.004541715607047081
2816.0,0.002040721010416746
3072.0,-0.006068967282772064
3328.0,-0.004369071684777737
3584.0,-0.005870188120752573
3840.0,-0.006615974009037018
4096.0,-0.00275011477060616
4608.0,0.0040300460532307625
5120.0,0.002608231734484434
5632.0,0.0018803750863298774
6144.0,-0.006630472838878632
6656.0,0.002302315318956971
7168.0,0.0021456703543663025
7680.0,-0.001523595885373652
8192.0,-0.007424868177622557
end
