version,3.0
numOfCh,1
type,point
parent_name,34a6d_0dot1-0dot1
ch_type,1_1
kcount,1
numberNandB,1
brightnessNandB,1
carpet pos,0
pc,0
Time (ms),CH1 Auto-Correlation
1.0,0.0708567276597023
2.0,0.07022164762020111
3.0,0.06961468607187271
4.0,0.06898927688598633
5.0,0.06837598979473114
6.0,0.067789226770401
7.0,0.06718029081821442
8.0,0.06658192723989487
9.0,0.06600453704595566
10.0,0.06544040143489838
11.0,0.06487215310335159
12.0,0.06434547901153564
13.0,0.06384218484163284
14.0,0.06335720419883728
15.0,0.06288399547338486
16.0,0.06241356581449509
18.0,0.06155601888895035
20.0,0.060725100338459015
22.0,0.059925902634859085
24.0,0.05915045365691185
26.0,0.058370690792798996
28.0,0.05760533735156059
30.0,0.05689322575926781
32.0,0.05621984228491783
36.0,0.054838407784700394
40.0,0.053472571074962616
44.0,0.05217300355434418
48.0,0.050909630954265594
52.0,0.0497613362967968
56.0,0.04877888038754463
60.0,0.047859080135822296
64.0,0.046951718628406525
72.0,0.04511009529232979
80.0,0.043262582272291183
88.0,0.041634950786828995
96.0,0.04011789709329605
104.0,0.03849376365542412
112.0,0.0368342287838459
120.0,0.03507178649306297
128.0,0.03331208974123001
144.0,0.030358532443642616
160.0,0.028514448553323746
176.0,0.027924837544560432
192.0,0.027929844334721565
208.0,0.02763727307319641
224.0,0.027116267010569572
240.0,0.026125220581889153
256.0,0.024881746619939804
288.0,0.023902909830212593
320.0,0.023383663967251778
352.0,0.022142210975289345
384.0,0.01980183646082878
416.0,0.01839499920606613
448.0,0.016032570973038673
480.0,0.013962840661406517
512.0,0.012891345657408237
576.0,0.013619703240692616
640.0,0.014344658702611923
704.0,0.011408018879592419
768.0,0.008577534928917885
832.0,0.007415612693876028
896.0,0.00833097193390131
960.0,0.009586906060576439
1024.0,0.011015578173100948
1152.0,0.00933096744120121
1280.0,0.010572738945484161
1408.0,0.008100337348878384
1536.0,0.01057261973619461
1664.0,0.01009075716137886
1792.0,0.005112453829497099
1920.0,0.0032159353140741587
2048.0,0.0015725867124274373
2304.0,0.008454506285488605
2560.0,0.018322808668017387
2816.0,0.015706952661275864
3072.0,0.007248037029057741
3328.0,0.001095223007723689
3584.0,0.0035180903505533934
3840.0,0.006240083370357752
4096.0,0.011143768206238747
4608.0,0.0011314075672999024
5120.0,-0.009420984424650669
5632.0,-0.007068936247378588
6144.0,-0.01001132931560278
6656.0,-0.011800537817180157
7168.0,-0.01090497151017189
7680.0,-0.024730853736400604
8192.0,-0.022424576804041862
end
