version,3.0
numOfCh,1
type,point
parent_name,34a6d_0dot1-0dot1
ch_type,1_1
kcount,1
numberNandB,1
brightnessNandB,1
carpet pos,0
pc,0
Time (ms),CH1 Auto-Correlation
1.0,0.05269186943769455
2.0,0.05206412076950073
3.0,0.05146954581141472
4.0,0.05087456479668617
5.0,0.050293486565351486
6.0,0.049670737236738205
7.0,0.049042824655771255
8.0,0.04844677448272705
9.0,0.04785490408539772
10.0,0.04728081077337265
11.0,0.04672635719180107
12.0,0.0461716428399086
13.0,0.045646801590919495
14.0,0.04514318332076073
15.0,0.044632889330387115
16.0,0.04414986073970795
18.0,0.04318724572658539
20.0,0.04229314252734184
22.0,0.04140527546405792
24.0,0.040579985827207565
26.0,0.03974276781082153
28.0,0.03890111669898033
30.0,0.03810610994696617
32.0,0.03735978156328201
36.0,0.035949286073446274
40.0,0.03454180434346199
44.0,0.03319038823246956
48.0,0.032024309039115906
52.0,0.030935242772102356
56.0,0.029853403568267822
60.0,0.028783662244677544
64.0,0.027807408943772316
72.0,0.025958161801099777
80.0,0.024200813844799995
88.0,0.022294387221336365
96.0,0.020727375522255898
104.0,0.019514521583914757
112.0,0.018560834228992462
120.0,0.017690427601337433
128.0,0.017037268728017807
144.0,0.016371607780456543
160.0,0.015616645105183125
176.0,0.015151344239711761
192.0,0.013899064622819424
208.0,0.012235058471560478
224.0,0.010443980805575848
240.0,0.008911771699786186
256.0,0.007747165858745575
288.0,0.005555355921387672
320.0,0.005187227390706539
352.0,0.005505582317709923
384.0,0.004987800493836403
416.0,0.0037875825073570013
448.0,0.0012663534143939614
480.0,-0.001196145312860608
512.0,-0.0016445491928607225
576.0,-3.7901099858572707e-05
640.0,0.001444290392100811
704.0,0.0038550791796296835
768.0,0.003532343078404665
832.0,0.0044876812025904655
896.0,0.004883298650383949
960.0,0.006103144492954016
1024.0,0.007545065134763718
1152.0,0.004479787778109312
1280.0,0.004781422205269337
1408.0,-0.0004931457224301994
1536.0,-0.003242975100874901
1664.0,-0.0016610112506896257
1792.0,-0.0021923661697655916
1920.0,-0.004769568797200918
2048.0,-0.0034826411865651608
2304.0,-0.0003470222873147577
2560.0,-0.0025945098605006933
2816.0,-0.0046755545772612095
3072.0,0.00021827127784490585
3328.0,0.0064332932233810425
3584.0,-0.0019712517969310284
3840.0,-0.004005471244454384
4096.0,-0.0018109458032995462
4608.0,0.005992279853671789
5120.0,-0.0012254731263965368
5632.0,0.0012570808175951242
6144.0,-0.0065337615087628365
6656.0,-0.01071560475975275
7168.0,-0.00986187718808651
7680.0,3.8165129808476195e-05
8192.0,-0.004899212624877691
end
