version,3.0
numOfCh,1
type,point
parent_name,34a6d_0dot1-0dot1
ch_type,1_1
kcount,1
numberNandB,1
brightnessNandB,1
carpet pos,0
pc,0
Time (ms),CH1 Auto-Correlation
1.0,0.06569761782884598
2.0,0.06502465903759003
3.0,0.06437114626169205
4.0,0.06373841315507889
5.0,0.06315874308347702
6.0,0.06257835030555725
7.0,0.06200171634554863
8.0,0.06144573912024498
9.0,0.06091427803039551
10.0,0.06042255461215973
11.0,0.059963952749967575
12.0,0.059508077800273895
13.0,0.05906529724597931
14.0,0.05863416567444801
15.0,0.058219730854034424
16.0,0.05782900005578995
18.0,0.05705787241458893
20.0,0.056372568011283875
22.0,0.055735282599925995
24.0,0.055126164108514786
26.0,0.05454240366816521
28.0,0.05399489402770996
30.0,0.05349477753043175
32.0,0.05299483239650726
36.0,0.05207330733537674
40.0,0.05124805122613907
44.0,0.0503619983792305
48.0,0.04940107464790344
52.0,0.04839654639363289
56.0,0.04747283086180687
60.0,0.046622615307569504
64.0,0.04582211375236511
72.0,0.044373396784067154
80.0,0.04298606142401695
88.0,0.041762031614780426
96.0,0.0405024029314518
104.0,0.03934293985366821
112.0,0.03847285732626915
120.0,0.03766390681266785
128.0,0.03636544942855835
144.0,0.033920321613550186
160.0,0.032595425844192505
176.0,0.03193054348230362
192.0,0.03134807571768761
208.0,0.030220139771699905
224.0,0.02874183841049671
240.0,0.027356140315532684
256.0,0.02589299902319908
288.0,0.025075417011976242
320.0,0.024599589407444
352.0,0.024256402626633644
384.0,0.024071617051959038
416.0,0.024201393127441406
448.0,0.02415338158607483
480.0,0.02413814701139927
512.0,0.024541128426790237
576.0,0.021242531016469002
640.0,0.016044236719608307
704.0,0.01211357768625021
768.0,0.008752750232815742
832.0,0.007222913205623627
896.0,0.00852171890437603
960.0,0.010464121587574482
1024.0,0.011439915746450424
1152.0,0.00868847593665123
1280.0,0.003255631774663925
1408.0,-0.0005450660828500986
1536.0,-0.002211283892393112
1664.0,-0.006249606143683195
1792.0,-0.011526203714311123
1920.0,-0.017593033611774445
2048.0,-0.013206599280238152
2304.0,-0.005780273117125034
2560.0,-0.004195988643914461
2816.0,-0.0030258866026997566
3072.0,-0.0067104981280863285
3328.0,-0.0011823909590020776
3584.0,2.4109687728923745e-05
3840.0,0.002952906535938382
4096.0,-0.00397539371624589
4608.0,-0.006000023800879717
5120.0,0.002654515439644456
5632.0,0.0068615940399467945
6144.0,0.01203488651663065
6656.0,0.012337335385382175
7168.0,-0.005414404906332493
7680.0,-0.013948485255241394
8192.0,-0.03002404049038887
end
