version,3.0
numOfCh,1
type,point
parent_name,34a6d_0dot1-0dot1
ch_type,1_1
kcount,1
numberNandB,1
brightnessNandB,1
carpet pos,0
pc,0
Time (ms),CH1 Auto-Correlation
1.0,0.05710228905081749
2.0,0.05652651563286781
3.0,0.05596610903739929
4.0,0.05541113764047623
5.0,0.054869167506694794
6.0,0.05434005334973335
7.0,0.05383085086941719
8.0,0.05331822857260704
9.0,0.052809711545705795
10.0,0.05229339376091957
11.0,0.0517917238175869
12.0,0.05129724368453026
13.0,0.05080942437052727
14.0,0.05033193528652191
15.0,0.049871526658535004
16.0,0.04941443353891373
18.0,0.04853133112192154
20.0,0.04769182577729225
22.0,0.04692259430885315
24.0,0.04620702192187309
26.0,0.04553136229515076
28.0,0.04485246539115906
30.0,0.04416615515947342
32.0,0.04347454756498337
36.0,0.04212084785103798
40.0,0.04078322649002075
44.0,0.03948831185698509
48.0,0.038314878940582275
52.0,0.037260398268699646
56.0,0.036338962614536285
60.0,0.03545946255326271
64.0,0.03455982357263565
72.0,0.03286314383149147
80.0,0.031134044751524925
88.0,0.029317637905478477
96.0,0.02760470286011696
104.0,0.02612566016614437
112.0,0.024861518293619156
120.0,0.023758722469210625
128.0,0.022633953019976616
144.0,0.02101960778236389
160.0,0.020087487995624542
176.0,0.019078508019447327
192.0,0.017985140904784203
208.0,0.016797110438346863
224.0,0.015915533527731895
240.0,0.01558432262390852
256.0,0.015072652138769627
288.0,0.013111953623592854
320.0,0.01132675725966692
352.0,0.009556697681546211
384.0,0.007323083467781544
416.0,0.005531368311494589
448.0,0.0037850516382604837
480.0,0.0032010264694690704
512.0,0.0032222173176705837
576.0,0.001893816632218659
640.0,-0.0003737690858542919
704.0,-0.0017604613676667213
768.0,-0.001463764812797308
832.0,-0.0008577301632612944
896.0,-0.002817989094182849
960.0,-0.004677297547459602
1024.0,-0.0038495254702866077
1152.0,-0.004779374226927757
1280.0,-0.006732712034136057
1408.0,-0.005083684343844652
1536.0,-0.004285024479031563
1664.0,-0.0017205816693603992
1792.0,-0.0007216233643703163
1920.0,0.005331526510417461
2048.0,0.004729016683995724
2304.0,0.0036095501855015755
2560.0,0.0018020991701632738
2816.0,0.00374049786478281
3072.0,-0.0003894704859703779
3328.0,0.002422105986624956
3584.0,0.004281658213585615
3840.0,-0.001080096117220819
4096.0,-0.0049649798311293125
4608.0,-0.0033808075822889805
5120.0,0.005425338167697191
5632.0,0.0003949545498471707
6144.0,-0.007872986607253551
6656.0,0.0010627459269016981
7168.0,0.006794002838432789
7680.0,0.0037512488197535276
8192.0,-0.008948982693254948
end
