version,3.0
numOfCh,1
type,point
parent_name,34a6d_0dot1-0dot1
ch_type,1_1
kcount,1
numberNandB,1
brightnessNandB,1
carpet pos,0
pc,0
Time (ms),CH1 Auto-Correlation
1.0,0.04037151485681534
2.0,0.03980938345193863
3.0,0.039265114814043045
4.0,0.03875323012471199
5.0,0.038260284811258316
6.0,0.03775423392653465
7.0,0.03727737069129944
8.0,0.036808375269174576
9.0,0.03635812923312187
10.0,0.035910237580537796
11.0,0.03547396510839462
12.0,0.035038627684116364
13.0,0.03460249677300453
14.0,0.034187473356723785
15.0,0.033784810453653336
16.0,0.03338932618498802
18.0,0.03265461325645447
20.0,0.03196009248495102
22.0,0.031281132251024246
24.0,0.030666619539260864
26.0,0.03008054383099079
28.0,0.029529428109526634
30.0,0.029009800404310226
32.0,0.028511522337794304
36.0,0.027587154880166054
40.0,0.026700692251324654
44.0,0.02595151960849762
48.0,0.02530091255903244
52.0,0.024690555408596992
56.0,0.024103308096528053
60.0,0.0235049519687891
64.0,0.022887034341692924
72.0,0.02154909446835518
80.0,0.02025625854730606
88.0,0.019239092245697975
96.0,0.018364768475294113
104.0,0.01756773516535759
112.0,0.016644202172756195
120.0,0.01589307375252247
128.0,0.015170801430940628
144.0,0.014050294645130634
160.0,0.013175453059375286
176.0,0.012373041361570358
192.0,0.011945785023272038
208.0,0.011575976386666298
224.0,0.011091439984738827
240.0,0.01099303923547268
256.0,0.010685362853109837
288.0,0.009749019518494606
320.0,0.00859778467565775
352.0,0.008262334391474724
384.0,0.009244905784726143
416.0,0.009423348121345043
448.0,0.008668361231684685
480.0,0.007197197526693344
512.0,0.005412539467215538
576.0,0.003974888473749161
640.0,0.004718872718513012
704.0,0.004590676631778479
768.0,0.004221529234200716
832.0,0.004110720474272966
896.0,0.002450269879773259
960.0,-0.0003102203190792352
1024.0,-0.0009078045841306448
1152.0,0.00019430422980803996
1280.0,0.0016115031903609633
1408.0,-0.00011047837324440479
1536.0,0.0004020663327537477
1664.0,0.0026803200598806143
1792.0,0.002947366563603282
1920.0,0.0032951768953353167
2048.0,0.004607143346220255
2304.0,0.0055114151909947395
2560.0,0.003317995462566614
2816.0,-0.0006502512260340154
3072.0,-0.002480869647115469
3328.0,-0.004452488385140896
3584.0,-0.0025408021174371243
3840.0,0.0001336114073637873
4096.0,0.0020444411784410477
4608.0,0.0037854488473385572
5120.0,8.950810297392309e-05
5632.0,-0.004497653804719448
6144.0,0.0020848542917519808
6656.0,0.0047642625868320465
7168.0,-0.0008458236698061228
7680.0,-0.00712209427729249
8192.0,-0.005893969442695379
end
