version,3.0
numOfCh,1
type,point
parent_name,34a6d_0dot1-0dot1
ch_type,1_1
kcount,1
numberNandB,1
brightnessNandB,1
carpet pos,0
pc,0
Time (ms),CH1 Auto-Correlation
1.0,0.041207294911146164
2.0,0.040429435670375824
3.0,0.03973179683089256
4.0,0.03905021771788597
5.0,0.038430411368608475
6.0,0.03786097466945648
7.0,0.03731674328446388
8.0,0.036813411861658096
9.0,0.03628183901309967
10.0,0.03578370437026024
11.0,0.035321734845638275
12.0,0.03484419733285904
13.0,0.03438589721918106
14.0,0.033918339759111404
15.0,0.033459752798080444
16.0,0.03298349305987358
18.0,0.03208235278725624
20.0,0.031243925914168358
22.0,0.0305109191685915
24.0,0.029778923839330673
26.0,0.02903147041797638
28.0,0.028199078515172005
30.0,0.027410438284277916
32.0,0.026695162057876587
36.0,0.025346625596284866
40.0,0.023929046466946602
44.0,0.02265274152159691
48.0,0.021543290466070175
52.0,0.02048489637672901
56.0,0.019622033461928368
60.0,0.01880071684718132
64.0,0.018008995801210403
72.0,0.016485879197716713
80.0,0.015293315052986145
88.0,0.014336061663925648
96.0,0.013703972101211548
104.0,0.012902021408081055
112.0,0.012205803766846657
120.0,0.01148010790348053
128.0,0.010668347589671612
144.0,0.00978914275765419
160.0,0.009346839971840382
176.0,0.009086137637495995
192.0,0.008404580876231194
208.0,0.007562005426734686
224.0,0.00670636584982276
240.0,0.005562867969274521
256.0,0.0045617613941431046
288.0,0.003898580325767398
320.0,0.004531023558229208
352.0,0.00471157394349575
384.0,0.005263884551823139
416.0,0.005049737170338631
448.0,0.004614972043782473
480.0,0.0031922629568725824
512.0,0.002345317043364048
576.0,0.0016306177712976933
640.0,0.003645953256636858
704.0,0.0031759655103087425
768.0,0.0004642874118871987
832.0,-0.0023894980549812317
896.0,-0.003438707673922181
960.0,-0.0046089994721114635
1024.0,-0.003500295802950859
1152.0,0.0025869011878967285
1280.0,0.003728955052793026
1408.0,0.0032113343477249146
1536.0,0.003492973977699876
1664.0,-0.0009727400029078126
1792.0,-0.0037416599225252867
1920.0,-0.00467620138078928
2048.0,-0.005426276940852404
2304.0,-0.008626706898212433
2560.0,-0.005063886288553476
2816.0,-0.002724409569054842
3072.0,-0.004830565769225359
3328.0,-0.006639465689659119
3584.0,-0.007356318179517984
3840.0,-0.007165798917412758
4096.0,-0.00038588044117204845
4608.0,-0.000432265194831416
5120.0,0.004054567776620388
5632.0,0.006576914340257645
6144.0,-0.0010926855029538274
6656.0,-0.002161575946956873
7168.0,0.0034615786280483007
7680.0,-0.0017637942219153047
8192.0,0.002034880453720689
end
