version,3.0
numOfCh,1
type,point
parent_name,34a6d_0dot1-0dot1
ch_type,1_1
kcount,1
numberNandB,1
brightnessNandB,1
carpet pos,0
pc,0
Time (ms),CH1 Auto-Correlation
1.0,0.05042754486203194
2.0,0.0498032346367836
3.0,0.04919341206550598
4.0,0.048586808145046234
5.0,0.047996241599321365
6.0,0.04739838466048241
7.0,0.04681503400206566
8.0,0.04623476415872574
9.0,0.0456688329577446
10.0,0.045108895748853683
11.0,0.04455270990729332
12.0,0.04401647672057152
13.0,0.043490152806043625
14.0,0.04297395050525665
15.0,0.04247460514307022
16.0,0.04197996109724045
18.0,0.04096711426973343
20.0,0.04000983387231827
22.0,0.03908136487007141
24.0,0.038211822509765625
26.0,0.03738861158490181
28.0,0.036616187542676926
30.0,0.035846080631017685
32.0,0.03508767485618591
36.0,0.033623937517404556
40.0,0.032273612916469574
44.0,0.03099152445793152
48.0,0.02986626885831356
52.0,0.02885029837489128
56.0,0.027823682874441147
60.0,0.0268496572971344
64.0,0.025956636294722557
72.0,0.024042339995503426
80.0,0.022159742191433907
88.0,0.020407337695360184
96.0,0.018819881603121758
104.0,0.017462315037846565
112.0,0.016278916969895363
120.0,0.015135644003748894
128.0,0.014114598743617535
144.0,0.012624534778296947
160.0,0.01077205128967762
176.0,0.008710498921573162
192.0,0.0073898546397686005
208.0,0.0067507061176002026
224.0,0.005543885752558708
240.0,0.0040193223394453526
256.0,0.0028116570319980383
288.0,0.0006305722054094076
320.0,-0.000995315727777779
352.0,-0.0016138056525960565
384.0,-0.0023556887172162533
416.0,-0.002203342504799366
448.0,-0.0015147533267736435
480.0,9.926839265972376e-05
512.0,-0.00025167566491290927
576.0,-0.0015508664073422551
640.0,-0.0010231176856905222
704.0,0.0014976442325860262
768.0,0.003943285904824734
832.0,0.002116176299750805
896.0,0.0012066721683368087
960.0,-5.078962931293063e-05
1024.0,-0.0024594743736088276
1152.0,-0.0029232155065983534
1280.0,-0.0034123151563107967
1408.0,-0.002296383958309889
1536.0,-0.002934314077720046
1664.0,-0.0004355792480055243
1792.0,-0.004968852270394564
1920.0,-0.005464025307446718
2048.0,-0.003060388145968318
2304.0,-0.0008939772960729897
2560.0,-0.0023278165608644485
2816.0,-0.0034937618765980005
3072.0,-0.007925597950816154
3328.0,-0.004498473834246397
3584.0,-0.00011321041529299691
3840.0,0.0037679849192500114
4096.0,0.0034210551530122757
4608.0,0.008545329794287682
5120.0,-0.001023983582854271
5632.0,0.0008650065865367651
6144.0,-0.005585889331996441
6656.0,0.0002870519820135087
7168.0,-0.006078095640987158
7680.0,-0.005399791989475489
8192.0,0.001093088649213314
end
