version,3.0
numOfCh,1
type,point
parent_name,34a6d_0dot1-0dot1
ch_type,1_1
kcount,1
numberNandB,1
brightnessNandB,1
carpet pos,0
pc,0
Time (ms),CH1 Auto-Correlation
1.0,0.03684888035058975
2.0,0.036298707127571106
3.0,0.03573509678244591
4.0,0.035196974873542786
5.0,0.034659095108509064
6.0,0.03413214161992073
7.0,0.03359976410865784
8.0,0.03307833522558212
9.0,0.03256967291235924
10.0,0.03208563104271889
11.0,0.03162533417344093
12.0,0.031177852302789688
13.0,0.03074817731976509
14.0,0.0303327776491642
15.0,0.029935283586382866
16.0,0.029552370309829712
18.0,0.028817882761359215
20.0,0.028128650039434433
22.0,0.02744738571345806
24.0,0.026747575029730797
26.0,0.0260833278298378
28.0,0.025439409539103508
30.0,0.024819666519761086
32.0,0.024263126775622368
36.0,0.02319655939936638
40.0,0.022244831547141075
44.0,0.02130572311580181
48.0,0.020310990512371063
52.0,0.019340811297297478
56.0,0.018470918759703636
60.0,0.01770642027258873
64.0,0.017090512439608574
72.0,0.01610199548304081
80.0,0.015134834684431553
88.0,0.014067649841308594
96.0,0.01310637779533863
104.0,0.012282411567866802
112.0,0.011686619371175766
120.0,0.011317549273371696
128.0,0.01078215055167675
144.0,0.009526818059384823
160.0,0.008603235706686974
176.0,0.007504222448915243
192.0,0.006446551065891981
208.0,0.0058098044246435165
224.0,0.0049730995669960976
240.0,0.0036807225551456213
256.0,0.0020535055082291365
288.0,0.0008187546045519412
320.0,0.0007010342669673264
352.0,0.00117759988643229
384.0,0.0015037370612844825
416.0,0.0010386455105617642
448.0,0.0008373896707780659
480.0,0.0007935262401588261
512.0,0.0007368927472271025
576.0,-0.00010319631837774068
640.0,-0.0019681649282574654
704.0,-0.003936596680432558
768.0,-0.004071952309459448
832.0,-0.0031922569032758474
896.0,-0.0031364948954433203
960.0,-0.0007524501997977495
1024.0,0.0012794336071237922
1152.0,0.001745295710861683
1280.0,0.0013636683579534292
1408.0,0.0017982026329264045
1536.0,0.0025710156187415123
1664.0,0.0011966031743213534
1792.0,0.0021134489215910435
1920.0,0.0004084093088749796
2048.0,-0.003423732938244939
2304.0,-0.0008244672790169716
2560.0,-0.0008150242501869798
2816.0,-0.00035392557037994266
3072.0,0.0005387656856328249
3328.0,0.0017926187720149755
3584.0,0.0031399850267916918
3840.0,-0.001884562661871314
4096.0,-1.574899215484038e-06
4608.0,0.00046106555964797735
5120.0,0.00015288125723600388
5632.0,-0.001028784434311092
6144.0,0.000708390842191875
6656.0,-0.0027116681449115276
7168.0,0.005604591220617294
7680.0,-0.0034361237194389105
8192.0,0.001047544414177537
end
