version,3.0
numOfCh,1
type,point
parent_name,34a6d_0dot1-0dot1
ch_type,1_1
kcount,1
numberNandB,1
brightnessNandB,1
carpet pos,0
pc,0
Time (ms),CH1 Auto-Correlation
1.0,0.05148005113005638
2.0,0.05088329687714577
3.0,0.05026804283261299
4.0,0.04970231279730797
5.0,0.04915722832083702
6.0,0.04862770810723305
7.0,0.04810887947678566
8.0,0.047604434192180634
9.0,0.04714895412325859
10.0,0.046677298843860626
11.0,0.046225253492593765
12.0,0.04576067253947258
13.0,0.04531123861670494
14.0,0.04486262798309326
15.0,0.04440439119935036
16.0,0.04394082352519035
18.0,0.04304015263915062
20.0,0.04216955229640007
22.0,0.04128725454211235
24.0,0.040416114032268524
26.0,0.039538267999887466
28.0,0.03865233436226845
30.0,0.03780458867549896
32.0,0.03704233095049858
36.0,0.03562505915760994
40.0,0.03426743671298027
44.0,0.032991841435432434
48.0,0.03186585009098053
52.0,0.03076666221022606
56.0,0.02967085875570774
60.0,0.0286702960729599
64.0,0.02761508710682392
72.0,0.025643255561590195
80.0,0.023842306807637215
88.0,0.02229156158864498
96.0,0.021080832928419113
104.0,0.020213879644870758
112.0,0.019600005820393562
120.0,0.01924177072942257
128.0,0.018946224823594093
144.0,0.018611865118145943
160.0,0.018309451639652252
176.0,0.01760561764240265
192.0,0.016191724687814713
208.0,0.014832484535872936
224.0,0.013737714849412441
240.0,0.012989688664674759
256.0,0.012499658390879631
288.0,0.011327280662953854
320.0,0.00956726260483265
352.0,0.00796043686568737
384.0,0.008371593430638313
416.0,0.008744161576032639
448.0,0.008275517262518406
480.0,0.007416898850351572
512.0,0.006484888959676027
576.0,0.005019548814743757
640.0,0.006201271433383226
704.0,0.006376232486218214
768.0,0.000552407989744097
832.0,2.2595295376959257e-05
896.0,0.0013436076696962118
960.0,0.0008139447891153395
1024.0,0.0014450718881562352
1152.0,-0.0007177587831392884
1280.0,-0.00406925193965435
1408.0,-0.0015984057681635022
1536.0,0.0003737221995834261
1664.0,0.0003962789196521044
1792.0,0.0017394573660567403
1920.0,-0.0015979112358763814
2048.0,-0.002012501237913966
2304.0,-0.0033537442795932293
2560.0,-0.005441964603960514
2816.0,-0.005158360116183758
3072.0,0.0038630811031907797
3328.0,0.004375925753265619
3584.0,0.004729977808892727
3840.0,0.006956714205443859
4096.0,0.0090476730838418
4608.0,0.003612410742789507
5120.0,-0.0054662711918354034
5632.0,-0.009939945302903652
6144.0,-0.004403026308864355
6656.0,-0.00566233741119504
7168.0,-0.007462923415005207
7680.0,-0.0004807770310435444
8192.0,-0.0017609948990866542
end
