version,3.0
numOfCh,1
type,point
parent_name,34a6d_0dot1-0dot1
ch_type,1_1
kcount,1
numberNandB,1
brightnessNandB,1
carpet pos,0
pc,0
Time (ms),CH1 Auto-Correlation
1.0,0.04371636360883713
2.0,0.04305402189493179
3.0,0.042426664382219315
4.0,0.04183743894100189
5.0,0.04124830663204193
6.0,0.040680188685655594
7.0,0.04011794552206993
8.0,0.039599157869815826
9.0,0.03913727030158043
10.0,0.03868243098258972
11.0,0.03822026774287224
12.0,0.03781978413462639
13.0,0.037414465099573135
14.0,0.03700082004070282
15.0,0.036603230983018875
16.0,0.03621187433600426
18.0,0.035430312156677246
20.0,0.03466586396098137
22.0,0.03394712507724762
24.0,0.03327198699116707
26.0,0.032635871320962906
28.0,0.032003358006477356
30.0,0.03137753903865814
32.0,0.0307980515062809
36.0,0.02984289824962616
40.0,0.028933288529515266
44.0,0.027989041060209274
48.0,0.02701180800795555
52.0,0.026059888303279877
56.0,0.025162730365991592
60.0,0.024380888789892197
64.0,0.023636769503355026
72.0,0.022224750369787216
80.0,0.020988857373595238
88.0,0.019679784774780273
96.0,0.01876508817076683
104.0,0.01816318742930889
112.0,0.017874429002404213
120.0,0.017471836879849434
128.0,0.016863424330949783
144.0,0.015435241162776947
160.0,0.015118798241019249
176.0,0.015149223618209362
192.0,0.014886945486068726
208.0,0.014103490859270096
224.0,0.013040590099990368
240.0,0.012285390868782997
256.0,0.011609317734837532
288.0,0.010565293952822685
320.0,0.009679589420557022
352.0,0.009391248226165771
384.0,0.010176233947277069
416.0,0.010019702836871147
448.0,0.008607068099081516
480.0,0.006731297820806503
512.0,0.005655619781464338
576.0,0.0058764019049704075
640.0,0.004475665278732777
704.0,0.00236270553432405
768.0,0.0009693537722341716
832.0,-0.0004131969471927732
896.0,-0.0013603160623461008
960.0,-0.0025903936475515366
1024.0,-0.005054250359535217
1152.0,-0.007600052282214165
1280.0,-0.010284854099154472
1408.0,-0.006681407801806927
1536.0,-0.0031050711404532194
1664.0,-0.003577606054022908
1792.0,-0.0019672310445457697
1920.0,0.0013748416677117348
2048.0,0.0007012718706391752
2304.0,0.002188037848100066
2560.0,-0.00026555362273938954
2816.0,-0.004139218479394913
3072.0,-0.00650994386523962
3328.0,-0.0027893553487956524
3584.0,0.001966018695384264
3840.0,0.001699086744338274
4096.0,0.0037543433718383312
4608.0,-2.0877958377241157e-05
5120.0,-9.578492608852684e-05
5632.0,0.002317688660696149
6144.0,-0.0017695041606202722
6656.0,-0.006139978766441345
7168.0,-0.00562325632199645
7680.0,0.00044356705620884895
8192.0,-0.0036959585268050432
end
