version,3.0
numOfCh,1
type,point
parent_name,34a6d_0dot1-0dot1
ch_type,1_1
kcount,1
numberNandB,1
brightnessNandB,1
carpet pos,0
pc,0
Time (ms),CH1 Auto-Correlation
1.0,0.04541955888271332
2.0,0.04488811641931534
3.0,0.044398996978998184
4.0,0.043928131461143494
5.0,0.04348817467689514
6.0,0.043030958622694016
7.0,0.0425960049033165
8.0,0.042162612080574036
9.0,0.04175641015172005
10.0,0.041376277804374695
11.0,0.040993593633174896
12.0,0.04061560332775116
13.0,0.040275536477565765
14.0,0.03993024677038193
15.0,0.03960343450307846
16.0,0.03927505016326904
18.0,0.03864019736647606
20.0,0.03801749274134636
22.0,0.03736625611782074
24.0,0.0366746187210083
26.0,0.036018069833517075
28.0,0.035416215658187866
30.0,0.03484692424535751
32.0,0.03429175540804863
36.0,0.033260148018598557
40.0,0.032257188111543655
44.0,0.031210610643029213
48.0,0.030184445902705193
52.0,0.02918851748108864
56.0,0.028282029554247856
60.0,0.027404075488448143
64.0,0.026563866063952446
72.0,0.02517135627567768
80.0,0.02396829053759575
88.0,0.02285752072930336
96.0,0.02161323092877865
104.0,0.020257670432329178
112.0,0.018880613148212433
120.0,0.017490940168499947
128.0,0.01624954864382744
144.0,0.013845082372426987
160.0,0.011696819216012955
176.0,0.00994984433054924
192.0,0.008333577774465084
208.0,0.00712607242166996
224.0,0.005878359079360962
240.0,0.0049482774920761585
256.0,0.004301981069147587
288.0,0.0039392015896737576
320.0,0.004083940759301186
352.0,0.0038985498249530792
384.0,0.004243363160640001
416.0,0.004440655000507832
448.0,0.004825378768146038
480.0,0.005915018264204264
512.0,0.006520772818475962
576.0,0.005196498706936836
640.0,0.0009120739414356649
704.0,-0.0018622014904394746
768.0,-0.0038018107879906893
832.0,-0.0033164815977215767
896.0,-0.0032412295695394278
960.0,-0.003665667027235031
1024.0,-0.002755592344328761
1152.0,-0.002986062318086624
1280.0,-0.0012963957851752639
1408.0,0.0015131104737520218
1536.0,0.0017605478642508388
1664.0,-0.0007168336305767298
1792.0,0.0005678001325577497
1920.0,0.0025786899495869875
2048.0,0.0008753828005865216
2304.0,0.001730411546304822
2560.0,0.0054766531102359295
2816.0,0.0032837828621268272
3072.0,0.003605585778132081
3328.0,0.0010404590284451842
3584.0,-0.002894381061196327
3840.0,-0.0017544697038829327
4096.0,-0.007385722361505032
4608.0,-0.0062133315950632095
5120.0,0.0037787167821079493
5632.0,-0.0016137687489390373
6144.0,-0.010379656217992306
6656.0,-0.0031669104937464
7168.0,-0.00024638298782519996
7680.0,0.0009501369204372168
8192.0,-0.0016713717486709356
end
