version,3.0
numOfCh,1
type,point
parent_name,34a6d_0dot1-0dot1
ch_type,1_1
kcount,1
numberNandB,1
brightnessNandB,1
carpet pos,0
pc,0
Time (ms),CH1 Auto-Correlation
1.0,0.04312741383910179
2.0,0.042585380375385284
3.0,0.04207238927483559
4.0,0.041550688445568085
5.0,0.04102299362421036
6.0,0.04051489382982254
7.0,0.04002789035439491
8.0,0.039573296904563904
9.0,0.03911849111318588
10.0,0.03867408633232117
11.0,0.03825070336461067
12.0,0.0378008708357811
13.0,0.03734482824802399
14.0,0.036906465888023376
15.0,0.03647204861044884
16.0,0.036065347492694855
18.0,0.03523961454629898
20.0,0.034471362829208374
22.0,0.03373146802186966
24.0,0.03301115334033966
26.0,0.03234368935227394
28.0,0.031701941043138504
30.0,0.031036479398608208
32.0,0.030382854864001274
36.0,0.029210945591330528
40.0,0.02818933315575123
44.0,0.027216078713536263
48.0,0.026235096156597137
52.0,0.025475045666098595
56.0,0.024877093732357025
60.0,0.02427579089999199
64.0,0.02361283265054226
72.0,0.02228470705449581
80.0,0.02114441990852356
88.0,0.02009742334485054
96.0,0.019133826717734337
104.0,0.01814161241054535
112.0,0.017205893993377686
120.0,0.016443898901343346
128.0,0.015819935128092766
144.0,0.015074558556079865
160.0,0.014584231190383434
176.0,0.014413652941584587
192.0,0.014232957735657692
208.0,0.014219267293810844
224.0,0.013832003809511662
240.0,0.012712860479950905
256.0,0.011461513116955757
288.0,0.009267286397516727
320.0,0.008240224793553352
352.0,0.0070476410910487175
384.0,0.005451609846204519
416.0,0.003344001481309533
448.0,0.002394174225628376
480.0,0.0028529861010611057
512.0,0.0030232039280235767
576.0,0.002997291274368763
640.0,0.0018823714926838875
704.0,0.0019594088662415743
768.0,0.0014305775985121727
832.0,0.0006611857679672539
896.0,-0.0011305809020996094
960.0,-0.0030168541707098484
1024.0,-0.0059869661927223206
1152.0,-0.008358401246368885
1280.0,-0.005760940257459879
1408.0,-0.0054839011281728745
1536.0,-0.002354089403524995
1664.0,-0.0022403448820114136
1792.0,-0.0023702909238636494
1920.0,-0.0026266726199537516
2048.0,0.0012276923516765237
2304.0,0.0024647354148328304
2560.0,-0.0025072062853723764
2816.0,-0.005703088361769915
3072.0,-0.003999858628958464
3328.0,-0.007515271659940481
3584.0,-0.009238703176379204
3840.0,-0.0027203462086617947
4096.0,0.002579345600679517
4608.0,0.0022270726040005684
5120.0,-0.005375118926167488
5632.0,-0.0050203572027385235
6144.0,0.0010583060793578625
6656.0,0.005961214192211628
7168.0,0.005365446209907532
7680.0,0.0038272335659712553
8192.0,0.0075411926954984665
end
