version,3.0
numOfCh,1
type,point
parent_name,34a6d_0dot1-0dot1
ch_type,1_1
kcount,1
numberNandB,1
brightnessNandB,1
carpet pos,0
pc,0
Time (ms),CH1 Auto-Correlation
1.0,0.04627241566777229
2.0,0.0457487553358078
3.0,0.04523115232586861
4.0,0.044740352779626846
5.0,0.04424916207790375
6.0,0.04377727955579758
7.0,0.04332834854722023
8.0,0.04289133474230766
9.0,0.04243975877761841
10.0,0.042009010910987854
11.0,0.04159829765558243
12.0,0.04118920862674713
13.0,0.04077501222491264
14.0,0.040360406041145325
15.0,0.039952490478754044
16.0,0.03956649452447891
18.0,0.03881947323679924
20.0,0.038126733154058456
22.0,0.03744081035256386
24.0,0.03677462041378021
26.0,0.036149315536022186
28.0,0.03556552901864052
30.0,0.034969527274370193
32.0,0.03433164209127426
36.0,0.03304761275649071
40.0,0.03180835023522377
44.0,0.030535239726305008
48.0,0.029427137225866318
52.0,0.02842560224235058
56.0,0.027417292818427086
60.0,0.026346413418650627
64.0,0.025269372388720512
72.0,0.023339878767728806
80.0,0.02157801017165184
88.0,0.019976593554019928
96.0,0.01845443807542324
104.0,0.017156505957245827
112.0,0.015941888093948364
120.0,0.01491458248347044
128.0,0.014034095220267773
144.0,0.012260407209396362
160.0,0.010555575601756573
176.0,0.00878447201102972
192.0,0.007122419308871031
208.0,0.005486856214702129
224.0,0.004215048626065254
240.0,0.0033918526023626328
256.0,0.0027454502414911985
288.0,0.0023829848505556583
320.0,0.002849855460226536
352.0,0.002252142643555999
384.0,0.0018910540966317058
416.0,0.0018476698314771056
448.0,0.0021521011367440224
480.0,0.0017498725792393088
512.0,0.000898977741599083
576.0,0.0004636436642613262
640.0,0.0013397877337411046
704.0,0.0006621034699492157
768.0,-0.00031756682437844574
832.0,-0.002208370715379715
896.0,-0.0032223020680248737
960.0,-0.005164741072803736
1024.0,-0.005753842182457447
1152.0,-0.0008957593818195164
1280.0,0.0010649440810084343
1408.0,-0.0009249224094673991
1536.0,0.004098417703062296
1664.0,0.007592678535729647
1792.0,0.00583011144772172
1920.0,0.004973104223608971
2048.0,0.004656786099076271
2304.0,5.084342046757229e-05
2560.0,-0.003121793270111084
2816.0,0.002065141685307026
3072.0,-0.0017878306098282337
3328.0,-9.254986798623577e-05
3584.0,0.002048752037808299
3840.0,-0.0035667282063513994
4096.0,-0.0012925185728818178
4608.0,-0.002935943892225623
5120.0,-0.002936681965366006
5632.0,-0.006343471817672253
6144.0,-0.0017740408657118678
6656.0,-0.0012255506590008736
7168.0,-0.0009293184848502278
7680.0,-0.008555011823773384
8192.0,0.001991887344047427
end
