version,3.0
numOfCh,1
type,point
parent_name,34a6d_0dot1-0dot1
ch_type,1_1
kcount,1
numberNandB,1
brightnessNandB,1
carpet pos,0
pc,0
Time (ms),CH1 Auto-Correlation
1.0,0.053871236741542816
2.0,0.05299209803342819
3.0,0.05246319994330406
4.0,0.05192750692367554
5.0,0.051422636955976486
6.0,0.05095450580120087
7.0,0.05051851272583008
8.0,0.05010649934411049
9.0,0.04969269782304764
10.0,0.049333784729242325
11.0,0.048936523497104645
12.0,0.048559192568063736
13.0,0.04822629317641258
14.0,0.04786855727434158
15.0,0.04749797284603119
16.0,0.0471370592713356
18.0,0.04648343101143837
20.0,0.0457773394882679
22.0,0.045148637145757675
24.0,0.04451465606689453
26.0,0.043909329921007156
28.0,0.043352119624614716
30.0,0.042795661836862564
32.0,0.04223702475428581
36.0,0.04102412238717079
40.0,0.03998444974422455
44.0,0.03901972249150276
48.0,0.038089603185653687
52.0,0.0372883677482605
56.0,0.03659765049815178
60.0,0.035934675484895706
64.0,0.035348471254110336
72.0,0.034124065190553665
80.0,0.03267963230609894
88.0,0.03128845989704132
96.0,0.029792560264468193
104.0,0.02818186581134796
112.0,0.02677893079817295
120.0,0.02570059895515442
128.0,0.024749383330345154
144.0,0.023058129474520683
160.0,0.021402632817626
176.0,0.01997539773583412
192.0,0.018614433705806732
208.0,0.017239868640899658
224.0,0.016128787770867348
240.0,0.014975380152463913
256.0,0.013959082774817944
288.0,0.012175668962299824
320.0,0.010572712868452072
352.0,0.008809102699160576
384.0,0.007655756082385778
416.0,0.006234229542315006
448.0,0.00526196975260973
480.0,0.004400433972477913
512.0,0.003154599340632558
576.0,0.0026096878573298454
640.0,0.0006527591031044722
704.0,-0.0008920562104322016
768.0,-0.001352708088234067
832.0,-0.003531950293108821
896.0,-0.006140151526778936
960.0,-0.007367324084043503
1024.0,-0.008489491418004036
1152.0,-0.007258180528879166
1280.0,-0.005177877843379974
1408.0,-0.002629033289849758
1536.0,0.00024392103659920394
1664.0,0.00012533736298792064
1792.0,0.0012985190842300653
1920.0,0.003558556316420436
2048.0,0.0021513833198696375
2304.0,-0.006759393494576216
2560.0,-0.005676771979779005
2816.0,-0.0013627636944875121
3072.0,-0.0037266607396304607
3328.0,-0.003664737567305565
3584.0,-0.005508291535079479
3840.0,-0.001510530710220337
4096.0,0.0037519545294344425
4608.0,0.002500078873708844
5120.0,0.002942396327853203
5632.0,-0.003895173314958811
6144.0,-0.00529108103364706
6656.0,-0.0021045240573585033
7168.0,0.0028452598489820957
7680.0,-0.009301350452005863
8192.0,-0.013849277049303055
end
