version,3.0
numOfCh,1
type,point
parent_name,34a6d_0dot1-0dot1
ch_type,1_1
kcount,1
numberNandB,1
brightnessNandB,1
carpet pos,0
pc,0
Time (ms),CH1 Auto-Correlation
1.0,0.057342976331710815
2.0,0.05641286447644234
3.0,0.05566199868917465
4.0,0.05488017946481705
5.0,0.054116301238536835
6.0,0.053182605654001236
7.0,0.05232161283493042
8.0,0.051484838128089905
9.0,0.0505550242960453
10.0,0.04971109703183174
11.0,0.048949792981147766
12.0,0.04827018827199936
13.0,0.04744308069348335
14.0,0.046571940183639526
15.0,0.04595096409320831
16.0,0.045317597687244415
18.0,0.04400968179106712
20.0,0.04277079552412033
22.0,0.04177363961935043
24.0,0.040809180587530136
26.0,0.03979896381497383
28.0,0.0388619564473629
30.0,0.037955448031425476
32.0,0.037099696695804596
36.0,0.035874322056770325
40.0,0.03472135588526726
44.0,0.03365395963191986
48.0,0.032573115080595016
52.0,0.031431857496500015
56.0,0.029946329072117805
60.0,0.028340082615613937
64.0,0.026911122724413872
72.0,0.02500167302787304
80.0,0.023576093837618828
88.0,0.022034144029021263
96.0,0.020321421325206757
104.0,0.018768589943647385
112.0,0.017726866528391838
120.0,0.01717676781117916
128.0,0.016519920900464058
144.0,0.015017845667898655
160.0,0.0135074807330966
176.0,0.012498981319367886
192.0,0.010832002386450768
208.0,0.008687742985785007
224.0,0.007325916085392237
240.0,0.005362974479794502
256.0,0.003272456116974354
288.0,0.0006439793505705893
320.0,0.00032098317751660943
352.0,0.0020325162913650274
384.0,0.0032330842223018408
416.0,0.004265663214027882
448.0,0.003990286961197853
480.0,0.004327717702835798
512.0,0.004398639313876629
576.0,-7.446610106853768e-05
640.0,-0.0038730159867554903
704.0,-0.005991855636239052
768.0,-0.006644071079790592
832.0,-0.005558698903769255
896.0,9.815026714932173e-05
960.0,0.004831054247915745
1024.0,0.006981156300753355
1152.0,0.00852685421705246
1280.0,0.006129781249910593
1408.0,0.008003544062376022
1536.0,0.0063340929336845875
1664.0,0.001329326187260449
1792.0,-0.001210299669764936
1920.0,-0.0023955530487000942
2048.0,-0.0041482169181108475
2304.0,-0.0010930343996733427
2560.0,0.004278977867215872
2816.0,0.007523341104388237
3072.0,-0.0003480232844594866
3328.0,-0.007812673225998878
3584.0,-0.009633832611143589
3840.0,-0.0024315512273460627
4096.0,-0.0004320083244238049
4608.0,-0.008516578003764153
5120.0,-0.004072322975844145
5632.0,-0.0026287739165127277
6144.0,-0.009883936494588852
6656.0,0.0005378256901167333
7168.0,0.0005127321928739548
7680.0,-0.0019438678864389658
8192.0,0.0038685970939695835
end
