version,3.0
numOfCh,1
type,point
parent_name,34a6d_0dot1-0dot1
ch_type,1_1
kcount,1
numberNandB,1
brightnessNandB,1
carpet pos,0
pc,0
Time (ms),CH1 Auto-Correlation
1.0,0.059096306562423706
2.0,0.05852033942937851
3.0,0.057956695556640625
4.0,0.057426054030656815
5.0,0.056887127459049225
6.0,0.056386493146419525
7.0,0.055920232087373734
8.0,0.05545691400766373
9.0,0.05502854660153389
10.0,0.05461520701646805
11.0,0.05423187091946602
12.0,0.05384364724159241
13.0,0.05346160754561424
14.0,0.05306578055024147
15.0,0.052682340145111084
16.0,0.05231818929314613
18.0,0.051638223230838776
20.0,0.05094548687338829
22.0,0.05021476000547409
24.0,0.049524132162332535
26.0,0.04888727515935898
28.0,0.04828270524740219
30.0,0.04771627485752106
32.0,0.047143299132585526
36.0,0.04598947614431381
40.0,0.04493121802806854
44.0,0.04394923895597458
48.0,0.04297269880771637
52.0,0.04199422895908356
56.0,0.04104142263531685
60.0,0.040115948766469955
64.0,0.039243072271347046
72.0,0.037566330283880234
80.0,0.03590020164847374
88.0,0.03428565338253975
96.0,0.03262971714138985
104.0,0.03103278949856758
112.0,0.02961437962949276
120.0,0.028339525684714317
128.0,0.027224455028772354
144.0,0.024969041347503662
160.0,0.022577164694666862
176.0,0.020404035225510597
192.0,0.018579719588160515
208.0,0.016841528937220573
224.0,0.014884022064507008
240.0,0.012914558872580528
256.0,0.01095658726990223
288.0,0.00882051233202219
320.0,0.006591290235519409
352.0,0.004918925929814577
384.0,0.004554080776870251
416.0,0.004187832586467266
448.0,0.004201347474008799
480.0,0.004222156945616007
512.0,0.00417304364964366
576.0,0.005465925671160221
640.0,0.00821551401168108
704.0,0.009191186167299747
768.0,0.007197380997240543
832.0,0.006959401071071625
896.0,0.006138108670711517
960.0,0.004280641674995422
1024.0,0.005425384733825922
1152.0,0.006631169002503157
1280.0,0.005107193253934383
1408.0,0.006927912589162588
1536.0,0.00850463006645441
1664.0,0.005089800804853439
1792.0,0.001854692935012281
1920.0,-0.003573165275156498
2048.0,-0.004166283644735813
2304.0,-0.004960690159350634
2560.0,-0.002097371267154813
2816.0,-0.007631273940205574
3072.0,-0.013299630954861641
3328.0,-0.011670070700347424
3584.0,-0.0060522896237671375
3840.0,-0.0030468152835965157
4096.0,0.0031200938392430544
4608.0,-0.0010259414557367563
5120.0,0.005202664993703365
5632.0,0.004923239815980196
6144.0,0.0052978466264903545
6656.0,0.0042576780542731285
7168.0,-0.0008485364960506558
7680.0,-0.003983715549111366
8192.0,-0.008569221943616867
end
