version,3.0
numOfCh,1
type,point
parent_name,0cd20_3dot0-0dot01
ch_type,1_1
kcount,1
numberNandB,1
brightnessNandB,1
carpet pos,0
pc,0
Time (ms),CH1 Auto-Correlation
1.0,0.026194989681243896
2.0,0.021390922367572784
3.0,0.018212219700217247
4.0,0.01582610048353672
5.0,0.013969321735203266
6.0,0.012490272521972656
7.0,0.011232852935791016
8.0,0.01035764068365097
9.0,0.009589754976332188
10.0,0.009074900299310684
11.0,0.008758524432778358
12.0,0.008260427042841911
13.0,0.007768828421831131
14.0,0.007394600193947554
15.0,0.006999169010668993
16.0,0.006563240196555853
18.0,0.00591673981398344
20.0,0.00530954310670495
22.0,0.004895159509032965
24.0,0.004704109858721495
26.0,0.004622936714440584
28.0,0.004638051614165306
30.0,0.004309733863919973
32.0,0.0038188924081623554
36.0,0.003517845645546913
40.0,0.003307487815618515
44.0,0.0027603222988545895
48.0,0.0028531739953905344
52.0,0.0029791241977363825
56.0,0.0028617188800126314
60.0,0.002591876545920968
64.0,0.002212266670539975
72.0,0.001721516135148704
80.0,0.001978435553610325
88.0,0.0020188759081065655
96.0,0.0016472245333716273
104.0,0.0008498251554556191
112.0,0.0006776893860660493
120.0,0.0009851395152509212
128.0,0.0010535215260460973
144.0,0.0009778878884389997
160.0,0.000681583711411804
176.0,0.0007926607504487038
192.0,0.0014672911493107677
208.0,0.0006970592075958848
224.0,0.00034922765917144716
240.0,0.0006406926549971104
256.0,0.00036498287227004766
288.0,0.00022885746147949249
320.0,0.0003263660182710737
352.0,-1.5148581042012665e-05
384.0,-0.0002746905665844679
416.0,-0.00016284936282318085
448.0,-2.0717902771139052e-07
480.0,-0.0004001589841209352
512.0,-0.000762877578381449
576.0,-0.0002727272512856871
640.0,0.0004036329919472337
704.0,0.0008766871178522706
768.0,-0.00018409355834592134
832.0,0.0003394270606804639
896.0,0.00039872381603345275
960.0,7.151041063480079e-05
1024.0,-0.0007904240628704429
1152.0,-0.0014471885515376925
1280.0,-0.0011496518272906542
1408.0,-0.000848561292514205
1536.0,0.0003157476312480867
1664.0,2.1418049072963186e-05
1792.0,0.00019614207849372178
1920.0,-0.000624916807282716
2048.0,-0.0004525266704149544
2304.0,0.0010866171214729548
2560.0,0.00026145041920244694
2816.0,-0.000317680329317227
3072.0,0.0006809491314925253
3328.0,0.0009081351454369724
3584.0,-0.0007835514843463898
3840.0,-0.00031294990913011134
4096.0,-0.0001302506134379655
4608.0,-9.618495096219704e-05
5120.0,0.00022314058151096106
5632.0,-5.0320995796937495e-05
6144.0,-9.419999696547166e-05
6656.0,0.00015795246872585267
7168.0,-0.0004562620597425848
7680.0,-0.000308689457597211
8192.0,2.5455856302869506e-05
end
