version,3.0
numOfCh,1
type,point
parent_name,0cd20_3dot0-0dot01
ch_type,1_1
kcount,1
numberNandB,1
brightnessNandB,1
carpet pos,0
pc,0
Time (ms),CH1 Auto-Correlation
1.0,0.034274131059646606
2.0,0.030376264825463295
3.0,0.027685951441526413
4.0,0.02564956620335579
5.0,0.024091623723506927
6.0,0.023013483732938766
7.0,0.021957797929644585
8.0,0.020980194211006165
9.0,0.02014552615582943
10.0,0.019549893215298653
11.0,0.019178034737706184
12.0,0.018914565443992615
13.0,0.018579773604869843
14.0,0.018162017688155174
15.0,0.01763320527970791
16.0,0.01709403097629547
18.0,0.01610858179628849
20.0,0.01528497040271759
22.0,0.014428316615521908
24.0,0.014151573181152344
26.0,0.013557640835642815
28.0,0.01313770655542612
30.0,0.012760445475578308
32.0,0.012105443514883518
36.0,0.01105455681681633
40.0,0.010276993736624718
44.0,0.010145171545445919
48.0,0.010047612711787224
52.0,0.009671729058027267
56.0,0.009240414015948772
60.0,0.008898526430130005
64.0,0.008244353346526623
72.0,0.00622755428776145
80.0,0.006351178977638483
88.0,0.006158541422337294
96.0,0.006254141218960285
104.0,0.006402988918125629
112.0,0.006506137549877167
120.0,0.006422216072678566
128.0,0.006241601426154375
144.0,0.005147257819771767
160.0,0.004404733423143625
176.0,0.00436432845890522
192.0,0.0035136346705257893
208.0,0.0028252950869500637
224.0,0.0026072850450873375
240.0,0.0018758686492219567
256.0,0.0005743768415413797
288.0,0.0005723134381696582
320.0,-0.0007303752936422825
352.0,-0.0005625734338536859
384.0,0.00013275875244289637
416.0,0.0021894429810345173
448.0,0.0030391186010092497
480.0,0.0011844007531180978
512.0,0.001150532509200275
576.0,0.002562865149229765
640.0,0.0016178626101464033
704.0,0.0011602140730246902
768.0,-0.00040088710375130177
832.0,-0.0005544530577026308
896.0,6.801335075579118e-06
960.0,-0.00023108127061277628
1024.0,-0.001265453058294952
1152.0,-0.002590087940916419
1280.0,-0.002672497183084488
1408.0,-0.0010092544835060835
1536.0,-0.0007529428112320602
1664.0,-0.002648532623425126
1792.0,-0.0030579371377825737
1920.0,-0.0014720201725140214
2048.0,-0.0018267604755237699
2304.0,-0.0034204742405563593
2560.0,-0.00199019443243742
2816.0,0.0022217181976884604
3072.0,0.0010220245458185673
3328.0,0.0030266602989286184
3584.0,0.0029651422519236803
3840.0,0.001565305283293128
4096.0,0.0008231172687374055
4608.0,0.0007820687023922801
5120.0,-0.0016241958364844322
5632.0,-0.0037013357505202293
6144.0,-0.0015653742011636496
6656.0,0.002222234383225441
7168.0,0.0011967384489253163
7680.0,7.762569293845445e-05
8192.0,-0.0024393617641180754
end
