version,3.0
numOfCh,1
type,point
parent_name,0cd20_3dot0-0dot01
ch_type,1_1
kcount,1
numberNandB,1
brightnessNandB,1
carpet pos,0
pc,0
Time (ms),CH1 Auto-Correlation
1.0,0.023940162733197212
2.0,0.019337410107254982
3.0,0.016235515475273132
4.0,0.013835899531841278
5.0,0.011897535063326359
6.0,0.010278618894517422
7.0,0.009068253450095654
8.0,0.008150753565132618
9.0,0.007183006498962641
10.0,0.0064737070351839066
11.0,0.005865283310413361
12.0,0.00548278633505106
13.0,0.005045146681368351
14.0,0.004633717704564333
15.0,0.0045041232369840145
16.0,0.004158466588705778
18.0,0.0034620168153196573
20.0,0.0027689659036695957
22.0,0.00229076505638659
24.0,0.002079971833154559
26.0,0.001980358036234975
28.0,0.0018551000393927097
30.0,0.0019005868816748261
32.0,0.00170094461645931
36.0,0.0016510371351614594
40.0,0.001886389683932066
44.0,0.0014732147101312876
48.0,0.000957124400883913
52.0,0.0011566763278096914
56.0,0.0014669616939499974
60.0,0.001118592917919159
64.0,0.000570867327041924
72.0,0.0004553426697384566
80.0,0.00031997388578020036
88.0,9.813150245463476e-05
96.0,-0.00012353651982266456
104.0,6.305675924522802e-05
112.0,3.4939304896397516e-05
120.0,-0.001060978975147009
128.0,-0.0008610136574134231
144.0,-0.0008238538866862655
160.0,-0.0010975732002407312
176.0,-0.0006408277549780905
192.0,-0.0007796632708050311
208.0,-0.0010628224117681384
224.0,-3.556197771104053e-05
240.0,0.0007261058781296015
256.0,0.0004909656709060073
288.0,7.649150938959792e-05
320.0,-0.0004276125109754503
352.0,-0.0005577247939072549
384.0,0.00012181666534161195
416.0,0.00018326158169656992
448.0,-2.9481339879566804e-05
480.0,-0.00036078496486879885
512.0,-0.00029479869408532977
576.0,-0.0004811084072571248
640.0,0.0003152552817482501
704.0,0.0003977282322011888
768.0,-0.00032137843663804233
832.0,-0.00022733485093340278
896.0,0.0001956563355633989
960.0,-0.00037957841414026916
1024.0,-0.0003730519092641771
1152.0,0.0003844303428195417
1280.0,6.614132871618494e-05
1408.0,-0.00021548189397435635
1536.0,-0.00032335033756680787
1664.0,-0.0006666604895144701
1792.0,0.00039316670154221356
1920.0,-4.021002314402722e-05
2048.0,5.0118298531742766e-05
2304.0,0.00013434029824566096
2560.0,-0.00038188978214748204
2816.0,0.00015557049482595176
3072.0,-0.0002817717322614044
3328.0,0.0006328657036647201
3584.0,2.0745881556649692e-05
3840.0,-0.00020619847055058926
4096.0,0.0006519539747387171
4608.0,-8.618518768344074e-05
5120.0,-4.575156344799325e-05
5632.0,-6.675557960988954e-05
6144.0,-0.0002190263767261058
6656.0,1.1978706424997654e-05
7168.0,0.00019854125275742263
7680.0,-1.6679188775015064e-05
8192.0,-0.0002189661463489756
end
