version,3.0
numOfCh,1
type,point
parent_name,0cd20_3dot0-0dot01
ch_type,1_1
kcount,1
numberNandB,1
brightnessNandB,1
carpet pos,0
pc,0
Time (ms),CH1 Auto-Correlation
1.0,0.02491951175034046
2.0,0.020717740058898926
3.0,0.017520831897854805
4.0,0.015328996814787388
5.0,0.013523653149604797
6.0,0.012285023927688599
7.0,0.011061985045671463
8.0,0.010005912743508816
9.0,0.00929930154234171
10.0,0.008640972897410393
11.0,0.008135234005749226
12.0,0.007481918670237064
13.0,0.007113116327673197
14.0,0.006467475555837154
15.0,0.005830168258398771
16.0,0.00538491178303957
18.0,0.004664845298975706
20.0,0.004423331003636122
22.0,0.004272898193448782
24.0,0.004029647912830114
26.0,0.003640984883531928
28.0,0.0032272355165332556
30.0,0.002987954532727599
32.0,0.002695726230740547
36.0,0.0023199820425361395
40.0,0.0019671600311994553
44.0,0.0016772159142419696
48.0,0.0013909750850871205
52.0,0.00116765929851681
56.0,0.0004178602830506861
60.0,0.0006730050081387162
64.0,0.00038332672556862235
72.0,-0.000232145786867477
80.0,1.109778713725973e-05
88.0,0.0008360924548469484
96.0,0.0017146726604551077
104.0,0.0012544849887490273
112.0,0.0015274833422154188
120.0,0.0019163510296493769
128.0,0.001848374493420124
144.0,0.0011612141970545053
160.0,0.001204260508529842
176.0,0.0004915732424706221
192.0,0.00010656306403689086
208.0,0.0008514008368365467
224.0,0.0012876784894615412
240.0,0.0005740650813095272
256.0,-0.00014588791236747056
288.0,-0.0008402045350521803
320.0,0.0008216017740778625
352.0,0.0013173349434509873
384.0,0.0005376019980758429
416.0,0.0003692262398544699
448.0,0.0015784555580466986
480.0,0.0008826646953821182
512.0,-0.0008030860335566103
576.0,0.0010942022781819105
640.0,-0.00022534675372298807
704.0,-0.0001838987518567592
768.0,-0.00044637563405558467
832.0,0.00018037535483017564
896.0,-0.0009443002636544406
960.0,0.0001448422553949058
1024.0,-0.001091472222469747
1152.0,-0.0007287861662916839
1280.0,-0.00045208781375549734
1408.0,-0.00018833435024134815
1536.0,-2.0687857613665983e-05
1664.0,-5.1792045269394293e-05
1792.0,-0.000502435490489006
1920.0,0.0009678573114797473
2048.0,-0.00013700353156309575
2304.0,0.0004744982288684696
2560.0,0.0004924124223180115
2816.0,0.00047051699948497117
3072.0,0.0005206952337175608
3328.0,-0.00044499136856757104
3584.0,9.686714292911347e-06
3840.0,-0.0005384637624956667
4096.0,-0.001262235688045621
end
