version,3.0
numOfCh,1
type,point
parent_name,0cd20_3dot0-0dot01
ch_type,1_1
kcount,1
numberNandB,1
brightnessNandB,1
carpet pos,0
pc,0
Time (ms),CH1 Auto-Correlation
1.0,0.05661889910697937
2.0,0.05195305868983269
3.0,0.0485769659280777
4.0,0.046136412769556046
5.0,0.044019319117069244
6.0,0.042397256940603256
7.0,0.0410505048930645
8.0,0.039910174906253815
9.0,0.03917844593524933
10.0,0.03837154060602188
11.0,0.03776633366942406
12.0,0.03703617677092552
13.0,0.03639379143714905
14.0,0.035970449447631836
15.0,0.03552471846342087
16.0,0.03513658419251442
18.0,0.0341663733124733
20.0,0.03336692228913307
22.0,0.032987598329782486
24.0,0.03243594244122505
26.0,0.031798504292964935
28.0,0.031193701550364494
30.0,0.030374037101864815
32.0,0.02950562722980976
36.0,0.02879173867404461
40.0,0.02848394587635994
44.0,0.027571845799684525
48.0,0.027105750516057014
52.0,0.02652851492166519
56.0,0.025732124224305153
60.0,0.02450249344110489
64.0,0.023401444777846336
72.0,0.02210288681089878
80.0,0.02095622755587101
88.0,0.020414648577570915
96.0,0.019823888316750526
104.0,0.01866239495575428
112.0,0.017454719170928
120.0,0.017049677670001984
128.0,0.015977203845977783
144.0,0.014291033148765564
160.0,0.01277065183967352
176.0,0.012408214621245861
192.0,0.01149814948439598
208.0,0.010653382167220116
224.0,0.010612386278808117
240.0,0.009198585525155067
256.0,0.008676381781697273
288.0,0.005943253170698881
320.0,0.005249318201094866
352.0,0.0055088200606405735
384.0,0.00467247050255537
416.0,0.002357455203309655
448.0,-5.099900226923637e-05
480.0,3.5224486055085436e-05
512.0,8.575950050726533e-05
576.0,0.0008678821031935513
640.0,0.001181352068670094
704.0,-0.0010339180007576942
768.0,-0.0022011816035956144
832.0,-0.0014796874020248652
896.0,-0.0021317836362868547
960.0,-0.0015162727795541286
1024.0,-0.001009071827866137
1152.0,-0.0015882387524470687
1280.0,-0.0020208077039569616
1408.0,-0.0020183066371828318
1536.0,-0.0014420374063774943
1664.0,0.00034255109494552016
1792.0,0.0009489599615335464
1920.0,0.002164584118872881
2048.0,0.00251951371319592
2304.0,-0.0005106545286253095
2560.0,-0.0012143380008637905
2816.0,0.0008634619298391044
3072.0,0.0011271104449406266
3328.0,-0.0013335768599063158
3584.0,0.0008929898031055927
3840.0,0.002082833554595709
4096.0,4.446177263162099e-05
4608.0,-0.00018584425561130047
5120.0,-0.0010066297836601734
5632.0,0.00174632016569376
6144.0,-0.0014384023379534483
6656.0,-0.0004117445496376604
7168.0,-1.7580507574166404e-06
7680.0,0.00036747491685673594
8192.0,0.0026080806273967028
end
