version,3.0
numOfCh,1
type,point
parent_name,0cd20_3dot0-0dot01
ch_type,1_1
kcount,1
numberNandB,1
brightnessNandB,1
carpet pos,0
pc,0
Time (ms),CH1 Auto-Correlation
1.0,0.02602483704686165
2.0,0.021325478330254555
3.0,0.018020082265138626
4.0,0.015597933903336525
5.0,0.013892457820475101
6.0,0.01244383119046688
7.0,0.011343905702233315
8.0,0.010335173457860947
9.0,0.009675654582679272
10.0,0.009035508148372173
11.0,0.008503444492816925
12.0,0.007947467267513275
13.0,0.007365083787590265
14.0,0.006900675129145384
15.0,0.0065606022253632545
16.0,0.0061699398793280125
18.0,0.005210950504988432
20.0,0.0045739877969026566
22.0,0.0039764270186424255
24.0,0.0036778145004063845
26.0,0.003221383783966303
28.0,0.0027960112784057856
30.0,0.0027057158295065165
32.0,0.0025568839628249407
36.0,0.0023481296375393867
40.0,0.00229956884868443
44.0,0.0024112495593726635
48.0,0.0019673260394483805
52.0,0.0015545213827863336
56.0,0.001321805058978498
60.0,0.00110207952093333
64.0,0.0010495753958821297
72.0,0.0013542062370106578
80.0,0.002120149089023471
88.0,0.0019268576288595796
96.0,0.0013399834278970957
104.0,0.0005628324579447508
112.0,0.0005494121578522027
120.0,0.0005125888274051249
128.0,0.0010834618005901575
144.0,0.00015950368833728135
160.0,-0.0006053416873328388
176.0,-0.000884181703440845
192.0,-0.001009187544696033
208.0,-0.0012880326248705387
224.0,-0.0005693811108358204
240.0,-0.00046991780982352793
256.0,-0.0006526040961034596
288.0,-0.0005093510262668133
320.0,-0.000368533656001091
352.0,8.862923277774826e-05
384.0,-0.0006861501024104655
416.0,-0.0005683428607881069
448.0,-0.001349781989119947
480.0,-0.00021356942306738347
512.0,-0.0006785883451811969
576.0,-0.0008533915388397872
640.0,-0.0004602522822096944
704.0,0.00017524976283311844
768.0,-6.765197031199932e-05
832.0,0.00030591696850024164
896.0,0.0005946825258433819
960.0,0.0007807736401446164
1024.0,0.00026716297725215554
1152.0,0.00043574420851655304
1280.0,-0.0004408324311953038
1408.0,-0.000535863044206053
1536.0,-0.0005645269411616027
1664.0,0.0005555392126552761
1792.0,0.0003061847819481045
1920.0,-0.00026198773412033916
2048.0,0.00017248957010451704
2304.0,0.0001099395813071169
2560.0,0.00021230478887446225
2816.0,-6.968106026761234e-05
3072.0,-0.0009880049619823694
3328.0,0.0009258046629838645
3584.0,4.283243470126763e-05
3840.0,-0.0008268740493804216
4096.0,-4.705943865701556e-05
4608.0,1.6778454664745368e-05
5120.0,-0.00010371813550591469
5632.0,1.6885032891877927e-05
6144.0,-0.00038986135041341186
6656.0,5.129653072799556e-05
7168.0,-0.000449569895863533
7680.0,0.0004847716772928834
8192.0,-0.0004603360721375793
end
