version,3.0
numOfCh,1
type,point
parent_name,0cd20_3dot0-0dot01
ch_type,1_1
kcount,1
numberNandB,1
brightnessNandB,1
carpet pos,0
pc,0
Time (ms),CH1 Auto-Correlation
1.0,0.07845122367143631
2.0,0.07376961410045624
3.0,0.07032623142004013
4.0,0.06725481152534485
5.0,0.06503432244062424
6.0,0.06316809356212616
7.0,0.06155942380428314
8.0,0.06016773357987404
9.0,0.058894358575344086
10.0,0.05777992308139801
11.0,0.05687081068754196
12.0,0.05601850897073746
13.0,0.05543394386768341
14.0,0.05499142408370972
15.0,0.054175734519958496
16.0,0.053468331694602966
18.0,0.05186953768134117
20.0,0.05022479593753815
22.0,0.04865586385130882
24.0,0.04773754999041557
26.0,0.046490129083395004
28.0,0.045243244618177414
30.0,0.04444727674126625
32.0,0.04330684244632721
36.0,0.04097216576337814
40.0,0.03857409581542015
44.0,0.0362962931394577
48.0,0.03538902476429939
52.0,0.034053828567266464
56.0,0.03295077010989189
60.0,0.03295692428946495
64.0,0.03311852738261223
72.0,0.032816823571920395
80.0,0.032532889395952225
88.0,0.03249310329556465
96.0,0.03267057240009308
104.0,0.03334885835647583
112.0,0.03401413932442665
120.0,0.03342631086707115
128.0,0.03163960203528404
144.0,0.028421761468052864
160.0,0.02431781031191349
176.0,0.022044671699404716
192.0,0.020773638039827347
208.0,0.020698456093668938
224.0,0.017517155036330223
240.0,0.013031640090048313
256.0,0.010532524436712265
288.0,0.007920405827462673
320.0,0.007562453858554363
352.0,0.008937101811170578
384.0,0.0073091378435492516
416.0,0.005619771312922239
448.0,0.004567558411508799
480.0,0.007792894262820482
512.0,0.009437020868062973
576.0,0.00548258051276207
640.0,0.0028471320401877165
704.0,-0.0006105590728111565
768.0,-0.0017177429981529713
832.0,0.0003689104341901839
896.0,0.005285668186843395
960.0,0.004845256917178631
1024.0,0.0053728134371340275
1152.0,0.003015467431396246
1280.0,-0.0008267531520687044
1408.0,-0.0006777278613299131
1536.0,0.0006914482219144702
1664.0,-0.00028890185058116913
1792.0,-0.0004441592318471521
1920.0,-0.0007257563411258161
2048.0,0.00028506398666650057
2304.0,-0.002550985896959901
2560.0,-0.0003047360514756292
2816.0,-0.004745723679661751
3072.0,-0.0026161232963204384
3328.0,-0.0005933771026320755
3584.0,-0.0007570583838969469
3840.0,-0.0059642367996275425
4096.0,-0.006997406017035246
end
