version,3.0
numOfCh,1
type,point
parent_name,0cd20_3dot0-0dot01
ch_type,1_1
kcount,1
numberNandB,1
brightnessNandB,1
carpet pos,0
pc,0
Time (ms),CH1 Auto-Correlation
1.0,0.02674207091331482
2.0,0.02196316607296467
3.0,0.018581628799438477
4.0,0.016218584030866623
5.0,0.01441207155585289
6.0,0.012842191383242607
7.0,0.011695549823343754
8.0,0.010859393514692783
9.0,0.010009546764194965
10.0,0.009356009773910046
11.0,0.0089109530672431
12.0,0.00837368331849575
13.0,0.007814197801053524
14.0,0.00731187267228961
15.0,0.007092196960002184
16.0,0.006820167880505323
18.0,0.006134093273431063
20.0,0.005716647021472454
22.0,0.005315521731972694
24.0,0.0049562277272343636
26.0,0.004487135913223028
28.0,0.004175084643065929
30.0,0.004042510874569416
32.0,0.0037884663324803114
36.0,0.0033235400915145874
40.0,0.002880844986066222
44.0,0.002699560485780239
48.0,0.0026921925600618124
52.0,0.002596150152385235
56.0,0.002420328324660659
60.0,0.002210751874372363
64.0,0.002495302353054285
72.0,0.002646168926730752
80.0,0.0023588980548083782
88.0,0.0014397194609045982
96.0,0.0009528598166070879
104.0,0.0005376385524868965
112.0,0.00034017727011814713
120.0,0.00012758672528434545
128.0,0.00021011754870414734
144.0,-0.00011585931497393176
160.0,0.0005408159922808409
176.0,0.0011931884801015258
192.0,0.0012927149655297399
208.0,0.002239965833723545
224.0,0.001734839752316475
240.0,0.0017209401121363044
256.0,0.0013547450071200728
288.0,0.0006480506854131818
320.0,0.00032044449471868575
352.0,0.0004121621313970536
384.0,0.0007537825149483979
416.0,0.0002807972487062216
448.0,0.00020531925838440657
480.0,-0.0003629010170698166
512.0,0.0008884435519576073
576.0,0.0005467624869197607
640.0,0.000874617719091475
704.0,0.0006454527610912919
768.0,-0.00027613178826868534
832.0,-0.00028882897458970547
896.0,0.0003183535300195217
960.0,0.00027388037415221334
1024.0,-0.0005106695462018251
1152.0,0.00021419140102807432
1280.0,-0.0003753214259631932
1408.0,-0.0010846719378605485
1536.0,-0.0003045267367269844
1664.0,-0.0009141039336100221
1792.0,-0.001063237781636417
1920.0,-0.0011897122021764517
2048.0,-0.0010831026593223214
2304.0,-0.000808240263722837
2560.0,-0.00021922524319961667
2816.0,0.00030262363725341856
3072.0,9.04019980225712e-05
3328.0,0.00043509676470421255
3584.0,8.201407035812736e-05
3840.0,0.0010674874065443873
4096.0,0.0007006484665907919
4608.0,-0.0005170805961824954
5120.0,-0.0007302651647478342
5632.0,-0.00044976966455578804
6144.0,-0.00011061447730753571
6656.0,0.000789882440585643
7168.0,0.0009979729074984789
7680.0,0.00037520844489336014
8192.0,-8.562376751797274e-05
end
