version,3.0
numOfCh,1
type,point
parent_name,0cd20_3dot0-0dot01
ch_type,1_1
kcount,1
numberNandB,1
brightnessNandB,1
carpet pos,0
pc,0
Time (ms),CH1 Auto-Correlation
1.0,0.028316032141447067
2.0,0.023324966430664062
3.0,0.019744964316487312
4.0,0.017095867544412613
5.0,0.015243040397763252
6.0,0.013781437650322914
7.0,0.012633335776627064
8.0,0.011677405796945095
9.0,0.010670917108654976
10.0,0.009623154066503048
11.0,0.008763762190937996
12.0,0.008021305315196514
13.0,0.007536779623478651
14.0,0.006998013239353895
15.0,0.006581200286746025
16.0,0.006218844559043646
18.0,0.005581050645560026
20.0,0.005016826093196869
22.0,0.004665533546358347
24.0,0.004257019143551588
26.0,0.003694271668791771
28.0,0.0032051154412329197
30.0,0.0029467002023011446
32.0,0.0027542554307729006
36.0,0.0026337073650211096
40.0,0.0026822169311344624
44.0,0.0026618598494678736
48.0,0.002970579545944929
52.0,0.002339678816497326
56.0,0.0017923037521541119
60.0,0.0011099514085799456
64.0,0.0009433440864086151
72.0,0.0005284331273287535
80.0,0.00011145025928271934
88.0,0.0006421094876714051
96.0,0.000541785906534642
104.0,0.00011503930727485567
112.0,2.4949216822278686e-05
120.0,-0.00043162988731637597
128.0,-0.00044810533290728927
144.0,-0.0007735129329375923
160.0,-0.0009094809647649527
176.0,-0.0005062969285063446
192.0,3.970519901486114e-05
208.0,-3.634998211055063e-05
224.0,-0.0005005261045880616
240.0,-0.0003258666838519275
256.0,9.339359530713409e-05
288.0,0.0002517599205020815
320.0,-0.00010410135291749611
352.0,-0.0007396303117275238
384.0,-0.0009653118904680014
416.0,-0.00015154358698055148
448.0,0.00041875141323544085
480.0,-0.00010783333709696308
512.0,-6.554815627168864e-05
576.0,-0.0006930973613634706
640.0,-0.00012615394371096045
704.0,-0.00045372225577011704
768.0,0.000536796753294766
832.0,0.00035103183472529054
896.0,0.0009070865344256163
960.0,0.0004463126533664763
1024.0,-0.0005008250009268522
1152.0,-0.00015140656614676118
1280.0,0.00019370188238099217
1408.0,0.0005386709817685187
1536.0,-0.0005832925671711564
1664.0,-0.00032357938471250236
1792.0,0.000744572258554399
1920.0,-0.0001822639023885131
2048.0,-0.0003553059068508446
2304.0,3.088209996349178e-05
2560.0,0.00016912502178456634
2816.0,-0.0001756039564497769
3072.0,0.00022712965437676758
3328.0,0.00014482780534308404
3584.0,-0.00035757303703576326
3840.0,-0.00033987758797593415
4096.0,0.00018567070947028697
4608.0,-0.0008749106782488525
5120.0,0.0003539002500474453
5632.0,-0.00041143212001770735
6144.0,-0.00028533063596114516
6656.0,0.0003095521533396095
7168.0,-0.000403450831072405
7680.0,-0.00016395802958868444
8192.0,7.294090028153732e-05
end
