version,3.0
numOfCh,1
type,point
parent_name,0cd20_3dot0-0dot01
ch_type,1_1
kcount,1
numberNandB,1
brightnessNandB,1
carpet pos,0
pc,0
Time (ms),CH1 Auto-Correlation
1.0,0.30267930030822754
2.0,0.3004084527492523
3.0,0.29853177070617676
4.0,0.2970410883426666
5.0,0.2958182990550995
6.0,0.29446694254875183
7.0,0.29317304491996765
8.0,0.29202911257743835
9.0,0.2909420132637024
10.0,0.2900610566139221
11.0,0.28912127017974854
12.0,0.28828784823417664
13.0,0.28746870160102844
14.0,0.2866622805595398
15.0,0.28570136427879333
16.0,0.2848128080368042
18.0,0.2830677032470703
20.0,0.281042218208313
22.0,0.2793552279472351
24.0,0.2781549394130707
26.0,0.27664515376091003
28.0,0.27504661679267883
30.0,0.27342289686203003
32.0,0.27178069949150085
36.0,0.26859578490257263
40.0,0.26587730646133423
44.0,0.26313716173171997
48.0,0.2598385214805603
52.0,0.25634515285491943
56.0,0.25309187173843384
60.0,0.24994002282619476
64.0,0.24716787040233612
72.0,0.24281764030456543
80.0,0.23849283158779144
88.0,0.2354452908039093
96.0,0.23425047099590302
104.0,0.2327680140733719
112.0,0.2304079532623291
120.0,0.22820450365543365
128.0,0.22586944699287415
144.0,0.22020277380943298
160.0,0.21383756399154663
176.0,0.2093334048986435
192.0,0.20517399907112122
208.0,0.19902963936328888
224.0,0.19256973266601562
240.0,0.1889670342206955
256.0,0.1849207580089569
288.0,0.17734664678573608
320.0,0.17155690491199493
352.0,0.16398148238658905
384.0,0.16005870699882507
416.0,0.1551937758922577
448.0,0.14411014318466187
480.0,0.13552531599998474
512.0,0.13354451954364777
576.0,0.12507669627666473
640.0,0.10625986009836197
704.0,0.09027449041604996
768.0,0.09375263005495071
832.0,0.1016678586602211
896.0,0.0980929508805275
960.0,0.09761692583560944
1024.0,0.08740794658660889
1152.0,0.07319839298725128
1280.0,0.0626717358827591
1408.0,0.030860858038067818
1536.0,-0.028206679970026016
1664.0,-0.07979705184698105
1792.0,-0.10626602917909622
1920.0,-0.1204805076122284
2048.0,-0.1358444094657898
2304.0,-0.182973712682724
2560.0,-0.23857080936431885
2816.0,-0.233841210603714
3072.0,-0.20814001560211182
3328.0,-0.18510198593139648
3584.0,-0.22591884434223175
3840.0,-0.2781062126159668
4096.0,-0.2933301031589508
end
