version,3.0
numOfCh,1
type,point
parent_name,0cd20_3dot0-0dot01
ch_type,1_1
kcount,1
numberNandB,1
brightnessNandB,1
carpet pos,0
pc,0
Time (ms),CH1 Auto-Correlation
1.0,0.023228196427226067
2.0,0.018641237169504166
3.0,0.015651974827051163
4.0,0.013172512874007225
5.0,0.011184527538716793
6.0,0.009629230946302414
7.0,0.008448694832623005
8.0,0.007475815247744322
9.0,0.006726700812578201
10.0,0.006171368062496185
11.0,0.0056182388216257095
12.0,0.005166681949049234
13.0,0.004902611020952463
14.0,0.004601478110998869
15.0,0.004518253728747368
16.0,0.004532916005700827
18.0,0.004352469928562641
20.0,0.003969346173107624
22.0,0.0036049564369022846
24.0,0.003376705339178443
26.0,0.0031619041692465544
28.0,0.002872943878173828
30.0,0.0027488190680742264
32.0,0.0027918005362153053
36.0,0.002774239284917712
40.0,0.0023437042254954576
44.0,0.0016731423093006015
48.0,0.0011614097747951746
52.0,0.0010781293967738748
56.0,0.001503786537796259
60.0,0.0017089403700083494
64.0,0.0018547230865806341
72.0,0.0012650396674871445
80.0,0.001021218136884272
88.0,0.001598663511686027
96.0,0.001825052429921925
104.0,0.0023152539506554604
112.0,0.002457232214510441
120.0,0.0027818011585623026
128.0,0.0021880953572690487
144.0,0.0010364962508901954
160.0,0.0006614422309212387
176.0,-5.986468750052154e-05
192.0,0.00021744496189057827
208.0,0.00016585721459705383
224.0,0.0002779785427264869
240.0,-0.00027387237059883773
256.0,-0.00017558189574629068
288.0,-0.0005642005708068609
320.0,-0.0010253506479784846
352.0,-0.00037093478022143245
384.0,-0.0004512948216870427
416.0,-0.0004124456609133631
448.0,-2.4998171284096316e-06
480.0,-0.0008544120937585831
512.0,-0.0007887760293669999
576.0,-0.0005009840824641287
640.0,0.00014810424181632698
704.0,0.0005336377071216702
768.0,0.0010148233268409967
832.0,4.037214603158645e-05
896.0,2.5832881874521263e-05
960.0,-0.0004241179849486798
1024.0,-0.00035473538446240127
1152.0,4.9151240091305226e-05
1280.0,0.00011509416799526662
1408.0,-0.00047093385364860296
1536.0,-0.00019204188720323145
1664.0,0.00014051962352823466
1792.0,0.00016408074588980526
1920.0,0.00013477278116624802
2048.0,-0.00031914160354062915
2304.0,0.00020750006660819054
2560.0,0.0006681610248051584
2816.0,-0.0013210634933784604
3072.0,-0.00016345139010809362
3328.0,0.0010595780331641436
3584.0,-0.0006678972858935595
3840.0,-0.0011730692349374294
4096.0,6.985887011978775e-06
4608.0,8.568723569624126e-05
5120.0,-0.000635159551165998
5632.0,0.0002501318231225014
6144.0,-0.00042638054583221674
6656.0,0.0012192840222269297
7168.0,3.277664291090332e-05
7680.0,-0.00013021497579757124
8192.0,-0.00037374530802480876
end
