version,3.0
numOfCh,1
type,point
parent_name,0cd20_3dot0-0dot01
ch_type,1_1
kcount,1
numberNandB,1
brightnessNandB,1
carpet pos,0
pc,0
Time (ms),CH1 Auto-Correlation
1.0,0.0246552936732769
2.0,0.019843729212880135
3.0,0.016382435336709023
4.0,0.013980777002871037
5.0,0.01218554936349392
6.0,0.010690569877624512
7.0,0.009743684902787209
8.0,0.008944973349571228
9.0,0.008226260542869568
10.0,0.0076075163669884205
11.0,0.007272190880030394
12.0,0.006825645919889212
13.0,0.006349173840135336
14.0,0.00593887735158205
15.0,0.005505204200744629
16.0,0.0053130085580050945
18.0,0.004864415619522333
20.0,0.0043290299363434315
22.0,0.0040878914296627045
24.0,0.00382696813903749
26.0,0.0034635672345757484
28.0,0.0032170740887522697
30.0,0.0030444564763456583
32.0,0.0028236049693077803
36.0,0.002058932790532708
40.0,0.0015568352537229657
44.0,0.0016954040620476007
48.0,0.0015753001207485795
52.0,0.001329259481281042
56.0,0.0013667199527844787
60.0,0.0010621941182762384
64.0,0.0009952804539352655
72.0,0.0003970079415012151
80.0,0.0002588834031485021
88.0,0.0004553179314825684
96.0,0.0007300317520275712
104.0,0.0006369610200636089
112.0,0.0011666730279102921
120.0,0.0013016833690926433
128.0,0.0014704031636938453
144.0,0.0012924091424793005
160.0,0.0005133383674547076
176.0,7.922238728497177e-05
192.0,-0.0003586021775845438
208.0,-0.0006336495280265808
224.0,0.00028084847144782543
240.0,0.0006286305142566562
256.0,0.00022956493194215
288.0,0.00027111178496852517
320.0,-0.0002787616685964167
352.0,-0.0004194783978164196
384.0,0.0002755377790890634
416.0,0.0003409121709410101
448.0,0.0005006588762626052
480.0,0.0006769588217139244
512.0,0.0004459481860976666
576.0,-0.0003165035741403699
640.0,-0.00010844846110558137
704.0,-0.0002987300103995949
768.0,-0.0010000724578276277
832.0,-0.0011283823987469077
896.0,-0.0005516437813639641
960.0,-0.00014031979662831873
1024.0,-0.0006643287488259375
1152.0,-0.0005026350845582783
1280.0,-0.00018804732826538384
1408.0,0.00021449875202961266
1536.0,-8.162386802723631e-05
1664.0,0.0007555434131063521
1792.0,0.0005798851489089429
1920.0,0.0004999129450879991
2048.0,7.423981878673658e-05
2304.0,-3.1008369205665076e-07
2560.0,-0.000370204885257408
2816.0,-0.0004371059185359627
3072.0,0.0001494969765190035
3328.0,0.0003391590144019574
3584.0,9.0323097538203e-05
3840.0,-0.00020344124641269445
4096.0,-0.00046243477845564485
4608.0,-1.9644005078589544e-05
5120.0,0.00036207487573847175
5632.0,5.077315654489212e-05
6144.0,-0.00036948572960682213
6656.0,-0.0003894471446983516
7168.0,-7.792028213771118e-07
7680.0,-0.00019885812071152031
8192.0,-0.0004617002559825778
end
