version,3.0
numOfCh,1
type,point
parent_name,0cd20_3dot0-0dot01
ch_type,1_1
kcount,1
numberNandB,1
brightnessNandB,1
carpet pos,0
pc,0
Time (ms),CH1 Auto-Correlation
1.0,0.38640257716178894
2.0,0.38350242376327515
3.0,0.38114309310913086
4.0,0.3791947364807129
5.0,0.3774872422218323
6.0,0.37586677074432373
7.0,0.37420737743377686
8.0,0.37266936898231506
9.0,0.3711819350719452
10.0,0.36967602372169495
11.0,0.3682529032230377
12.0,0.367021769285202
13.0,0.36579635739326477
14.0,0.3646841049194336
15.0,0.36364465951919556
16.0,0.36254507303237915
18.0,0.36054569482803345
20.0,0.35848861932754517
22.0,0.35656777024269104
24.0,0.35451164841651917
26.0,0.3525253236293793
28.0,0.35097384452819824
30.0,0.3496706783771515
32.0,0.34841734170913696
36.0,0.3462192118167877
40.0,0.3442140221595764
44.0,0.34158650040626526
48.0,0.3388764560222626
52.0,0.33609017729759216
56.0,0.33368825912475586
60.0,0.33191677927970886
64.0,0.33030205965042114
72.0,0.32528966665267944
80.0,0.3202081024646759
88.0,0.3182041347026825
96.0,0.31694358587265015
104.0,0.31540030241012573
112.0,0.31335878372192383
120.0,0.31126686930656433
128.0,0.308651328086853
144.0,0.30484718084335327
160.0,0.3045121431350708
176.0,0.3032457232475281
192.0,0.29865801334381104
208.0,0.2933772802352905
224.0,0.2879716455936432
240.0,0.2799520790576935
256.0,0.27566421031951904
288.0,0.26501235365867615
320.0,0.2476073056459427
352.0,0.23445074260234833
384.0,0.22113990783691406
416.0,0.20929478108882904
448.0,0.19890962541103363
480.0,0.18862850964069366
512.0,0.1862105280160904
576.0,0.17550775408744812
640.0,0.17007875442504883
704.0,0.16584379971027374
768.0,0.1700420081615448
832.0,0.17260262370109558
896.0,0.17346718907356262
960.0,0.16978834569454193
1024.0,0.165620356798172
1152.0,0.13097763061523438
1280.0,0.08832769840955734
1408.0,0.02673404850065708
1536.0,-0.022368449717760086
1664.0,-0.04147271439433098
1792.0,-0.07193807512521744
1920.0,-0.07293056696653366
2048.0,-0.07865728437900543
2304.0,-0.09539094567298889
2560.0,-0.12556004524230957
2816.0,-0.15099845826625824
3072.0,-0.17888683080673218
3328.0,-0.21555861830711365
3584.0,-0.27074939012527466
3840.0,-0.299137145280838
4096.0,-0.2972438335418701
end
