version,3.0
numOfCh,1
type,point
parent_name,0cd20_3dot0-0dot01
ch_type,1_1
kcount,1
numberNandB,1
brightnessNandB,1
carpet pos,0
pc,0
Time (ms),CH1 Auto-Correlation
1.0,0.026084961369633675
2.0,0.021344345062971115
3.0,0.018134623765945435
4.0,0.01574711501598358
5.0,0.013797341845929623
6.0,0.012251826003193855
7.0,0.011039773933589458
8.0,0.010025791823863983
9.0,0.009237273596227169
10.0,0.008482038974761963
11.0,0.007887447252869606
12.0,0.0073696039617061615
13.0,0.006979644764214754
14.0,0.006676515564322472
15.0,0.006297227926552296
16.0,0.006066652946174145
18.0,0.00546024227514863
20.0,0.004907771944999695
22.0,0.004519898910075426
24.0,0.003965289797633886
26.0,0.003531807102262974
28.0,0.0034217422362416983
30.0,0.0033480902202427387
32.0,0.0029243475291877985
36.0,0.0025458603631705046
40.0,0.002498401328921318
44.0,0.002738699084147811
48.0,0.002619830658659339
52.0,0.002754021668806672
56.0,0.0024602776393294334
60.0,0.0023814633022993803
64.0,0.002217175904661417
72.0,0.0024249337147921324
80.0,0.0018245449755340815
88.0,0.0013575530610978603
96.0,0.0009415647946298122
104.0,0.0003715947677846998
112.0,0.0005503562861122191
120.0,0.000809934688732028
128.0,0.0006072022370062768
144.0,8.183057798305526e-05
160.0,3.073758853133768e-05
176.0,0.0006511738174594939
192.0,0.0010199557291343808
208.0,-7.48675229260698e-05
224.0,-0.0004751661035697907
240.0,-0.0003950257378164679
256.0,-0.000142700009746477
288.0,2.3984883227967657e-05
320.0,-0.0002731255954131484
352.0,-0.0001564620906719938
384.0,0.0002778995840344578
416.0,0.0004073220770806074
448.0,0.0003876167756970972
480.0,-0.00048317277105525136
512.0,-0.00030456745298579335
576.0,0.00030279200291261077
640.0,0.00037302818964235485
704.0,8.210832311306149e-05
768.0,0.00032211747020483017
832.0,-0.0002819886722136289
896.0,-0.000537200307007879
960.0,-8.500421972712502e-05
1024.0,-3.528832530719228e-05
1152.0,-0.00040937471203505993
1280.0,-0.00011159849964315072
1408.0,0.0005927867605350912
1536.0,0.0003781203122343868
1664.0,0.0009248334681615233
1792.0,0.000621468701865524
1920.0,8.841446106089279e-05
2048.0,-0.00020158679399173707
2304.0,0.0002446744474582374
2560.0,0.00012670921569224447
2816.0,0.0004248595214448869
3072.0,0.00021697819465771317
3328.0,-0.0008807266713120043
3584.0,-0.0005284989019855857
3840.0,-0.00012361613335087895
4096.0,4.8362311645178124e-05
4608.0,4.8989088099915534e-05
5120.0,-0.0006333824712783098
5632.0,-0.0006078007281757891
6144.0,-0.000466920348117128
6656.0,-7.816932338755578e-05
7168.0,-0.00033905074815265834
7680.0,-0.000556022219825536
8192.0,-8.174629329005256e-05
end
