version,3.0
numOfCh,1
type,point
parent_name,0cd20_3dot0-0dot01
ch_type,1_1
kcount,1
numberNandB,1
brightnessNandB,1
carpet pos,0
pc,0
Time (ms),CH1 Auto-Correlation
1.0,0.026762284338474274
2.0,0.021893294528126717
3.0,0.018505189567804337
4.0,0.01624496653676033
5.0,0.01446953322738409
6.0,0.013118235394358635
7.0,0.011964813806116581
8.0,0.010885094292461872
9.0,0.009960091672837734
10.0,0.009481691755354404
11.0,0.008877747692167759
12.0,0.008334294892847538
13.0,0.007888552732765675
14.0,0.007394961081445217
15.0,0.007003643084317446
16.0,0.006784491706639528
18.0,0.00633311178535223
20.0,0.006115014664828777
22.0,0.005899185314774513
24.0,0.005476690363138914
26.0,0.005055051762610674
28.0,0.004854183178395033
30.0,0.004581265151500702
32.0,0.004462715703994036
36.0,0.0039396267384290695
40.0,0.003733954392373562
44.0,0.003113112412393093
48.0,0.002550818957388401
52.0,0.0021568366792052984
56.0,0.001782182021997869
60.0,0.0015155994333326817
64.0,0.0012400574050843716
72.0,0.0009740283712744713
80.0,0.0008706006919965148
88.0,0.0003631210420280695
96.0,0.0005963885923847556
104.0,0.0007450549164786935
112.0,0.0007433273713104427
120.0,0.0011447942815721035
128.0,0.0019214252242818475
144.0,0.0016225747531279922
160.0,0.0010576017666608095
176.0,0.0017187658231705427
192.0,0.0006559134926646948
208.0,-0.00045258193858899176
224.0,-0.0009464522590860724
240.0,-0.0007748469361104071
256.0,-0.0003556162992026657
288.0,-0.00011362366785760969
320.0,-0.0008440134115517139
352.0,-0.000732954649720341
384.0,-0.00024935274268500507
416.0,0.0008674073033034801
448.0,0.0011711583938449621
480.0,0.001453572534956038
512.0,0.0007885182276368141
576.0,0.0008414146723225713
640.0,-0.0005997086991555989
704.0,0.0006785523728467524
768.0,0.0003267101419623941
832.0,-0.00028183773974888027
896.0,0.0011702192714437842
960.0,0.0009488970972597599
1024.0,-6.0327427490847185e-05
1152.0,-0.0006908621289767325
1280.0,-0.00017528588068671525
1408.0,0.0006271018064580858
1536.0,0.0002135419490514323
1664.0,-0.0013645305298268795
1792.0,-0.0011181203881278634
1920.0,-0.0004015800077468157
2048.0,0.0002051974879577756
2304.0,-0.00019604244153015316
2560.0,-0.001022792304866016
2816.0,-0.0007350803934969008
3072.0,-0.0003688916622195393
3328.0,-0.0003752314078155905
3584.0,0.0007938903290778399
3840.0,-0.00041199004044756293
4096.0,0.00018496673146728426
4608.0,-0.00037156653706915677
5120.0,-0.00023602719011250883
5632.0,0.0005635895067825913
6144.0,-0.000898742931894958
6656.0,-0.00011401421943446621
7168.0,8.366880138055421e-06
7680.0,0.0007134508341550827
8192.0,-0.00015995066496543586
end
