version,3.0
numOfCh,1
type,point
parent_name,0cd20_3dot0-0dot01
ch_type,1_1
kcount,1
numberNandB,1
brightnessNandB,1
carpet pos,0
pc,0
Time (ms),CH1 Auto-Correlation
1.0,0.12922321259975433
2.0,0.1249803751707077
3.0,0.12216358631849289
4.0,0.11984565109014511
5.0,0.11785005033016205
6.0,0.11645782738924026
7.0,0.11543232947587967
8.0,0.11446799337863922
9.0,0.1135527491569519
10.0,0.11265143752098083
11.0,0.11168862879276276
12.0,0.11081375926733017
13.0,0.11005162447690964
14.0,0.10952714830636978
15.0,0.10901061445474625
16.0,0.10857488960027695
18.0,0.10753609240055084
20.0,0.1061471477150917
22.0,0.10474813729524612
24.0,0.10384099185466766
26.0,0.10320539027452469
28.0,0.10271144658327103
30.0,0.10224047303199768
32.0,0.10171424597501755
36.0,0.10076487064361572
40.0,0.09979629516601562
44.0,0.09848438948392868
48.0,0.09743902087211609
52.0,0.09625121206045151
56.0,0.09494084864854813
60.0,0.094224713742733
64.0,0.09285706281661987
72.0,0.09059286117553711
80.0,0.08808399736881256
88.0,0.08593910932540894
96.0,0.08355256915092468
104.0,0.08139943331480026
112.0,0.07878497242927551
120.0,0.07601141184568405
128.0,0.07383432984352112
144.0,0.07019415497779846
160.0,0.06554558873176575
176.0,0.06043992564082146
192.0,0.05684338137507439
208.0,0.054453153163194656
224.0,0.050879329442977905
240.0,0.04731513932347298
256.0,0.043511319905519485
288.0,0.035722650587558746
320.0,0.029784303158521652
352.0,0.026925714686512947
384.0,0.023343004286289215
416.0,0.02119050733745098
448.0,0.019077887758612633
480.0,0.01604459248483181
512.0,0.011537795886397362
576.0,0.005335201043635607
640.0,-0.0022326703183352947
704.0,-0.00789675023406744
768.0,-0.00938680674880743
832.0,-0.009526057168841362
896.0,-0.008666463196277618
960.0,-0.005685830023139715
1024.0,-0.0024787248112261295
1152.0,-0.005409490317106247
1280.0,-0.006342549808323383
1408.0,-0.006162513978779316
1536.0,-0.0017364035593345761
1664.0,-0.0008942687418311834
1792.0,2.6540850740275346e-05
1920.0,0.002535909181460738
2048.0,0.003565059509128332
2304.0,-0.00018736101628746837
2560.0,0.002698676660656929
2816.0,-0.007210720796138048
3072.0,-0.008009410463273525
3328.0,-0.01052994653582573
3584.0,-0.005047291982918978
3840.0,-0.0030254118610173464
4096.0,-0.006661850027740002
4608.0,-0.011254290118813515
5120.0,-0.00824829563498497
5632.0,-0.013356790877878666
6144.0,-0.01690348982810974
6656.0,-0.020524628460407257
7168.0,-0.027216339483857155
7680.0,-0.016120895743370056
8192.0,0.012117955833673477
end
