version,3.0
numOfCh,1
type,point
parent_name,0cd20_3dot0-0dot01
ch_type,1_1
kcount,1
numberNandB,1
brightnessNandB,1
carpet pos,0
pc,0
Time (ms),CH1 Auto-Correlation
1.0,0.06242414191365242
2.0,0.05847351253032684
3.0,0.05578700453042984
4.0,0.05368875712156296
5.0,0.051909830421209335
6.0,0.05062912404537201
7.0,0.04958654195070267
8.0,0.0485658161342144
9.0,0.04780516400933266
10.0,0.04713311791419983
11.0,0.046295419335365295
12.0,0.04548370838165283
13.0,0.04489126801490784
14.0,0.0444166362285614
15.0,0.04383530095219612
16.0,0.04331250861287117
18.0,0.042509060353040695
20.0,0.0413934551179409
22.0,0.04064171388745308
24.0,0.04011518135666847
26.0,0.03975512459874153
28.0,0.039361316710710526
30.0,0.038911815732717514
32.0,0.03850831836462021
36.0,0.03757460415363312
40.0,0.036427777260541916
44.0,0.03559622913599014
48.0,0.0351889468729496
52.0,0.03439325466752052
56.0,0.033976733684539795
60.0,0.033658917993307114
64.0,0.03270609676837921
72.0,0.03162429854273796
80.0,0.030508222058415413
88.0,0.02898077294230461
96.0,0.027721794322133064
104.0,0.027763379737734795
112.0,0.028258677572011948
120.0,0.028624657541513443
128.0,0.02796240895986557
144.0,0.029123779386281967
160.0,0.029367664828896523
176.0,0.028087986633181572
192.0,0.02738291025161743
208.0,0.0257787574082613
224.0,0.024569116532802582
240.0,0.02220260165631771
256.0,0.021384330466389656
288.0,0.02026977203786373
320.0,0.017738640308380127
352.0,0.01540349330753088
384.0,0.014548379927873611
416.0,0.014473354443907738
448.0,0.015508288517594337
480.0,0.014177952893078327
512.0,0.01048418041318655
576.0,0.006059985142201185
640.0,0.0046141562052071095
704.0,0.0016089987475425005
768.0,-0.00044847960816696286
832.0,-0.0007743500173091888
896.0,-0.0011392694432288408
960.0,-0.0018571596592664719
1024.0,-0.0015039918944239616
1152.0,-0.0017791108693927526
1280.0,-0.0024024941958487034
1408.0,-4.985933628631756e-05
1536.0,0.0006166799576021731
1664.0,0.0009317366639152169
1792.0,0.000798047345597297
1920.0,0.00023272543330676854
2048.0,-0.002051999792456627
2304.0,-0.0051775528118014336
2560.0,-0.0048660230822861195
2816.0,-0.0025414687115699053
3072.0,-0.0020213813986629248
3328.0,-0.0006693649338558316
3584.0,0.0007297743577510118
3840.0,0.0006212403532117605
4096.0,0.0003240593650843948
4608.0,8.435097697656602e-05
5120.0,-0.0025882720947265625
5632.0,0.0012810067273676395
6144.0,-0.002711461391299963
6656.0,-0.005532730370759964
7168.0,-0.01400048192590475
7680.0,-0.02240794338285923
8192.0,-0.03700626268982887
end
