version,3.0
numOfCh,1
type,point
parent_name,0cd20_3dot0-0dot01
ch_type,1_1
kcount,1
numberNandB,1
brightnessNandB,1
carpet pos,0
pc,0
Time (ms),CH1 Auto-Correlation
1.0,0.027606850489974022
2.0,0.022804994136095047
3.0,0.019487330690026283
4.0,0.01696801371872425
5.0,0.01478633563965559
6.0,0.013262735679745674
7.0,0.012162485159933567
8.0,0.01119921449571848
9.0,0.010429240763187408
10.0,0.009717453271150589
11.0,0.009155113250017166
12.0,0.008807999081909657
13.0,0.008389606140553951
14.0,0.00811997801065445
15.0,0.007648032158613205
16.0,0.0073499251157045364
18.0,0.00678270636126399
20.0,0.006076142191886902
22.0,0.005608637351542711
24.0,0.005355850327759981
26.0,0.004983620718121529
28.0,0.004596106708049774
30.0,0.0043708449229598045
32.0,0.004318722523748875
36.0,0.003959907218813896
40.0,0.0031032722909003496
44.0,0.002661200473085046
48.0,0.0019638959784060717
52.0,0.0018636143067851663
56.0,0.0018304428085684776
60.0,0.0022421812172979116
64.0,0.002290783217176795
72.0,0.001100911875255406
80.0,0.0013405353529378772
88.0,0.0016556016635149717
96.0,0.001345428405329585
104.0,0.0010782385943457484
112.0,0.0013166125863790512
120.0,0.001061687828041613
128.0,0.0009207811090163887
144.0,0.0006584111833944917
160.0,-0.0003339420654810965
176.0,-0.00038984426646493375
192.0,0.00035978734376840293
208.0,0.0005833404138684273
224.0,0.0001259919226868078
240.0,7.102765084709972e-05
256.0,0.00024482360458932817
288.0,0.00015838122635614127
320.0,-0.0002172597305616364
352.0,-0.0003238209174014628
384.0,0.0006448159692808986
416.0,0.0005178095889277756
448.0,-0.00014943686255719513
480.0,-0.0003435731341596693
512.0,-0.00023444289399776608
576.0,-0.00028480595210567117
640.0,0.00015227148833218962
704.0,-0.0006687807035632432
768.0,-0.0012737862998619676
832.0,-0.0004186525475233793
896.0,0.0004783351323567331
960.0,0.0002957220422104001
1024.0,-0.0003447610361035913
1152.0,0.00019484080257825553
1280.0,0.0008317475439980626
1408.0,-0.00019641182734631002
1536.0,0.0004908628179691732
1664.0,-0.000163608041475527
1792.0,-0.00023847173724789172
1920.0,-0.00033495386014692485
2048.0,-0.00011271950643276796
2304.0,-0.0005900586838833988
2560.0,0.00015873831580393016
2816.0,0.0002293613215442747
3072.0,-0.0005392925813794136
3328.0,0.0005604535108432174
3584.0,8.332648576470092e-05
3840.0,8.830298611428589e-05
4096.0,-0.0003128353273496032
4608.0,1.685076131252572e-05
5120.0,0.00025624033878557384
5632.0,-0.0006372516509145498
6144.0,-0.0001409119286108762
6656.0,-0.0005201540770940483
7168.0,0.00016726205649320036
7680.0,2.5588073185645044e-05
8192.0,-0.0003233498428016901
end
