version,3.0
numOfCh,1
type,point
parent_name,0cd20_3dot0-0dot01
ch_type,1_1
kcount,1
numberNandB,1
brightnessNandB,1
carpet pos,0
pc,0
Time (ms),CH1 Auto-Correlation
1.0,0.02676675096154213
2.0,0.022029010578989983
3.0,0.01869761012494564
4.0,0.0162027757614851
5.0,0.014247963204979897
6.0,0.01272874791175127
7.0,0.011451100930571556
8.0,0.010396617464721203
9.0,0.009513872675597668
10.0,0.008691013790667057
11.0,0.008062664419412613
12.0,0.0074615622870624065
13.0,0.006841455120593309
14.0,0.00630522845312953
15.0,0.005835199262946844
16.0,0.005483701359480619
18.0,0.004909545183181763
20.0,0.004661049228161573
22.0,0.004539520014077425
24.0,0.0042124222964048386
26.0,0.004007398150861263
28.0,0.003624750068411231
30.0,0.0033026174642145634
32.0,0.003202952677384019
36.0,0.0029295156709849834
40.0,0.0026679104194045067
44.0,0.0023090357426553965
48.0,0.0018817466916516423
52.0,0.0010791695676743984
56.0,0.00041118223452940583
60.0,0.0003561951743904501
64.0,7.810547685949132e-06
72.0,-0.00020436159684322774
80.0,-0.0003648774581961334
88.0,-0.00014012416067998856
96.0,-0.0001624116557650268
104.0,8.407126188103575e-06
112.0,0.00010499612835701555
120.0,0.00014953540812712163
128.0,0.0007628572639077902
144.0,0.0006909262738190591
160.0,0.0005216284771449864
176.0,0.0005673454143106937
192.0,0.0005647095968015492
208.0,0.0002691167173907161
224.0,2.6349660402047448e-05
240.0,-0.0004185363359283656
256.0,-0.0005371123552322388
288.0,-0.0005329129053279757
320.0,-0.00031542585929855704
352.0,0.00011418253416195512
384.0,-0.000353586976416409
416.0,-0.0002770440769381821
448.0,0.0006757681258022785
480.0,0.001091929036192596
512.0,0.00133992126211524
576.0,-9.692789171822369e-05
640.0,0.0010355579433962703
704.0,0.0005248376983217895
768.0,-0.00022716447710990906
832.0,-0.00017204653704538941
896.0,-0.00026105818687938154
960.0,-0.0007130046142265201
1024.0,0.00030073808738961816
1152.0,0.00010652533092070371
1280.0,-0.0004923162050545216
1408.0,-0.0003168975526932627
1536.0,-0.0007234582444652915
1664.0,-0.0008874991908669472
1792.0,-0.00022821188031230122
1920.0,1.5635028830729425e-05
2048.0,0.00012215635797474533
2304.0,-0.0003720254171639681
2560.0,0.0004435887676663697
2816.0,0.0005797348567284644
3072.0,0.00031609542202204466
3328.0,0.0003094921703450382
3584.0,7.055431342450902e-05
3840.0,0.0001484468230046332
4096.0,-0.0003671612066682428
4608.0,-0.0003670079167932272
5120.0,-5.4262436606222764e-05
5632.0,-0.00021574264974333346
6144.0,-0.00017017473874147981
6656.0,-0.0002445759891998023
7168.0,8.546812750864774e-05
7680.0,4.5628090447280556e-05
8192.0,0.000777776469476521
end
