version,3.0
numOfCh,1
type,point
parent_name,0cd20_3dot0-0dot01
ch_type,1_1
kcount,1
numberNandB,1
brightnessNandB,1
carpet pos,0
pc,0
Time (ms),CH1 Auto-Correlation
1.0,0.02591506578028202
2.0,0.02115241251885891
3.0,0.017770612612366676
4.0,0.015269381925463676
5.0,0.013251356780529022
6.0,0.011588482186198235
7.0,0.010290746577084064
8.0,0.009354538284242153
9.0,0.00861708726733923
10.0,0.007931340485811234
11.0,0.0072538480162620544
12.0,0.006857092026621103
13.0,0.006592571269720793
14.0,0.006154848262667656
15.0,0.005734875798225403
16.0,0.005297458730638027
18.0,0.004632290452718735
20.0,0.004105009138584137
22.0,0.003909391351044178
24.0,0.0035473813768476248
26.0,0.0032868534326553345
28.0,0.0028439671732485294
30.0,0.0026399525813758373
32.0,0.002394573064520955
36.0,0.0024001586716622114
40.0,0.002239532070234418
44.0,0.0021722475066781044
48.0,0.0025955848395824432
52.0,0.0028586862608790398
56.0,0.0024661049246788025
60.0,0.0021603505592793226
64.0,0.002043026266619563
72.0,0.0018729977309703827
80.0,0.001538995304144919
88.0,0.0017027264693751931
96.0,0.0013620133977383375
104.0,0.0015572590054944158
112.0,0.0012967204675078392
120.0,0.0006786035373806953
128.0,0.0006293631158769131
144.0,-4.6388377086259425e-05
160.0,0.0006730693858116865
176.0,0.001012371270917356
192.0,0.0010597441578283906
208.0,0.0005868247826583683
224.0,-0.0002248606615466997
240.0,-5.3696239774581045e-05
256.0,-1.048457988872542e-06
288.0,-0.00014310117694549263
320.0,0.0003893377142958343
352.0,0.0003399408014956862
384.0,0.0006450461805798113
416.0,3.6002547858515754e-05
448.0,0.00014240066229831427
480.0,0.00011376148904673755
512.0,-0.0002660300815477967
576.0,-0.0002328188274987042
640.0,-0.0004963550018146634
704.0,-0.0005372368032112718
768.0,-0.00021303884568624198
832.0,-0.0002755887690000236
896.0,5.977513865218498e-05
960.0,-0.0004030707641504705
1024.0,-2.4608494641142897e-05
1152.0,9.583838618709706e-06
1280.0,-0.0004448618274182081
1408.0,8.54969403007999e-05
1536.0,1.6387384675908834e-05
1664.0,8.733843424124643e-05
1792.0,-0.0005614786641672254
1920.0,-0.0003868785861413926
2048.0,0.000544173875823617
2304.0,0.0008519522380083799
2560.0,-0.0005330204730853438
2816.0,-0.00036027675378136337
3072.0,-5.175709520699456e-05
3328.0,0.0002738682960625738
3584.0,-0.00014810278662480414
3840.0,-0.0004876408202107996
4096.0,-0.00031986203975975513
4608.0,-0.0003284387639723718
5120.0,-0.00039225275395438075
5632.0,-0.00022977682237979025
6144.0,4.388477100292221e-05
6656.0,0.00017785560339689255
7168.0,-0.00045493670040741563
7680.0,4.7362089389935136e-05
8192.0,0.000584443798288703
end
