version,3.0
numOfCh,1
type,point
parent_name,0cd20_3dot0-0dot01
ch_type,1_1
kcount,1
numberNandB,1
brightnessNandB,1
carpet pos,0
pc,0
Time (ms),CH1 Auto-Correlation
1.0,0.027741095051169395
2.0,0.023072052747011185
3.0,0.01979758031666279
4.0,0.0173991397023201
5.0,0.015525075607001781
6.0,0.013908672146499157
7.0,0.01244702935218811
8.0,0.011250707320868969
9.0,0.010279955342411995
10.0,0.00956040807068348
11.0,0.008939377032220364
12.0,0.008460144512355328
13.0,0.007854591123759747
14.0,0.007305797655135393
15.0,0.006954030599445105
16.0,0.0065723261795938015
18.0,0.005821257829666138
20.0,0.005406328942626715
22.0,0.005202481057494879
24.0,0.004640380851924419
26.0,0.0038459254428744316
28.0,0.0032196843530982733
30.0,0.0029967750888317823
32.0,0.0029673834796994925
36.0,0.002491679275408387
40.0,0.0021359191741794348
44.0,0.00204703351482749
48.0,0.0019646447617560625
52.0,0.001927181496284902
56.0,0.0020017900969833136
60.0,0.0016427068039774895
64.0,0.0012899619759991765
72.0,0.001051097409799695
80.0,0.0004479476483538747
88.0,0.0002090301422867924
96.0,-0.00015278568025678396
104.0,-0.0007829702226445079
112.0,-0.0006938070291653275
120.0,-0.00017840234795585275
128.0,0.0002913186326622963
144.0,0.0007219623657874763
160.0,0.0002716343733482063
176.0,-0.00031501633930020034
192.0,0.00021263449161779135
208.0,0.0010398020967841148
224.0,0.0009185263188555837
240.0,-0.0006189769483171403
256.0,-0.00037177157355472445
288.0,-0.000837087573017925
320.0,-0.001037025824189186
352.0,-0.0008562376606278121
384.0,-0.0010010841069743037
416.0,-0.0008276427979581058
448.0,-0.00021319482766557485
480.0,-9.741656685946509e-05
512.0,-0.0004983000108040869
576.0,-0.0004439721233211458
640.0,-0.00038303283508867025
704.0,9.536901779938489e-05
768.0,-0.00017358409240841866
832.0,-0.00044423388317227364
896.0,-0.00013845857756678015
960.0,0.0004528271674644202
1024.0,0.00033933206577785313
1152.0,0.00023393018636852503
1280.0,0.00041719552245922387
1408.0,9.08597867237404e-05
1536.0,-7.815243588993326e-05
1664.0,-0.001068954705260694
1792.0,-0.0004514736938290298
1920.0,-2.576335464254953e-05
2048.0,9.318798402091488e-05
2304.0,-3.468865907052532e-05
2560.0,0.0006019325228407979
2816.0,-6.012598896631971e-05
3072.0,-0.0004907872644253075
3328.0,-0.0004594736092258245
3584.0,0.0005180529551580548
3840.0,0.0004926911205984652
4096.0,-0.0008923629065975547
4608.0,0.00021071806258987635
5120.0,1.4547201772074914e-06
5632.0,-9.533365664537996e-05
6144.0,-1.8406792150926776e-05
6656.0,-0.00011466773139545694
7168.0,-0.00019918024190701544
7680.0,3.5362572816666216e-05
8192.0,0.00022357975831255317
end
