version,3.0
numOfCh,1
type,point
parent_name,0cd20_3dot0-0dot01
ch_type,1_1
kcount,1
numberNandB,1
brightnessNandB,1
carpet pos,0
pc,0
Time (ms),CH1 Auto-Correlation
1.0,0.02645527757704258
2.0,0.021979903802275658
3.0,0.018938656896352768
4.0,0.016471216455101967
5.0,0.014724710956215858
6.0,0.01329508051276207
7.0,0.012162228114902973
8.0,0.01116088405251503
9.0,0.010109650902450085
10.0,0.009282484650611877
11.0,0.008491571992635727
12.0,0.008055663667619228
13.0,0.007679321337491274
14.0,0.007192417047917843
15.0,0.006921151652932167
16.0,0.006597720552235842
18.0,0.005885872058570385
20.0,0.005274583585560322
22.0,0.004647406749427319
24.0,0.004335182718932629
26.0,0.0038600319530814886
28.0,0.0036194603890180588
30.0,0.0036473353393375874
32.0,0.0036810501478612423
36.0,0.003257661359384656
40.0,0.002796035958454013
44.0,0.0020711664110422134
48.0,0.0022437593434005976
52.0,0.0025226003490388393
56.0,0.0023530691396445036
60.0,0.0018447749316692352
64.0,0.002153494395315647
72.0,0.0022787763737142086
80.0,0.0022917671594768763
88.0,0.0018658722983673215
96.0,0.0008949980256147683
104.0,0.0005602838355116546
112.0,0.0017296887235715985
120.0,0.0018629601690918207
128.0,0.0018098201835528016
144.0,0.001995781669393182
160.0,0.0017084501450881362
176.0,0.0010646251030266285
192.0,0.0008370952564291656
208.0,0.0014142733998596668
224.0,0.001692459569312632
240.0,0.0016752448864281178
256.0,0.001586403464898467
288.0,0.0013528139097616076
320.0,0.0010822480544447899
352.0,0.00041136651998385787
384.0,0.0008817983325570822
416.0,0.0008564128074795008
448.0,0.0006972340634092689
480.0,-0.0005393430474214256
512.0,-0.0005165038164705038
576.0,0.0010934097226709127
640.0,0.0003391422505956143
704.0,0.0003777483361773193
768.0,6.31308212177828e-05
832.0,-0.0007372396066784859
896.0,7.804544293321669e-05
960.0,0.00015476612315978855
1024.0,-0.0008574623498134315
1152.0,1.1851290764752775e-05
1280.0,-0.000212721832212992
1408.0,-0.000675584829878062
1536.0,0.0005557191325351596
1664.0,0.0003326033183839172
1792.0,0.00030262264772318304
1920.0,1.401820213686733e-06
2048.0,-0.0004100955557078123
2304.0,-0.0005181233864277601
2560.0,-0.00020377612963784486
2816.0,-0.00011747168900910765
3072.0,-0.00016680231783539057
3328.0,-0.00028317986289039254
3584.0,-0.0006522045005112886
3840.0,-0.0009307923028245568
4096.0,-0.00040664177504368126
4608.0,-0.00035231892252340913
5120.0,-0.0005980707355774939
5632.0,-0.0011250905226916075
6144.0,-7.83057912485674e-05
6656.0,0.00014204339822754264
7168.0,0.0008205147460103035
7680.0,0.0009722730610519648
8192.0,-0.00011613694368861616
end
