version,3.0
numOfCh,1
type,point
parent_name,c1204_0dot4-0dot1
ch_type,1_1
kcount,1
numberNandB,1
brightnessNandB,1
carpet pos,0
pc,0
Time (ms),CH1 Auto-Correlation
1.0,0.029889969155192375
2.0,0.02877858281135559
3.0,0.027729377150535583
4.0,0.026782268658280373
5.0,0.025880170986056328
6.0,0.025032388046383858
7.0,0.02423078753054142
8.0,0.02346104010939598
9.0,0.0227738618850708
10.0,0.022104334086179733
11.0,0.02147902548313141
12.0,0.020892640575766563
13.0,0.020330222323536873
14.0,0.019810102880001068
15.0,0.019330685958266258
16.0,0.018867086619138718
18.0,0.018069744110107422
20.0,0.01734405755996704
22.0,0.016667861491441727
24.0,0.016083108261227608
26.0,0.015531102195382118
28.0,0.01511436514556408
30.0,0.014746351167559624
32.0,0.014469164423644543
36.0,0.013856363482773304
40.0,0.013240320608019829
44.0,0.012737590819597244
48.0,0.012201912701129913
52.0,0.011672730557620525
56.0,0.01111520454287529
60.0,0.01060699112713337
64.0,0.010074866004288197
72.0,0.008855723775923252
80.0,0.008243732154369354
88.0,0.007837086915969849
96.0,0.006832584738731384
104.0,0.005952599458396435
112.0,0.005076118744909763
120.0,0.0044346703216433525
128.0,0.00393408490344882
144.0,0.0031772179063409567
160.0,0.0024741990491747856
176.0,0.0019038108875975013
192.0,0.0016236111987382174
208.0,0.0011596380500122905
224.0,0.0010642479173839092
240.0,0.0017473752377554774
256.0,0.0021278432104736567
288.0,0.0011158729903399944
320.0,0.0006432938389480114
352.0,8.466061444778461e-06
384.0,-0.0006182398064993322
416.0,-0.00034304216387681663
448.0,9.189647244056687e-05
480.0,0.0004796518187504262
512.0,0.0016315056709572673
576.0,0.0022062344942241907
640.0,0.002294474048539996
704.0,0.0011558526894077659
768.0,0.0015924002509564161
832.0,-9.747282456373796e-05
896.0,-0.001968861324712634
960.0,-0.0031995773315429688
1024.0,-0.002578440820798278
1152.0,-0.0013205461436882615
1280.0,-0.002607508096843958
1408.0,-0.0024618839379400015
1536.0,0.0005000195815227926
1664.0,0.0002169432700611651
1792.0,0.000222448943532072
1920.0,-0.002065997803583741
2048.0,-0.0015696983318775892
2304.0,-0.0005176134291104972
2560.0,-0.0027371698524802923
2816.0,-0.0011163767194375396
3072.0,-0.001960846595466137
3328.0,0.0008834616164676845
3584.0,-0.0010682801948860288
3840.0,0.002251263242214918
4096.0,0.0013788167852908373
4608.0,0.0007665730663575232
5120.0,0.0006404747837223113
5632.0,0.0004074924800079316
6144.0,-0.0018820633413270116
6656.0,-0.0033381206449121237
7168.0,-0.0001401577319484204
7680.0,0.002041321014985442
8192.0,0.0019891131669282913
end
