version,3.0
numOfCh,1
type,point
parent_name,c1204_0dot4-0dot1
ch_type,1_1
kcount,1
numberNandB,1
brightnessNandB,1
carpet pos,0
pc,0
Time (ms),CH1 Auto-Correlation
1.0,0.03127584606409073
2.0,0.030242476612329483
3.0,0.029284454882144928
4.0,0.028384193778038025
5.0,0.02753070741891861
6.0,0.026711514219641685
7.0,0.025899764150381088
8.0,0.025124531239271164
9.0,0.024390628561377525
10.0,0.023701341822743416
11.0,0.023057153448462486
12.0,0.022455492988228798
13.0,0.02187618613243103
14.0,0.021309413015842438
15.0,0.020754707977175713
16.0,0.02024376019835472
18.0,0.019291723147034645
20.0,0.018394919112324715
22.0,0.017573317512869835
24.0,0.01684909127652645
26.0,0.016219360753893852
28.0,0.01559640746563673
30.0,0.015013021416962147
32.0,0.014507552608847618
36.0,0.013642508536577225
40.0,0.012813209556043148
44.0,0.012018183246254921
48.0,0.011255475692451
52.0,0.010523157194256783
56.0,0.009873063303530216
60.0,0.009193547070026398
64.0,0.00862476322799921
72.0,0.00791542325168848
80.0,0.007462167646735907
88.0,0.00715790456160903
96.0,0.006658281199634075
104.0,0.005745068192481995
112.0,0.0052505978383123875
120.0,0.004880985710769892
128.0,0.004542138427495956
144.0,0.0037180420476943254
160.0,0.0038672147784382105
176.0,0.00483747199177742
192.0,0.00515860365703702
208.0,0.005196350160986185
224.0,0.005293620750308037
240.0,0.005144326016306877
256.0,0.004715354647487402
288.0,0.0025618907529860735
320.0,0.0020164120942354202
352.0,0.001627816935069859
384.0,0.0003456157282926142
416.0,-0.001097512082196772
448.0,-0.0008487898157909513
480.0,-0.000842327659483999
512.0,-0.0004236668173689395
576.0,-0.0016237084055319428
640.0,-0.0011711301049217582
704.0,-0.0011225256603211164
768.0,-0.0010690144263207912
832.0,-0.0008299775654450059
896.0,0.001181678380817175
960.0,0.001212888746522367
1024.0,7.499271305277944e-05
1152.0,0.00046286851284094155
1280.0,0.0014926086878404021
1408.0,-0.0009938088478520513
1536.0,0.00010298863344360143
1664.0,-0.0003463677712716162
1792.0,-2.078604211419588e-06
1920.0,0.0005192578537389636
2048.0,-0.0009906366467475891
2304.0,-0.0018213123548775911
2560.0,-0.00022487908427137882
2816.0,-0.0005259671015664935
3072.0,-0.002270311350002885
3328.0,-0.0016822224715724587
3584.0,-0.0014971659984439611
3840.0,-0.0011478927917778492
4096.0,-0.0039216624572873116
4608.0,-0.0006872558733448386
5120.0,-0.0009134890278801322
5632.0,-0.0004866892995778471
6144.0,0.0028290480840951204
6656.0,0.0015310284215956926
7168.0,0.0014753881841897964
7680.0,0.0013708346523344517
8192.0,-0.0010226325830444694
end
