version,3.0
numOfCh,1
type,point
parent_name,c1204_0dot4-0dot1
ch_type,1_1
kcount,1
numberNandB,1
brightnessNandB,1
carpet pos,0
pc,0
Time (ms),CH1 Auto-Correlation
1.0,0.028986569494009018
2.0,0.027912497520446777
3.0,0.026925522834062576
4.0,0.02601262368261814
5.0,0.02514232136309147
6.0,0.02429538406431675
7.0,0.02349984273314476
8.0,0.02277444675564766
9.0,0.022060910239815712
10.0,0.021397549659013748
11.0,0.020776528865098953
12.0,0.020190512761473656
13.0,0.0196236539632082
14.0,0.019107315689325333
15.0,0.018601253628730774
16.0,0.018132446333765984
18.0,0.01728345826268196
20.0,0.016562853008508682
22.0,0.015886640176177025
24.0,0.015249202027916908
26.0,0.014616109430789948
28.0,0.014043682254850864
30.0,0.01352899894118309
32.0,0.013044249266386032
36.0,0.012328225187957287
40.0,0.011704466305673122
44.0,0.011089548468589783
48.0,0.010430886410176754
52.0,0.009682899340987206
56.0,0.008877787739038467
60.0,0.008059866726398468
64.0,0.007257076911628246
72.0,0.005972994025796652
80.0,0.004858239553868771
88.0,0.003664018353447318
96.0,0.002641483675688505
104.0,0.00198628893122077
112.0,0.0015761811519041657
120.0,0.0012383232824504375
128.0,0.0010123630054295063
144.0,0.0009027018095366657
160.0,0.0009683254756964743
176.0,0.00119242281652987
192.0,0.001639843569137156
208.0,0.001559621887281537
224.0,0.0013569858856499195
240.0,0.0009000173886306584
256.0,0.0004847660893574357
288.0,0.0005983983282931149
320.0,-0.00013814422709401697
352.0,0.0007203231216408312
384.0,0.0007018757751211524
416.0,1.2857008186983876e-05
448.0,-0.00035139566170983016
480.0,-0.0003933092812076211
512.0,0.00016352484817616642
576.0,0.0007698875851929188
640.0,0.0002930151822511107
704.0,-0.0005957874818705022
768.0,-0.00044965645065531135
832.0,0.0004019475309178233
896.0,-0.0001238766999449581
960.0,-0.0003934755804948509
1024.0,-0.0007721214205957949
1152.0,-0.0014075390063226223
1280.0,0.00034099118784070015
1408.0,-0.0020045593846589327
1536.0,-0.0018858311232179403
1664.0,-0.001070139231160283
1792.0,-0.0022176136262714863
1920.0,-0.003857772331684828
2048.0,-0.002559672575443983
2304.0,-0.0012022171868011355
2560.0,0.0022543873637914658
2816.0,0.002606672467663884
3072.0,0.0008505128789693117
3328.0,0.0009279628866352141
3584.0,0.0012879351852461696
3840.0,0.0009917356073856354
4096.0,-0.00015611646813340485
4608.0,-0.0023877578787505627
5120.0,-0.0005242573679424822
5632.0,-0.0007573948241770267
6144.0,0.00017676882271189243
6656.0,0.002043968765065074
7168.0,-0.00042126161861233413
7680.0,-0.0003912182874046266
8192.0,-0.0025364987086504698
end
