version,3.0
numOfCh,1
type,point
parent_name,c1204_0dot4-0dot1
ch_type,1_1
kcount,1
numberNandB,1
brightnessNandB,1
carpet pos,0
pc,0
Time (ms),CH1 Auto-Correlation
1.0,0.027781778946518898
2.0,0.026679104194045067
3.0,0.025673700496554375
4.0,0.02470719814300537
5.0,0.023808678612113
6.0,0.022992728278040886
7.0,0.022234026342630386
8.0,0.021555926650762558
9.0,0.02088400349020958
10.0,0.02022508531808853
11.0,0.01954728178679943
12.0,0.018911680206656456
13.0,0.018315376713871956
14.0,0.017773738130927086
15.0,0.017228467389941216
16.0,0.01672825776040554
18.0,0.015827011317014694
20.0,0.015046495944261551
22.0,0.014279600232839584
24.0,0.013573768548667431
26.0,0.013003888539969921
28.0,0.012576576322317123
30.0,0.012167498469352722
32.0,0.01176100317388773
36.0,0.011091786436736584
40.0,0.010453863069415092
44.0,0.009877690114080906
48.0,0.009276422671973705
52.0,0.00862257368862629
56.0,0.007920964621007442
60.0,0.007297484669834375
64.0,0.006846146658062935
72.0,0.006461010780185461
80.0,0.00608762027695775
88.0,0.0058386619202792645
96.0,0.00544948922470212
104.0,0.005019442178308964
112.0,0.004455858375877142
120.0,0.004121959209442139
128.0,0.003960824571549892
144.0,0.004002818837761879
160.0,0.0036604367196559906
176.0,0.0034395167604088783
192.0,0.003422514768317342
208.0,0.0032617764081805944
224.0,0.0031604059040546417
240.0,0.002666521817445755
256.0,0.0016774232499301434
288.0,0.0009592074784450233
320.0,0.0010858681052923203
352.0,0.0008556396933272481
384.0,-8.480715769110247e-05
416.0,-0.0005523873260244727
448.0,0.0006689851288683712
480.0,0.00021989131346344948
512.0,0.0007707251934334636
576.0,0.001176899066194892
640.0,0.000501157424878329
704.0,0.00041314042755402625
768.0,0.0017556564416736364
832.0,0.0013132077874615788
896.0,-0.00024151722027454525
960.0,-0.0006921208696439862
1024.0,-0.00030560060986317694
1152.0,0.0003326935402583331
1280.0,0.0005481225671246648
1408.0,0.0015756207285448909
1536.0,0.0022796313278377056
1664.0,0.0027416946832090616
1792.0,0.0020226333290338516
1920.0,0.0026578069664537907
2048.0,-0.00026740325847640634
2304.0,-0.0012194148730486631
2560.0,-8.592991798650473e-05
2816.0,0.001204797299578786
3072.0,0.0007718396955169737
3328.0,0.0019098443444818258
3584.0,0.0009584426879882812
3840.0,0.0003338658716529608
4096.0,-0.000991690088994801
4608.0,0.0005300289485603571
5120.0,0.0007507266709581017
5632.0,-0.0007674553198739886
6144.0,0.0007674387888982892
6656.0,-0.0003124130016658455
7168.0,-0.0033389339223504066
7680.0,-0.0015099964803084731
8192.0,-0.0013358753640204668
end
