version,3.0
numOfCh,1
type,point
parent_name,c1204_0dot4-0dot1
ch_type,1_1
kcount,1
numberNandB,1
brightnessNandB,1
carpet pos,0
pc,0
Time (ms),CH1 Auto-Correlation
1.0,0.03342851623892784
2.0,0.032230012118816376
3.0,0.031133580952882767
4.0,0.03010239079594612
5.0,0.029151298105716705
6.0,0.02830827236175537
7.0,0.02750770002603531
8.0,0.026758011430501938
9.0,0.02611233852803707
10.0,0.025507645681500435
11.0,0.024930084124207497
12.0,0.024385077878832817
13.0,0.023842569440603256
14.0,0.02329937368631363
15.0,0.022755080834031105
16.0,0.02220771089196205
18.0,0.021153127774596214
20.0,0.020166762173175812
22.0,0.019307825714349747
24.0,0.01861426793038845
26.0,0.017903752624988556
28.0,0.017277812585234642
30.0,0.016724858433008194
32.0,0.016250014305114746
36.0,0.01557023823261261
40.0,0.014545031823217869
44.0,0.013588973321020603
48.0,0.013022443279623985
52.0,0.01242129597812891
56.0,0.011919793672859669
60.0,0.011469867080450058
64.0,0.011160149239003658
72.0,0.010468997992575169
80.0,0.009718552231788635
88.0,0.00930265337228775
96.0,0.008887792006134987
104.0,0.008318118751049042
112.0,0.0076911794021725655
120.0,0.0072400677017867565
128.0,0.006884326227009296
144.0,0.0064729563891887665
160.0,0.005941550247371197
176.0,0.005549971014261246
192.0,0.005002961494028568
208.0,0.004450718406587839
224.0,0.004074175842106342
240.0,0.003159213112667203
256.0,0.002753215841948986
288.0,0.0031410378869622946
320.0,0.00445037055760622
352.0,0.0033590621314942837
384.0,0.0028678125236183405
416.0,0.0031698904931545258
448.0,0.002890025032684207
480.0,0.002341192914173007
512.0,0.0005363409291021526
576.0,-0.0018841582350432873
640.0,-0.0014846865087747574
704.0,-0.001934619969688356
768.0,-0.0008217635913752019
832.0,-0.00044215330854058266
896.0,0.0001465552777517587
960.0,0.0006190306739881635
1024.0,-0.001088903401978314
1152.0,-0.001924504991620779
1280.0,-0.001595232868567109
1408.0,-0.0005655555869452655
1536.0,0.0005476460210047662
1664.0,-0.0025424188934266567
1792.0,-0.0037590404972434044
1920.0,-0.0032728509977459908
2048.0,-0.0037581725046038628
2304.0,-0.0031279323156923056
2560.0,-0.0016123955138027668
2816.0,0.0009594012517482042
3072.0,0.003826945088803768
3328.0,0.004344676621258259
3584.0,0.0009477065759710968
3840.0,0.0012849956983700395
4096.0,0.00033219048054888844
4608.0,-0.0016784454928711057
5120.0,-0.003225382650271058
5632.0,-6.263991963351145e-05
6144.0,-0.0008113926160149276
6656.0,0.001181037281639874
7168.0,0.0017366566462442279
7680.0,-0.0003592394641600549
8192.0,-0.00269765080884099
end
