version,3.0
numOfCh,1
type,point
parent_name,c1204_0dot4-0dot1
ch_type,1_1
kcount,1
numberNandB,1
brightnessNandB,1
carpet pos,0
pc,0
Time (ms),CH1 Auto-Correlation
1.0,0.030229073017835617
2.0,0.029080186039209366
3.0,0.02800086885690689
4.0,0.026979569345712662
5.0,0.02605580911040306
6.0,0.0252134520560503
7.0,0.024413123726844788
8.0,0.023634200915694237
9.0,0.022888997569680214
10.0,0.02219749055802822
11.0,0.02156071737408638
12.0,0.02097442001104355
13.0,0.02044283226132393
14.0,0.01994957961142063
15.0,0.019481977447867393
16.0,0.018988650292158127
18.0,0.018104733899235725
20.0,0.017343072220683098
22.0,0.016610192134976387
24.0,0.015897389501333237
26.0,0.015294793993234634
28.0,0.014811620116233826
30.0,0.014378734864294529
32.0,0.013933616690337658
36.0,0.013145514763891697
40.0,0.012310763821005821
44.0,0.011522388085722923
48.0,0.010779251344501972
52.0,0.010176635347306728
56.0,0.009689613245427608
60.0,0.00930139608681202
64.0,0.009020447731018066
72.0,0.008370046503841877
80.0,0.007786473259329796
88.0,0.007437549065798521
96.0,0.006912258919328451
104.0,0.006615047343075275
112.0,0.006360305473208427
120.0,0.005929442122578621
128.0,0.005336131434887648
144.0,0.0039077154360711575
160.0,0.0026466757990419865
176.0,0.0017290705582126975
192.0,0.0007982315146364272
208.0,0.0005172716337256134
224.0,0.0002206910285167396
240.0,-0.00013198282977100462
256.0,-9.725116979097947e-05
288.0,-0.0008494260255247355
320.0,-0.0014511886984109879
352.0,-0.0011315116425976157
384.0,-0.001526570413261652
416.0,-0.0018258320633322
448.0,-0.0017130927881225944
480.0,-0.0018430226482450962
512.0,-0.0017640141304582357
576.0,-0.0013357528951019049
640.0,-9.881286678137258e-05
704.0,0.0006239842041395605
768.0,-0.0008074692450463772
832.0,-0.00043066689977422357
896.0,-0.0013770322548225522
960.0,-0.0022641296964138746
1024.0,-0.001809680717997253
1152.0,-0.003309153253212571
1280.0,-0.003203536616638303
1408.0,-0.0023637497797608376
1536.0,0.0007053078734315932
1664.0,0.0013751862570643425
1792.0,0.0007145834970287979
1920.0,0.0023338543251156807
2048.0,1.668595359660685e-05
2304.0,0.0028003694023936987
2560.0,0.0017473092302680016
2816.0,-0.0012252995511516929
3072.0,-0.0014583321753889322
3328.0,-0.0009193080477416515
3584.0,-0.0034902736078947783
3840.0,-0.0016768118366599083
4096.0,0.002477979985997081
4608.0,0.00022191346215549856
5120.0,-0.0010339039145037532
5632.0,-0.0015116778668016195
6144.0,0.0011423267424106598
6656.0,0.0016187900910153985
7168.0,-0.0017218160210177302
7680.0,-0.0006177283357828856
8192.0,0.0030697507318109274
end
