version,3.0
numOfCh,1
type,point
parent_name,c1204_0dot4-0dot1
ch_type,1_1
kcount,1
numberNandB,1
brightnessNandB,1
carpet pos,0
pc,0
Time (ms),CH1 Auto-Correlation
1.0,0.028331097215414047
2.0,0.02727247215807438
3.0,0.026294227689504623
4.0,0.02537163905799389
5.0,0.024527404457330704
6.0,0.023720048367977142
7.0,0.02289664000272751
8.0,0.02211025543510914
9.0,0.02136550098657608
10.0,0.020701343193650246
11.0,0.020037679001688957
12.0,0.019396208226680756
13.0,0.018777351826429367
14.0,0.018207235261797905
15.0,0.017623409628868103
16.0,0.01707271859049797
18.0,0.01609976775944233
20.0,0.015247696079313755
22.0,0.014389378018677235
24.0,0.013553847558796406
26.0,0.012841438874602318
28.0,0.012189622968435287
30.0,0.011627444997429848
32.0,0.011134120635688305
36.0,0.010110709816217422
40.0,0.009394057095050812
44.0,0.008809766732156277
48.0,0.008274631574749947
52.0,0.007876726798713207
56.0,0.0075251199305057526
60.0,0.007252821698784828
64.0,0.007070914842188358
72.0,0.0064472327940166
80.0,0.005817733239382505
88.0,0.005459343083202839
96.0,0.0049452525563538074
104.0,0.0044217463582754135
112.0,0.004390416666865349
120.0,0.004225723911076784
128.0,0.004077604040503502
144.0,0.003861306933686137
160.0,0.003195455064997077
176.0,0.0022282761055976152
192.0,0.0015165685908868909
208.0,0.0020092851482331753
224.0,0.0029220113065093756
240.0,0.003481710096821189
256.0,0.003309576539322734
288.0,0.002295879414305091
320.0,0.0018269995925948024
352.0,0.0011953366920351982
384.0,0.0017951540648937225
416.0,0.0014339605113491416
448.0,0.0023630771320313215
480.0,0.0020959165412932634
512.0,0.0016523953527212143
576.0,-0.0002427918661851436
640.0,0.0002464402059558779
704.0,0.0010824312921613455
768.0,0.003138645552098751
832.0,0.0010827936930581927
896.0,0.00010323769674869254
960.0,-0.00030376954236999154
1024.0,0.0008356677135452628
1152.0,-0.0007890078704804182
1280.0,-0.00023429359134752303
1408.0,0.0004673654038924724
1536.0,0.0023926650173962116
1664.0,0.0017064567655324936
1792.0,0.0023046776186674833
1920.0,0.0010810501407831907
2048.0,-0.0001753740361891687
2304.0,-0.0015210239216685295
2560.0,-0.002931145951151848
2816.0,-0.002224378054961562
3072.0,-0.0002539411070756614
3328.0,0.00052876106929034
3584.0,0.0007014193688519299
3840.0,-0.0006845786701887846
4096.0,-0.0021759255323559046
4608.0,-0.0014346252428367734
5120.0,6.91746681695804e-05
5632.0,-0.002968729706481099
6144.0,-0.0024287186097353697
6656.0,-0.0007961911032907665
7168.0,0.0002259194734506309
7680.0,-0.0002445205464027822
8192.0,0.0016901068156585097
end
