version,3.0
numOfCh,1
type,point
parent_name,c1204_0dot4-0dot1
ch_type,1_1
kcount,1
numberNandB,1
brightnessNandB,1
carpet pos,0
pc,0
Time (ms),CH1 Auto-Correlation
1.0,0.027776971459388733
2.0,0.026663346216082573
3.0,0.025612028315663338
4.0,0.024619711562991142
5.0,0.023694250732660294
6.0,0.022839967161417007
7.0,0.02207610383629799
8.0,0.021362340077757835
9.0,0.0207228846848011
10.0,0.0200946182012558
11.0,0.019484849646687508
12.0,0.018889298662543297
13.0,0.018302030861377716
14.0,0.01777043007314205
15.0,0.017275569960474968
16.0,0.01678498461842537
18.0,0.015878424048423767
20.0,0.015064310282468796
22.0,0.014300111681222916
24.0,0.013599814847111702
26.0,0.013016658835113049
28.0,0.012471798807382584
30.0,0.011941962875425816
32.0,0.011476111598312855
36.0,0.010691606439650059
40.0,0.009913813322782516
44.0,0.009195235557854176
48.0,0.008475190959870815
52.0,0.007796722464263439
56.0,0.007191500626504421
60.0,0.006711434572935104
64.0,0.006373971235007048
72.0,0.005778019316494465
80.0,0.005079677328467369
88.0,0.004366036504507065
96.0,0.0039663175120949745
104.0,0.0037694708444178104
112.0,0.003536523785442114
120.0,0.0031763799488544464
128.0,0.002725591417402029
144.0,0.0025496836751699448
160.0,0.0026287268847227097
176.0,0.001976801548153162
192.0,0.0017011072486639023
208.0,0.0011983239091932774
224.0,0.0015169093385338783
240.0,0.001531320158392191
256.0,0.0006527577643282712
288.0,2.1837402528035454e-05
320.0,-0.0003473706019576639
352.0,-0.001558908843435347
384.0,-0.0021157064475119114
416.0,-0.001758781960234046
448.0,-0.00018222801736555994
480.0,0.00041974111809395254
512.0,0.0002665713254828006
576.0,-0.0007740167784504592
640.0,0.00012327576405368745
704.0,0.0007332366658374667
768.0,0.0010754504473879933
832.0,0.0006659243372268975
896.0,-0.000931593356654048
960.0,-0.001551880850456655
1024.0,-0.0006356895319186151
1152.0,-0.0007626654114574194
1280.0,-0.0006594157312065363
1408.0,-0.0012008511694148183
1536.0,-0.000917556753847748
1664.0,0.0008608714560978115
1792.0,0.00017273430421482772
1920.0,0.0006282863905653358
2048.0,0.00021776171342935413
2304.0,-6.849650162621401e-06
2560.0,0.0007410228135995567
2816.0,-0.0005536641110666096
3072.0,-0.001715244259685278
3328.0,-0.0008881024550646544
3584.0,-0.0007957627531141043
3840.0,0.0017450971063226461
4096.0,0.0020724632777273655
4608.0,-0.0004823727940674871
5120.0,0.0014921973925083876
5632.0,-0.0003003741439897567
6144.0,-0.0005529845366254449
6656.0,-0.0013924532104283571
7168.0,-0.000329961912939325
7680.0,0.00033947874908335507
8192.0,-0.0034164965618401766
end
