version,3.0
numOfCh,1
type,point
parent_name,c1204_0dot4-0dot1
ch_type,1_1
kcount,1
numberNandB,1
brightnessNandB,1
carpet pos,0
pc,0
Time (ms),CH1 Auto-Correlation
1.0,0.028996523469686508
2.0,0.02795124240219593
3.0,0.02699451334774494
4.0,0.026080703362822533
5.0,0.02525532990694046
6.0,0.02445080876350403
7.0,0.023699617013335228
8.0,0.023006491363048553
9.0,0.022380627691745758
10.0,0.0218049306422472
11.0,0.02127467840909958
12.0,0.020754234865307808
13.0,0.020255789160728455
14.0,0.01980404742062092
15.0,0.01939127966761589
16.0,0.018978560343384743
18.0,0.018187731504440308
20.0,0.017478426918387413
22.0,0.016776632517576218
24.0,0.016093961894512177
26.0,0.015506218187510967
28.0,0.015000609681010246
30.0,0.014457170851528645
32.0,0.01393734011799097
36.0,0.013005128130316734
40.0,0.011939194984734058
44.0,0.01094630267471075
48.0,0.010161996819078922
52.0,0.009523043408989906
56.0,0.008923494257032871
60.0,0.008451070636510849
64.0,0.00807997491210699
72.0,0.007431578356772661
80.0,0.006843108218163252
88.0,0.006357308942824602
96.0,0.005881399381905794
104.0,0.005480033811181784
112.0,0.005405132193118334
120.0,0.005047445651143789
128.0,0.004515456035733223
144.0,0.0037774513475596905
160.0,0.0034138825722038746
176.0,0.002922703977674246
192.0,0.0027587839867919683
208.0,0.002703416161239147
224.0,0.001955741085112095
240.0,0.0011954327346757054
256.0,0.0005520059494301677
288.0,0.001113308360800147
320.0,0.0011649684747681022
352.0,0.00047270709183067083
384.0,-3.453971294220537e-05
416.0,-0.0001619643735466525
448.0,-3.506494249450043e-05
480.0,6.401401333278045e-05
512.0,0.00019623003026936203
576.0,-0.001864536665380001
640.0,-0.002381760161370039
704.0,-0.0028092372231185436
768.0,-0.001261974684894085
832.0,0.0006243038806132972
896.0,0.0018399832770228386
960.0,0.002184915356338024
1024.0,0.0022804299369454384
1152.0,6.630299321841449e-05
1280.0,-0.0004908834234811366
1408.0,-0.0015685384860262275
1536.0,-0.003181575797498226
1664.0,-0.0033100980799645185
1792.0,-0.0003708370786625892
1920.0,0.0030272426083683968
2048.0,0.003011505352333188
2304.0,0.0027115873526781797
2560.0,-0.0015869225608184934
2816.0,-0.0007181121036410332
3072.0,0.0006997727323323488
3328.0,0.00020181220315862447
3584.0,-0.0021015943493694067
3840.0,-0.0011401987867429852
4096.0,0.0010729756904765964
4608.0,-0.0011808848939836025
5120.0,0.0010533378226682544
5632.0,-0.0029704864136874676
6144.0,0.0010992250172421336
6656.0,-0.001933765015564859
7168.0,0.0009032405796460807
7680.0,-0.0010833446867763996
8192.0,0.00020520493853837252
end
