version,3.0
numOfCh,1
type,point
parent_name,c1204_0dot4-0dot1
ch_type,1_1
kcount,1
numberNandB,1
brightnessNandB,1
carpet pos,0
pc,0
Time (ms),CH1 Auto-Correlation
1.0,0.028154730796813965
2.0,0.027085518464446068
3.0,0.026107100769877434
4.0,0.025174709036946297
5.0,0.0242715273052454
6.0,0.02339068427681923
7.0,0.02257465571165085
8.0,0.02182786725461483
9.0,0.02112799696624279
10.0,0.02049955539405346
11.0,0.019913900643587112
12.0,0.019359948113560677
13.0,0.01882927678525448
14.0,0.01831221953034401
15.0,0.017829161137342453
16.0,0.017355388030409813
18.0,0.016407126560807228
20.0,0.015602003782987595
22.0,0.014866035431623459
24.0,0.014190995134413242
26.0,0.013531554490327835
28.0,0.012901906855404377
30.0,0.012332762591540813
32.0,0.011777794919908047
36.0,0.010680077597498894
40.0,0.009862850420176983
44.0,0.009142942726612091
48.0,0.008401742205023766
52.0,0.007803415879607201
56.0,0.0072074392810463905
60.0,0.0065428814850747585
64.0,0.005830358248203993
72.0,0.004808411002159119
80.0,0.004489587154239416
88.0,0.004476800095289946
96.0,0.004393189214169979
104.0,0.0038618280086666346
112.0,0.0034246505238115788
120.0,0.003170678159222007
128.0,0.002931655151769519
144.0,0.0025728947948664427
160.0,0.002476244466379285
176.0,0.003110097022727132
192.0,0.0032355438452214003
208.0,0.0026673953980207443
224.0,0.002238272223621607
240.0,0.0022728252224624157
256.0,0.0022200841922312975
288.0,0.002168598584830761
320.0,0.0026935189962387085
352.0,0.00406535342335701
384.0,0.003490936243906617
416.0,0.001742793363519013
448.0,0.0011042708065360785
480.0,0.0006792685599066317
512.0,9.18536024983041e-05
576.0,-0.0011396841146051884
640.0,-0.0012743199476972222
704.0,-0.0011488021118566394
768.0,-0.0013784067705273628
832.0,-0.0016723254229873419
896.0,-0.0019553527235984802
960.0,-0.0019396627321839333
1024.0,-0.0015807554591447115
1152.0,-0.0017287714872509241
1280.0,-0.0009311831672675908
1408.0,-0.001586297177709639
1536.0,-0.001691565616056323
1664.0,-0.0009800413390621543
1792.0,-0.0021554252598434687
1920.0,-9.481827146373689e-05
2048.0,0.00013507058611139655
2304.0,0.0030576095450669527
2560.0,0.0016456409357488155
2816.0,-0.0010882646311074495
3072.0,-0.0021519153378903866
3328.0,-0.0015764354029670358
3584.0,-0.00102012581191957
3840.0,-0.0017583839362487197
4096.0,-0.002988597610965371
4608.0,0.0014156533870846033
5120.0,6.860913708806038e-05
5632.0,0.0015660712961107492
6144.0,-0.0004413007409311831
6656.0,-0.00018370930047240108
7168.0,0.0007314797258004546
7680.0,0.0002019177336478606
8192.0,0.00015096932474989444
end
