version,3.0
numOfCh,1
type,point
parent_name,c1204_0dot4-0dot1
ch_type,1_1
kcount,1
numberNandB,1
brightnessNandB,1
carpet pos,0
pc,0
Time (ms),CH1 Auto-Correlation
1.0,0.030995333567261696
2.0,0.029907140880823135
3.0,0.028880301862955093
4.0,0.027941707521677017
5.0,0.027040475979447365
6.0,0.026241803541779518
7.0,0.02547834813594818
8.0,0.024761291220784187
9.0,0.024057453498244286
10.0,0.023340074345469475
11.0,0.022650256752967834
12.0,0.021996088325977325
13.0,0.021402481943368912
14.0,0.020844021812081337
15.0,0.020331308245658875
16.0,0.01985037885606289
18.0,0.01896839588880539
20.0,0.018088988959789276
22.0,0.017314046621322632
24.0,0.016565971076488495
26.0,0.015892455354332924
28.0,0.015264621935784817
30.0,0.01466872077435255
32.0,0.01406779047101736
36.0,0.012909994460642338
40.0,0.01196091715246439
44.0,0.011178817600011826
48.0,0.010524389334022999
52.0,0.010054457001388073
56.0,0.009482531808316708
60.0,0.008978468365967274
64.0,0.008464512415230274
72.0,0.007304693106561899
80.0,0.005919331219047308
88.0,0.00456594442948699
96.0,0.0037580945063382387
104.0,0.00326133263297379
112.0,0.0028565216343849897
120.0,0.002453823806717992
128.0,0.0022434548009186983
144.0,0.0019118152558803558
160.0,0.0013647341402247548
176.0,0.0004606886941473931
192.0,-0.0002375905605731532
208.0,-0.0002787373086903244
224.0,0.00029808885301463306
240.0,0.001275723916478455
256.0,0.0013303570449352264
288.0,0.0019033598946407437
320.0,0.0012711182935163379
352.0,0.00032441571238450706
384.0,-0.00010621259571053088
416.0,0.0002652387192938477
448.0,0.0005021149991080165
480.0,0.0005592532688751817
512.0,0.0015041829319670796
576.0,-0.0012663115048781037
640.0,-0.0025106726679950953
704.0,-0.002485483419150114
768.0,-0.0028752742800861597
832.0,-0.0016443149652332067
896.0,-0.00044303020695224404
960.0,-0.0008112394716590643
1024.0,-0.0021112633403390646
1152.0,-0.0023704825434833765
1280.0,-0.0017135814996436238
1408.0,-0.0021313466131687164
1536.0,-0.002135724760591984
1664.0,-0.000913983560167253
1792.0,-0.00015386464656330645
1920.0,-0.0004291221557650715
2048.0,-0.00022858839656691998
2304.0,0.0008145766332745552
2560.0,0.0018908921629190445
2816.0,0.0022837568540126085
3072.0,0.0005427910946309566
3328.0,0.0004702329752035439
3584.0,-0.0004017564933747053
3840.0,0.000335018994519487
4096.0,-0.0026393202133476734
4608.0,-0.0003497592988424003
5120.0,-0.00016837207658682019
5632.0,0.0007070028805173934
6144.0,0.0015762575203552842
6656.0,-0.00027893908554688096
7168.0,-0.0018113538390025496
7680.0,-0.0010243273572996259
8192.0,0.0014603821327909827
end
