version,3.0
numOfCh,1
type,point
parent_name,c1204_0dot4-0dot1
ch_type,1_1
kcount,1
numberNandB,1
brightnessNandB,1
carpet pos,0
pc,0
Time (ms),CH1 Auto-Correlation
1.0,0.030008554458618164
2.0,0.028949368745088577
3.0,0.027960414066910744
4.0,0.027003059163689613
5.0,0.026093868538737297
6.0,0.0252273827791214
7.0,0.024428581818938255
8.0,0.023644419386982918
9.0,0.022900881245732307
10.0,0.022177623584866524
11.0,0.02150128409266472
12.0,0.020870372653007507
13.0,0.020290477201342583
14.0,0.019721316173672676
15.0,0.0191792082041502
16.0,0.018654802814126015
18.0,0.01766061596572399
20.0,0.016771771013736725
22.0,0.01596071757376194
24.0,0.015243119560182095
26.0,0.014628831297159195
28.0,0.014113976620137691
30.0,0.013636809773743153
32.0,0.013144693337380886
36.0,0.012242852710187435
40.0,0.01131737232208252
44.0,0.010496644303202629
48.0,0.009714550338685513
52.0,0.009044553153216839
56.0,0.008444776758551598
60.0,0.00787100289016962
64.0,0.0075314161367714405
72.0,0.006864504422992468
80.0,0.006581209599971771
88.0,0.006380993407219648
96.0,0.005947160068899393
104.0,0.00508091039955616
112.0,0.004159719683229923
120.0,0.0038614606019109488
128.0,0.003841733792796731
144.0,0.0028174526523798704
160.0,0.0021672111470252275
176.0,0.0016978263156488538
192.0,0.0011282248888164759
208.0,0.0008741989731788635
224.0,0.0010864511132240295
240.0,0.0011025957064703107
256.0,0.0007774084806442261
288.0,0.00010387406655354425
320.0,-0.0013740365393459797
352.0,-0.0025341573636978865
384.0,-0.0035232899244874716
416.0,-0.0025865917559713125
448.0,-0.001202350715175271
480.0,-0.0009679936338216066
512.0,-0.0005085768643766642
576.0,-0.00014590226055588573
640.0,-5.9421199694043025e-05
704.0,0.0012233544839546084
768.0,0.0012395783560350537
832.0,0.0005579768330790102
896.0,0.0005183577304705977
960.0,0.0009039128199219704
1024.0,0.002213014755398035
1152.0,0.003119308967143297
1280.0,0.0007007156382314861
1408.0,-0.0010371068492531776
1536.0,-0.0009432447841390967
1664.0,0.0005391121958382428
1792.0,0.0013263263972476125
1920.0,7.129265577532351e-05
2048.0,0.0004263228038325906
2304.0,0.0011219569714739919
2560.0,-0.0024358003865927458
2816.0,-0.00011637413263088092
3072.0,0.0009603632497601211
3328.0,-0.0017594972159713507
3584.0,-0.002255043014883995
3840.0,-0.0005387752316892147
4096.0,-0.0005577972624450922
4608.0,-0.0006345779984258115
5120.0,0.00042906493763439357
5632.0,-0.0005188735667616129
6144.0,0.0008013519691303372
6656.0,0.0024383552372455597
7168.0,-0.00048571694060228765
7680.0,0.0018162740161642432
8192.0,0.0004617310769390315
end
