version,3.0
numOfCh,1
type,point
parent_name,c1204_0dot4-0dot1
ch_type,1_1
kcount,1
numberNandB,1
brightnessNandB,1
carpet pos,0
pc,0
Time (ms),CH1 Auto-Correlation
1.0,0.0292343832552433
2.0,0.028164656832814217
3.0,0.027175912633538246
4.0,0.026231149211525917
5.0,0.025349371135234833
6.0,0.02450677752494812
7.0,0.02369614504277706
8.0,0.02293279953300953
9.0,0.022192351520061493
10.0,0.02149934694170952
11.0,0.020832877606153488
12.0,0.020214006304740906
13.0,0.01958361268043518
14.0,0.018984099850058556
15.0,0.018390420824289322
16.0,0.01787007972598076
18.0,0.01695740967988968
20.0,0.016086053103208542
22.0,0.015223458409309387
24.0,0.014421438798308372
26.0,0.013706350699067116
28.0,0.013005907647311687
30.0,0.01240528468042612
32.0,0.01194093469530344
36.0,0.01120977196842432
40.0,0.010483628138899803
44.0,0.009807264432311058
48.0,0.009338172152638435
52.0,0.008831092156469822
56.0,0.008238567970693111
60.0,0.007597034331411123
64.0,0.006873760372400284
72.0,0.005667110439389944
80.0,0.004819189198315144
88.0,0.004222637973725796
96.0,0.003777062753215432
104.0,0.003767638700082898
112.0,0.003495819168165326
120.0,0.003172492142766714
128.0,0.002835686784237623
144.0,0.0017360309138894081
160.0,0.0008952047792263329
176.0,0.0008351306314580142
192.0,0.0010809823870658875
208.0,0.0011414751643314958
224.0,0.0008747127139940858
240.0,0.0009980517206713557
256.0,0.0017552644712850451
288.0,0.001287798280827701
320.0,0.0014896231004968286
352.0,0.0018814788199961185
384.0,0.0021634565200656652
416.0,0.0015606741653755307
448.0,-0.00016224848513957113
480.0,4.7666922910138965e-05
512.0,0.00034769874764606357
576.0,0.0006062058382667601
640.0,-1.7357058823108673e-05
704.0,0.0005576361436396837
768.0,0.0011617697309702635
832.0,0.0021968786604702473
896.0,0.0007826624787412584
960.0,0.0010992462048307061
1024.0,-0.0005173008539713919
1152.0,-0.0010078466730192304
1280.0,-0.0003506315406411886
1408.0,-0.0022875459399074316
1536.0,0.0005320585914887488
1664.0,-1.4894319065206219e-05
1792.0,0.0008764053927734494
1920.0,0.00026216419064439833
2048.0,0.001789565198123455
2304.0,0.0014987976755946875
2560.0,0.0017163887387141585
2816.0,0.00040403884486295283
3072.0,0.00042645714711397886
3328.0,0.0013129505096003413
3584.0,0.0012066868366673589
3840.0,-0.001175629673525691
4096.0,-0.00012676553160417825
4608.0,-0.0005869962042197585
5120.0,-8.40419943415327e-07
5632.0,-0.0003841167490463704
6144.0,0.0015126282814890146
6656.0,-7.938093767734244e-05
7168.0,-0.0010911274002864957
7680.0,-0.0014206531923264265
8192.0,-0.0018093776889145374
end
