version,3.0
numOfCh,1
type,point
parent_name,c1204_0dot4-0dot1
ch_type,1_1
kcount,1
numberNandB,1
brightnessNandB,1
carpet pos,0
pc,0
Time (ms),CH1 Auto-Correlation
1.0,0.035116374492645264
2.0,0.03404555469751358
3.0,0.03302621468901634
4.0,0.0320863239467144
5.0,0.031196748837828636
6.0,0.030348625034093857
7.0,0.029539603739976883
8.0,0.028780968859791756
9.0,0.02805892750620842
10.0,0.02738877385854721
11.0,0.026768427342176437
12.0,0.026194754987955093
13.0,0.025616969913244247
14.0,0.02505413629114628
15.0,0.024497350677847862
16.0,0.023984650149941444
18.0,0.023016296327114105
20.0,0.022076332941651344
22.0,0.02125326357781887
24.0,0.020438041538000107
26.0,0.01962507702410221
28.0,0.018927590921521187
30.0,0.01827763020992279
32.0,0.017747342586517334
36.0,0.016833215951919556
40.0,0.016022814437747
44.0,0.01536025945097208
48.0,0.014765720814466476
52.0,0.014177960343658924
56.0,0.01360507681965828
60.0,0.013104316778481007
64.0,0.012672588229179382
72.0,0.011946544982492924
80.0,0.011265204288065434
88.0,0.010318594984710217
96.0,0.009482184424996376
104.0,0.008451147936284542
112.0,0.0076044644229114056
120.0,0.007005925290286541
128.0,0.006541021168231964
144.0,0.005085804965347052
160.0,0.004090269096195698
176.0,0.0038353395648300648
192.0,0.002974374918267131
208.0,0.0022900907788425684
224.0,0.0015179490437731147
240.0,0.0016036840388551354
256.0,0.0019286785973235965
288.0,0.0010518539929762483
320.0,0.0012235927861183882
352.0,0.002092647133395076
384.0,0.0030523291788995266
416.0,0.0021485108882188797
448.0,0.0022567524574697018
480.0,0.0021951913367956877
512.0,0.0021245619282126427
576.0,0.000662872742395848
640.0,-0.0003185849927831441
704.0,0.0005654807318933308
768.0,0.0011372595326974988
832.0,0.0018833274953067303
896.0,0.0025046472437679768
960.0,0.0017261668108403683
1024.0,-0.0012873479863628745
1152.0,-0.002438879106193781
1280.0,-0.001968651544302702
1408.0,-0.0012418106198310852
1536.0,-0.000994211994111538
1664.0,-0.0019725109450519085
1792.0,-0.0025397941935807467
1920.0,-0.00015061516023706645
2048.0,0.0016052339924499393
2304.0,-0.0007435965235345066
2560.0,-0.0007453302387148142
2816.0,-0.0006367514724843204
3072.0,-0.0008123528095893562
3328.0,1.739507024467457e-05
3584.0,0.0008320722845382988
3840.0,0.0014224208425730467
4096.0,0.0025353601668030024
4608.0,0.0006772811175324023
5120.0,-0.0003150757111143321
5632.0,0.0007261625723913312
6144.0,0.0014607184566557407
6656.0,-0.0028618215583264828
7168.0,-0.0026711230166256428
7680.0,-0.0043310197070240974
8192.0,-0.001876283437013626
end
