version,3.0
numOfCh,1
type,point
parent_name,c1204_0dot4-0dot1
ch_type,1_1
kcount,1
numberNandB,1
brightnessNandB,1
carpet pos,0
pc,0
Time (ms),CH1 Auto-Correlation
1.0,0.04847622662782669
2.0,0.04677687585353851
3.0,0.04513984173536301
4.0,0.04363293573260307
5.0,0.042237311601638794
6.0,0.040784139186143875
7.0,0.03945426642894745
8.0,0.0381314754486084
9.0,0.036837656050920486
10.0,0.03563332557678223
11.0,0.034473441541194916
12.0,0.03333188220858574
13.0,0.03217904642224312
14.0,0.030993139371275902
15.0,0.029920320957899094
16.0,0.028793979436159134
18.0,0.026753325015306473
20.0,0.02470547892153263
22.0,0.02278747782111168
24.0,0.020711516961455345
26.0,0.018891161307692528
28.0,0.017049770802259445
30.0,0.01574208214879036
32.0,0.014791108667850494
36.0,0.013486726209521294
40.0,0.012245507910847664
44.0,0.011080172844231129
48.0,0.009892929345369339
52.0,0.008794041350483894
56.0,0.00794081762433052
60.0,0.007243679836392403
64.0,0.00656513636931777
72.0,0.005900264717638493
80.0,0.004959496669471264
88.0,0.004756729118525982
96.0,0.0045840260572731495
104.0,0.004427435342222452
112.0,0.004193838220089674
120.0,0.0035310431849211454
128.0,0.003041544696316123
144.0,0.002389033790677786
160.0,0.0038044811226427555
176.0,0.0030160665046423674
192.0,0.001856743823736906
208.0,0.0017677864525467157
224.0,0.002302743261680007
240.0,0.002521862741559744
256.0,0.0033640635665506124
288.0,0.004785786382853985
320.0,0.004726920742541552
352.0,0.000995990470983088
384.0,-0.0010398084996268153
416.0,-0.0011911746114492416
448.0,-0.0016735056415200233
480.0,-0.0007491424330510199
512.0,0.0002608578361105174
576.0,0.0008793901652097702
640.0,0.0011148428311571479
704.0,-0.0006350118783302605
768.0,-0.0005460942629724741
832.0,0.0005989107885397971
896.0,0.0015289057046175003
960.0,0.0016035742592066526
1024.0,-0.00010905439557973295
1152.0,-0.0004553130711428821
1280.0,0.003381325863301754
1408.0,0.0033765523694455624
1536.0,0.0019256892846897244
1664.0,0.0002342238585697487
1792.0,0.0010015248553827405
1920.0,-7.471928984159604e-05
2048.0,0.0005697629530914128
2304.0,1.7450402083341032e-05
2560.0,0.0015868631890043616
2816.0,0.0005357133341021836
3072.0,-0.001854126458056271
3328.0,0.000904301879927516
3584.0,0.0020823904778808355
3840.0,0.00027753744507208467
4096.0,-0.0008612656383775175
4608.0,0.0010550838196650147
5120.0,-0.0011480468092486262
5632.0,-0.0008875171188265085
6144.0,-0.0003364915319252759
6656.0,-0.0033371103927493095
7168.0,0.0005879784584976733
7680.0,-0.0011929445900022984
8192.0,-0.00130855746101588
end
