version,3.0
numOfCh,1
type,point
parent_name,c1204_0dot4-0dot1
ch_type,1_1
kcount,1
numberNandB,1
brightnessNandB,1
carpet pos,0
pc,0
Time (ms),CH1 Auto-Correlation
1.0,0.030130455270409584
2.0,0.028970856219530106
3.0,0.0278478916734457
4.0,0.02683175355195999
5.0,0.02589707262814045
6.0,0.025035232305526733
7.0,0.024229746311903
8.0,0.023523807525634766
9.0,0.02284238487482071
10.0,0.022220244631171227
11.0,0.02158750221133232
12.0,0.020990043878555298
13.0,0.02045227587223053
14.0,0.01996244117617607
15.0,0.019516538828611374
16.0,0.019073881208896637
18.0,0.01817321591079235
20.0,0.017302963882684708
22.0,0.016471432521939278
24.0,0.01571706309914589
26.0,0.0150088369846344
28.0,0.01435662992298603
30.0,0.013717143796384335
32.0,0.013046101666986942
36.0,0.011973584070801735
40.0,0.01124599575996399
44.0,0.010688581503927708
48.0,0.010197687894105911
52.0,0.009679400362074375
56.0,0.009091872721910477
60.0,0.00868300348520279
64.0,0.008448845706880093
72.0,0.007639545015990734
80.0,0.00649999687448144
88.0,0.005622259806841612
96.0,0.0054540615528821945
104.0,0.0054565113969147205
112.0,0.005655440501868725
120.0,0.005887709558010101
128.0,0.005931696388870478
144.0,0.005771392956376076
160.0,0.005133393686264753
176.0,0.004896600730717182
192.0,0.004759150557219982
208.0,0.004270395264029503
224.0,0.003225068561732769
240.0,0.002756488276645541
256.0,0.002466085832566023
288.0,0.0025607047136873007
320.0,0.002453806810081005
352.0,0.0015778143424540758
384.0,0.0018071650993078947
416.0,0.002805122872814536
448.0,0.0034835010301321745
480.0,0.0019570516888052225
512.0,0.0004858020110987127
576.0,-6.831897917436436e-05
640.0,-0.0005949251353740692
704.0,-0.002163739176467061
768.0,-0.001836992334574461
832.0,-0.000899159349501133
896.0,-0.0007895437302067876
960.0,0.0008553356165066361
1024.0,0.00021319590450730175
1152.0,-0.0005665937787853181
1280.0,0.0001583113771630451
1408.0,0.0008638381841592491
1536.0,0.0026298288721591234
1664.0,0.003437354462221265
1792.0,0.0010396065190434456
1920.0,0.0005972943035885692
2048.0,0.0012168671237304807
2304.0,-0.00020859178039245307
2560.0,0.0007747480412945151
2816.0,0.0021831162739545107
3072.0,8.674804121255875e-05
3328.0,0.000579536659643054
3584.0,-0.0022292411886155605
3840.0,-0.0019557594787329435
4096.0,-0.002010541968047619
4608.0,0.0017903526313602924
5120.0,0.001291650696657598
5632.0,-0.0011771622812375426
6144.0,-0.0013897819444537163
6656.0,-0.0019482328789308667
7168.0,-0.0023656156845390797
7680.0,-0.0009229254792444408
8192.0,-0.0028051999397575855
end
