version,3.0
numOfCh,1
type,point
parent_name,c1204_0dot4-0dot1
ch_type,1_1
kcount,1
numberNandB,1
brightnessNandB,1
carpet pos,0
pc,0
Time (ms),CH1 Auto-Correlation
1.0,0.03181537985801697
2.0,0.030728604644536972
3.0,0.029719026759266853
4.0,0.028786756098270416
5.0,0.02793082222342491
6.0,0.02712305076420307
7.0,0.026375479996204376
8.0,0.025683000683784485
9.0,0.025041641667485237
10.0,0.024417690932750702
11.0,0.023819655179977417
12.0,0.023257913067936897
13.0,0.02271665632724762
14.0,0.02222510240972042
15.0,0.021744459867477417
16.0,0.021282963454723358
18.0,0.02040788158774376
20.0,0.01953420229256153
22.0,0.018634937703609467
24.0,0.01782747358083725
26.0,0.01707654818892479
28.0,0.016338011249899864
30.0,0.015637855976819992
32.0,0.01497967541217804
36.0,0.013856736943125725
40.0,0.012889337725937366
44.0,0.011929922737181187
48.0,0.01112925074994564
52.0,0.010381270200014114
56.0,0.00954686664044857
60.0,0.008761543780565262
64.0,0.008251113817095757
72.0,0.007536906749010086
80.0,0.006853016093373299
88.0,0.0062890066765248775
96.0,0.005855469964444637
104.0,0.005286390893161297
112.0,0.004742841701954603
120.0,0.00466542923822999
128.0,0.004825776908546686
144.0,0.004977666772902012
160.0,0.004399475175887346
176.0,0.0023099377285689116
192.0,0.0007225988665595651
208.0,0.00026442453963682055
224.0,0.00024915760150179267
240.0,0.0010161370737478137
256.0,0.0013213870115578175
288.0,0.0013637816300615668
320.0,0.00021450023632496595
352.0,-0.0009086393984034657
384.0,-0.0015239504864439368
416.0,-0.001337968511506915
448.0,-0.0008679151651449502
480.0,-0.002212410094216466
512.0,-0.0019446092192083597
576.0,4.7853984142420813e-05
640.0,-0.0011966200545430183
704.0,-0.0007635551155544817
768.0,-0.0005866141873411834
832.0,-0.002169972052797675
896.0,-0.0013722307048738003
960.0,-0.0006731630419380963
1024.0,0.002624095417559147
1152.0,0.0021821963600814342
1280.0,-0.0013993497705087066
1408.0,-0.0017602990847080946
1536.0,-0.00494353286921978
1664.0,-0.0034699991811066866
1792.0,-0.00033771683229133487
1920.0,0.0005187378264963627
2048.0,0.000934771669562906
2304.0,0.0012814697111025453
2560.0,0.001565067796036601
2816.0,-0.0005832590395584702
3072.0,-0.00039365096017718315
3328.0,-0.00048595081898383796
3584.0,0.0015140173491090536
3840.0,-0.0017907435540109873
4096.0,-0.004079366568475962
4608.0,-0.0008516027592122555
5120.0,0.0013468050165101886
5632.0,0.0006456952542066574
6144.0,-0.0011601047590374947
6656.0,-0.0021018122788518667
7168.0,-0.0015386429149657488
7680.0,-0.001305852667428553
8192.0,0.0002487327146809548
end
