version,3.0
numOfCh,1
type,point
parent_name,c1204_0dot4-0dot1
ch_type,1_1
kcount,1
numberNandB,1
brightnessNandB,1
carpet pos,0
pc,0
Time (ms),CH1 Auto-Correlation
1.0,0.031041951850056648
2.0,0.029946519061923027
3.0,0.02890990674495697
4.0,0.02791772224009037
5.0,0.027017397806048393
6.0,0.026178302243351936
7.0,0.025408068671822548
8.0,0.024675438180565834
9.0,0.024006320163607597
10.0,0.02334284596145153
11.0,0.02268914505839348
12.0,0.022074934095144272
13.0,0.02149474062025547
14.0,0.020952561870217323
15.0,0.02044346183538437
16.0,0.01992829516530037
18.0,0.018884165212512016
20.0,0.017902785912156105
22.0,0.01701277866959572
24.0,0.016241971403360367
26.0,0.015573518350720406
28.0,0.015034381300210953
30.0,0.014548667706549168
32.0,0.014102496206760406
36.0,0.01330185029655695
40.0,0.012559894472360611
44.0,0.011977492831647396
48.0,0.011327887885272503
52.0,0.010714239440858364
56.0,0.010225056670606136
60.0,0.00986011978238821
64.0,0.009417698718607426
72.0,0.008816655725240707
80.0,0.008168517611920834
88.0,0.007682181894779205
96.0,0.007457534782588482
104.0,0.006955781020224094
112.0,0.006278247572481632
120.0,0.005624088924378157
128.0,0.005148029886186123
144.0,0.005237174220383167
160.0,0.0051575577817857265
176.0,0.0045382059179246426
192.0,0.0037654212210327387
208.0,0.0030036261305212975
224.0,0.0025516285095363855
240.0,0.0022168655414134264
256.0,0.001761329942382872
288.0,0.0009126959485001862
320.0,0.0009098484879359603
352.0,0.0011044889688491821
384.0,0.0007223951397463679
416.0,0.0013488878030329943
448.0,0.0009004299063235521
480.0,0.00031605304684489965
512.0,0.0006415430107153952
576.0,0.00032977532828226686
640.0,6.276578642427921e-05
704.0,-0.0017178815323859453
768.0,-0.002194817177951336
832.0,-0.0007899142219685018
896.0,-0.0004885861999355257
960.0,0.0002827088173944503
1024.0,0.0022982351947575808
1152.0,0.0016687035094946623
1280.0,0.0024498160928487778
1408.0,0.0030575841665267944
1536.0,0.0018147950759157538
1664.0,-0.0006344605935737491
1792.0,-0.000888385868165642
1920.0,-0.0009053330286405981
2048.0,-0.0016569572035223246
2304.0,-0.005141377914696932
2560.0,-0.004461946897208691
2816.0,-3.811999340541661e-05
3072.0,-0.0008084629662334919
3328.0,0.0009254909818992019
3584.0,-0.003641091752797365
3840.0,-0.002811794402077794
4096.0,-0.001452903961762786
4608.0,0.000848267984110862
5120.0,3.7021516618551686e-05
5632.0,-0.002866901457309723
6144.0,0.002426892053335905
6656.0,0.0004349427472334355
7168.0,-0.0006745283608324826
7680.0,0.003013631561771035
8192.0,0.0016868687234818935
end
