version,3.0
numOfCh,1
type,point
parent_name,c1204_0dot6-1dot0
ch_type,1_1
kcount,1
numberNandB,1
brightnessNandB,1
carpet pos,0
pc,0
Time (ms),CH1 Auto-Correlation
1.0,0.044166844338178635
2.0,0.041725460439920425
3.0,0.03953104093670845
4.0,0.03752455115318298
5.0,0.03574525564908981
6.0,0.034110162407159805
7.0,0.032601140439510345
8.0,0.03122841753065586
9.0,0.029898088425397873
10.0,0.028656460344791412
11.0,0.02745107002556324
12.0,0.02638041414320469
13.0,0.02537482976913452
14.0,0.024431295692920685
15.0,0.023599421605467796
16.0,0.02289796806871891
18.0,0.021643007174134254
20.0,0.020653432235121727
22.0,0.019933456555008888
24.0,0.01907998137176037
26.0,0.01836381107568741
28.0,0.017626965418457985
30.0,0.016856631264090538
32.0,0.016156131401658058
36.0,0.014992387033998966
40.0,0.014116181060671806
44.0,0.013541813008487225
48.0,0.013102520257234573
52.0,0.012564955279231071
56.0,0.012322903610765934
60.0,0.011987428180873394
64.0,0.011715259402990341
72.0,0.011305911466479301
80.0,0.010644390247762203
88.0,0.010081138461828232
96.0,0.009409788995981216
104.0,0.008704088628292084
112.0,0.00828024372458458
120.0,0.007937131449580193
128.0,0.007886035367846489
144.0,0.007377011235803366
160.0,0.005962925497442484
176.0,0.004280404187738895
192.0,0.0027152581606060266
208.0,0.0014145519817247987
224.0,0.0009492289973422885
240.0,0.0005919304676353931
256.0,0.0005751335993409157
288.0,0.0005893217748962343
320.0,-0.0005826683482155204
352.0,-0.002232990460470319
384.0,-0.0025446147192269564
416.0,-0.0013627790613099933
448.0,-0.00031881287577562034
480.0,-0.0007407634402625263
512.0,-0.00047922894009388983
576.0,0.0003042911412194371
640.0,0.0019774623215198517
704.0,0.0024814950302243233
768.0,0.0020005356054753065
832.0,0.001009552157483995
896.0,0.0009119414025917649
960.0,-0.00045504618901759386
1024.0,-0.0023696499411016703
1152.0,-0.0020698707085102797
1280.0,0.001015996327623725
1408.0,-0.00041542912367731333
1536.0,-0.001499613979831338
1664.0,-0.0019554845057427883
1792.0,-0.0036753062158823013
1920.0,-0.0011637191055342555
2048.0,0.0015321014216169715
2304.0,0.0016904405783861876
2560.0,0.0001280903088627383
2816.0,1.3812315046379808e-05
3072.0,-6.557933375006542e-05
3328.0,-0.0010001473128795624
3584.0,-0.0026402969378978014
3840.0,-0.0017686556093394756
4096.0,-0.0014310366241261363
4608.0,0.00024307875719387084
5120.0,0.0016625728458166122
5632.0,-0.0001075072432286106
6144.0,-0.0011263368651270866
6656.0,-0.0021264180541038513
7168.0,0.0011068175081163645
7680.0,-7.761696178931743e-05
8192.0,-0.0013884631916880608
end
