version,3.0
numOfCh,1
type,point
parent_name,c1204_0dot6-1dot0
ch_type,1_1
kcount,1
numberNandB,1
brightnessNandB,1
carpet pos,0
pc,0
Time (ms),CH1 Auto-Correlation
1.0,0.04554888978600502
2.0,0.04319370910525322
3.0,0.041067976504564285
4.0,0.03918064013123512
5.0,0.03745922073721886
6.0,0.035911593586206436
7.0,0.0344923660159111
8.0,0.033099669963121414
9.0,0.03181933984160423
10.0,0.03068592958152294
11.0,0.029630247503519058
12.0,0.02858741767704487
13.0,0.02764156274497509
14.0,0.026746321469545364
15.0,0.025909213349223137
16.0,0.02514573372900486
18.0,0.023822052404284477
20.0,0.0225652065128088
22.0,0.02151627279818058
24.0,0.020661603659391403
26.0,0.01975140906870365
28.0,0.018797224387526512
30.0,0.017971329391002655
32.0,0.01733311265707016
36.0,0.01625058613717556
40.0,0.015431481413543224
44.0,0.01479699369519949
48.0,0.014283901080489159
52.0,0.013432460837066174
56.0,0.012411143630743027
60.0,0.011397126130759716
64.0,0.010772009380161762
72.0,0.009760764427483082
80.0,0.008670144714415073
88.0,0.008180133067071438
96.0,0.00768791139125824
104.0,0.006744500249624252
112.0,0.005175772123038769
120.0,0.004025861155241728
128.0,0.004001472145318985
144.0,0.003414955921471119
160.0,0.002618789905682206
176.0,0.002560887485742569
192.0,0.002305912086740136
208.0,0.0017660529119893909
224.0,0.0015065656043589115
240.0,0.0014525571605190635
256.0,0.0003503870393615216
288.0,-0.00020865625992882997
320.0,0.00046624013339169323
352.0,-0.0006167775136418641
384.0,-0.000952768896240741
416.0,-0.0013461477356031537
448.0,-0.0009128731908276677
480.0,0.00037044170312583447
512.0,0.0014272450935095549
576.0,0.0015344397397711873
640.0,0.0013069665292277932
704.0,0.0028954455628991127
768.0,0.003432703670114279
832.0,0.00221917312592268
896.0,-0.0014442787505686283
960.0,-0.002184299984946847
1024.0,-0.0017779831541702151
1152.0,-0.002003293251618743
1280.0,-0.001529391622170806
1408.0,-0.0010961063671857119
1536.0,-0.002019450766965747
1664.0,-0.0020847648847848177
1792.0,6.239495269255713e-05
1920.0,0.0013116156915202737
2048.0,0.0012703374959528446
2304.0,0.00032558009843342006
2560.0,0.0003395880339667201
2816.0,0.0003923024924006313
3072.0,-0.002382991136983037
3328.0,-0.0014289537211880088
3584.0,-0.0015708943828940392
3840.0,-0.0011863559484481812
4096.0,-0.00037175611942075193
4608.0,0.00037080980837345123
5120.0,-0.0013032982824370265
5632.0,0.0006705890991725028
6144.0,-0.0019236551597714424
6656.0,-0.0036740063223987818
7168.0,0.0010982301319018006
7680.0,0.0015751542523503304
8192.0,4.3846685002790764e-05
end
