version,3.0
numOfCh,1
type,point
parent_name,c1204_0dot6-1dot0
ch_type,1_1
kcount,1
numberNandB,1
brightnessNandB,1
carpet pos,0
pc,0
Time (ms),CH1 Auto-Correlation
1.0,0.046352460980415344
2.0,0.04407598823308945
3.0,0.04208654537796974
4.0,0.04031326249241829
5.0,0.03871672973036766
6.0,0.03719675540924072
7.0,0.03582778945565224
8.0,0.03460550308227539
9.0,0.03345412388443947
10.0,0.03244627267122269
11.0,0.03146716579794884
12.0,0.03058699145913124
13.0,0.0297231525182724
14.0,0.028884947299957275
15.0,0.02809262089431286
16.0,0.027447523549199104
18.0,0.026320114731788635
20.0,0.02527347393333912
22.0,0.02428380958735943
24.0,0.023221144452691078
26.0,0.022135496139526367
28.0,0.021272916346788406
30.0,0.020592503249645233
32.0,0.020025623962283134
36.0,0.01901671104133129
40.0,0.018117351457476616
44.0,0.017298398539423943
48.0,0.016340168192982674
52.0,0.015344018116593361
56.0,0.014398469589650631
60.0,0.01344896201044321
64.0,0.012580502778291702
72.0,0.010924399830400944
80.0,0.009623286314308643
88.0,0.008709416724741459
96.0,0.008163157850503922
104.0,0.007204975932836533
112.0,0.005751558113843203
120.0,0.005120932124555111
128.0,0.004740097094327211
144.0,0.0040300460532307625
160.0,0.0035665929317474365
176.0,0.004000331740826368
192.0,0.0049444083124399185
208.0,0.005490878131240606
224.0,0.00466292817145586
240.0,0.003727508243173361
256.0,0.0037495335564017296
288.0,0.0025284464936703444
320.0,0.002278810366988182
352.0,0.002570132724940777
384.0,0.00126557145267725
416.0,0.0012323406990617514
448.0,0.0013115984620526433
480.0,0.0015931312227621675
512.0,-3.43172432621941e-05
576.0,-0.0013544925022870302
640.0,-0.0013983768876641989
704.0,0.0030949485953897238
768.0,0.0017046721186488867
832.0,0.0004167768347542733
896.0,-0.0016099573113024235
960.0,-0.0005088591133244336
1024.0,-0.0012585121439769864
1152.0,-0.0031426593195647
1280.0,-0.002032678574323654
1408.0,-0.002178188180550933
1536.0,-0.0005496998783200979
1664.0,-0.0007058844203129411
1792.0,-0.0001463722001062706
1920.0,0.0019242506241425872
2048.0,-0.0009326557628810406
2304.0,-0.002716870279982686
2560.0,-0.0005883389385417104
2816.0,0.001998740714043379
3072.0,-2.954714909719769e-05
3328.0,-0.0009608788532204926
3584.0,-0.0023787461686879396
3840.0,-0.00432113790884614
4096.0,-0.00284324842505157
4608.0,-0.000852036930155009
5120.0,0.00022915768204256892
5632.0,0.002453387016430497
6144.0,0.004535697400569916
6656.0,-0.0005798013298772275
7168.0,-0.00012255937326699495
7680.0,0.0013324655592441559
8192.0,0.0021658686455339193
end
