version,3.0
numOfCh,1
type,point
parent_name,c1204_0dot6-1dot0
ch_type,1_1
kcount,1
numberNandB,1
brightnessNandB,1
carpet pos,0
pc,0
Time (ms),CH1 Auto-Correlation
1.0,0.0472659133374691
2.0,0.044815558940172195
3.0,0.042784303426742554
4.0,0.04089655727148056
5.0,0.03926629200577736
6.0,0.03773752599954605
7.0,0.036300696432590485
8.0,0.03494923189282417
9.0,0.033688414841890335
10.0,0.03246326744556427
11.0,0.03142965957522392
12.0,0.030457917600870132
13.0,0.029510226100683212
14.0,0.02862076833844185
15.0,0.027712581679224968
16.0,0.026806911453604698
18.0,0.025233224034309387
20.0,0.02393636479973793
22.0,0.02281918190419674
24.0,0.021704837679862976
26.0,0.020725106820464134
28.0,0.019805531948804855
30.0,0.019094763323664665
32.0,0.01834009774029255
36.0,0.017123201861977577
40.0,0.016265789046883583
44.0,0.015583967790007591
48.0,0.014676290564239025
52.0,0.014055606909096241
56.0,0.013572201132774353
60.0,0.013164697214961052
64.0,0.012792561203241348
72.0,0.011521730571985245
80.0,0.01027418952435255
88.0,0.009261801838874817
96.0,0.0085853710770607
104.0,0.008393357507884502
112.0,0.007852835580706596
120.0,0.006980131845921278
128.0,0.006149129010736942
144.0,0.00485599972307682
160.0,0.005222162697464228
176.0,0.00516330124810338
192.0,0.005410834681242704
208.0,0.005895926617085934
224.0,0.005542838480323553
240.0,0.004698429722338915
256.0,0.0038600328844040632
288.0,0.0030659218318760395
320.0,0.0025297326501458883
352.0,0.0009839556878432631
384.0,-0.002268477575853467
416.0,-0.003503789659589529
448.0,-0.0029861596412956715
480.0,-0.0036445234436541796
512.0,-0.0032486259005963802
576.0,-0.004552952479571104
640.0,-0.0002223782503278926
704.0,-0.0005787555710412562
768.0,-0.002507460303604603
832.0,-0.0029417145997285843
896.0,-0.002170492662116885
960.0,-0.002168336883187294
1024.0,-0.001734082237817347
1152.0,-0.002216310240328312
1280.0,0.0008394027827307582
1408.0,0.0018639439949765801
1536.0,0.004672584589570761
1664.0,0.0044768438674509525
1792.0,0.0027388930320739746
1920.0,-0.000555281643755734
2048.0,-0.003079974092543125
2304.0,-0.004648879636079073
2560.0,-0.0034227543510496616
2816.0,-0.0024442903231829405
3072.0,0.000527736556250602
3328.0,0.0018477081321179867
3584.0,-0.0016532953595742583
3840.0,-0.0002175826084567234
4096.0,-0.0007074596942402422
4608.0,0.000631132919806987
5120.0,-0.00028553325682878494
5632.0,-0.0006867392803542316
6144.0,0.003941924776881933
6656.0,-0.002083613071590662
7168.0,-0.0004553436883725226
7680.0,0.005744265858083963
8192.0,-0.004232717677950859
end
