version,3.0
numOfCh,1
type,point
parent_name,c1204_0dot6-1dot0
ch_type,1_1
kcount,1
numberNandB,1
brightnessNandB,1
carpet pos,0
pc,0
Time (ms),CH1 Auto-Correlation
1.0,0.045923274010419846
2.0,0.043500348925590515
3.0,0.04135416820645332
4.0,0.03941412642598152
5.0,0.03770359978079796
6.0,0.03609224781394005
7.0,0.03461022302508354
8.0,0.03327009454369545
9.0,0.03200492262840271
10.0,0.030721494928002357
11.0,0.029525654390454292
12.0,0.028372639790177345
13.0,0.027292443439364433
14.0,0.026317071169614792
15.0,0.025494476780295372
16.0,0.024869192391633987
18.0,0.02375560626387596
20.0,0.02264820784330368
22.0,0.021670635789632797
24.0,0.020787501707673073
26.0,0.020015228539705276
28.0,0.019269829615950584
30.0,0.01860561966896057
32.0,0.017785264179110527
36.0,0.01610805094242096
40.0,0.014766165986657143
44.0,0.013634873554110527
48.0,0.012636966072022915
52.0,0.011696326546370983
56.0,0.010966676287353039
60.0,0.010043264366686344
64.0,0.009324570186436176
72.0,0.007734023500233889
80.0,0.006408837158232927
88.0,0.005724363960325718
96.0,0.005587623454630375
104.0,0.005828790832310915
112.0,0.006181948818266392
120.0,0.006592295132577419
128.0,0.006723207887262106
144.0,0.0068304515443742275
160.0,0.007107582408934832
176.0,0.007057040464133024
192.0,0.006979660131037235
208.0,0.006067570764571428
224.0,0.004360044840723276
240.0,0.00385244726203382
256.0,0.00379780400544405
288.0,0.003747248323634267
320.0,0.0019459741888567805
352.0,0.0012063762405887246
384.0,0.0013795075938105583
416.0,0.0008654837729409337
448.0,0.00019336852710694075
480.0,0.00152245769277215
512.0,0.0023168963380157948
576.0,0.0017545665614306927
640.0,-0.0008610707591287792
704.0,0.0012522601755335927
768.0,0.0011646854691207409
832.0,-0.0006311890901997685
896.0,0.0009366850717924535
960.0,1.802474980650004e-05
1024.0,-0.001460020779632032
1152.0,-0.0003269692824687809
1280.0,4.594711572281085e-05
1408.0,-0.0024140654131770134
1536.0,-0.00516110472381115
1664.0,-0.004002332221716642
1792.0,-0.003899766830727458
1920.0,-0.00111351755913347
2048.0,0.0022380698937922716
2304.0,0.001106083276681602
2560.0,0.00032749236561357975
2816.0,0.0006901580491103232
3072.0,0.0017037446377798915
3328.0,0.002884726272895932
3584.0,0.0006473633111454546
3840.0,-7.554144394816831e-05
4096.0,0.0013098634080961347
4608.0,-0.0002238862361991778
5120.0,0.00013074254093226045
5632.0,0.0007049984997138381
6144.0,0.001021252479404211
6656.0,-0.004649692680686712
7168.0,-0.0040536904707551
7680.0,-0.0015939841978251934
8192.0,0.0033113041426986456
end
