version,3.0
numOfCh,1
type,point
parent_name,c1204_0dot6-1dot0
ch_type,1_1
kcount,1
numberNandB,1
brightnessNandB,1
carpet pos,0
pc,0
Time (ms),CH1 Auto-Correlation
1.0,0.0427587553858757
2.0,0.04040849581360817
3.0,0.038311220705509186
4.0,0.03639158234000206
5.0,0.034559477120637894
6.0,0.032917849719524384
7.0,0.0313204787671566
8.0,0.02994431182742119
9.0,0.02864701673388481
10.0,0.02752719260752201
11.0,0.026529913768172264
12.0,0.02555830217897892
13.0,0.024597054347395897
14.0,0.02368834801018238
15.0,0.022801019251346588
16.0,0.02193845622241497
18.0,0.020422859117388725
20.0,0.019123537465929985
22.0,0.01828453689813614
24.0,0.017444707453250885
26.0,0.01674623228609562
28.0,0.01596728153526783
30.0,0.01522911712527275
32.0,0.014544540084898472
36.0,0.013063224963843822
40.0,0.011861003935337067
44.0,0.01121432799845934
48.0,0.010483971796929836
52.0,0.009890669956803322
56.0,0.009386002086102962
60.0,0.008667598478496075
64.0,0.008045163936913013
72.0,0.007446550764143467
80.0,0.006426493637263775
88.0,0.005897340830415487
96.0,0.005447475239634514
104.0,0.005529112182557583
112.0,0.005785350687801838
120.0,0.0057128663174808025
128.0,0.005071289837360382
144.0,0.003609830280765891
160.0,0.0022585331462323666
176.0,0.0010931228753179312
192.0,0.0007490072166547179
208.0,0.0012892073718830943
224.0,0.0025556297041475773
240.0,0.004420636221766472
256.0,0.0049832658842206
288.0,0.0047678034752607346
320.0,0.0019662296399474144
352.0,0.00022230800823308527
384.0,0.0005763347144238651
416.0,0.0009062817553058267
448.0,-0.0009141025366261601
480.0,-0.0001382741320412606
512.0,-0.0008685390930622816
576.0,-5.549597699427977e-05
640.0,0.002196313813328743
704.0,0.002119986107572913
768.0,0.00284009100869298
832.0,0.0010536039480939507
896.0,0.002683278638869524
960.0,0.0033717325422912836
1024.0,0.0018672831356525421
1152.0,0.0010776908602565527
1280.0,0.001965470379218459
1408.0,-0.0012669647112488747
1536.0,-9.558763122186065e-05
1664.0,0.0017761614872142673
1792.0,0.00034262871486134827
1920.0,0.0037142946384847164
2048.0,0.001435655984096229
2304.0,0.0015603022184222937
2560.0,-0.0012029765639454126
2816.0,-0.0005768970004282892
3072.0,0.0006214872119016945
3328.0,-0.0005099585396237671
3584.0,-0.002361565362662077
3840.0,0.0012235873145982623
4096.0,0.002907775342464447
4608.0,-0.000752290419768542
5120.0,0.00045806297566741705
5632.0,-0.0010187386069446802
6144.0,0.0020999498665332794
6656.0,-0.00196499633602798
7168.0,0.0006163929938338697
7680.0,-0.0009148900862783194
8192.0,0.0032886939588934183
end
