version,3.0
numOfCh,1
type,point
parent_name,c1204_0dot6-1dot0
ch_type,1_1
kcount,1
numberNandB,1
brightnessNandB,1
carpet pos,0
pc,0
Time (ms),CH1 Auto-Correlation
1.0,0.04491867125034332
2.0,0.042510416358709335
3.0,0.04034581035375595
4.0,0.03842440992593765
5.0,0.03661496937274933
6.0,0.03502826765179634
7.0,0.03360617905855179
8.0,0.03224525600671768
9.0,0.031023690477013588
10.0,0.029849745333194733
11.0,0.028754426166415215
12.0,0.027733059599995613
13.0,0.02680380828678608
14.0,0.025924313813447952
15.0,0.024984635412693024
16.0,0.02414845861494541
18.0,0.022848255932331085
20.0,0.021721068769693375
22.0,0.02069484442472458
24.0,0.019609685987234116
26.0,0.01877669431269169
28.0,0.018019510433077812
30.0,0.01736234687268734
32.0,0.016670983284711838
36.0,0.015280745923519135
40.0,0.013816744089126587
44.0,0.012682112865149975
48.0,0.012270953506231308
52.0,0.011946071870625019
56.0,0.011348998174071312
60.0,0.010635719634592533
64.0,0.010070441290736198
72.0,0.00860205665230751
80.0,0.0074392156675457954
88.0,0.00646762503311038
96.0,0.0053864335641264915
104.0,0.004406934604048729
112.0,0.0036988602951169014
120.0,0.0022135265171527863
128.0,0.0008138783741742373
144.0,-5.938233152846806e-05
160.0,0.00121127360034734
176.0,0.0022457698360085487
192.0,0.0019591429736465216
208.0,0.002861202694475651
224.0,0.002883993089199066
240.0,0.0012535351561382413
256.0,-0.00018727200222201645
288.0,-0.0006782725686207414
320.0,-0.0020764381624758244
352.0,-0.0037547762040048838
384.0,-0.0046834396198391914
416.0,-0.0044851345010101795
448.0,-0.0030388871673494577
480.0,-0.002402186393737793
512.0,-0.0013509381096810102
576.0,-0.0018032032530754805
640.0,-0.0017227809876203537
704.0,-0.002469482598826289
768.0,-0.00413749972358346
832.0,-0.0011198014253750443
896.0,0.0009895293042063713
960.0,-5.478140519699082e-05
1024.0,0.00026700631133280694
1152.0,0.0024542761966586113
1280.0,0.00016581398085691035
1408.0,0.002218622248619795
1536.0,0.0024159864988178015
1664.0,-0.0021025051828473806
1792.0,-0.004791306331753731
1920.0,-0.0030741915106773376
2048.0,0.00024285285326186568
2304.0,0.0006014666287228465
2560.0,0.0007919890922494233
2816.0,-0.0012534807901829481
3072.0,-0.0012954163830727339
3328.0,-0.0015178920002654195
3584.0,0.0031702974811196327
3840.0,0.002184829441830516
4096.0,-0.0014600399881601334
4608.0,-2.126481558661908e-05
5120.0,0.0004114618059247732
5632.0,0.0012149623362347484
6144.0,-0.0022556385956704617
6656.0,-0.00039296771865338087
7168.0,0.001282628276385367
7680.0,-0.003010045038536191
8192.0,0.0010009132092818618
end
