version,3.0
numOfCh,1
type,point
parent_name,c1204_0dot6-1dot0
ch_type,1_1
kcount,1
numberNandB,1
brightnessNandB,1
carpet pos,0
pc,0
Time (ms),CH1 Auto-Correlation
1.0,0.04185236245393753
2.0,0.0396084189414978
3.0,0.03754318505525589
4.0,0.03573817387223244
5.0,0.03403337672352791
6.0,0.032437462359666824
7.0,0.0309616606682539
8.0,0.029598429799079895
9.0,0.028284195810556412
10.0,0.0270963404327631
11.0,0.026012225076556206
12.0,0.024928539991378784
13.0,0.023940913379192352
14.0,0.02303524687886238
15.0,0.02218523994088173
16.0,0.02137218602001667
18.0,0.019645942375063896
20.0,0.018202798441052437
22.0,0.016866251826286316
24.0,0.015663020312786102
26.0,0.014688093215227127
28.0,0.013910838402807713
30.0,0.013268829323351383
32.0,0.012676354497671127
36.0,0.011410050094127655
40.0,0.010495007038116455
44.0,0.009934415109455585
48.0,0.009420329704880714
52.0,0.00896091852337122
56.0,0.00883582141250372
60.0,0.008569013327360153
64.0,0.008108413778245449
72.0,0.007444836664944887
80.0,0.007026367355138063
88.0,0.00687245512381196
96.0,0.005908743012696505
104.0,0.004537603352218866
112.0,0.0031387978233397007
120.0,0.0021191167179495096
128.0,0.0019928934052586555
144.0,0.002762953983619809
160.0,0.0025386607740074396
176.0,0.001556520233862102
192.0,0.0004324766923673451
208.0,0.0010263122385367751
224.0,0.0015648666303604841
240.0,0.003049897262826562
256.0,0.0023815003223717213
288.0,0.0011521602282300591
320.0,0.0018437487306073308
352.0,0.00021080618898849934
384.0,0.0007741229492239654
416.0,0.0007364042103290558
448.0,0.001145692658610642
480.0,0.000545441871508956
512.0,-0.00039403518894687295
576.0,-0.0006848242483101785
640.0,-0.0005892512272112072
704.0,0.00045072409557178617
768.0,-0.0010475789895281196
832.0,-0.0010625033173710108
896.0,-0.001690441626124084
960.0,-0.003279653610661626
1024.0,-0.0023505075369030237
1152.0,-0.0006592760910280049
1280.0,-0.0014279301976785064
1408.0,0.002348928013816476
1536.0,0.0025016909930855036
1664.0,-0.0017109065083786845
1792.0,0.0015199783956632018
1920.0,0.0006945602945052087
2048.0,-0.001054764143191278
2304.0,-0.002087767468765378
2560.0,0.0002438921364955604
2816.0,-0.0008548603509552777
3072.0,-0.001965438947081566
3328.0,-0.0004294646787457168
3584.0,-0.0006407124456018209
3840.0,0.0021069671493023634
4096.0,0.0010060649365186691
4608.0,-0.0012895443942397833
5120.0,4.5511733333114535e-06
5632.0,-0.0010964287212118506
6144.0,-0.001976249273866415
6656.0,0.0008570424979552627
7168.0,0.0011648685904219747
7680.0,-0.0007541843224316835
8192.0,0.0002887760638259351
end
