version,3.0
numOfCh,1
type,point
parent_name,c1204_0dot6-1dot0
ch_type,1_1
kcount,1
numberNandB,1
brightnessNandB,1
carpet pos,0
pc,0
Time (ms),CH1 Auto-Correlation
1.0,0.04374975711107254
2.0,0.04141420125961304
3.0,0.03936653956770897
4.0,0.037477776408195496
5.0,0.03577061742544174
6.0,0.03420262783765793
7.0,0.0327356792986393
8.0,0.03144843876361847
9.0,0.030284354463219643
10.0,0.029230326414108276
11.0,0.028254281729459763
12.0,0.02733485773205757
13.0,0.026537301018834114
14.0,0.02571205422282219
15.0,0.02496637962758541
16.0,0.024256516247987747
18.0,0.0229660477489233
20.0,0.02182489074766636
22.0,0.020952139049768448
24.0,0.020114008337259293
26.0,0.01931115612387657
28.0,0.01858246885240078
30.0,0.017808757722377777
32.0,0.016941508278250694
36.0,0.01579672284424305
40.0,0.015128225088119507
44.0,0.014404329471290112
48.0,0.01367908250540495
52.0,0.013097270391881466
56.0,0.012598145753145218
60.0,0.012140109203755856
64.0,0.01176964957267046
72.0,0.011138630099594593
80.0,0.010304530151188374
88.0,0.009974345564842224
96.0,0.009822272695600986
104.0,0.009085810743272305
112.0,0.008218085393309593
120.0,0.00761924684047699
128.0,0.006945973727852106
144.0,0.005651906598359346
160.0,0.004526530392467976
176.0,0.0048635597340762615
192.0,0.00395286874845624
208.0,0.0019249201286584139
224.0,0.0014912851620465517
240.0,0.0012525140773504972
256.0,0.0004604955611284822
288.0,0.0006210216088220477
320.0,0.0008007485885173082
352.0,0.0006831210339441895
384.0,0.0005687144584953785
416.0,-0.0006860121502541006
448.0,-0.0018581536132842302
480.0,-0.0010119170183315873
512.0,-0.0005648669903166592
576.0,-0.002208088990300894
640.0,-0.001793766743503511
704.0,0.0007341736927628517
768.0,0.0007611848413944244
832.0,0.0012393201468512416
896.0,0.0014082260895520449
960.0,0.0012772444169968367
1024.0,0.0016122687375172973
1152.0,-0.0014497291995212436
1280.0,-0.0014861187664791942
1408.0,-0.0007236989331431687
1536.0,-0.0012108130613341928
1664.0,8.497610542690381e-05
1792.0,0.001052418490871787
1920.0,-8.026420982787386e-05
2048.0,-3.6025463487021625e-05
2304.0,-0.0027724632527679205
2560.0,-0.0009589014807716012
2816.0,0.002447773003950715
3072.0,0.0008194942492991686
3328.0,-0.0010076521430164576
3584.0,0.0013713596854358912
3840.0,0.006449181120842695
4096.0,0.00044941817759536207
4608.0,-0.0007163968402892351
5120.0,0.0012321965768933296
5632.0,0.0012924211332574487
6144.0,-0.0034913080744445324
6656.0,-0.000391477340599522
7168.0,0.0014327161479741335
7680.0,0.0003558328317012638
8192.0,-0.004437839146703482
end
