version,3.0
numOfCh,1
type,point
parent_name,c1204_0dot6-1dot0
ch_type,1_1
kcount,1
numberNandB,1
brightnessNandB,1
carpet pos,0
pc,0
Time (ms),CH1 Auto-Correlation
1.0,0.04253305122256279
2.0,0.040154218673706055
3.0,0.03802710771560669
4.0,0.03611062839627266
5.0,0.03438214957714081
6.0,0.03279803320765495
7.0,0.03138447925448418
8.0,0.030041348189115524
9.0,0.028841471299529076
10.0,0.027694063261151314
11.0,0.026673316955566406
12.0,0.02579447627067566
13.0,0.02495044283568859
14.0,0.02413504756987095
15.0,0.023365329951047897
16.0,0.02262229099869728
18.0,0.021442539989948273
20.0,0.020357217639684677
22.0,0.019372420385479927
24.0,0.018322251737117767
26.0,0.01738038659095764
28.0,0.016572436317801476
30.0,0.015805935487151146
32.0,0.015111902728676796
36.0,0.01400985661894083
40.0,0.01279816497117281
44.0,0.011724983341991901
48.0,0.011033523827791214
52.0,0.010398056358098984
56.0,0.010118760168552399
60.0,0.010169025510549545
64.0,0.009962313808500767
72.0,0.009159708395600319
80.0,0.008095284923911095
88.0,0.007082251366227865
96.0,0.00624803826212883
104.0,0.0056664003059268
112.0,0.0052514527924358845
120.0,0.005170786287635565
128.0,0.005140807945281267
144.0,0.003915286622941494
160.0,0.003506254870444536
176.0,0.0034152925945818424
192.0,0.003541289595887065
208.0,0.0022759982384741306
224.0,0.001115254475735128
240.0,0.0015657834010198712
256.0,0.0018317971844226122
288.0,0.0021414647344499826
320.0,0.0011454365449026227
352.0,0.0011919147800654173
384.0,0.0004353373951744288
416.0,0.0006079399609006941
448.0,0.00037832887028343976
480.0,-0.0010028554825112224
512.0,-0.001380267203785479
576.0,-0.0011431145248934627
640.0,-0.0008049350581131876
704.0,8.335093298228458e-05
768.0,0.0002888420131057501
832.0,0.000771223334595561
896.0,0.0012516591232270002
960.0,0.0030296549666672945
1024.0,0.003387714736163616
1152.0,0.0006831903592683375
1280.0,-0.0014034423511475325
1408.0,-0.0009856135584414005
1536.0,-0.0009709149599075317
1664.0,0.0007393762934952974
1792.0,5.640185918309726e-05
1920.0,-0.001726586022414267
2048.0,-0.0012422469444572926
2304.0,-0.0019916819874197245
2560.0,0.0006254976033233106
2816.0,0.001205391832627356
3072.0,0.0020378585904836655
3328.0,0.0015049073845148087
3584.0,0.0007338190916925669
3840.0,0.0005329817067831755
4096.0,0.0024179944302886724
4608.0,-0.00027075159596279263
5120.0,-0.0011382962111383677
5632.0,-0.0013986330013722181
6144.0,-0.002738599432632327
6656.0,-0.003270095447078347
7168.0,0.000727755599655211
7680.0,0.002368293469771743
8192.0,-0.0009713745093904436
end
