version,3.0
numOfCh,1
type,point
parent_name,c1204_0dot6-1dot0
ch_type,1_1
kcount,1
numberNandB,1
brightnessNandB,1
carpet pos,0
pc,0
Time (ms),CH1 Auto-Correlation
1.0,0.04658794030547142
2.0,0.044145870953798294
3.0,0.042019106447696686
4.0,0.04006713628768921
5.0,0.03836459293961525
6.0,0.036752164363861084
7.0,0.03524010628461838
8.0,0.03380259498953819
9.0,0.03247060626745224
10.0,0.03127308189868927
11.0,0.03014538250863552
12.0,0.029108809307217598
13.0,0.028120549395680428
14.0,0.027180351316928864
15.0,0.026281997561454773
16.0,0.025398777797818184
18.0,0.023786980658769608
20.0,0.022346826270222664
22.0,0.02113478258252144
24.0,0.019986240193247795
26.0,0.018798639997839928
28.0,0.01762467995285988
30.0,0.016582537442445755
32.0,0.01566690392792225
36.0,0.014042960479855537
40.0,0.01289726234972477
44.0,0.011851133778691292
48.0,0.01066549587994814
52.0,0.009597412310540676
56.0,0.00874203909188509
60.0,0.008634093217551708
64.0,0.008806602098047733
72.0,0.007786374073475599
80.0,0.0055923075415194035
88.0,0.004173665307462215
96.0,0.0032520401291549206
104.0,0.0032413655426353216
112.0,0.0035356772132217884
120.0,0.003079604357481003
128.0,0.0027067733462899923
144.0,0.003162757959216833
160.0,0.004677881486713886
176.0,0.005497160833328962
192.0,0.0044963909313082695
208.0,0.004270634148269892
224.0,0.0038383877836167812
240.0,0.0038258512504398823
256.0,0.0042077903635799885
288.0,0.004470451734960079
320.0,0.0030089032370597124
352.0,0.0034067705273628235
384.0,0.0025876981671899557
416.0,0.0021266904659569263
448.0,0.0014714553253725171
480.0,0.001757707679644227
512.0,0.0013753727544099092
576.0,0.0005067117745056748
640.0,0.003013070672750473
704.0,0.0007668760954402387
768.0,0.0007174101192504168
832.0,-0.0014988613547757268
896.0,0.0030992450192570686
960.0,0.001762370695360005
1024.0,0.0021723576355725527
1152.0,0.0026409048587083817
1280.0,0.0014432803727686405
1408.0,0.00024893300724215806
1536.0,0.000672896218020469
1664.0,0.0017418587813153863
1792.0,-7.488323171855882e-05
1920.0,0.0007966263219714165
2048.0,0.0004387850349303335
2304.0,-0.0002680626348592341
2560.0,-0.0008640672895126045
2816.0,-5.7964087318396196e-05
3072.0,0.0017002483364194632
3328.0,-0.00023629917996004224
3584.0,-0.0021987638901919127
3840.0,-0.003650275059044361
4096.0,-0.0016849630046635866
4608.0,-0.0009924245532602072
5120.0,-0.0018659625202417374
5632.0,-0.0013982312520965934
6144.0,0.000247135350946337
6656.0,-0.0031375582329928875
7168.0,-0.00249093072488904
7680.0,-0.0017703184857964516
8192.0,-0.0017348281107842922
end
