version,3.0
numOfCh,1
type,point
parent_name,c1204_0dot6-1dot0
ch_type,1_1
kcount,1
numberNandB,1
brightnessNandB,1
carpet pos,0
pc,0
Time (ms),CH1 Auto-Correlation
1.0,0.044206053018569946
2.0,0.04186777397990227
3.0,0.03980159014463425
4.0,0.03790862858295441
5.0,0.03624306246638298
6.0,0.03477386012673378
7.0,0.033351581543684006
8.0,0.0320592038333416
9.0,0.030917096883058548
10.0,0.02987128496170044
11.0,0.028807079419493675
12.0,0.027868304401636124
13.0,0.02708245813846588
14.0,0.026293020695447922
15.0,0.02557186968624592
16.0,0.024880746379494667
18.0,0.023546287789940834
20.0,0.022356227040290833
22.0,0.02134290710091591
24.0,0.020287590101361275
26.0,0.019224144518375397
28.0,0.018249599263072014
30.0,0.01732023060321808
32.0,0.016472112387418747
36.0,0.015067413449287415
40.0,0.013882271014153957
44.0,0.012900060974061489
48.0,0.012157616205513477
52.0,0.011325951665639877
56.0,0.010497931391000748
60.0,0.009786845184862614
64.0,0.009222466498613358
72.0,0.008651655167341232
80.0,0.008087646216154099
88.0,0.007257023360580206
96.0,0.006682181730866432
104.0,0.006431384943425655
112.0,0.006254630163311958
120.0,0.005986760836094618
128.0,0.005547014530748129
144.0,0.004837749060243368
160.0,0.004664185922592878
176.0,0.004577333573251963
192.0,0.00433189794421196
208.0,0.005185252986848354
224.0,0.0057406360283494
240.0,0.006112509407103062
256.0,0.006401830352842808
288.0,0.004527755081653595
320.0,0.004858983680605888
352.0,0.004806202836334705
384.0,0.0035355982836335897
416.0,0.002650649519637227
448.0,0.0024173944257199764
480.0,0.002481212606653571
512.0,0.003494677133858204
576.0,0.003920393064618111
640.0,0.004440692253410816
704.0,0.004216178320348263
768.0,0.0033302458468824625
832.0,0.0033756722696125507
896.0,0.0026187757030129433
960.0,0.0010238263057544827
1024.0,4.624115172191523e-05
1152.0,0.0013875702861696482
1280.0,0.0025260737165808678
1408.0,0.0023407461121678352
1536.0,0.0002114933740813285
1664.0,-0.001119593740440905
1792.0,0.0007489958661608398
1920.0,0.00037656858330592513
2048.0,0.002166288672015071
2304.0,0.00021037895930930972
2560.0,-0.0019460843177512288
2816.0,-0.0025847163051366806
3072.0,-0.0039217835292220116
3328.0,-0.003671664744615555
3584.0,-0.002400764962658286
3840.0,-0.00043129752157256007
4096.0,-0.0006105861393734813
4608.0,0.0014480571262538433
5120.0,0.0013238826068118215
5632.0,0.00029645583708770573
6144.0,0.001925579272210598
6656.0,0.00037389405770227313
7168.0,-0.0025368446949869394
7680.0,-0.0038500523660331964
8192.0,-0.003580520860850811
end
