version,3.0
numOfCh,1
type,point
parent_name,c1204_0dot6-1dot0
ch_type,1_1
kcount,1
numberNandB,1
brightnessNandB,1
carpet pos,0
pc,0
Time (ms),CH1 Auto-Correlation
1.0,0.04652512073516846
2.0,0.04410324618220329
3.0,0.041938841342926025
4.0,0.039958350360393524
5.0,0.03820798546075821
6.0,0.0366070419549942
7.0,0.03509768471121788
8.0,0.03370125964283943
9.0,0.03246231749653816
10.0,0.031290315091609955
11.0,0.030240019783377647
12.0,0.029243232682347298
13.0,0.028290489688515663
14.0,0.027469832450151443
15.0,0.026631774380803108
16.0,0.02587956190109253
18.0,0.024508533999323845
20.0,0.02327718585729599
22.0,0.02217397466301918
24.0,0.02112778276205063
26.0,0.020172692835330963
28.0,0.01930939219892025
30.0,0.018511978909373283
32.0,0.017813056707382202
36.0,0.016670476645231247
40.0,0.015678858384490013
44.0,0.014776699244976044
48.0,0.013876063749194145
52.0,0.012776738964021206
56.0,0.011927179992198944
60.0,0.011437851935625076
64.0,0.01108158752322197
72.0,0.010511289350688457
80.0,0.00992505718022585
88.0,0.009244958870112896
96.0,0.008659185841679573
104.0,0.007746260613203049
112.0,0.006413138937205076
120.0,0.005550958216190338
128.0,0.00526519725099206
144.0,0.005621453747153282
160.0,0.006115194875746965
176.0,0.00586833618581295
192.0,0.005348295904695988
208.0,0.003946333657950163
224.0,0.0027967137284576893
240.0,0.002893888857215643
256.0,0.0030423759017139673
288.0,0.003239918267354369
320.0,0.0019691046327352524
352.0,0.0025419360026717186
384.0,0.002213704399764538
416.0,0.0016466820379719138
448.0,9.508191578788683e-05
480.0,0.0007508021662943065
512.0,0.0018257960909977555
576.0,-0.001081833615899086
640.0,0.0002494816144462675
704.0,-0.00040175445610657334
768.0,0.0018311662133783102
832.0,0.0010896429885178804
896.0,0.001297083217650652
960.0,0.0005727444076910615
1024.0,0.0021842496935278177
1152.0,-0.00032274448312819004
1280.0,0.00021031669166404754
1408.0,0.0005543357692658901
1536.0,-0.0009001929429359734
1664.0,-0.0015406172024086118
1792.0,-0.0022633280605077744
1920.0,-0.0032949838787317276
2048.0,-0.0017090447945520282
2304.0,-0.0030367521103471518
2560.0,-0.002720541087910533
2816.0,0.00021401171397883445
3072.0,-8.687825902597979e-05
3328.0,-0.0013568967115134
3584.0,0.0025271601043641567
3840.0,-0.00042467325692996383
4096.0,0.0009385501616634429
4608.0,0.00028624763945117593
5120.0,0.00014484878920484334
5632.0,-0.0007243785657919943
6144.0,-0.0020073093473911285
6656.0,-0.0006767790182493627
7168.0,0.0004966974956914783
7680.0,-0.0005558802513405681
8192.0,-0.0035549632739275694
end
