version,3.0
numOfCh,1
type,point
parent_name,c1204_0dot6-1dot0
ch_type,1_1
kcount,1
numberNandB,1
brightnessNandB,1
carpet pos,0
pc,0
Time (ms),CH1 Auto-Correlation
1.0,0.041116323322057724
2.0,0.038816504180431366
3.0,0.036718375980854034
4.0,0.03487369790673256
5.0,0.03321903944015503
6.0,0.0316939502954483
7.0,0.030222317203879356
8.0,0.028868108987808228
9.0,0.02764808014035225
10.0,0.026557594537734985
11.0,0.025546664372086525
12.0,0.02461671270430088
13.0,0.023783160373568535
14.0,0.02294890023767948
15.0,0.022107193246483803
16.0,0.02136123739182949
18.0,0.020108891651034355
20.0,0.019023628905415535
22.0,0.01810423657298088
24.0,0.01732824556529522
26.0,0.016529174521565437
28.0,0.015717683359980583
30.0,0.015043132938444614
32.0,0.014361963607370853
36.0,0.013286108151078224
40.0,0.012740224599838257
44.0,0.012313496321439743
48.0,0.01169539988040924
52.0,0.011059507727622986
56.0,0.010379903949797153
60.0,0.009897391311824322
64.0,0.009373629465699196
72.0,0.008581293746829033
80.0,0.00788028258830309
88.0,0.007340056821703911
96.0,0.006798665039241314
104.0,0.006157247815281153
112.0,0.00569780683144927
120.0,0.005563873797655106
128.0,0.0057558827102184296
144.0,0.004925987683236599
160.0,0.0032936118077486753
176.0,0.002236809814348817
192.0,0.0010770185617730021
208.0,0.00027539097936823964
224.0,0.00016865762881934643
240.0,0.0006619398482143879
256.0,-0.000122670506243594
288.0,-0.0021138794254511595
320.0,-0.0018244150560349226
352.0,-0.002377864671871066
384.0,-0.0012950953096151352
416.0,-0.0017952711787074804
448.0,-0.0013983305543661118
480.0,-0.0009429659694433212
512.0,-0.0001988313888432458
576.0,-0.0015111833345144987
640.0,-0.00037278447416611016
704.0,-0.0010345600312575698
768.0,-0.0001670163474045694
832.0,0.0003259561490267515
896.0,0.0016407836228609085
960.0,0.0018414983060210943
1024.0,0.0015638775657862425
1152.0,0.0015169387916103005
1280.0,0.0015933439135551453
1408.0,0.0015162910567596555
1536.0,-0.0014935277868062258
1664.0,-0.002704380080103874
1792.0,-0.003299230942502618
1920.0,-0.0034384774044156075
2048.0,-0.0012881087604910135
2304.0,4.6496894356096163e-05
2560.0,-0.002082139253616333
2816.0,0.0007128800498321652
3072.0,-0.00013021058111917228
3328.0,-0.0013128465507179499
3584.0,-0.0005540431011468172
3840.0,0.0017073445487767458
4096.0,0.002086226362735033
4608.0,-0.0010699662379920483
5120.0,0.001578088733367622
5632.0,-0.0002412525936961174
6144.0,-0.0008152657537721097
6656.0,0.0012295445194467902
7168.0,-0.0021451048087328672
7680.0,0.0011342914076521993
8192.0,-0.0004568840377032757
end
