version,3.0
numOfCh,1
type,point
parent_name,c1204_0dot6-1dot0
ch_type,1_1
kcount,1
numberNandB,1
brightnessNandB,1
carpet pos,0
pc,0
Time (ms),CH1 Auto-Correlation
1.0,0.04196567460894585
2.0,0.03962446376681328
3.0,0.03755711019039154
4.0,0.035619623959064484
5.0,0.033876847475767136
6.0,0.03228990361094475
7.0,0.030919410288333893
8.0,0.02963877283036709
9.0,0.0284610316157341
10.0,0.02734481170773506
11.0,0.026348821818828583
12.0,0.025460993871092796
13.0,0.02463194727897644
14.0,0.02389690838754177
15.0,0.023141318932175636
16.0,0.022529534995555878
18.0,0.021388862282037735
20.0,0.020441235974431038
22.0,0.01960325427353382
24.0,0.018804101273417473
26.0,0.01808016374707222
28.0,0.017406674101948738
30.0,0.01670728251338005
32.0,0.015836574137210846
36.0,0.014065343886613846
40.0,0.012639299966394901
44.0,0.01127046812325716
48.0,0.010114401578903198
52.0,0.009086358360946178
56.0,0.008426562882959843
60.0,0.0077559612691402435
64.0,0.006805581506341696
72.0,0.005751412361860275
80.0,0.004720366559922695
88.0,0.004163636825978756
96.0,0.003733204212039709
104.0,0.003911406733095646
112.0,0.0048222350887954235
120.0,0.00482166325673461
128.0,0.004648453090339899
144.0,0.004821565467864275
160.0,0.005499690771102905
176.0,0.0059254406951367855
192.0,0.004961361177265644
208.0,0.004062820225954056
224.0,0.0020902787800878286
240.0,0.0001544087426736951
256.0,-2.6855703254113905e-05
288.0,0.0006581001216545701
320.0,0.0011827057460322976
352.0,0.0007144684786908329
384.0,0.0003440338477957994
416.0,0.00012748119479510933
448.0,0.0021388940513134003
480.0,0.003626820631325245
512.0,0.0025495749432593584
576.0,0.0017928245943039656
640.0,0.00044651576899923384
704.0,-0.0007836742443032563
768.0,-0.0002459458482917398
832.0,-0.001595612964592874
896.0,-0.0030299408826977015
960.0,-0.0025130524300038815
1024.0,-0.0038456099573522806
1152.0,-0.002797465305775404
1280.0,-0.0026503517292439938
1408.0,-0.002107406035065651
1536.0,-0.0011513420613482594
1664.0,-0.0019020142499357462
1792.0,-0.0025577074848115444
1920.0,-0.00014446963905356824
2048.0,0.0011434474727138877
2304.0,0.000417467177612707
2560.0,0.0015924560138955712
2816.0,0.00030469734338112175
3072.0,0.0007873617578297853
3328.0,-0.0017000107327476144
3584.0,0.0015147217782214284
3840.0,0.0005942675052210689
4096.0,0.00020450948795769364
4608.0,-0.001217108452692628
5120.0,-0.003293177578598261
5632.0,-0.0007053589797578752
6144.0,0.0029160911217331886
6656.0,0.0012984671629965305
7168.0,-0.000771709659602493
7680.0,-0.0024098886642605066
8192.0,-0.00023705347848590463
end
