version,3.0
numOfCh,1
type,point
parent_name,c1204_0dot6-1dot0
ch_type,1_1
kcount,1
numberNandB,1
brightnessNandB,1
carpet pos,0
pc,0
Time (ms),CH1 Auto-Correlation
1.0,0.04700901359319687
2.0,0.0444437637925148
3.0,0.042166244238615036
4.0,0.04016964137554169
5.0,0.03835155814886093
6.0,0.03666514530777931
7.0,0.03516467288136482
8.0,0.03389889374375343
9.0,0.03266467899084091
10.0,0.031489063054323196
11.0,0.030356183648109436
12.0,0.029277650639414787
13.0,0.028244031593203545
14.0,0.02730378694832325
15.0,0.026369597762823105
16.0,0.02547808550298214
18.0,0.023823672905564308
20.0,0.022283757105469704
22.0,0.020850686356425285
24.0,0.019549772143363953
26.0,0.018464142456650734
28.0,0.01734660007059574
30.0,0.016278263181447983
32.0,0.015232873149216175
36.0,0.013191384263336658
40.0,0.01139775849878788
44.0,0.009628746658563614
48.0,0.008214231580495834
52.0,0.007105387281626463
56.0,0.00602351687848568
60.0,0.00536148389801383
64.0,0.004872400779277086
72.0,0.003634902648627758
80.0,0.002901185769587755
88.0,0.002343882108107209
96.0,0.0013315636897459626
104.0,0.0006965177017264068
112.0,0.0006206061807461083
120.0,0.0008210220257751644
128.0,0.0010062569053843617
144.0,0.0014006549026817083
160.0,0.002036250429227948
176.0,0.002580710221081972
192.0,0.0021975457202643156
208.0,0.0018755990313366055
224.0,0.0007235400262288749
240.0,0.0004373779520392418
256.0,0.0004420539771672338
288.0,-7.282850856427103e-05
320.0,0.000808480370324105
352.0,0.001968808937817812
384.0,0.001589898718520999
416.0,-0.00015321641694754362
448.0,-0.0003233487077523023
480.0,0.0008481707773171365
512.0,0.0013311542570590973
576.0,1.1059978533012327e-05
640.0,0.0015406322199851274
704.0,0.0031595544423907995
768.0,0.002348267938941717
832.0,0.0008473174530081451
896.0,0.00032391503918915987
960.0,0.0013744828756898642
1024.0,0.0005652291583828628
1152.0,0.00048478468670509756
1280.0,0.00012829744082409889
1408.0,-0.0010722653241828084
1536.0,-0.00045293671428225935
1664.0,0.0007167688454501331
1792.0,-0.0006244253017939627
1920.0,0.0012887365883216262
2048.0,-0.0008420493104495108
2304.0,-0.0021325445268303156
2560.0,-0.0016245354199782014
2816.0,-0.0009076931164599955
3072.0,-0.003373290179297328
3328.0,-0.002786830300465226
3584.0,-0.002346264896914363
3840.0,-0.0001582578697707504
4096.0,-0.0016399641754105687
4608.0,-0.0021192317362874746
5120.0,-0.0012578273890540004
5632.0,0.0007078102207742631
6144.0,0.0025636660866439342
6656.0,0.0010734072420746088
7168.0,0.0022635539062321186
7680.0,0.0018072498496621847
8192.0,0.0014818434137851
end
