version,3.0
numOfCh,1
type,point
parent_name,c1204_0dot6-1dot0
ch_type,1_1
kcount,1
numberNandB,1
brightnessNandB,1
carpet pos,0
pc,0
Time (ms),CH1 Auto-Correlation
1.0,0.04771573469042778
2.0,0.045423079282045364
3.0,0.04327100142836571
4.0,0.04128457233309746
5.0,0.039460714906454086
6.0,0.03776061534881592
7.0,0.03622228279709816
8.0,0.034827474504709244
9.0,0.03353255242109299
10.0,0.03229436278343201
11.0,0.031103473156690598
12.0,0.029916007071733475
13.0,0.02878044918179512
14.0,0.027753079310059547
15.0,0.026748809963464737
16.0,0.025787513703107834
18.0,0.024060649797320366
20.0,0.022750724107027054
22.0,0.021575694903731346
24.0,0.02055404894053936
26.0,0.019681379199028015
28.0,0.01895671896636486
30.0,0.01831964962184429
32.0,0.01765802502632141
36.0,0.016737373545765877
40.0,0.016061648726463318
44.0,0.015246685594320297
48.0,0.014518938027322292
52.0,0.013951530680060387
56.0,0.013420581817626953
60.0,0.012839916162192822
64.0,0.012123978696763515
72.0,0.010789100080728531
80.0,0.009960422292351723
88.0,0.009329787455499172
96.0,0.008287624455988407
104.0,0.0071756416000425816
112.0,0.006239661015570164
120.0,0.004976789467036724
128.0,0.004378327168524265
144.0,0.00501018762588501
160.0,0.005345441401004791
176.0,0.004261945839971304
192.0,0.002965443069115281
208.0,0.00277583091519773
224.0,0.0029965874273329973
240.0,0.001797241740860045
256.0,0.0015382367419078946
288.0,0.0006439010030589998
320.0,0.0002706494997255504
352.0,-0.0004592646728269756
384.0,-0.00040518888272345066
416.0,-0.00038292197859846056
448.0,-0.001104030990973115
480.0,0.0004898505285382271
512.0,0.001492631621658802
576.0,0.0017663839971646667
640.0,0.0016278584953397512
704.0,0.002103334991261363
768.0,0.0009078275179490447
832.0,-2.5281880880356766e-05
896.0,0.0002796592889353633
960.0,0.00033066270407289267
1024.0,0.0020089889876544476
1152.0,0.0017260407330468297
1280.0,-0.0008413901086896658
1408.0,-8.702473132871091e-05
1536.0,-0.0005463354173116386
1664.0,6.889060750836506e-05
1792.0,0.0010857990710064769
1920.0,0.0003642957890406251
2048.0,0.003308533225208521
2304.0,-0.00027315461193211377
2560.0,-0.0017384123057126999
2816.0,-0.0005859049269929528
3072.0,0.00024128082441166043
3328.0,0.0020429249852895737
3584.0,0.00019465619698166847
3840.0,-0.001041856943629682
4096.0,0.0016424917848780751
4608.0,-0.004389464855194092
5120.0,-0.0008916589431464672
5632.0,-0.0015928394859656692
6144.0,0.0008744277874939144
6656.0,-0.0028713387437164783
7168.0,-0.0010738435667008162
7680.0,-0.0032219623681157827
8192.0,-0.002806902164593339
end
