version,3.0
numOfCh,1
type,point
parent_name,c1204_0dot6-1dot0
ch_type,1_1
kcount,1
numberNandB,1
brightnessNandB,1
carpet pos,0
pc,0
Time (ms),CH1 Auto-Correlation
1.0,0.04225727170705795
2.0,0.039862386882305145
3.0,0.03779277577996254
4.0,0.03597090393304825
5.0,0.03424559161067009
6.0,0.03267446532845497
7.0,0.03132842108607292
8.0,0.03001532331109047
9.0,0.02877327799797058
10.0,0.02769705280661583
11.0,0.026752857491374016
12.0,0.025751354172825813
13.0,0.024834878742694855
14.0,0.02397625893354416
15.0,0.02323690988123417
16.0,0.022591054439544678
18.0,0.021245457231998444
20.0,0.019963005557656288
22.0,0.01883285865187645
24.0,0.01771150343120098
26.0,0.016713762655854225
28.0,0.015756595879793167
30.0,0.01490678172558546
32.0,0.01412843819707632
36.0,0.01301113422960043
40.0,0.012126637622714043
44.0,0.011194293387234211
48.0,0.010174271650612354
52.0,0.009251251816749573
56.0,0.00822849478572607
60.0,0.0075349160470068455
64.0,0.006826594937592745
72.0,0.005383742041885853
80.0,0.004515634384006262
88.0,0.0037221759557724
96.0,0.0031911979895085096
104.0,0.002709306078031659
112.0,0.002259664237499237
120.0,0.0020831257570534945
128.0,0.0019413457484915853
144.0,0.0025469569955021143
160.0,0.0026436818297952414
176.0,0.0016055712476372719
192.0,0.0014547918690368533
208.0,0.001951674115844071
224.0,0.002328514587134123
240.0,0.0019674489740282297
256.0,0.0027054832316935062
288.0,0.0022322970908135176
320.0,0.0019560763612389565
352.0,0.0018132079858332872
384.0,0.0004329364455770701
416.0,-0.0012723269173875451
448.0,-0.0020987559109926224
480.0,-0.0027309975121170282
512.0,-0.0016013107961043715
576.0,-0.0028535639867186546
640.0,-0.0029932078905403614
704.0,-0.0009140733163803816
768.0,-0.0013331006048247218
832.0,-0.0022704016882926226
896.0,-0.003093395382165909
960.0,-0.002408939180895686
1024.0,-0.0008349111303687096
1152.0,-0.0014978124527260661
1280.0,-0.00046048813965171576
1408.0,-0.00041806415538303554
1536.0,0.0011189018841832876
1664.0,0.0018408847972750664
1792.0,0.0015106492210179567
1920.0,-0.0008850513841025531
2048.0,-0.0009616040042601526
2304.0,0.0004478806513361633
2560.0,-0.0004192825290374458
2816.0,-0.001161133055575192
3072.0,-0.00038589100586250424
3328.0,0.002129491651430726
3584.0,0.0011603430612012744
3840.0,-0.0015689954161643982
4096.0,-0.001674004946835339
4608.0,-0.001973268110305071
5120.0,0.002561911242082715
5632.0,0.0010456593008711934
6144.0,-0.0019875529687851667
6656.0,-0.001567303785122931
7168.0,-0.0005543433944694698
7680.0,0.0024872194044291973
8192.0,-0.001998595194891095
end
