version,3.0
numOfCh,1
type,point
parent_name,c1204_0dot6-1dot0
ch_type,1_1
kcount,1
numberNandB,1
brightnessNandB,1
carpet pos,0
pc,0
Time (ms),CH1 Auto-Correlation
1.0,0.04190563037991524
2.0,0.039524585008621216
3.0,0.03736093267798424
4.0,0.03546382486820221
5.0,0.03363651782274246
6.0,0.03199942409992218
7.0,0.03055371530354023
8.0,0.02922629751265049
9.0,0.028008032590150833
10.0,0.026830395683646202
11.0,0.025807106867432594
12.0,0.024845054373145103
13.0,0.02402704395353794
14.0,0.023269083350896835
15.0,0.022480027750134468
16.0,0.021838117390871048
18.0,0.020517969503998756
20.0,0.019225483760237694
22.0,0.018146133050322533
24.0,0.01707567647099495
26.0,0.016119686886668205
28.0,0.015287967398762703
30.0,0.01459538098424673
32.0,0.014016312547028065
36.0,0.012925125658512115
40.0,0.011777184903621674
44.0,0.010602404363453388
48.0,0.00956807378679514
52.0,0.009073449298739433
56.0,0.00892472080886364
60.0,0.00849800556898117
64.0,0.008067581802606583
72.0,0.007108940277248621
80.0,0.005608968436717987
88.0,0.004902382846921682
96.0,0.004278732463717461
104.0,0.003898613154888153
112.0,0.0037531473208218813
120.0,0.0031740176491439342
128.0,0.002068159868940711
144.0,0.002014368772506714
160.0,0.002826401498168707
176.0,0.0031508482061326504
192.0,0.004090582951903343
208.0,0.004372107330709696
224.0,0.0036950227804481983
240.0,0.0018277943599969149
256.0,0.0012650835560634732
288.0,0.00034040643367916346
320.0,-0.0005851565510965884
352.0,-0.00023150950437411666
384.0,0.00027576214051805437
416.0,-0.0011235171696171165
448.0,-0.0021288366988301277
480.0,-0.0008510252228006721
512.0,0.00026058038929477334
576.0,0.0006182888173498213
640.0,0.0018398866523057222
704.0,0.0008992627263069153
768.0,0.000635238946415484
832.0,-2.8347576517262496e-05
896.0,-0.0007623668061569333
960.0,0.0001342764007858932
1024.0,-0.00229382561519742
1152.0,-0.0019856011494994164
1280.0,-0.0011858452344313264
1408.0,8.647607319289818e-05
1536.0,-0.0004942509694956243
1664.0,-0.003379447152838111
1792.0,-0.0020389400888234377
1920.0,-0.004806689918041229
2048.0,-0.003359762253239751
2304.0,-0.0016394676640629768
2560.0,0.0005048790480941534
2816.0,0.0011906137224286795
3072.0,-0.000460283161373809
3328.0,4.777732101501897e-05
3584.0,0.0023258375003933907
3840.0,0.00048572380910627544
4096.0,-4.24886129621882e-05
4608.0,0.0003002026933245361
5120.0,8.587623597122729e-05
5632.0,0.0009895730763673782
6144.0,0.0003771719348151237
6656.0,0.0005306965322233737
7168.0,-0.0008586713229306042
7680.0,-0.0019457144662737846
8192.0,0.0011546683963388205
end
