version,3.0
numOfCh,1
type,point
parent_name,c1204_0dot6-1dot0
ch_type,1_1
kcount,1
numberNandB,1
brightnessNandB,1
carpet pos,0
pc,0
Time (ms),CH1 Auto-Correlation
1.0,0.04443759843707085
2.0,0.04213283956050873
3.0,0.040008578449487686
4.0,0.03809807449579239
5.0,0.036411676555871964
6.0,0.034863054752349854
7.0,0.033349569886922836
8.0,0.031939905136823654
9.0,0.030656961724162102
10.0,0.02942262589931488
11.0,0.02827705256640911
12.0,0.02724512852728367
13.0,0.026270892471075058
14.0,0.02533055655658245
15.0,0.024444300681352615
16.0,0.023540250957012177
18.0,0.021885983645915985
20.0,0.020522255450487137
22.0,0.01936122216284275
24.0,0.018311388790607452
26.0,0.01729942485690117
28.0,0.016337158158421516
30.0,0.015478943474590778
32.0,0.01468342263251543
36.0,0.013343661092221737
40.0,0.011989300139248371
44.0,0.011075656861066818
48.0,0.010302751325070858
52.0,0.009723009541630745
56.0,0.009430949576199055
60.0,0.00928565114736557
64.0,0.00930660031735897
72.0,0.009072947315871716
80.0,0.008508515544235706
88.0,0.007916074246168137
96.0,0.007795186713337898
104.0,0.007558837532997131
112.0,0.00741956103593111
120.0,0.007218386046588421
128.0,0.00647075055167079
144.0,0.005426833406090736
160.0,0.004133411217480898
176.0,0.0027972348034381866
192.0,0.0035005530808120966
208.0,0.003458794904872775
224.0,0.0024293558672070503
240.0,0.0020320690236985683
256.0,0.0019433903507888317
288.0,0.0017526642186567187
320.0,-0.00013617122021969408
352.0,-0.001413371879607439
384.0,-0.002145815407857299
416.0,-0.0020535667426884174
448.0,-0.0018484874162822962
480.0,-0.0005429935990832746
512.0,-2.128902451659087e-05
576.0,-0.0009273858740925789
640.0,0.00021923650638200343
704.0,-0.0003451598167885095
768.0,-0.0020381605718284845
832.0,-0.0016111948061734438
896.0,-0.001759544014930725
960.0,0.00036853906931355596
1024.0,-0.0004918834893032908
1152.0,0.00017196484259329736
1280.0,-0.0014958310639485717
1408.0,0.0009211883298121393
1536.0,0.0006407988257706165
1664.0,0.001460157218389213
1792.0,0.0006553467246703804
1920.0,0.0014810155844315886
2048.0,0.004212778992950916
2304.0,0.0023664559703320265
2560.0,-0.00030572546529583633
2816.0,0.0019515190506353974
3072.0,-0.001541307894513011
3328.0,-0.0021224075462669134
3584.0,0.003805931191891432
3840.0,0.0015850714407861233
4096.0,0.0017333882860839367
4608.0,-0.0012838857946917415
5120.0,-0.003271255176514387
5632.0,0.0035635163076221943
6144.0,-0.0019539028871804476
6656.0,-0.0005366497789509594
7168.0,-0.003244637278839946
7680.0,0.0007325829355977476
8192.0,-0.0007611698238179088
end
