version,3.0
numOfCh,1
type,point
parent_name,714af_10dot0-0dot01
ch_type,1_1
kcount,1
numberNandB,1
brightnessNandB,1
carpet pos,0
pc,0
Time (ms),CH1 Auto-Correlation
1.0,0.05450822412967682
2.0,0.04636172577738762
3.0,0.04098527878522873
4.0,0.03756715729832649
5.0,0.03459659218788147
6.0,0.03290832042694092
7.0,0.030900290235877037
8.0,0.02887912094593048
9.0,0.028141198679804802
10.0,0.026914935559034348
11.0,0.025373896583914757
12.0,0.024010300636291504
13.0,0.022726453840732574
14.0,0.021675955504179
15.0,0.020349595695734024
16.0,0.01908341608941555
18.0,0.016503874212503433
20.0,0.013625117018818855
22.0,0.010156081058084965
24.0,0.009916809387505054
26.0,0.010504401288926601
28.0,0.011286113411188126
30.0,0.011789015494287014
32.0,0.012181365862488747
36.0,0.012755380012094975
40.0,0.011968715116381645
44.0,0.012662793509662151
48.0,0.011850942857563496
52.0,0.012020779773592949
56.0,0.011433597654104233
60.0,0.01163237914443016
64.0,0.01088103000074625
72.0,0.009303540922701359
80.0,0.009603398852050304
88.0,0.010405347682535648
96.0,0.009740537032485008
104.0,0.00891715195029974
112.0,0.007762214634567499
120.0,0.008224241435527802
128.0,0.007782798260450363
144.0,0.00701298238709569
160.0,0.0070924311876297
176.0,0.006471158005297184
192.0,0.005587747786194086
208.0,0.005137728992849588
224.0,0.004044503904879093
240.0,0.0038903644308447838
256.0,0.0037802427541464567
288.0,0.0019480035407468677
320.0,0.0017671219538897276
352.0,0.00254078465513885
384.0,0.002167552011087537
416.0,0.0022194753400981426
448.0,0.0021838857792317867
480.0,0.0015156699810177088
512.0,0.00234629912301898
576.0,0.003434068989008665
640.0,0.0036574096884578466
704.0,0.0025711259804666042
768.0,0.0010145239066332579
832.0,-0.001275321003049612
896.0,-0.0031512004788964987
960.0,-0.005006011109799147
1024.0,-0.004209248349070549
1152.0,-0.0016834612470120192
1280.0,-0.002057094359770417
1408.0,-0.002984125167131424
1536.0,-0.004751694854348898
1664.0,-0.005309372674673796
1792.0,-0.002528485609218478
1920.0,-0.0012652213918045163
2048.0,-0.001671743462793529
2304.0,-0.0014780705096200109
2560.0,-0.0017006814014166594
2816.0,-0.001651301048696041
3072.0,-0.0015638465993106365
3328.0,-0.0020476751960814
3584.0,0.0018717304337769747
3840.0,0.004778077360242605
4096.0,0.009335318580269814
end
