version,3.0
numOfCh,1
type,point
parent_name,714af_10dot0-0dot01
ch_type,1_1
kcount,1
numberNandB,1
brightnessNandB,1
carpet pos,0
pc,0
Time (ms),CH1 Auto-Correlation
1.0,0.02283420041203499
2.0,0.01535102166235447
3.0,0.01165195181965828
4.0,0.009359392337501049
5.0,0.007751280441880226
6.0,0.006255245767533779
7.0,0.005409210454672575
8.0,0.0046561663039028645
9.0,0.0044268094934523106
10.0,0.00413511274382472
11.0,0.003792027710005641
12.0,0.0031267544254660606
13.0,0.0028228575829416513
14.0,0.0023727458901703358
15.0,0.0019576626364141703
16.0,0.0015331835020333529
18.0,0.0007656643865630031
20.0,0.0005753790028393269
22.0,0.0006225298275239766
24.0,0.0005901943659409881
26.0,0.0009227024856954813
28.0,0.0008837069035507739
30.0,0.0006073652184568346
32.0,0.0002265061339130625
36.0,0.00021978377480991185
40.0,-0.00018740702944342047
44.0,-0.0003872700035572052
48.0,-0.0005121519789099693
52.0,-0.0004282932495698333
56.0,-0.00020609649072866887
60.0,7.054053276078776e-05
64.0,0.0002052921336144209
72.0,-0.00012552220141515136
80.0,-0.0002448017767164856
88.0,8.566920587327331e-05
96.0,-0.0006388287874870002
104.0,-0.0003462322929408401
112.0,0.00031089960248209536
120.0,0.00042202527401968837
128.0,0.0003714567283168435
144.0,0.0004394681891426444
160.0,0.00022092359722591937
176.0,-0.00015760844689793885
192.0,-0.0003929448430426419
208.0,-5.020359458285384e-05
224.0,-0.0008383978274650872
240.0,-0.00048082275316119194
256.0,-9.10684684640728e-05
288.0,9.741021494846791e-05
320.0,-0.00025721517158672214
352.0,0.00034103693906217813
384.0,-0.0002910854236688465
416.0,0.0003342443669680506
448.0,0.00014658905274700373
480.0,0.00027862307615578175
512.0,8.04516821517609e-05
576.0,-0.0001526690903119743
640.0,-1.0332531019230373e-05
704.0,0.00017849418509285897
768.0,-6.666964327450842e-05
832.0,0.00037890684325248003
896.0,9.41896578297019e-05
960.0,0.00010923157242359594
1024.0,-0.0002354555472265929
1152.0,-0.00012469875218812376
1280.0,-0.0003436879487708211
1408.0,-0.00033110377262346447
1536.0,1.7686628780211322e-05
1664.0,0.00011358447227394208
1792.0,-1.3798119653074536e-05
1920.0,-0.00028882233891636133
2048.0,-0.00020341631898190826
2304.0,0.0002019088715314865
2560.0,-0.00013498675252776593
2816.0,-4.164783968008123e-05
3072.0,0.0001500572543591261
3328.0,-0.00017551699420437217
3584.0,8.635085396235809e-05
3840.0,0.0002311131829628721
4096.0,-9.806192974792793e-05
4608.0,4.265269672032446e-05
5120.0,0.00011238570004934445
5632.0,-0.00021375469805207103
6144.0,-8.519830771547277e-06
6656.0,8.527596946805716e-05
7168.0,-0.00021112486138008535
7680.0,1.282735411223257e-05
8192.0,0.000262957822997123
end
