version,3.0
numOfCh,1
type,point
parent_name,34766_0dot2-0dot01
ch_type,1_1
kcount,1
numberNandB,1
brightnessNandB,1
carpet pos,0
pc,0
Time (ms),CH1 Auto-Correlation
1.0,0.03219360113143921
2.0,0.03160551190376282
3.0,0.03102969191968441
4.0,0.030475089326500893
5.0,0.02994721010327339
6.0,0.029437445104122162
7.0,0.028958337381482124
8.0,0.028481226414442062
9.0,0.028013788163661957
10.0,0.02756548672914505
11.0,0.027145270258188248
12.0,0.02674487978219986
13.0,0.02635308913886547
14.0,0.025990955531597137
15.0,0.025628557428717613
16.0,0.02528219111263752
18.0,0.02462492510676384
20.0,0.023980330675840378
22.0,0.02336110919713974
24.0,0.022749243304133415
26.0,0.02215607650578022
28.0,0.021587375551462173
30.0,0.0210418701171875
32.0,0.020557016134262085
36.0,0.019714850932359695
40.0,0.018984731286764145
44.0,0.018264496698975563
48.0,0.017525430768728256
52.0,0.01678614690899849
56.0,0.01610577665269375
60.0,0.015530369244515896
64.0,0.015022634528577328
72.0,0.014074711129069328
80.0,0.01297756191343069
88.0,0.011828480288386345
96.0,0.011010561138391495
104.0,0.010417131707072258
112.0,0.009891292080283165
120.0,0.0093975979834795
128.0,0.008904503658413887
144.0,0.007799095474183559
160.0,0.006677845027297735
176.0,0.00535483006387949
192.0,0.004097371827811003
208.0,0.0036528008058667183
224.0,0.0035751371178776026
240.0,0.003329649567604065
256.0,0.0028258308302611113
288.0,0.0015692461747676134
320.0,0.0016148799331858754
352.0,0.0018305282574146986
384.0,0.0013109269784763455
416.0,0.0012651989236474037
448.0,0.0008134499075822532
480.0,0.00011820674990303814
512.0,-0.0005444309208542109
576.0,0.00035167866735719144
640.0,0.001853792928159237
704.0,0.0003269450389780104
768.0,-0.0015169151592999697
832.0,-0.0016002787742763758
896.0,-0.0021473467350006104
960.0,-0.001980951288715005
1024.0,-0.0024168347008526325
1152.0,-0.001556710572913289
1280.0,-0.0013745786854997277
1408.0,-0.0009615056915208697
1536.0,-5.490136391017586e-05
1664.0,0.0013934227172285318
1792.0,0.00126938265748322
1920.0,2.2195938072400168e-05
2048.0,-0.0015408541075885296
2304.0,0.0017486002761870623
2560.0,0.0009278415236622095
2816.0,-0.0033827212173491716
3072.0,-0.003936198074370623
3328.0,-0.003255493938922882
3584.0,-0.0030216400045901537
3840.0,-0.0007794126868247986
4096.0,-0.00015924448962323368
4608.0,0.0009208545670844615
5120.0,0.002189573599025607
5632.0,-0.001057243556715548
6144.0,0.0021581887267529964
6656.0,0.0012686122208833694
7168.0,-0.0008536734967492521
7680.0,0.0010308087803423405
8192.0,-0.004489487037062645
end
