version,3.0
numOfCh,1
type,point
parent_name,34766_0dot2-0dot01
ch_type,1_1
kcount,1
numberNandB,1
brightnessNandB,1
carpet pos,0
pc,0
Time (ms),CH1 Auto-Correlation
1.0,0.029755644500255585
2.0,0.029193788766860962
3.0,0.028651604428887367
4.0,0.0281339343637228
5.0,0.02763432078063488
6.0,0.027153246104717255
7.0,0.026700662449002266
8.0,0.02627517096698284
9.0,0.025867760181427002
10.0,0.02545906975865364
11.0,0.025058139115571976
12.0,0.02465689368546009
13.0,0.024286119267344475
14.0,0.023929912596940994
15.0,0.02359078824520111
16.0,0.023254815489053726
18.0,0.02265847474336624
20.0,0.02210826426744461
22.0,0.02159835584461689
24.0,0.02110951393842697
26.0,0.02062438614666462
28.0,0.02012174017727375
30.0,0.0196014866232872
32.0,0.01909624971449375
36.0,0.018193155527114868
40.0,0.01745476946234703
44.0,0.016822796314954758
48.0,0.016221188008785248
52.0,0.015674203634262085
56.0,0.015150951221585274
60.0,0.01466344390064478
64.0,0.014223568141460419
72.0,0.013456876389682293
80.0,0.012795262970030308
88.0,0.012215204536914825
96.0,0.01154845766723156
104.0,0.0107691315934062
112.0,0.009921450167894363
120.0,0.009276659227907658
128.0,0.008784841746091843
144.0,0.00801247637718916
160.0,0.007274172734469175
176.0,0.0068512000143527985
192.0,0.006796880625188351
208.0,0.0064047593623399734
224.0,0.005751956719905138
240.0,0.004961775150150061
256.0,0.004353058524429798
288.0,0.004034769255667925
320.0,0.004113176371902227
352.0,0.00449152197688818
384.0,0.004588699899613857
416.0,0.0039002064149826765
448.0,0.0034663586411625147
480.0,0.0038123491685837507
512.0,0.003079782472923398
576.0,0.0026898030191659927
640.0,0.0015586073277518153
704.0,0.0017316683661192656
768.0,0.00222991150803864
832.0,0.0020676159765571356
896.0,0.0009244842221960425
960.0,0.0007615337963216007
1024.0,0.0006479747826233506
1152.0,0.00115828902926296
1280.0,0.0014715372817590833
1408.0,0.002367961686104536
1536.0,0.0011360686039552093
1664.0,0.0008282376220449805
1792.0,-3.822717917500995e-05
1920.0,-0.0016180746024474502
2048.0,-0.002669145353138447
2304.0,-0.0015565570211037993
2560.0,-0.0007063868106342852
2816.0,-0.00048564188182353973
3072.0,-0.0011025801068171859
3328.0,-0.0009554042480885983
3584.0,-0.0007207007147371769
3840.0,-0.0010257781250402331
4096.0,0.0035833814181387424
4608.0,0.0035486819688230753
5120.0,0.0010961996158584952
5632.0,0.004353350959718227
6144.0,-0.001082570175640285
6656.0,-0.0042089782655239105
7168.0,-0.004559440538287163
7680.0,-0.0057132248766720295
8192.0,-0.001055296277627349
end
