version,3.0
numOfCh,1
type,point
parent_name,34766_0dot2-0dot01
ch_type,1_1
kcount,1
numberNandB,1
brightnessNandB,1
carpet pos,0
pc,0
Time (ms),CH1 Auto-Correlation
1.0,0.03676358610391617
2.0,0.036199137568473816
3.0,0.03565746918320656
4.0,0.03512229025363922
5.0,0.03459511697292328
6.0,0.03407701104879379
7.0,0.033575013279914856
8.0,0.03308246284723282
9.0,0.03259190544486046
10.0,0.032105702906847
11.0,0.03163343667984009
12.0,0.031173020601272583
13.0,0.030722184106707573
14.0,0.03027830831706524
15.0,0.02983834780752659
16.0,0.029399747028946877
18.0,0.028581101447343826
20.0,0.027809783816337585
22.0,0.0270838625729084
24.0,0.026382334530353546
26.0,0.02572709694504738
28.0,0.02508258819580078
30.0,0.02444860152900219
32.0,0.02384031005203724
36.0,0.02278193086385727
40.0,0.021848004311323166
44.0,0.0209804680198431
48.0,0.020218463614583015
52.0,0.01961052231490612
56.0,0.01909721828997135
60.0,0.018623514100909233
64.0,0.01827336475253105
72.0,0.017592737451195717
80.0,0.01681218482553959
88.0,0.016160733997821808
96.0,0.015611888840794563
104.0,0.015202312730252743
112.0,0.014871353283524513
120.0,0.014549721032381058
128.0,0.014219330623745918
144.0,0.012979935854673386
160.0,0.012250429019331932
176.0,0.011935063637793064
192.0,0.011703847907483578
208.0,0.010841391049325466
224.0,0.009852319024503231
240.0,0.009068396873772144
256.0,0.008737938478589058
288.0,0.009001286700367928
320.0,0.007392100524157286
352.0,0.006510828156024218
384.0,0.005805543158203363
416.0,0.005486068781465292
448.0,0.0051619792357087135
480.0,0.004083150532096624
512.0,0.0022615890484303236
576.0,-0.0007017572643235326
640.0,-0.002220093971118331
704.0,-0.0025667990557849407
768.0,-0.004961029160767794
832.0,-0.005976854357868433
896.0,-0.0068046292290091515
960.0,-0.004912255331873894
1024.0,-0.005415225867182016
1152.0,-0.0047669908963143826
1280.0,-0.003470921888947487
1408.0,-0.0017840589862316847
1536.0,0.0015434701927006245
1664.0,0.004971308168023825
1792.0,0.005941367242485285
1920.0,0.006639413069933653
2048.0,0.006971757393330336
2304.0,0.010479907505214214
2560.0,0.005418574437499046
2816.0,-0.0015926914056763053
3072.0,-0.008371288888156414
3328.0,-0.005125759169459343
3584.0,-0.0020841851364821196
3840.0,0.002219113055616617
4096.0,0.007362039759755135
4608.0,0.006284354254603386
5120.0,-0.005883317440748215
5632.0,-0.00778343016281724
6144.0,0.00014661149180028588
6656.0,0.003706191899254918
7168.0,-0.005003099329769611
7680.0,-0.009605767205357552
8192.0,-0.002718115458264947
end
