version,3.0
numOfCh,1
type,point
parent_name,34766_0dot2-0dot01
ch_type,1_1
kcount,1
numberNandB,1
brightnessNandB,1
carpet pos,0
pc,0
Time (ms),CH1 Auto-Correlation
1.0,0.047303471714258194
2.0,0.046697042882442474
3.0,0.04611576348543167
4.0,0.04556353762745857
5.0,0.04504052922129631
6.0,0.044517774134874344
7.0,0.044025879353284836
8.0,0.043553516268730164
9.0,0.04307876154780388
10.0,0.04262576997280121
11.0,0.04216998443007469
12.0,0.04171713441610336
13.0,0.04126764088869095
14.0,0.040813323110342026
15.0,0.04038827121257782
16.0,0.03997405990958214
18.0,0.03918209671974182
20.0,0.038404207676649094
22.0,0.03766927495598793
24.0,0.03699292987585068
26.0,0.03636917844414711
28.0,0.035786520689725876
30.0,0.03519632667303085
32.0,0.03463199734687805
36.0,0.03362227603793144
40.0,0.0326579287648201
44.0,0.031749479472637177
48.0,0.030929330736398697
52.0,0.030156075954437256
56.0,0.029471497982740402
60.0,0.028808368369936943
64.0,0.028226325288414955
72.0,0.027195360511541367
80.0,0.026319976896047592
88.0,0.02564472146332264
96.0,0.025100992992520332
104.0,0.02452383190393448
112.0,0.023896219208836555
120.0,0.02328304573893547
128.0,0.022488471120595932
144.0,0.020913470536470413
160.0,0.0195756908506155
176.0,0.018846485763788223
192.0,0.01845274306833744
208.0,0.017980406060814857
224.0,0.017269589006900787
240.0,0.016607286408543587
256.0,0.016009990125894547
288.0,0.014731664210557938
320.0,0.013200034387409687
352.0,0.011029195040464401
384.0,0.009825973771512508
416.0,0.009341918863356113
448.0,0.008710545487701893
480.0,0.007755055092275143
512.0,0.006861940957605839
576.0,0.004842787049710751
640.0,9.784649591892958e-05
704.0,-0.0006598212057724595
768.0,-0.0013908642577007413
832.0,-0.0031531706918030977
896.0,-0.005269675049930811
960.0,-0.00759938545525074
1024.0,-0.009280487895011902
1152.0,-0.010571258142590523
1280.0,-0.012793847359716892
1408.0,-0.010496669448912144
1536.0,-0.010552848689258099
1664.0,-0.012483865022659302
1792.0,-0.013293151743710041
1920.0,-0.009568087756633759
2048.0,-0.004723212216049433
2304.0,0.00527214678004384
2560.0,0.008504059165716171
2816.0,0.007648785598576069
3072.0,0.006269262637943029
3328.0,0.00047347237705253065
3584.0,-0.00357223697938025
3840.0,-0.005593955051153898
4096.0,-0.009107585996389389
4608.0,-0.0041354065760970116
5120.0,0.005890459753572941
5632.0,0.007563169114291668
6144.0,-0.0015127485385164618
6656.0,-0.008396891877055168
7168.0,0.0009181546629406512
7680.0,0.006731509231030941
8192.0,-0.00012225053797010332
end
