version,3.0
numOfCh,1
type,point
parent_name,34766_0dot2-0dot01
ch_type,1_1
kcount,1
numberNandB,1
brightnessNandB,1
carpet pos,0
pc,0
Time (ms),CH1 Auto-Correlation
1.0,0.031747862696647644
2.0,0.031167563050985336
3.0,0.030591754242777824
4.0,0.030048508197069168
5.0,0.029516827315092087
6.0,0.02900858223438263
7.0,0.02851490117609501
8.0,0.02804124727845192
9.0,0.027577627450227737
10.0,0.02712618187069893
11.0,0.026681942865252495
12.0,0.02625143900513649
13.0,0.02583306096494198
14.0,0.025436796247959137
15.0,0.02505428157746792
16.0,0.02467474527657032
18.0,0.023967649787664413
20.0,0.02332299016416073
22.0,0.022726045921444893
24.0,0.022142568603157997
26.0,0.02156747505068779
28.0,0.02102109231054783
30.0,0.02047112211585045
32.0,0.019914476200938225
36.0,0.018861228600144386
40.0,0.017837341874837875
44.0,0.016833432018756866
48.0,0.015895675867795944
52.0,0.015100833028554916
56.0,0.014453694224357605
60.0,0.013843466527760029
64.0,0.013278983533382416
72.0,0.012142571620643139
80.0,0.011092517524957657
88.0,0.01005697064101696
96.0,0.009017879143357277
104.0,0.008107221685349941
112.0,0.007201570551842451
120.0,0.006172896828502417
128.0,0.005079521331936121
144.0,0.0031509106047451496
160.0,0.0018654834711924195
176.0,0.0004041396314278245
192.0,-0.0004912047879770398
208.0,-0.0009413226507604122
224.0,-0.0008048122399486601
240.0,-0.0004948725691065192
256.0,-0.0005255297874100506
288.0,-0.0010151356691494584
320.0,-0.0004251369973644614
352.0,0.00010550343722570688
384.0,0.0007697113323956728
416.0,0.001220855861902237
448.0,0.001515969866886735
480.0,0.0023128697648644447
512.0,0.003432647092267871
576.0,0.003038749098777771
640.0,0.002972864080220461
704.0,0.0020302722696214914
768.0,-0.000538020336534828
832.0,-0.0016580884112045169
896.0,-0.0016783602768555284
960.0,-0.0004224229196552187
1024.0,-0.00034051190596073866
1152.0,0.0007205652073025703
1280.0,0.0009557072771713138
1408.0,0.0024761557579040527
1536.0,0.00042693744762800634
1664.0,-0.0014537068782374263
1792.0,-0.00047305645421147346
1920.0,0.00010647704766597599
2048.0,-0.002321641193702817
2304.0,-0.0029802564531564713
2560.0,-0.0019206915749236941
2816.0,-0.003181521547958255
3072.0,0.0005617861170321703
3328.0,-0.0010123266838490963
3584.0,-0.0009676213376224041
3840.0,-0.0012583083007484674
4096.0,-0.003106737043708563
4608.0,-0.002640661085024476
5120.0,-0.00013627659063786268
5632.0,-0.0015775671927258372
6144.0,-0.0006479099974967539
6656.0,0.002326482906937599
7168.0,0.002583111869171262
7680.0,0.0023899164516478777
8192.0,0.0015809001633897424
end
