version,3.0
numOfCh,1
type,point
parent_name,34766_0dot2-0dot01
ch_type,1_1
kcount,1
numberNandB,1
brightnessNandB,1
carpet pos,0
pc,0
Time (ms),CH1 Auto-Correlation
1.0,0.045156512409448624
2.0,0.044501811265945435
3.0,0.04384227469563484
4.0,0.04319142922759056
5.0,0.04256105050444603
6.0,0.04193246364593506
7.0,0.041334982961416245
8.0,0.040755391120910645
9.0,0.040192294865846634
10.0,0.03964898735284805
11.0,0.039149172604084015
12.0,0.03866622596979141
13.0,0.0382239930331707
14.0,0.037815120071172714
15.0,0.03742088004946709
16.0,0.03706938028335571
18.0,0.03634645417332649
20.0,0.03564964607357979
22.0,0.03497523069381714
24.0,0.034363724291324615
26.0,0.033785466104745865
28.0,0.03322437033057213
30.0,0.032663509249687195
32.0,0.03211810439825058
36.0,0.031078213825821877
40.0,0.030101384967565536
44.0,0.029284387826919556
48.0,0.028600169345736504
52.0,0.02798752672970295
56.0,0.027312785387039185
60.0,0.02666640281677246
64.0,0.02598523534834385
72.0,0.02449859492480755
80.0,0.02354058250784874
88.0,0.022759297862648964
96.0,0.022116491571068764
104.0,0.021299129351973534
112.0,0.020634304732084274
120.0,0.01998569257557392
128.0,0.019208993762731552
144.0,0.01805068366229534
160.0,0.017301013693213463
176.0,0.017202576622366905
192.0,0.01800898090004921
208.0,0.018249202519655228
224.0,0.0183394867926836
240.0,0.01907947286963463
256.0,0.018541056662797928
288.0,0.015874600037932396
320.0,0.013602946884930134
352.0,0.012064333073794842
384.0,0.011961090378463268
416.0,0.012494176626205444
448.0,0.013129228726029396
480.0,0.012520569376647472
512.0,0.011163339950144291
576.0,0.009882592596113682
640.0,0.00895397737622261
704.0,0.007735383231192827
768.0,0.005361848045140505
832.0,0.00445904303342104
896.0,0.0033189256209880114
960.0,0.0033799530938267708
1024.0,0.004911190364509821
1152.0,0.007610775530338287
1280.0,0.006620278116315603
1408.0,0.004668994341045618
1536.0,0.006960154511034489
1664.0,0.00800863467156887
1792.0,0.010387802496552467
1920.0,0.009989134967327118
2048.0,0.008046498522162437
2304.0,0.010345951654016972
2560.0,0.007709451951086521
2816.0,0.0018954664701595902
3072.0,-0.0034797443076968193
3328.0,-0.00412423862144351
3584.0,-0.005880542099475861
3840.0,-0.006448427680879831
4096.0,-0.005460082087665796
4608.0,-0.006769947707653046
5120.0,-0.015179450623691082
5632.0,-0.026654334738850594
6144.0,-0.014012292958796024
6656.0,-0.0180136077105999
7168.0,-0.02473505586385727
7680.0,-0.02695831097662449
8192.0,-0.03706584870815277
end
