version,3.0
numOfCh,1
type,point
parent_name,34766_0dot2-0dot01
ch_type,1_1
kcount,1
numberNandB,1
brightnessNandB,1
carpet pos,0
pc,0
Time (ms),CH1 Auto-Correlation
1.0,0.08909507095813751
2.0,0.08772698789834976
3.0,0.08638829737901688
4.0,0.08507794886827469
5.0,0.08384838700294495
6.0,0.08257615566253662
7.0,0.08135253190994263
8.0,0.080136239528656
9.0,0.0789739340543747
10.0,0.07794549316167831
11.0,0.07690245658159256
12.0,0.07583601027727127
13.0,0.07476437836885452
14.0,0.07361847907304764
15.0,0.07249129563570023
16.0,0.07122837007045746
18.0,0.06783387809991837
20.0,0.06541507691144943
22.0,0.06283175200223923
24.0,0.06024003028869629
26.0,0.05770830437541008
28.0,0.05513772740960121
30.0,0.052552323788404465
32.0,0.05016428977251053
36.0,0.04565954953432083
40.0,0.04183846712112427
44.0,0.03834666311740875
48.0,0.034554459154605865
52.0,0.03147536888718605
56.0,0.03079540841281414
60.0,0.030204514041543007
64.0,0.029521962627768517
72.0,0.027661157771945
80.0,0.0264118742197752
88.0,0.025326328352093697
96.0,0.02447526343166828
104.0,0.024122025817632675
112.0,0.024107130244374275
120.0,0.024584107100963593
128.0,0.024682236835360527
144.0,0.022995727136731148
160.0,0.022783150896430016
176.0,0.02303917706012726
192.0,0.022965677082538605
208.0,0.02176174335181713
224.0,0.020123112946748734
240.0,0.01808725856244564
256.0,0.016267582774162292
288.0,0.014367226511240005
320.0,0.012504211626946926
352.0,0.009816335514187813
384.0,0.010181120596826077
416.0,0.009160686284303665
448.0,0.00522195640951395
480.0,0.0015830663032829762
512.0,-0.00010900916822720319
576.0,0.0008508321479894221
640.0,-0.0029653534293174744
704.0,-0.0007311978843063116
768.0,-0.0007564587867818773
832.0,-0.000663838058244437
896.0,-0.000950357411056757
960.0,0.0007348288781940937
1024.0,6.129799294285476e-05
1152.0,0.002191603183746338
1280.0,0.0021066502667963505
1408.0,0.00011860305676236749
1536.0,-0.002601413754746318
1664.0,-0.0026471547316759825
1792.0,-0.0008747862302698195
1920.0,0.0017748939571902156
2048.0,0.003218152793124318
2304.0,0.003953211009502411
2560.0,0.00030401363619603217
2816.0,-0.001282587880268693
3072.0,-0.0002968583139590919
3328.0,0.0005099157569929957
3584.0,-0.004896931815892458
3840.0,-0.006524400785565376
4096.0,-0.005761362612247467
4608.0,-0.004163595847785473
5120.0,-0.006570763420313597
5632.0,-0.0001224873267346993
6144.0,-0.0015949751250445843
6656.0,0.00041199999395757914
7168.0,0.0016083488008007407
7680.0,0.0007082518422976136
8192.0,0.003178603481501341
end
