version,3.0
numOfCh,1
type,point
parent_name,34766_0dot2-0dot01
ch_type,1_1
kcount,1
numberNandB,1
brightnessNandB,1
carpet pos,0
pc,0
Time (ms),CH1 Auto-Correlation
1.0,0.03654136881232262
2.0,0.0359463170170784
3.0,0.03536498546600342
4.0,0.03480403870344162
5.0,0.03426564112305641
6.0,0.03373342007398605
7.0,0.03322552517056465
8.0,0.03273355960845947
9.0,0.032254379242658615
10.0,0.03179299831390381
11.0,0.03133152797818184
12.0,0.030896350741386414
13.0,0.030459962785243988
14.0,0.030033670365810394
15.0,0.029617035761475563
16.0,0.029194839298725128
18.0,0.02839912474155426
20.0,0.027625935152173042
22.0,0.026870030909776688
24.0,0.02614116668701172
26.0,0.025446848943829536
28.0,0.0248120054602623
30.0,0.024215200915932655
32.0,0.023651139810681343
36.0,0.022638164460659027
40.0,0.021694118157029152
44.0,0.020753953605890274
48.0,0.01995539478957653
52.0,0.019230810925364494
56.0,0.018615469336509705
60.0,0.01804644986987114
64.0,0.01755424216389656
72.0,0.016418462619185448
80.0,0.015195736661553383
88.0,0.013925553299486637
96.0,0.01274259015917778
104.0,0.01166984997689724
112.0,0.010825267992913723
120.0,0.010291507467627525
128.0,0.010043748654425144
144.0,0.009392782114446163
160.0,0.008411153219640255
176.0,0.007974794134497643
192.0,0.008023924194276333
208.0,0.008480280637741089
224.0,0.008718489669263363
240.0,0.00863787904381752
256.0,0.008579638786613941
288.0,0.007280281279236078
320.0,0.0055830348283052444
352.0,0.004020266700536013
384.0,0.0036403133999556303
416.0,0.0025115138851106167
448.0,0.0016084713861346245
480.0,-6.836986722191796e-05
512.0,-0.0008577230619266629
576.0,-0.003377520712092519
640.0,-0.003403155133128166
704.0,-0.0029055618215352297
768.0,-0.0035354101564735174
832.0,-0.003465560730546713
896.0,-0.0043773348443210125
960.0,-0.003134828293696046
1024.0,-0.0019199899397790432
1152.0,-0.0022998505737632513
1280.0,-0.0013192568439990282
1408.0,-0.0006391173810698092
1536.0,-0.0013311002403497696
1664.0,-0.0014647158095613122
1792.0,0.000544779235497117
1920.0,0.0033852835185825825
2048.0,-0.00039439782267436385
2304.0,0.002949449000880122
2560.0,0.0019618922378867865
2816.0,-0.00022571852605324239
3072.0,-9.623719233786687e-05
3328.0,0.00434065843001008
3584.0,0.003683576127514243
3840.0,-0.0018768408335745335
4096.0,-0.006800379604101181
4608.0,0.001392207108438015
5120.0,-0.0020877867937088013
5632.0,0.00010246642341371626
6144.0,-0.0006306422874331474
6656.0,0.000320745661156252
7168.0,-0.004197895061224699
7680.0,-0.015139664523303509
8192.0,0.004405630752444267
end
