version,3.0
numOfCh,1
type,point
parent_name,34766_0dot2-0dot01
ch_type,1_1
kcount,1
numberNandB,1
brightnessNandB,1
carpet pos,0
pc,0
Time (ms),CH1 Auto-Correlation
1.0,0.030112912878394127
2.0,0.029547041282057762
3.0,0.029018184170126915
4.0,0.028496719896793365
5.0,0.027996879070997238
6.0,0.02750982902944088
7.0,0.02703789435327053
8.0,0.026604846119880676
9.0,0.026170974597334862
10.0,0.02572760544717312
11.0,0.025290735065937042
12.0,0.024861447513103485
13.0,0.024440132081508636
14.0,0.024021882563829422
15.0,0.023614149540662766
16.0,0.023217741400003433
18.0,0.02247448079288006
20.0,0.021770045161247253
22.0,0.021099649369716644
24.0,0.02043294347822666
26.0,0.01980380341410637
28.0,0.019202999770641327
30.0,0.018655063584446907
32.0,0.01815161481499672
36.0,0.01727421022951603
40.0,0.01652986742556095
44.0,0.01585599035024643
48.0,0.015168420039117336
52.0,0.014566597528755665
56.0,0.014077248051762581
60.0,0.013580657541751862
64.0,0.01307887677103281
72.0,0.011891602538526058
80.0,0.010992771945893764
88.0,0.010323169641196728
96.0,0.009850583039224148
104.0,0.009445170871913433
112.0,0.008828412741422653
120.0,0.008207826875150204
128.0,0.0076471068896353245
144.0,0.006325224880129099
160.0,0.0049063824117183685
176.0,0.004105990286916494
192.0,0.003566108178347349
208.0,0.003227940294891596
224.0,0.0030365707352757454
240.0,0.003024744102731347
256.0,0.0026378673501312733
288.0,0.0026523268315941095
320.0,0.0034550060518085957
352.0,0.00438715610653162
384.0,0.0037110920529812574
416.0,0.0032079617958515882
448.0,0.0028074411675333977
480.0,0.0029145560692995787
512.0,0.0027742492966353893
576.0,0.002143309684470296
640.0,0.001248963293619454
704.0,-0.0013596826465800405
768.0,-0.0021509933285415173
832.0,-0.0021699576172977686
896.0,-0.002084775362163782
960.0,-0.0008910211035981774
1024.0,3.592677239794284e-05
1152.0,0.00020525394938886166
1280.0,0.0023491233587265015
1408.0,0.004296175669878721
1536.0,0.003199585946276784
1664.0,0.00217882776632905
1792.0,0.003056685905903578
1920.0,0.002688790438696742
2048.0,0.000846981187351048
2304.0,-0.00033673166763037443
2560.0,0.00045365147525444627
2816.0,-0.000487823854200542
3072.0,0.0002853806072380394
3328.0,0.0003880922740790993
3584.0,0.0017860056832432747
3840.0,-5.110283018439077e-05
4096.0,-0.0003841172147076577
4608.0,-0.00017773239233065397
5120.0,-0.00020465283887460828
5632.0,-0.0020977186504751444
6144.0,-0.0027581637259572744
6656.0,-0.0022611948661506176
7168.0,-0.0038110839668661356
7680.0,-0.005460965912789106
8192.0,-0.0029604495503008366
end
