version,3.0
numOfCh,1
type,point
parent_name,34766_0dot2-0dot01
ch_type,1_1
kcount,1
numberNandB,1
brightnessNandB,1
carpet pos,0
pc,0
Time (ms),CH1 Auto-Correlation
1.0,0.037130504846572876
2.0,0.036614879965782166
3.0,0.03611817955970764
4.0,0.035635847598314285
5.0,0.035181883722543716
6.0,0.03474130854010582
7.0,0.03430122882127762
8.0,0.033859994262456894
9.0,0.033425964415073395
10.0,0.03299817815423012
11.0,0.032596178352832794
12.0,0.03221028298139572
13.0,0.0318230502307415
14.0,0.03144644573330879
15.0,0.031100178137421608
16.0,0.030769703909754753
18.0,0.030147869139909744
20.0,0.029542315751314163
22.0,0.02895931340754032
24.0,0.028420178219676018
26.0,0.027944793924689293
28.0,0.027479764074087143
30.0,0.02702360413968563
32.0,0.026563409715890884
36.0,0.025692947208881378
40.0,0.024913610890507698
44.0,0.024288559332489967
48.0,0.023754149675369263
52.0,0.023332806304097176
56.0,0.022927049547433853
60.0,0.022555124014616013
64.0,0.022179538384079933
72.0,0.021441038697957993
80.0,0.020827187225222588
88.0,0.02011725679039955
96.0,0.019263971596956253
104.0,0.018346235156059265
112.0,0.01748543232679367
120.0,0.016734560951590538
128.0,0.016056999564170837
144.0,0.01469074934720993
160.0,0.013907654210925102
176.0,0.01287870667874813
192.0,0.012094230391085148
208.0,0.011528925970196724
224.0,0.011293056420981884
240.0,0.011350370943546295
256.0,0.011281144805252552
288.0,0.01182642299681902
320.0,0.01111913938075304
352.0,0.010675939731299877
384.0,0.01060719508677721
416.0,0.009232663549482822
448.0,0.00774687435477972
480.0,0.006755550857633352
512.0,0.006627566181123257
576.0,0.006143661681562662
640.0,0.004743640776723623
704.0,0.002832456724718213
768.0,0.0021943140309304
832.0,0.0029996701050549746
896.0,0.004028580151498318
960.0,0.004079044796526432
1024.0,0.0028463907074183226
1152.0,0.00149621965829283
1280.0,0.003333721309900284
1408.0,0.00410884153097868
1536.0,0.0009179094922728837
1664.0,-0.0024773546028882265
1792.0,-0.005871597211807966
1920.0,-0.008732673712074757
2048.0,-0.006726456806063652
2304.0,-0.006418149918317795
2560.0,-0.006462376099079847
2816.0,-0.005015666596591473
3072.0,-0.003847230924293399
3328.0,-0.0025105001404881477
3584.0,0.0010512392036616802
3840.0,0.0037459786981344223
4096.0,0.0005580855067819357
4608.0,0.0017091187182813883
5120.0,0.0026621138677001
5632.0,0.0012320942478254437
6144.0,-0.00024714026949368417
6656.0,-0.006465597543865442
7168.0,-0.0012089741649106145
7680.0,-0.0026648533530533314
8192.0,-0.0039260596968233585
end
