version,3.0
numOfCh,1
type,point
parent_name,34766_0dot2-0dot01
ch_type,1_1
kcount,1
numberNandB,1
brightnessNandB,1
carpet pos,0
pc,0
Time (ms),CH1 Auto-Correlation
1.0,0.03089182823896408
2.0,0.030315596610307693
3.0,0.029776189476251602
4.0,0.029239889234304428
5.0,0.028721211478114128
6.0,0.028246749192476273
7.0,0.027795109897851944
8.0,0.0273504126816988
9.0,0.02693122997879982
10.0,0.026532040908932686
11.0,0.026153219863772392
12.0,0.025776205584406853
13.0,0.025414040312170982
14.0,0.02507057413458824
15.0,0.024729430675506592
16.0,0.024400418624281883
18.0,0.023765143007040024
20.0,0.02320523001253605
22.0,0.022702857851982117
24.0,0.022223174571990967
26.0,0.02174709364771843
28.0,0.021287042647600174
30.0,0.020822737365961075
32.0,0.02034924179315567
36.0,0.01946822740137577
40.0,0.018716759979724884
44.0,0.018063165247440338
48.0,0.01756606623530388
52.0,0.017111318185925484
56.0,0.016742225736379623
60.0,0.016335858032107353
64.0,0.01585271768271923
72.0,0.01506071723997593
80.0,0.01448228769004345
88.0,0.013815773651003838
96.0,0.012836347334086895
104.0,0.01193995587527752
112.0,0.01131280418485403
120.0,0.01087082177400589
128.0,0.010448799468576908
144.0,0.010047626681625843
160.0,0.00975237786769867
176.0,0.009430388920009136
192.0,0.008807819336652756
208.0,0.00808675680309534
224.0,0.007720873691141605
240.0,0.0076711541041731834
256.0,0.00763002410531044
288.0,0.0076801953837275505
320.0,0.007395598571747541
352.0,0.0064390902407467365
384.0,0.00626171613112092
416.0,0.007071990519762039
448.0,0.00756712956354022
480.0,0.007108111400157213
512.0,0.007090587168931961
576.0,0.006206843536347151
640.0,0.003671000711619854
704.0,0.0022935536690056324
768.0,0.002521857852116227
832.0,0.002921557053923607
896.0,0.0025201730895787477
960.0,0.0019045529188588262
1024.0,0.0021058798301965
1152.0,0.0011260739993304014
1280.0,-0.0022625112906098366
1408.0,-0.00015918328426778316
1536.0,0.0017440863884985447
1664.0,-0.0009028279455378652
1792.0,-0.0022586709819734097
1920.0,-0.0008957607205957174
2048.0,0.0007119521615095437
2304.0,0.00039107559132389724
2560.0,0.0017664176411926746
2816.0,-0.0008685924694873393
3072.0,8.036976214498281e-05
3328.0,-0.0010490983258932829
3584.0,0.0013039115583524108
3840.0,0.0006777556263841689
4096.0,0.00038904431858099997
4608.0,-0.00035633103107102215
5120.0,-0.0033113923855125904
5632.0,-0.005111250095069408
6144.0,-0.005468064919114113
6656.0,-0.006287802942097187
7168.0,-0.003393513383343816
7680.0,-0.0037675851490348577
8192.0,-0.004700015299022198
end
