version,3.0
numOfCh,1
type,point
parent_name,34766_0dot2-0dot01
ch_type,1_1
kcount,1
numberNandB,1
brightnessNandB,1
carpet pos,0
pc,0
Time (ms),CH1 Auto-Correlation
1.0,0.0284512210637331
2.0,0.02790851891040802
3.0,0.027394669130444527
4.0,0.026891328394412994
5.0,0.026422714814543724
6.0,0.025974879041314125
7.0,0.025540407747030258
8.0,0.025118593126535416
9.0,0.024709444493055344
10.0,0.024303020909428596
11.0,0.023909859359264374
12.0,0.023532874882221222
13.0,0.023172050714492798
14.0,0.02282540313899517
15.0,0.022490710020065308
16.0,0.02212979830801487
18.0,0.021428627893328667
20.0,0.0207724180072546
22.0,0.020158927887678146
24.0,0.019610540941357613
26.0,0.01911352574825287
28.0,0.018654782325029373
30.0,0.018192537128925323
32.0,0.01771034486591816
36.0,0.016854237765073776
40.0,0.01606530137360096
44.0,0.015387237071990967
48.0,0.014758230186998844
52.0,0.014110333286225796
56.0,0.013500711880624294
60.0,0.013022924773395061
64.0,0.012645633891224861
72.0,0.01188358198851347
80.0,0.010947934351861477
88.0,0.010077837854623795
96.0,0.009146130643785
104.0,0.008082596585154533
112.0,0.007203930988907814
120.0,0.0065497406758368015
128.0,0.006121990270912647
144.0,0.0055131674744188786
160.0,0.0050839995965361595
176.0,0.0045563350431621075
192.0,0.004163284320384264
208.0,0.004123265855014324
224.0,0.004213464912027121
240.0,0.004132678732275963
256.0,0.004169336054474115
288.0,0.004395811818540096
320.0,0.004362248815596104
352.0,0.004822943359613419
384.0,0.005374547094106674
416.0,0.004752983804792166
448.0,0.004091477487236261
480.0,0.003204427659511566
512.0,0.0029474222101271152
576.0,0.002315912628546357
640.0,0.0016612791223451495
704.0,0.000647052307613194
768.0,-0.0006421143189072609
832.0,-0.001644414965994656
896.0,-0.0010696270037442446
960.0,-0.0010082739172503352
1024.0,-0.0019156128400936723
1152.0,-0.002493327483534813
1280.0,-0.0021221600472927094
1408.0,-0.004917764104902744
1536.0,-0.004790201783180237
1664.0,-0.00519415782764554
1792.0,-0.0037061129696667194
1920.0,4.86912795167882e-05
2048.0,-0.003228483023121953
2304.0,-0.0028525511734187603
2560.0,-0.002347246278077364
2816.0,0.0004930662689730525
3072.0,0.0014302708441391587
3328.0,0.0035598771646618843
3584.0,0.0042928955517709255
3840.0,0.0029540208633989096
4096.0,0.0004982157261110842
4608.0,-7.750445365672931e-05
5120.0,-0.0022698957473039627
5632.0,-0.0015658322954550385
6144.0,-0.0007382251205854118
6656.0,0.001643034047447145
7168.0,0.0029038419015705585
7680.0,0.0024161865003407
8192.0,-0.003019630676135421
end
