version,3.0
numOfCh,1
type,point
parent_name,34766_0dot2-0dot01
ch_type,1_1
kcount,1
numberNandB,1
brightnessNandB,1
carpet pos,0
pc,0
Time (ms),CH1 Auto-Correlation
1.0,0.2539139986038208
2.0,0.2533295750617981
3.0,0.2527484595775604
4.0,0.2521868646144867
5.0,0.2516211271286011
6.0,0.25106537342071533
7.0,0.2504883110523224
8.0,0.24993562698364258
9.0,0.24938975274562836
10.0,0.2488752007484436
11.0,0.24837513267993927
12.0,0.2479034811258316
13.0,0.24746327102184296
14.0,0.24705123901367188
15.0,0.24665620923042297
16.0,0.2462943196296692
18.0,0.24563682079315186
20.0,0.2449900358915329
22.0,0.24436263740062714
24.0,0.24377894401550293
26.0,0.24323059618473053
28.0,0.242684468626976
30.0,0.24211549758911133
32.0,0.24158640205860138
36.0,0.2405051290988922
40.0,0.2395063042640686
44.0,0.2386167347431183
48.0,0.23779375851154327
52.0,0.23699134588241577
56.0,0.23624996840953827
60.0,0.23556861281394958
64.0,0.23488681018352509
72.0,0.23376256227493286
80.0,0.23266521096229553
88.0,0.23145096004009247
96.0,0.23030179738998413
104.0,0.2294340431690216
112.0,0.2284552901983261
120.0,0.22711598873138428
128.0,0.22553151845932007
144.0,0.2227226197719574
160.0,0.21914862096309662
176.0,0.2167934626340866
192.0,0.21425442397594452
208.0,0.21164551377296448
224.0,0.20938187837600708
240.0,0.20781998336315155
256.0,0.20666012167930603
288.0,0.20550578832626343
320.0,0.20441533625125885
352.0,0.2044638842344284
384.0,0.20294547080993652
416.0,0.20094050467014313
448.0,0.19819074869155884
480.0,0.19516852498054504
512.0,0.19073645770549774
576.0,0.17860180139541626
640.0,0.1664990931749344
704.0,0.15447629988193512
768.0,0.14353924989700317
832.0,0.13534244894981384
896.0,0.1255027949810028
960.0,0.11385485529899597
1024.0,0.09800222516059875
1152.0,0.06879588216543198
1280.0,0.0508788637816906
1408.0,0.037968166172504425
1536.0,0.02566445991396904
1664.0,0.014109430834650993
1792.0,0.004705101251602173
1920.0,-0.002206903649494052
2048.0,-0.005588676314800978
2304.0,-0.007757481187582016
2560.0,-0.003355658845975995
2816.0,-0.00795272272080183
3072.0,-0.006527123507112265
3328.0,-0.0105561763048172
3584.0,-0.016722341999411583
3840.0,-0.029848730191588402
4096.0,-0.032976675778627396
4608.0,-0.05211973562836647
5120.0,-0.06521055102348328
5632.0,-0.07269527018070221
6144.0,-0.0886637419462204
6656.0,-0.11601393669843674
7168.0,-0.14512866735458374
7680.0,-0.15326672792434692
8192.0,-0.1477181762456894
end
