version,3.0
numOfCh,1
type,point
parent_name,34766_0dot2-0dot01
ch_type,1_1
kcount,1
numberNandB,1
brightnessNandB,1
carpet pos,0
pc,0
Time (ms),CH1 Auto-Correlation
1.0,0.022984880954027176
2.0,0.0224011167883873
3.0,0.021832387894392014
4.0,0.021265631541609764
5.0,0.02073916606605053
6.0,0.02023140899837017
7.0,0.019752105697989464
8.0,0.019307324662804604
9.0,0.018871400505304337
10.0,0.018453259021043777
11.0,0.01802775263786316
12.0,0.017622020095586777
13.0,0.017202429473400116
14.0,0.016793226823210716
15.0,0.016385091468691826
16.0,0.01595991849899292
18.0,0.015165237709879875
20.0,0.014443531632423401
22.0,0.013783099129796028
24.0,0.013159053400158882
26.0,0.012525947764515877
28.0,0.011963395401835442
30.0,0.011430312879383564
32.0,0.010864905081689358
36.0,0.009697996079921722
40.0,0.008619437925517559
44.0,0.0077562760561704636
48.0,0.007077157497406006
52.0,0.006507717072963715
56.0,0.006010530982166529
60.0,0.0054968660697340965
64.0,0.005064948927611113
72.0,0.00444368552416563
80.0,0.003978082910180092
88.0,0.003375533502548933
96.0,0.0027638832107186317
104.0,0.0023390939459204674
112.0,0.002124031074345112
120.0,0.0018575455760583282
128.0,0.0015321776736527681
144.0,0.0012092534452676773
160.0,0.0014629848301410675
176.0,0.0016831562388688326
192.0,0.001681244932115078
208.0,0.0015576414298266172
224.0,0.001705230213701725
240.0,0.0018220377387478948
256.0,0.0020448199938982725
288.0,0.0016683508874848485
320.0,0.0019372996175661683
352.0,0.0016425246139988303
384.0,0.0007573849288746715
416.0,0.0006378074176609516
448.0,0.0007975393091328442
480.0,0.0013117511989548802
512.0,0.0018555144779384136
576.0,-0.0004763862816616893
640.0,-0.0005331482389010489
704.0,-0.0004355527926236391
768.0,0.0011640804586932063
832.0,0.0007343597826547921
896.0,-0.0013116985792294145
960.0,-0.0017482917755842209
1024.0,4.664100197260268e-05
1152.0,0.0006423558224923909
1280.0,-9.950082312570885e-05
1408.0,0.0007883720099925995
1536.0,0.0005850210436619818
1664.0,0.0005480485269799829
1792.0,0.0002556879189796746
1920.0,0.0007875740411691368
2048.0,1.2054756552970503e-05
2304.0,-0.0008827115525491536
2560.0,-0.0008322480134665966
2816.0,6.446257611969486e-05
3072.0,0.0007133038598112762
3328.0,-0.0003910130471922457
3584.0,-8.253633859567344e-05
3840.0,0.001104032970033586
4096.0,-0.00081168970791623
4608.0,-0.0005919424584135413
5120.0,-0.00014004475087858737
5632.0,0.0007181339315138757
6144.0,-0.000737180351279676
6656.0,0.000728429586160928
7168.0,-0.0009054236579686403
7680.0,0.0016832187538966537
8192.0,-0.0007821632316336036
end
