version,3.0
numOfCh,1
type,point
parent_name,34766_0dot2-0dot01
ch_type,1_1
kcount,1
numberNandB,1
brightnessNandB,1
carpet pos,0
pc,0
Time (ms),CH1 Auto-Correlation
1.0,0.03354695439338684
2.0,0.03295797109603882
3.0,0.032392632216215134
4.0,0.0318225659430027
5.0,0.03127575293183327
6.0,0.03074781969189644
7.0,0.030226819217205048
8.0,0.02972492016851902
9.0,0.029241781681776047
10.0,0.02877342514693737
11.0,0.02832818031311035
12.0,0.027901489287614822
13.0,0.027497446164488792
14.0,0.027105145156383514
15.0,0.026713725179433823
16.0,0.026347605511546135
18.0,0.02563134953379631
20.0,0.02490859292447567
22.0,0.024220703169703484
24.0,0.02353362925350666
26.0,0.022837510332465172
28.0,0.022161347791552544
30.0,0.021516812965273857
32.0,0.02094334177672863
36.0,0.019967542961239815
40.0,0.019039256498217583
44.0,0.018063873052597046
48.0,0.017048640176653862
52.0,0.01615600287914276
56.0,0.01542150042951107
60.0,0.014854035340249538
64.0,0.0143292136490345
72.0,0.013407847844064236
80.0,0.012336389161646366
88.0,0.011215812526643276
96.0,0.010244674049317837
104.0,0.009358223527669907
112.0,0.008534910157322884
120.0,0.007734903134405613
128.0,0.007082836236804724
144.0,0.0061211599968373775
160.0,0.005108803045004606
176.0,0.0040389662608504295
192.0,0.003257260425016284
208.0,0.002579041523858905
224.0,0.0018654287559911609
240.0,0.0014037592336535454
256.0,0.0011165416799485683
288.0,0.0011150860227644444
320.0,0.0009474217076785862
352.0,0.0008905862923711538
384.0,0.0010620037792250514
416.0,0.0007485020905733109
448.0,-0.000697581039275974
480.0,-0.0005311451968736947
512.0,-0.0001333647669525817
576.0,-0.0009172316640615463
640.0,-0.0018797963857650757
704.0,-0.00034228514414280653
768.0,0.003398595144972205
832.0,0.004856400657445192
896.0,0.003186906222254038
960.0,0.0013343228492885828
1024.0,0.002600123407319188
1152.0,0.0014122871216386557
1280.0,-0.00034932640846818686
1408.0,-0.002311450894922018
1536.0,-0.002338065067306161
1664.0,-0.0011116990353912115
1792.0,-0.0017826763214543462
1920.0,-0.001473897136747837
2048.0,-0.002125981729477644
2304.0,-0.0008269663667306304
2560.0,-0.0045805093832314014
2816.0,-0.0023541280534118414
3072.0,-0.002596188336610794
3328.0,-0.0006463960162363946
3584.0,-0.0010762251913547516
3840.0,0.002928938018158078
4096.0,0.0024539828300476074
4608.0,0.0038813543505966663
5120.0,-0.0004697226104326546
5632.0,0.0031340369023382664
6144.0,-0.00408864114433527
6656.0,0.004356733988970518
7168.0,-0.0041009727865457535
7680.0,0.00040994849405251443
8192.0,-0.005702554248273373
end
