version,3.0
numOfCh,1
type,point
parent_name,34766_0dot2-0dot01
ch_type,1_1
kcount,1
numberNandB,1
brightnessNandB,1
carpet pos,0
pc,0
Time (ms),CH1 Auto-Correlation
1.0,0.03429719805717468
2.0,0.033727727830410004
3.0,0.03317536786198616
4.0,0.03264252468943596
5.0,0.032136909663677216
6.0,0.03166146203875542
7.0,0.031188344582915306
8.0,0.030716847628355026
9.0,0.030249781906604767
10.0,0.029799222946166992
11.0,0.029377492144703865
12.0,0.028974002227187157
13.0,0.02856997400522232
14.0,0.02816375531256199
15.0,0.027764221653342247
16.0,0.027399804443120956
18.0,0.02668747492134571
20.0,0.02602148987352848
22.0,0.025410134345293045
24.0,0.024828815832734108
26.0,0.02425190433859825
28.0,0.02371589094400406
30.0,0.023207765072584152
32.0,0.02270336076617241
36.0,0.021792618557810783
40.0,0.020982667803764343
44.0,0.020335713401436806
48.0,0.01989762671291828
52.0,0.0195362139493227
56.0,0.019265342503786087
60.0,0.01902044378221035
64.0,0.01882116310298443
72.0,0.018282469362020493
80.0,0.01762116514146328
88.0,0.016810793429613113
96.0,0.0157301127910614
104.0,0.014774863608181477
112.0,0.014299017377197742
120.0,0.013846649788320065
128.0,0.013506264425814152
144.0,0.012904221192002296
160.0,0.012321327812969685
176.0,0.011886803433299065
192.0,0.011579838581383228
208.0,0.011022999882698059
224.0,0.010257167741656303
240.0,0.009804151952266693
256.0,0.00992904044687748
288.0,0.008510258980095387
320.0,0.007138008717447519
352.0,0.005305372644215822
384.0,0.003394724102690816
416.0,0.0016418140148743987
448.0,0.001605384866707027
480.0,0.0018591341795399785
512.0,0.0017401024233549833
576.0,0.001984470058232546
640.0,0.001955028623342514
704.0,0.00025791171356104314
768.0,0.00013532856246456504
832.0,0.0019280011765658855
896.0,0.0008455801289528608
960.0,4.00013814214617e-05
1024.0,-8.547929610358551e-05
1152.0,0.001816549920476973
1280.0,0.004593954887241125
1408.0,0.004775072447955608
1536.0,0.00444319611415267
1664.0,0.0030676284804940224
1792.0,0.0018525139894336462
1920.0,0.002353976247832179
2048.0,0.0011701831826940179
2304.0,0.0032145059667527676
2560.0,0.0013943020021542907
2816.0,0.0019322528969496489
3072.0,0.002329986309632659
3328.0,-0.00046368828043341637
3584.0,-0.00019678952230606228
3840.0,-0.0015355652431026101
4096.0,-0.0017004440305754542
4608.0,-0.00801221001893282
5120.0,-0.0063593522645533085
5632.0,-0.0018611415289342403
6144.0,-0.0037849631626158953
6656.0,-0.004882330074906349
7168.0,-0.004518650472164154
7680.0,-0.00768591882660985
8192.0,-0.0025355129037052393
end
