version,3.0
numOfCh,1
type,point
parent_name,34766_0dot2-0dot01
ch_type,1_1
kcount,1
numberNandB,1
brightnessNandB,1
carpet pos,0
pc,0
Time (ms),CH1 Auto-Correlation
1.0,0.03320671617984772
2.0,0.032610706984996796
3.0,0.03201599046587944
4.0,0.03144882246851921
5.0,0.030888790264725685
6.0,0.03037445992231369
7.0,0.02989000640809536
8.0,0.02943267859518528
9.0,0.029001938179135323
10.0,0.02857075445353985
11.0,0.0281471386551857
12.0,0.027728287503123283
13.0,0.027339160442352295
14.0,0.026930037885904312
15.0,0.026518551632761955
16.0,0.02614513225853443
18.0,0.025447437539696693
20.0,0.02480209618806839
22.0,0.024205995723605156
24.0,0.02364872582256794
26.0,0.023115675896406174
28.0,0.02260194718837738
30.0,0.02207825519144535
32.0,0.02154301106929779
36.0,0.020542936399579048
40.0,0.019597802311182022
44.0,0.018685609102249146
48.0,0.017854884266853333
52.0,0.017244258895516396
56.0,0.016665207222104073
60.0,0.016068587079644203
64.0,0.015509087592363358
72.0,0.01431742962449789
80.0,0.012932291254401207
88.0,0.011677882634103298
96.0,0.01062057726085186
104.0,0.009603357873857021
112.0,0.008645844645798206
120.0,0.007837443612515926
128.0,0.007145076524466276
144.0,0.006346725393086672
160.0,0.005290084518492222
176.0,0.00452532060444355
192.0,0.004494853317737579
208.0,0.004117751494050026
224.0,0.003926815465092659
240.0,0.003950629848986864
256.0,0.004099119920283556
288.0,0.004437608644366264
320.0,0.0034807471092790365
352.0,0.0017662598984315991
384.0,-0.0008344225352630019
416.0,-0.0022666496224701405
448.0,-0.0029420957434922457
480.0,-0.0029991683550179005
512.0,-0.002241523703560233
576.0,-0.0006202757358551025
640.0,-0.0010406958172097802
704.0,-0.004213619511574507
768.0,-0.004408199805766344
832.0,-0.0033859265968203545
896.0,-0.00413542240858078
960.0,-0.005249508190900087
1024.0,-0.0053565483540296555
1152.0,-0.0026121102273464203
1280.0,-0.0007378595764748752
1408.0,0.0001254537346540019
1536.0,-0.0018414062215015292
1664.0,0.000881674000993371
1792.0,0.0010030778357759118
1920.0,1.519172565167537e-05
2048.0,-0.0022022302728146315
2304.0,-0.00042040005791932344
2560.0,0.00046416965778917074
2816.0,-0.002518842928111553
3072.0,-0.004697463940829039
3328.0,-0.001707072020508349
3584.0,0.0030835375655442476
3840.0,0.007169424556195736
4096.0,0.0021650914568454027
4608.0,-0.00488771079108119
5120.0,0.0015886477194726467
5632.0,0.00305034383200109
6144.0,0.0019052248680964112
6656.0,-0.002400844357907772
7168.0,-0.004493356682360172
7680.0,0.00034654015325941145
8192.0,0.0019157167989760637
end
