version,3.0
numOfCh,1
type,point
parent_name,c1204_10dot0-0dot01
ch_type,1_1
kcount,1
numberNandB,1
brightnessNandB,1
carpet pos,0
pc,0
Time (ms),CH1 Auto-Correlation
1.0,0.5462436676025391
2.0,0.5374500751495361
3.0,0.530648946762085
4.0,0.5254793167114258
5.0,0.5207473635673523
6.0,0.5160141587257385
7.0,0.5119104385375977
8.0,0.5079047679901123
9.0,0.5036678314208984
10.0,0.4997321665287018
11.0,0.49558359384536743
12.0,0.4912918508052826
13.0,0.48711228370666504
14.0,0.4833267331123352
15.0,0.4796290397644043
16.0,0.47542062401771545
18.0,0.46788036823272705
20.0,0.4605528712272644
22.0,0.4535326063632965
24.0,0.44612154364585876
26.0,0.4393633008003235
28.0,0.4322504699230194
30.0,0.4247063100337982
32.0,0.41667062044143677
36.0,0.40205180644989014
40.0,0.3880024254322052
44.0,0.37364909052848816
48.0,0.35955652594566345
52.0,0.34558695554733276
56.0,0.3320787847042084
60.0,0.3192688822746277
64.0,0.30715590715408325
72.0,0.28040212392807007
80.0,0.2528195381164551
88.0,0.22483915090560913
96.0,0.1985718458890915
104.0,0.17013958096504211
112.0,0.1431833952665329
120.0,0.11717553436756134
128.0,0.08859078586101532
144.0,0.028881708160042763
160.0,-0.005808563437312841
176.0,-0.008863784372806549
192.0,-0.009371080435812473
208.0,-0.01260885875672102
224.0,-0.015767905861139297
240.0,-0.01482645608484745
256.0,-0.011589916422963142
288.0,-0.019992884248495102
320.0,-0.016640065237879753
352.0,-0.013919468969106674
384.0,-0.009864299558103085
416.0,-0.01169330533593893
448.0,-0.012422707863152027
480.0,-0.015282402746379375
512.0,-0.016623368486762047
576.0,-0.023410266265273094
640.0,-0.02178885042667389
704.0,-0.016404222697019577
768.0,-0.015410667285323143
832.0,-0.02295760251581669
896.0,-0.024448232725262642
960.0,-0.023306647315621376
1024.0,-0.018604334443807602
1152.0,0.01693541370332241
1280.0,0.03136153891682625
1408.0,-0.006318023428320885
1536.0,-0.003388909390196204
1664.0,-0.0030813191551715136
1792.0,-0.008659184910356998
1920.0,-0.007376637775450945
2048.0,-0.007757835555821657
2304.0,-0.00549247907474637
2560.0,-0.00814975704997778
2816.0,0.0020200686994940042
3072.0,-0.003040851093828678
3328.0,8.764643280301243e-05
3584.0,-0.012391265481710434
3840.0,-0.01752554439008236
4096.0,-0.014521216042339802
end
