version,3.0
numOfCh,1
type,point
parent_name,c1204_10dot0-0dot01
ch_type,1_1
kcount,1
numberNandB,1
brightnessNandB,1
carpet pos,0
pc,0
Time (ms),CH1 Auto-Correlation
1.0,0.022710535675287247
2.0,0.015272395685315132
3.0,0.011628837324678898
4.0,0.009366417303681374
5.0,0.0077497586607933044
6.0,0.00626300647854805
7.0,0.005363661330193281
8.0,0.004606678616255522
9.0,0.004367573652416468
10.0,0.004048642236739397
11.0,0.0036915855016559362
12.0,0.0030314172618091106
13.0,0.002765101380646229
14.0,0.0023428932763636112
15.0,0.001925021642819047
16.0,0.0014857801143079996
18.0,0.0008288244716823101
20.0,0.0005160104483366013
22.0,0.0005564181483350694
24.0,0.0006436864496208727
26.0,0.000811974226962775
28.0,0.0008677839650772512
30.0,0.000464908400317654
32.0,0.00014194307732395828
36.0,0.0002372622984694317
40.0,-0.00023270603560376912
44.0,-0.000323208310874179
48.0,-0.0005414824699983001
52.0,-0.0003236768243368715
56.0,-8.707462984602898e-05
60.0,4.0170147258322686e-05
64.0,0.00025416366406716406
72.0,-0.00013652248890139163
80.0,-0.00018543210171628743
88.0,6.802170901210047e-06
96.0,-0.0005532431532628834
104.0,-0.00032536766957491636
112.0,0.00034260714892297983
120.0,0.0004482100484892726
128.0,0.00037233257899060845
144.0,0.0003874555113725364
160.0,0.00028490371187217534
176.0,-8.588779019191861e-05
192.0,-0.0003973346611019224
208.0,-0.00021236469910945743
224.0,-0.0006662571104243398
240.0,-0.0006482441676780581
256.0,1.1364395504642744e-05
288.0,9.551196126267314e-05
320.0,-0.0003401992726139724
352.0,0.00036973648821003735
384.0,-0.00021482101874426007
416.0,0.00037203857209533453
448.0,9.773487545317039e-05
480.0,0.00024318792566191405
512.0,0.00014919631939847022
576.0,-8.321550558321178e-05
640.0,0.00010253004438709468
704.0,-2.533498809498269e-05
768.0,2.6066447389894165e-05
832.0,0.0002806213160511106
896.0,0.00016623374540358782
960.0,7.515451579820365e-05
1024.0,-0.0002568829513620585
1152.0,-0.00016537368355784565
1280.0,-0.0003636428446043283
1408.0,-0.00029728267691098154
1536.0,2.942436549346894e-05
1664.0,6.763044802937657e-05
1792.0,-2.1537684006034397e-05
1920.0,-0.00027905486058443785
2048.0,-0.0002589091600384563
2304.0,0.00022602405806537718
2560.0,-0.00012715382035821676
2816.0,-4.055721728946082e-05
3072.0,0.00015103061741683632
3328.0,-0.00018561299657449126
3584.0,8.48148119985126e-05
3840.0,0.00024728753487579525
4096.0,-5.1652241381816566e-05
4608.0,3.833846130874008e-05
5120.0,8.599991269875318e-05
5632.0,-0.00021311368618626148
6144.0,-5.2824520935246255e-06
6656.0,6.30006252322346e-05
7168.0,-0.00019878020975738764
7680.0,1.5135942703636829e-05
8192.0,0.0002829538134392351
end
