version,3.0
numOfCh,1
type,point
parent_name,c1204_10dot0-0dot01
ch_type,1_1
kcount,1
numberNandB,1
brightnessNandB,1
carpet pos,0
pc,0
Time (ms),CH1 Auto-Correlation
1.0,0.10986539721488953
2.0,0.10287609696388245
3.0,0.09934139251708984
4.0,0.09684082120656967
5.0,0.09539640694856644
6.0,0.09479443728923798
7.0,0.09380143135786057
8.0,0.09274013340473175
9.0,0.0919651910662651
10.0,0.09086201339960098
11.0,0.09030680358409882
12.0,0.09034506231546402
13.0,0.08973917365074158
14.0,0.08896926790475845
15.0,0.08853848278522491
16.0,0.08754993975162506
18.0,0.08609703183174133
20.0,0.08570295572280884
22.0,0.08543621748685837
24.0,0.0851292610168457
26.0,0.08442811667919159
28.0,0.08314721286296844
30.0,0.08235654979944229
32.0,0.08145058900117874
36.0,0.0804034173488617
40.0,0.07830076664686203
44.0,0.07631710916757584
48.0,0.07430774718523026
52.0,0.07275743037462234
56.0,0.07026168704032898
60.0,0.06877542287111282
64.0,0.06690333783626556
72.0,0.06292421370744705
80.0,0.05963536724448204
88.0,0.05604863911867142
96.0,0.05245641991496086
104.0,0.049256324768066406
112.0,0.047393254935741425
120.0,0.04474036023020744
128.0,0.041903309524059296
144.0,0.03736146539449692
160.0,0.033161766827106476
176.0,0.02947605773806572
192.0,0.024713534861803055
208.0,0.019506599754095078
224.0,0.014774713665246964
240.0,0.011106664314866066
256.0,0.007004251703619957
288.0,0.004168133717030287
320.0,0.004797708243131638
352.0,0.005778042133897543
384.0,0.006468715146183968
416.0,0.006498319562524557
448.0,0.007538330275565386
480.0,0.008707627654075623
512.0,0.00839411374181509
576.0,0.00690451730042696
640.0,0.0046115233562886715
704.0,0.002056433819234371
768.0,-0.0010768369538709521
832.0,-0.003608643775805831
896.0,-0.0026835750322788954
960.0,-0.001197097939439118
1024.0,-0.00018322050163988024
1152.0,0.0006315853679552674
1280.0,0.0007509729475714266
1408.0,5.558389239013195e-05
1536.0,-0.0022134778555482626
1664.0,-0.003194516059011221
1792.0,-0.0038528740406036377
1920.0,-0.0035421252250671387
2048.0,-0.00184221554081887
2304.0,-0.002333908574655652
2560.0,-0.0029753881972283125
2816.0,-0.0013741134898737073
3072.0,-0.0009841726860031486
3328.0,-0.002034772653132677
3584.0,-0.004487838130444288
3840.0,-0.006013441365212202
4096.0,-0.002182403579354286
4608.0,0.0015831653727218509
5120.0,0.0021072819363325834
5632.0,-0.001513368566520512
6144.0,-4.4897315092384815e-05
6656.0,-0.0019411122193560004
7168.0,-0.006649073679000139
7680.0,-0.007401559967547655
8192.0,-0.017536090686917305
end
