version,3.0
numOfCh,1
type,point
parent_name,c1204_10dot0-0dot01
ch_type,1_1
kcount,1
numberNandB,1
brightnessNandB,1
carpet pos,0
pc,0
Time (ms),CH1 Auto-Correlation
1.0,0.046987779438495636
2.0,0.039829548448324203
3.0,0.03587529435753822
4.0,0.033805347979068756
5.0,0.03215394541621208
6.0,0.03057197667658329
7.0,0.029531383886933327
8.0,0.028596272692084312
9.0,0.02804163284599781
10.0,0.027286674827337265
11.0,0.026170138269662857
12.0,0.025722887367010117
13.0,0.025596851482987404
14.0,0.025426262989640236
15.0,0.02502230927348137
16.0,0.024730082601308823
18.0,0.02359934337437153
20.0,0.02306268736720085
22.0,0.022232843562960625
24.0,0.02181827835738659
26.0,0.021439222618937492
28.0,0.020907577127218246
30.0,0.020735006779432297
32.0,0.02005038410425186
36.0,0.01915881223976612
40.0,0.018258219584822655
44.0,0.017465757206082344
48.0,0.016277899965643883
52.0,0.015499797649681568
56.0,0.014667372219264507
60.0,0.013670026324689388
64.0,0.01330771204084158
72.0,0.01194813009351492
80.0,0.011021679267287254
88.0,0.010054861195385456
96.0,0.00965295173227787
104.0,0.009115240536630154
112.0,0.007247606758028269
120.0,0.006510190200060606
128.0,0.0058263917453587055
144.0,0.0048147705383598804
160.0,0.004991060122847557
176.0,0.005655237007886171
192.0,0.004961094819009304
208.0,0.004685157909989357
224.0,0.004801439121365547
240.0,0.004809772130101919
256.0,0.005037038587033749
288.0,0.004969099070876837
320.0,0.004262058530002832
352.0,0.00487224105745554
384.0,0.004543049726635218
416.0,0.0045336829498410225
448.0,0.00469288881868124
480.0,0.005587841384112835
512.0,0.005270411726087332
576.0,0.006244994699954987
640.0,0.0045386687852442265
704.0,0.0039647105149924755
768.0,0.0035092642065137625
832.0,0.003737845690920949
896.0,0.0030159451998770237
960.0,0.003718153340741992
1024.0,0.005315304268151522
1152.0,0.005301391705870628
1280.0,0.005593429785221815
1408.0,0.004576488863676786
1536.0,0.002866193652153015
1664.0,0.001875186339020729
1792.0,0.0035268249921500683
1920.0,0.0015739388763904572
2048.0,0.0013037665048614144
2304.0,-0.0002076010568998754
2560.0,0.00040883454494178295
2816.0,0.0013766741612926126
3072.0,-0.00044533901382237673
3328.0,-0.0014567433390766382
3584.0,-0.00159997190348804
3840.0,-0.00035051899612881243
4096.0,-0.0009338909294456244
4608.0,-0.0019017989980056882
5120.0,-0.001342597184702754
5632.0,-0.002362760016694665
6144.0,-0.0033974754624068737
6656.0,-0.0030476534739136696
7168.0,-0.004236901644617319
7680.0,-0.004655294120311737
8192.0,-0.008055486716330051
end
