version,3.0
numOfCh,1
type,point
parent_name,fe81d_0dot08-1dot0
ch_type,1_1
kcount,1
numberNandB,1
brightnessNandB,1
carpet pos,0
pc,0
Time (ms),CH1 Auto-Correlation
1.0,0.02024846337735653
2.0,0.02006830833852291
3.0,0.019898928701877594
4.0,0.019733155146241188
5.0,0.01956908032298088
6.0,0.019404662773013115
7.0,0.019240694120526314
8.0,0.019073525443673134
9.0,0.018916159868240356
10.0,0.018762269988656044
11.0,0.01860874332487583
12.0,0.018458198755979538
13.0,0.018307458609342575
14.0,0.018153179436922073
15.0,0.01800214685499668
16.0,0.01785760559141636
18.0,0.01757442019879818
20.0,0.017295438796281815
22.0,0.01702953688800335
24.0,0.0167707409709692
26.0,0.016512993723154068
28.0,0.016256215050816536
30.0,0.01601311005651951
32.0,0.015782279893755913
36.0,0.015324534848332405
40.0,0.01486145704984665
44.0,0.01439941767603159
48.0,0.013966066762804985
52.0,0.013560052961111069
56.0,0.013184667564928532
60.0,0.012829165905714035
64.0,0.012478183023631573
72.0,0.011803444474935532
80.0,0.01117787230759859
88.0,0.010575790889561176
96.0,0.010009892284870148
104.0,0.009482322260737419
112.0,0.008908232674002647
120.0,0.008270634338259697
128.0,0.007628102786839008
144.0,0.006495547015219927
160.0,0.005504596512764692
176.0,0.0046263281255960464
192.0,0.0038247646298259497
208.0,0.003006649436429143
224.0,0.00236967159435153
240.0,0.0017794432351365685
256.0,0.0012618117034435272
288.0,0.0003346354060340673
320.0,-0.0003588029940146953
352.0,-0.0007054881425574422
384.0,-0.001024711993522942
416.0,-0.0014991547213867307
448.0,-0.0016959195490926504
480.0,-0.0014804641250520945
512.0,-0.001540472381748259
576.0,-0.0009291460737586021
640.0,-6.362586282193661e-05
704.0,3.90246459573973e-05
768.0,0.00010387354268459603
832.0,0.0007313736132346094
896.0,0.0012162205530330539
960.0,0.0012797173112630844
1024.0,0.0005368082784116268
1152.0,-0.0015820830594748259
1280.0,-0.000998425530269742
1408.0,-0.000235733125009574
1536.0,-0.0003908899670932442
1664.0,-0.0008841668604873121
1792.0,-0.0020155608654022217
1920.0,-0.003185403300449252
2048.0,-0.0020970816258341074
2304.0,0.0010695878881961107
2560.0,0.000885740970261395
2816.0,0.0017622612649574876
3072.0,0.0014079296961426735
3328.0,-0.0010431064292788506
3584.0,-0.0015495477709919214
3840.0,-0.0022181267850100994
4096.0,-0.0022975397296249866
4608.0,-0.0008369162096641958
5120.0,-0.00033966582850553095
5632.0,0.00015648077533114702
6144.0,-0.0012754617491737008
6656.0,-0.0008502999553456903
7168.0,-0.0008831843733787537
7680.0,0.0035701440647244453
8192.0,0.0020324732176959515
end
