version,3.0
numOfCh,1
type,point
parent_name,fe81d_0dot08-1dot0
ch_type,1_1
kcount,1
numberNandB,1
brightnessNandB,1
carpet pos,0
pc,0
Time (ms),CH1 Auto-Correlation
1.0,0.02238909713923931
2.0,0.02220197580754757
3.0,0.022018684074282646
4.0,0.02184768207371235
5.0,0.021685319021344185
6.0,0.021527135744690895
7.0,0.021375441923737526
8.0,0.021223152056336403
9.0,0.021070264279842377
10.0,0.020919641479849815
11.0,0.02077164500951767
12.0,0.020630324259400368
13.0,0.020494623109698296
14.0,0.020357806235551834
15.0,0.02021895721554756
16.0,0.020083362236618996
18.0,0.01980312541127205
20.0,0.019523171707987785
22.0,0.019249629229307175
24.0,0.018980374559760094
26.0,0.01871645078063011
28.0,0.018471013754606247
30.0,0.018231596797704697
32.0,0.01799347996711731
36.0,0.017553729936480522
40.0,0.01715771295130253
44.0,0.01679312065243721
48.0,0.01645643636584282
52.0,0.016146870329976082
56.0,0.015847455710172653
60.0,0.015546713955700397
64.0,0.015241016633808613
72.0,0.014614321291446686
80.0,0.014026005752384663
88.0,0.013467079028487206
96.0,0.01295438501983881
104.0,0.012512486428022385
112.0,0.012181081809103489
120.0,0.011956201866269112
128.0,0.011751586571335793
144.0,0.011262846179306507
160.0,0.010697131976485252
176.0,0.01022654864937067
192.0,0.009959532879292965
208.0,0.009479144588112831
224.0,0.008851727470755577
240.0,0.0083464989438653
256.0,0.008022294379770756
288.0,0.007214197888970375
320.0,0.006539244670420885
352.0,0.005787944886833429
384.0,0.00510877650231123
416.0,0.004343239590525627
448.0,0.0036533731035888195
480.0,0.0032175364904105663
512.0,0.002509091980755329
576.0,0.0005180450971238315
640.0,-0.0009746005525812507
704.0,-0.0016651444602757692
768.0,-0.0024608056992292404
832.0,-0.003690297482535243
896.0,-0.004596722777932882
960.0,-0.0047692530788481236
1024.0,-0.003910795319825411
1152.0,-0.0019052266143262386
1280.0,0.0005243950290605426
1408.0,0.0024483418092131615
1536.0,0.0040682596154510975
1664.0,0.004581730347126722
1792.0,0.004999687895178795
1920.0,0.003339282935485244
2048.0,0.0009251668234355748
2304.0,-0.000685383565723896
2560.0,-0.0007156216888688505
2816.0,-0.00027108038193546236
3072.0,0.0015639570774510503
3328.0,0.0012717602076008916
3584.0,0.000419095391407609
3840.0,0.00018727939459495246
4096.0,-0.0013409958919510245
4608.0,-0.0018127213697880507
5120.0,-0.0030589031521230936
5632.0,-0.004690186120569706
6144.0,-0.0026948635932058096
6656.0,0.0008222711621783674
7168.0,-0.0006675746408291161
7680.0,-0.001811046153306961
8192.0,-0.0016010589897632599
end
