version,3.0
numOfCh,1
type,point
parent_name,fe81d_0dot08-1dot0
ch_type,1_1
kcount,1
numberNandB,1
brightnessNandB,1
carpet pos,0
pc,0
Time (ms),CH1 Auto-Correlation
1.0,0.019568998366594315
2.0,0.019364025443792343
3.0,0.019181175157427788
4.0,0.018998824059963226
5.0,0.018819985911250114
6.0,0.01864311657845974
7.0,0.018471932038664818
8.0,0.018300341442227364
9.0,0.0181221142411232
10.0,0.017947623506188393
11.0,0.017781980335712433
12.0,0.01761123165488243
13.0,0.017444346100091934
14.0,0.017276279628276825
15.0,0.017114415764808655
16.0,0.01695857383310795
18.0,0.016645260155200958
20.0,0.01634102687239647
22.0,0.01603848859667778
24.0,0.01573738269507885
26.0,0.015452567487955093
28.0,0.015196814201772213
30.0,0.014935160055756569
32.0,0.014682712033390999
36.0,0.01422720868140459
40.0,0.013804617337882519
44.0,0.013419313356280327
48.0,0.013066680170595646
52.0,0.012719704769551754
56.0,0.012384358793497086
60.0,0.012096673250198364
64.0,0.01183763612061739
72.0,0.011231908574700356
80.0,0.010606280528008938
88.0,0.010045403614640236
96.0,0.009591219946742058
104.0,0.00918196514248848
112.0,0.008858736604452133
120.0,0.00852063950151205
128.0,0.00820501334965229
144.0,0.007457954343408346
160.0,0.006844739429652691
176.0,0.0062665389850735664
192.0,0.005782431922852993
208.0,0.005379728972911835
224.0,0.0050886161625385284
240.0,0.004716880619525909
256.0,0.004226757679134607
288.0,0.0035115270875394344
320.0,0.0028601819649338722
352.0,0.0024602580815553665
384.0,0.0018955627456307411
416.0,0.0013795593986287713
448.0,0.0009614477748982608
480.0,0.0009581620688550174
512.0,0.0008527315803803504
576.0,1.4283277778304182e-06
640.0,-9.700039663584903e-05
704.0,-0.00038219220004975796
768.0,-0.0013486084062606096
832.0,-0.0017004312248900533
896.0,-0.001621887437067926
960.0,-0.0009217637707479298
1024.0,-0.00038729936932213604
1152.0,-0.0005786790861748159
1280.0,-0.0012342467671260238
1408.0,-0.0007950200233608484
1536.0,-0.0012707252753898501
1664.0,0.00019871231052093208
1792.0,0.0013843417400494218
1920.0,0.0019393889233469963
2048.0,0.0028910497203469276
2304.0,0.0012047236086800694
2560.0,-0.0015269265277311206
2816.0,-0.004491755738854408
3072.0,-0.004359278362244368
3328.0,-0.0021063785534352064
3584.0,-0.0010446306550875306
3840.0,0.0016893359133973718
4096.0,0.0007108697900548577
4608.0,-0.002427243161946535
5120.0,-0.000702504301443696
5632.0,0.00032724530319683254
6144.0,0.0014868521830067039
6656.0,-0.0006462499732151628
7168.0,-0.00014511283370666206
7680.0,0.0031978690531104803
8192.0,-0.0016926502576097846
end
