version,3.0
numOfCh,1
type,point
parent_name,fe81d_0dot08-1dot0
ch_type,1_1
kcount,1
numberNandB,1
brightnessNandB,1
carpet pos,0
pc,0
Time (ms),CH1 Auto-Correlation
1.0,0.020721977576613426
2.0,0.020526418462395668
3.0,0.020339637994766235
4.0,0.02015366405248642
5.0,0.019974758848547935
6.0,0.01979873701930046
7.0,0.0196243803948164
8.0,0.019456464797258377
9.0,0.01929420232772827
10.0,0.01912977360188961
11.0,0.01896183378994465
12.0,0.01879625767469406
13.0,0.01863805763423443
14.0,0.01848028227686882
15.0,0.018325692042708397
16.0,0.01817229576408863
18.0,0.017873097211122513
20.0,0.017588451504707336
22.0,0.01730433478951454
24.0,0.017032289877533913
26.0,0.016764819622039795
28.0,0.016501467674970627
30.0,0.01623915322124958
32.0,0.015974700450897217
36.0,0.015462080016732216
40.0,0.014984415844082832
44.0,0.01455652341246605
48.0,0.01415219809859991
52.0,0.013763457536697388
56.0,0.01337755098938942
60.0,0.012989590875804424
64.0,0.012625161558389664
72.0,0.01199348084628582
80.0,0.011432165279984474
88.0,0.010883854702115059
96.0,0.010428527370095253
104.0,0.01009711716324091
112.0,0.00985647551715374
120.0,0.009685641154646873
128.0,0.009566962718963623
144.0,0.009298069402575493
160.0,0.00877441931515932
176.0,0.00827962439507246
192.0,0.007956044748425484
208.0,0.007717066910117865
224.0,0.007570402231067419
240.0,0.007412930950522423
256.0,0.007336464710533619
288.0,0.0073831956833601
320.0,0.007347300183027983
352.0,0.007117616478353739
384.0,0.006750899367034435
416.0,0.006039131432771683
448.0,0.005380991846323013
480.0,0.004729046020656824
512.0,0.004274262581020594
576.0,0.004289213102310896
640.0,0.0037001774180680513
704.0,0.0035105072893202305
768.0,0.003134621074423194
832.0,0.002581785200163722
896.0,0.0021903475280851126
960.0,0.0015490719815716147
1024.0,0.0016286614118143916
1152.0,0.002642508829012513
1280.0,0.002066412242129445
1408.0,0.0031315486412495375
1536.0,0.0035466307308524847
1664.0,0.004232922103255987
1792.0,0.004031095188111067
1920.0,0.0032233181409537792
2048.0,0.002834459999576211
2304.0,0.0014946253504604101
2560.0,0.00030254549346864223
2816.0,-0.000614543620031327
3072.0,0.00016006454825401306
3328.0,-0.000985692604444921
3584.0,-0.0013740110443904996
3840.0,-0.0018584657227620482
4096.0,-0.001985805341973901
4608.0,0.00026931040338240564
5120.0,-0.0018279924988746643
5632.0,-0.0040606604889035225
6144.0,-0.0020065694116055965
6656.0,-0.002002640860155225
7168.0,-0.004683458246290684
7680.0,-0.005895235110074282
8192.0,-0.0019297405378893018
end
