version,3.0
numOfCh,1
type,point
parent_name,fe81d_0dot08-1dot0
ch_type,1_1
kcount,1
numberNandB,1
brightnessNandB,1
carpet pos,0
pc,0
Time (ms),CH1 Auto-Correlation
1.0,0.019296782091259956
2.0,0.01909658871591091
3.0,0.018908783793449402
4.0,0.018717309460043907
5.0,0.018526718020439148
6.0,0.018343809992074966
7.0,0.018172528594732285
8.0,0.018001146614551544
9.0,0.017838208004832268
10.0,0.01767798699438572
11.0,0.017516162246465683
12.0,0.017359869554638863
13.0,0.017206741496920586
14.0,0.0170559361577034
15.0,0.01690639555454254
16.0,0.01675795391201973
18.0,0.016478173434734344
20.0,0.016211895272135735
22.0,0.01594914123415947
24.0,0.015691597014665604
26.0,0.015441041439771652
28.0,0.015198958106338978
30.0,0.014954601414501667
32.0,0.014720707200467587
36.0,0.014269307255744934
40.0,0.01383358333259821
44.0,0.01338324137032032
48.0,0.012934447266161442
52.0,0.012469966895878315
56.0,0.01198517344892025
60.0,0.011535086669027805
64.0,0.011117122136056423
72.0,0.010286569595336914
80.0,0.00951725896447897
88.0,0.008854235522449017
96.0,0.008335701189935207
104.0,0.007969092577695847
112.0,0.007655775640159845
120.0,0.007229703012853861
128.0,0.006802610121667385
144.0,0.006137724034488201
160.0,0.005626807454973459
176.0,0.005237752106040716
192.0,0.0048274025321006775
208.0,0.004564196337014437
224.0,0.004284008871763945
240.0,0.004040505271404982
256.0,0.003943515941500664
288.0,0.003755871206521988
320.0,0.003751601791009307
352.0,0.003944419324398041
384.0,0.004258462227880955
416.0,0.004450875800102949
448.0,0.003933740314096212
480.0,0.0028313721995800734
512.0,0.0018698145868256688
576.0,0.000709468440618366
640.0,0.0008448410080745816
704.0,0.00045930242049507797
768.0,0.0004520895017776638
832.0,-0.00024142497568391263
896.0,-0.0004447567625902593
960.0,-0.0008394181495532393
1024.0,-0.0018133429111912847
1152.0,-0.0011753723956644535
1280.0,0.0005547566688619554
1408.0,0.00018626378732733428
1536.0,-0.0007320718723349273
1664.0,-0.0011988054029643536
1792.0,-0.0017762782517820597
1920.0,-0.0004997925716452301
2048.0,-0.0011699595488607883
2304.0,-0.0014090549666434526
2560.0,0.00017812832084018737
2816.0,0.0008973880903795362
3072.0,0.000983736477792263
3328.0,0.0010491987923160195
3584.0,-0.0028258662205189466
3840.0,-0.002237532287836075
4096.0,-0.0007409854442812502
4608.0,0.0017932102782651782
5120.0,0.0010819443268701434
5632.0,-0.000901213672477752
6144.0,-0.003459005616605282
6656.0,-0.0055946893990039825
7168.0,-0.004143980331718922
7680.0,0.0024053563829511404
8192.0,0.0026170597411692142
end
