version,3.0
numOfCh,1
type,point
parent_name,fe81d_0dot08-1dot0
ch_type,1_1
kcount,1
numberNandB,1
brightnessNandB,1
carpet pos,0
pc,0
Time (ms),CH1 Auto-Correlation
1.0,0.018262123689055443
2.0,0.018065672367811203
3.0,0.017880192026495934
4.0,0.017698971554636955
5.0,0.017528105527162552
6.0,0.017362503334879875
7.0,0.017196383327245712
8.0,0.017033172771334648
9.0,0.01686943508684635
10.0,0.016713261604309082
11.0,0.01655730791389942
12.0,0.016411641612648964
13.0,0.016264548525214195
14.0,0.016119686886668205
15.0,0.015978150069713593
16.0,0.015839548781514168
18.0,0.015568153001368046
20.0,0.015302663668990135
22.0,0.015041552484035492
24.0,0.01478293165564537
26.0,0.014529882930219173
28.0,0.014268231578171253
30.0,0.014005922712385654
32.0,0.013758495450019836
36.0,0.013306076638400555
40.0,0.012884124182164669
44.0,0.012487510219216347
48.0,0.012137585319578648
52.0,0.011825025081634521
56.0,0.011515524238348007
60.0,0.011196153238415718
64.0,0.010893397033214569
72.0,0.010327205061912537
80.0,0.009823587723076344
88.0,0.00939877051860094
96.0,0.0090468255802989
104.0,0.008726847358047962
112.0,0.008377515710890293
120.0,0.007966605015099049
128.0,0.007559801451861858
144.0,0.006895799655467272
160.0,0.006271764170378447
176.0,0.0054341875948011875
192.0,0.004673928488045931
208.0,0.0040660942904651165
224.0,0.0036364668048918247
240.0,0.0033015895169228315
256.0,0.0029952118638902903
288.0,0.0022738282568752766
320.0,0.0017523689894005656
352.0,0.001176605117507279
384.0,0.0008711143163964152
416.0,0.0006161480559967458
448.0,0.000495718908496201
480.0,0.0004829061508644372
512.0,0.0003158485342282802
576.0,9.457214764552191e-05
640.0,-0.00033164466731250286
704.0,-0.0016880574403330684
768.0,-0.0031307574827224016
832.0,-0.004540738184005022
896.0,-0.0043570431880652905
960.0,-0.0027344811242073774
1024.0,-0.0007674781954847276
1152.0,3.354771251906641e-05
1280.0,-0.00042057677637785673
1408.0,-0.0005190539523027837
1536.0,0.0009794827783480287
1664.0,0.0029148950707167387
1792.0,0.0023017763160169125
1920.0,0.00024408836907241493
2048.0,-0.0006158454343676567
2304.0,-0.001023811288177967
2560.0,-0.002180359559133649
2816.0,-0.0007222518906928599
3072.0,0.0010193797061219811
3328.0,0.0034958235919475555
3584.0,0.002813560189679265
3840.0,0.0019149313447996974
4096.0,4.20027608925011e-05
4608.0,-0.001671736710704863
5120.0,-0.0006390727357938886
5632.0,-0.001236114650964737
6144.0,0.00014477228978648782
6656.0,0.001127083320170641
7168.0,-0.00011008448927896097
7680.0,0.0005634230328723788
8192.0,-0.00038400859921239316
end
