version,3.0
numOfCh,1
type,point
parent_name,fe81d_0dot08-1dot0
ch_type,1_1
kcount,1
numberNandB,1
brightnessNandB,1
carpet pos,0
pc,0
Time (ms),CH1 Auto-Correlation
1.0,0.023288840427994728
2.0,0.02309906668961048
3.0,0.02291078120470047
4.0,0.022729115560650826
5.0,0.022551851347088814
6.0,0.022390320897102356
7.0,0.02223239280283451
8.0,0.02208210714161396
9.0,0.02193029411137104
10.0,0.02177974209189415
11.0,0.021627819165587425
12.0,0.02147592045366764
13.0,0.021330788731575012
14.0,0.021183427423238754
15.0,0.02104027010500431
16.0,0.020893532782793045
18.0,0.02061009407043457
20.0,0.020328564569354057
22.0,0.020056238397955894
24.0,0.019800269976258278
26.0,0.019556470215320587
28.0,0.019320381805300713
30.0,0.019092964008450508
32.0,0.018878400325775146
36.0,0.018505044281482697
40.0,0.018148312345147133
44.0,0.01779775694012642
48.0,0.01744375191628933
52.0,0.01709594763815403
56.0,0.016762100160121918
60.0,0.016442647203803062
64.0,0.016163358464837074
72.0,0.0156269408762455
80.0,0.015069456771016121
88.0,0.014479941688477993
96.0,0.013830436393618584
104.0,0.013200603425502777
112.0,0.012694797478616238
120.0,0.012201902456581593
128.0,0.011694429442286491
144.0,0.010729854926466942
160.0,0.009780007414519787
176.0,0.009006990119814873
192.0,0.008326024748384953
208.0,0.007828375324606895
224.0,0.00737341120839119
240.0,0.006663311738520861
256.0,0.006150917150080204
288.0,0.004915772471576929
320.0,0.003615984693169594
352.0,0.00268611591309309
384.0,0.0021154379937797785
416.0,0.0017716422444209456
448.0,0.0017276544822379947
480.0,0.0014800740173086524
512.0,0.00111670873593539
576.0,0.0003181596111971885
640.0,0.001134311081841588
704.0,0.002470094943419099
768.0,0.003461591899394989
832.0,0.003287028754130006
896.0,0.003864977043122053
960.0,0.004281070549041033
1024.0,0.0032086658757179976
1152.0,0.001335407723672688
1280.0,-0.0014063121052458882
1408.0,-0.0024104847107082605
1536.0,-0.000932738184928894
1664.0,0.0003557472082320601
1792.0,0.0007424713112413883
1920.0,0.0023486115969717503
2048.0,0.004185783676803112
2304.0,0.003376142354682088
2560.0,0.0019690420012921095
2816.0,0.0024807292502373457
3072.0,-0.00013024790678173304
3328.0,-0.004714147187769413
3584.0,-0.005262368358671665
3840.0,-0.004360811784863472
4096.0,-0.005193093325942755
4608.0,-0.001070723868906498
5120.0,0.0005392406601458788
5632.0,0.0005356298061087728
6144.0,-0.0027053651865571737
6656.0,0.00030186178628355265
7168.0,0.0014575968962162733
7680.0,0.0035419692285358906
8192.0,0.0010197422234341502
end
