version,3.0
numOfCh,1
type,point
parent_name,fe81d_0dot08-1dot0
ch_type,1_1
kcount,1
numberNandB,1
brightnessNandB,1
carpet pos,0
pc,0
Time (ms),CH1 Auto-Correlation
1.0,0.021255699917674065
2.0,0.02099556475877762
3.0,0.020765304565429688
4.0,0.020551374182105064
5.0,0.02033730037510395
6.0,0.020141111686825752
7.0,0.019945960491895676
8.0,0.019755374640226364
9.0,0.019565975293517113
10.0,0.019362160935997963
11.0,0.019160404801368713
12.0,0.01897331513464451
13.0,0.018785860389471054
14.0,0.0185998622328043
15.0,0.018418684601783752
16.0,0.018238388001918793
18.0,0.01790277473628521
20.0,0.01757252775132656
22.0,0.0172711368650198
24.0,0.016969304531812668
26.0,0.0166920255869627
28.0,0.016407975926995277
30.0,0.016136541962623596
32.0,0.01587005704641342
36.0,0.015351506881415844
40.0,0.01488455943763256
44.0,0.014480975456535816
48.0,0.014088036492466927
52.0,0.01373113039880991
56.0,0.013359376229345798
60.0,0.013009549118578434
64.0,0.012658720836043358
72.0,0.011974352411925793
80.0,0.011248600669205189
88.0,0.010514740832149982
96.0,0.009758003056049347
104.0,0.009034302085638046
112.0,0.008395087905228138
120.0,0.007813043892383575
128.0,0.007313488516956568
144.0,0.006574785336852074
160.0,0.005897859577089548
176.0,0.005261360201984644
192.0,0.004834584426134825
208.0,0.004430815111845732
224.0,0.004140960983932018
240.0,0.0037931688129901886
256.0,0.0035881982184946537
288.0,0.0030284514650702477
320.0,0.002362398896366358
352.0,0.00195905240252614
384.0,0.0017535072984173894
416.0,0.0012166752712801099
448.0,0.0010205943835899234
480.0,0.001064842683263123
512.0,0.0017009201692417264
576.0,0.0029916753992438316
640.0,0.0035184030421078205
704.0,0.0031234377529472113
768.0,0.0022297303657978773
832.0,0.002456482732668519
896.0,0.0026129218749701977
960.0,0.002707467647269368
1024.0,0.002190449507907033
1152.0,0.003045442048460245
1280.0,0.0016246364684775472
1408.0,0.0002870899625122547
1536.0,9.293444600189105e-05
1664.0,0.0012086154893040657
1792.0,0.0024960539303719997
1920.0,0.0016855115536600351
2048.0,-0.00020905520068481565
2304.0,0.0004350566305220127
2560.0,0.001164900604635477
2816.0,0.0011916817165911198
3072.0,-0.0005923318094573915
3328.0,-0.0006358123500831425
3584.0,-0.00043860156438313425
3840.0,0.00048200739547610283
4096.0,0.002202787669375539
4608.0,0.0029570020269602537
5120.0,0.0012491922825574875
5632.0,-6.066632977308473e-06
6144.0,-0.0019752616062760353
6656.0,-0.0011417502537369728
7168.0,-0.0028041768819093704
7680.0,-0.007264522835612297
8192.0,-0.00410433579236269
end
