version,3.0
numOfCh,1
type,point
parent_name,fe81d_0dot08-1dot0
ch_type,1_1
kcount,1
numberNandB,1
brightnessNandB,1
carpet pos,0
pc,0
Time (ms),CH1 Auto-Correlation
1.0,0.021686045452952385
2.0,0.02148699201643467
3.0,0.021296082064509392
4.0,0.02110940031707287
5.0,0.020931540057063103
6.0,0.02075383998453617
7.0,0.020588912069797516
8.0,0.020429551601409912
9.0,0.020262086763978004
10.0,0.02009681984782219
11.0,0.019933894276618958
12.0,0.019769271835684776
13.0,0.019608810544013977
14.0,0.019448135048151016
15.0,0.019295670092105865
16.0,0.019146494567394257
18.0,0.01884879730641842
20.0,0.018559906631708145
22.0,0.01828879304230213
24.0,0.018032584339380264
26.0,0.01778673753142357
28.0,0.017543470486998558
30.0,0.017295844852924347
32.0,0.0170490350574255
36.0,0.01658618450164795
40.0,0.016143538057804108
44.0,0.015703445300459862
48.0,0.015276147983968258
52.0,0.014825413003563881
56.0,0.014379463158547878
60.0,0.013945698738098145
64.0,0.013542781583964825
72.0,0.012824216857552528
80.0,0.012210480868816376
88.0,0.011689449660480022
96.0,0.011157695204019547
104.0,0.010618950240314007
112.0,0.010144766420125961
120.0,0.009720702655613422
128.0,0.009386119432747364
144.0,0.008811453357338905
160.0,0.008220850490033627
176.0,0.007714354433119297
192.0,0.007385953329503536
208.0,0.007007342763245106
224.0,0.00666757533326745
240.0,0.0065629612654447556
256.0,0.006363797467201948
288.0,0.005584149155765772
320.0,0.0049576484598219395
352.0,0.004535570275038481
384.0,0.0037234309129416943
416.0,0.0027725589461624622
448.0,0.00205865316092968
480.0,0.002003076486289501
512.0,0.0022104422096163034
576.0,0.0020105091389268637
640.0,0.0018480910221114755
704.0,0.0006723381229676306
768.0,-0.0005153445526957512
832.0,-0.0009989365935325623
896.0,-0.0006215021130628884
960.0,-0.0008776743779890239
1024.0,-0.0022159216459840536
1152.0,-0.002053923439234495
1280.0,-0.0008240877068601549
1408.0,-1.6112469893414527e-05
1536.0,0.00016082638467196375
1664.0,0.00018508583889342844
1792.0,0.00020232955284882337
1920.0,-0.0008782147779129446
2048.0,-0.0018315960187464952
2304.0,-6.379178375937045e-05
2560.0,0.0018000671407207847
2816.0,7.689753692829981e-05
3072.0,-0.0035716311540454626
3328.0,-0.005562250502407551
3584.0,-0.005063527729362249
3840.0,-0.0024672711733728647
4096.0,0.0008592975209467113
4608.0,0.001586996833793819
5120.0,0.0015577131416648626
5632.0,0.0006525851204060018
6144.0,-0.0016661378322169185
6656.0,0.000623765925411135
7168.0,0.0011738344328477979
7680.0,-0.0033384351991117
8192.0,-0.005129158962517977
end
