version,3.0
numOfCh,1
type,point
parent_name,fe81d_0dot08-1dot0
ch_type,1_1
kcount,1
numberNandB,1
brightnessNandB,1
carpet pos,0
pc,0
Time (ms),CH1 Auto-Correlation
1.0,0.02463136427104473
2.0,0.024415886029601097
3.0,0.024218715727329254
4.0,0.024022892117500305
5.0,0.023830322548747063
6.0,0.023641400039196014
7.0,0.02346266619861126
8.0,0.023280518129467964
9.0,0.02309575304389
10.0,0.022909114137291908
11.0,0.022728802636265755
12.0,0.02255568839609623
13.0,0.0223834291100502
14.0,0.022214146330952644
15.0,0.022048790007829666
16.0,0.021886136382818222
18.0,0.02157157100737095
20.0,0.02124532125890255
22.0,0.020910609513521194
24.0,0.02057793363928795
26.0,0.020251978188753128
28.0,0.01992802880704403
30.0,0.019620509818196297
32.0,0.019320696592330933
36.0,0.018733518198132515
40.0,0.01816743053495884
44.0,0.0176380667835474
48.0,0.01712171547114849
52.0,0.01662220060825348
56.0,0.016162674874067307
60.0,0.0157528817653656
64.0,0.015403851866722107
72.0,0.014750988222658634
80.0,0.014188242144882679
88.0,0.013730399310588837
96.0,0.013322289101779461
104.0,0.012896087020635605
112.0,0.012401559390127659
120.0,0.011913994327187538
128.0,0.01148032583296299
144.0,0.010725243017077446
160.0,0.010103642009198666
176.0,0.009463932365179062
192.0,0.008690367452800274
208.0,0.007921289652585983
224.0,0.00731239328160882
240.0,0.006798330694437027
256.0,0.006543271709233522
288.0,0.006096085533499718
320.0,0.005134792532771826
352.0,0.0039199404418468475
384.0,0.0034394478425383568
416.0,0.0032760591711848974
448.0,0.0028835462871938944
480.0,0.0022331068757921457
512.0,0.0014985493617132306
576.0,-0.0006970741087570786
640.0,-0.0023804991506040096
704.0,-0.003034726483747363
768.0,-0.0033357255160808563
832.0,-0.0036394805647432804
896.0,-0.003881321754306555
960.0,-0.0032762931659817696
1024.0,-0.0041724001057446
1152.0,-0.005324040539562702
1280.0,-0.004923714324831963
1408.0,-0.004501044284552336
1536.0,-0.0027630948461592197
1664.0,-0.000316051475238055
1792.0,0.0007880917983129621
1920.0,0.0011328476248309016
2048.0,0.0010829459642991424
2304.0,-0.002152127679437399
2560.0,-0.001580108655616641
2816.0,0.0016847087536007166
3072.0,0.0002737704780884087
3328.0,-0.0017589417984709144
3584.0,-0.0032958812080323696
3840.0,0.00013062187645118684
4096.0,-0.0007374095148406923
4608.0,0.0034519622568041086
5120.0,0.0004506967670749873
5632.0,-0.0003316646034363657
6144.0,0.0003170483687426895
6656.0,0.0007195732905529439
7168.0,-0.001551350113004446
7680.0,0.003935997374355793
8192.0,-0.003750626929104328
end
