version,3.0
numOfCh,1
type,point
parent_name,fe81d_0dot08-1dot0
ch_type,1_1
kcount,1
numberNandB,1
brightnessNandB,1
carpet pos,0
pc,0
Time (ms),CH1 Auto-Correlation
1.0,0.021935610100626945
2.0,0.021536508575081825
3.0,0.02136332169175148
4.0,0.021193409338593483
5.0,0.02102571725845337
6.0,0.02086617797613144
7.0,0.020719503983855247
8.0,0.0205608569085598
9.0,0.020391549915075302
10.0,0.020242761820554733
11.0,0.02009469084441662
12.0,0.01994483172893524
13.0,0.019796395674347878
14.0,0.019648727029561996
15.0,0.019496237859129906
16.0,0.01934889145195484
18.0,0.01905486360192299
20.0,0.018764369189739227
22.0,0.018473559990525246
24.0,0.018191734328866005
26.0,0.017916478216648102
28.0,0.0176546573638916
30.0,0.01739448495209217
32.0,0.0171470008790493
36.0,0.016669532284140587
40.0,0.01622997410595417
44.0,0.015796085819602013
48.0,0.015359447337687016
52.0,0.014951466582715511
56.0,0.014571270905435085
60.0,0.014216451905667782
64.0,0.013884016312658787
72.0,0.013326220214366913
80.0,0.012849323451519012
88.0,0.012365400791168213
96.0,0.011887849308550358
104.0,0.011354091577231884
112.0,0.010759416036307812
120.0,0.01016247645020485
128.0,0.00965204369276762
144.0,0.008874021470546722
160.0,0.008189750835299492
176.0,0.0077245659194886684
192.0,0.007367832586169243
208.0,0.007005083840340376
224.0,0.006612584460526705
240.0,0.006124424282461405
256.0,0.005629175808280706
288.0,0.005540742073208094
320.0,0.005954834632575512
352.0,0.0062523880042135715
384.0,0.006113446317613125
416.0,0.005842896644026041
448.0,0.00540794525295496
480.0,0.005304655525833368
512.0,0.005255644675344229
576.0,0.005034517962485552
640.0,0.005279386881738901
704.0,0.005769956856966019
768.0,0.006470090243965387
832.0,0.006735747680068016
896.0,0.005534106865525246
960.0,0.0036098682321608067
1024.0,0.0022847214713692665
1152.0,0.00047523766988888383
1280.0,-0.0013850603718310595
1408.0,-0.0018321091774851084
1536.0,-0.0012917937710881233
1664.0,-0.0008467552252113819
1792.0,-0.00188605603761971
1920.0,-0.0024351344909518957
2048.0,-0.0029361657798290253
2304.0,-0.0014318153262138367
2560.0,-0.001272955210879445
2816.0,-0.0006517464062198997
3072.0,0.0007419814355671406
3328.0,-0.0004025920352432877
3584.0,-0.0017508676974102855
3840.0,-0.0012640926288440824
4096.0,-0.0014961984707042575
4608.0,-0.0030672806315124035
5120.0,-0.0022971071302890778
5632.0,-5.9330082876840606e-05
6144.0,0.0012627547839656472
6656.0,0.0019443986238911748
7168.0,-0.001029249164275825
7680.0,-0.0006469915388152003
8192.0,0.0006700235535390675
end
