version,3.0
numOfCh,1
type,point
parent_name,fe81d_0dot08-1dot0
ch_type,1_1
kcount,1
numberNandB,1
brightnessNandB,1
carpet pos,0
pc,0
Time (ms),CH1 Auto-Correlation
1.0,0.02423398196697235
2.0,0.024007122963666916
3.0,0.023785609751939774
4.0,0.023570988327264786
5.0,0.02336473949253559
6.0,0.023158621042966843
7.0,0.022966720163822174
8.0,0.022776830941438675
9.0,0.02258436754345894
10.0,0.0224000196903944
11.0,0.022217966616153717
12.0,0.02203931100666523
13.0,0.0218663290143013
14.0,0.02169090509414673
15.0,0.0215152557939291
16.0,0.02134990505874157
18.0,0.02102191187441349
20.0,0.02069099247455597
22.0,0.02038399875164032
24.0,0.02007497288286686
26.0,0.019767606630921364
28.0,0.019471731036901474
30.0,0.019191281870007515
32.0,0.018912607803940773
36.0,0.018369857221841812
40.0,0.017839113250374794
44.0,0.017360074445605278
48.0,0.01693296991288662
52.0,0.016528252512216568
56.0,0.016138417646288872
60.0,0.015788838267326355
64.0,0.015444275923073292
72.0,0.014723933301866055
80.0,0.014008653350174427
88.0,0.013435490429401398
96.0,0.01293910387903452
104.0,0.0124287074431777
112.0,0.011978390626609325
120.0,0.01157105341553688
128.0,0.011202425695955753
144.0,0.010501867160201073
160.0,0.009863968938589096
176.0,0.009286931715905666
192.0,0.008780348114669323
208.0,0.008290261030197144
224.0,0.0077559808269143105
240.0,0.007178114727139473
256.0,0.006679644342511892
288.0,0.0055742813274264336
320.0,0.004981886129826307
352.0,0.00466494495049119
384.0,0.004736689850687981
416.0,0.004535401705652475
448.0,0.0038498530630022287
480.0,0.003271399764344096
512.0,0.0029880055226385593
576.0,0.0033535994589328766
640.0,0.0030484586022794247
704.0,0.0018767741275951266
768.0,0.0011017249198630452
832.0,0.0001503881358075887
896.0,-0.0004347472277004272
960.0,0.0006307912990450859
1024.0,0.001755748176947236
1152.0,0.0012917602434754372
1280.0,0.0004257243708707392
1408.0,0.0014067130396142602
1536.0,0.0013396642170846462
1664.0,0.0009385378798469901
1792.0,-0.0008151612128131092
1920.0,-0.0034390597138553858
2048.0,-0.003960496746003628
2304.0,-0.0012750192545354366
2560.0,0.0007510994328185916
2816.0,-0.000431588152423501
3072.0,-0.0013692189240828156
3328.0,-0.001621522824279964
3584.0,-7.590496534248814e-05
3840.0,0.0005433799233287573
4096.0,0.0003042370080947876
4608.0,-0.001813596929423511
5120.0,0.0011983454460278153
5632.0,-0.002514758612960577
6144.0,-0.00307615683414042
6656.0,-0.001707819290459156
7168.0,-0.006519647315144539
7680.0,-0.0008243655320256948
8192.0,-0.004633553326129913
end
