version,3.0
numOfCh,1
type,point
parent_name,fe81d_0dot08-1dot0
ch_type,1_1
kcount,1
numberNandB,1
brightnessNandB,1
carpet pos,0
pc,0
Time (ms),CH1 Auto-Correlation
1.0,0.027894681319594383
2.0,0.02767093852162361
3.0,0.02746758982539177
4.0,0.027274908497929573
5.0,0.027088256552815437
6.0,0.02690371498465538
7.0,0.026721453294157982
8.0,0.02654605358839035
9.0,0.026371149346232414
10.0,0.026207491755485535
11.0,0.026048140600323677
12.0,0.025889916345477104
13.0,0.025732629001140594
14.0,0.025578441098332405
15.0,0.02542455866932869
16.0,0.025271466001868248
18.0,0.02499212883412838
20.0,0.02472485788166523
22.0,0.0244646854698658
24.0,0.02419898845255375
26.0,0.023936863988637924
28.0,0.023672612383961678
30.0,0.02341589517891407
32.0,0.023158172145485878
36.0,0.022632092237472534
40.0,0.022100910544395447
44.0,0.02162308618426323
48.0,0.021202467381954193
52.0,0.020801614969968796
56.0,0.02042216621339321
60.0,0.020044315606355667
64.0,0.01967226155102253
72.0,0.018992159515619278
80.0,0.01834181137382984
88.0,0.017723608762025833
96.0,0.017233772203326225
104.0,0.016786927357316017
112.0,0.016276534646749496
120.0,0.015767300501465797
128.0,0.015345844440162182
144.0,0.014605145901441574
160.0,0.014015348628163338
176.0,0.013470767065882683
192.0,0.012992984615266323
208.0,0.012610550969839096
224.0,0.01200888492166996
240.0,0.011312625370919704
256.0,0.010694317519664764
288.0,0.00955800898373127
320.0,0.00870064552873373
352.0,0.008100444450974464
384.0,0.007392462808638811
416.0,0.006773460190743208
448.0,0.0060950107872486115
480.0,0.005741336848586798
512.0,0.005734327249228954
576.0,0.006484562531113625
640.0,0.006933132652193308
704.0,0.00687404302880168
768.0,0.0063023874536156654
832.0,0.0046929121017456055
896.0,0.0024780980311334133
960.0,0.0009153306600637734
1024.0,-0.00041306126513518393
1152.0,-0.0012824897421523929
1280.0,-0.0010935699101537466
1408.0,-0.0018001332646235824
1536.0,-0.0023268437944352627
1664.0,-0.0032233905512839556
1792.0,-0.004837225191295147
1920.0,-0.004931136965751648
2048.0,-0.0040235361084342
2304.0,-0.004523634444922209
2560.0,-0.0022773509845137596
2816.0,0.0012015015818178654
3072.0,0.0014316258020699024
3328.0,0.002504440490156412
3584.0,0.0020835346076637506
3840.0,0.0003715739003382623
4096.0,-0.0009571135160513222
4608.0,-0.005030076019465923
5120.0,-0.005726229399442673
5632.0,-0.0033345494884997606
6144.0,0.000389114924473688
6656.0,0.00035612439387477934
7168.0,-0.0014350905548781157
7680.0,-0.004614380653947592
8192.0,-0.002444993006065488
end
