version,3.0
numOfCh,1
type,point
parent_name,fe81d_0dot08-1dot0
ch_type,1_1
kcount,1
numberNandB,1
brightnessNandB,1
carpet pos,0
pc,0
Time (ms),CH1 Auto-Correlation
1.0,0.021305982023477554
2.0,0.02111314982175827
3.0,0.020929215475916862
4.0,0.020754192024469376
5.0,0.020576322451233864
6.0,0.020407995209097862
7.0,0.02023591659963131
8.0,0.020067280158400536
9.0,0.01990124210715294
10.0,0.019738633185625076
11.0,0.019574765115976334
12.0,0.01941591687500477
13.0,0.01925486885011196
14.0,0.019104909151792526
15.0,0.01896127313375473
16.0,0.01881484128534794
18.0,0.018525399267673492
20.0,0.018243582919239998
22.0,0.017968149855732918
24.0,0.017707156017422676
26.0,0.01745869405567646
28.0,0.017222605645656586
30.0,0.016995616257190704
32.0,0.01677556335926056
36.0,0.016338367015123367
40.0,0.015923721715807915
44.0,0.01551332138478756
48.0,0.015125294215977192
52.0,0.014752860181033611
56.0,0.014379690401256084
60.0,0.014022680930793285
64.0,0.013693626038730145
72.0,0.013058547861874104
80.0,0.012390024960041046
88.0,0.011649316176772118
96.0,0.010917270556092262
104.0,0.010289819911122322
112.0,0.009836629964411259
120.0,0.009475105442106724
128.0,0.00914284773170948
144.0,0.008739528246223927
160.0,0.008460050448775291
176.0,0.007875395938754082
192.0,0.0074163381941616535
208.0,0.007045389153063297
224.0,0.006614993792027235
240.0,0.006284583825618029
256.0,0.005891410168260336
288.0,0.0052745467983186245
320.0,0.0048084561713039875
352.0,0.00476438831537962
384.0,0.004645021632313728
416.0,0.0046791210770606995
448.0,0.004698681179434061
480.0,0.004347564186900854
512.0,0.004206805489957333
576.0,0.0035472966264933348
640.0,0.002732811262831092
704.0,0.0024324797559529543
768.0,0.0022469281684607267
832.0,0.0011425662087276578
896.0,0.0006682025268673897
960.0,0.0011419074144214392
1024.0,0.0011540122795850039
1152.0,0.0008784657693468034
1280.0,-0.00047092261957004666
1408.0,-0.002191016683354974
1536.0,-0.002201129449531436
1664.0,-0.001434994861483574
1792.0,-0.0016013788990676403
1920.0,-0.0028195602353662252
2048.0,-0.0027817965019494295
2304.0,-0.001651683822274208
2560.0,-0.0008182580932043493
2816.0,-4.2134786781389266e-05
3072.0,0.00045653831330128014
3328.0,-0.0005697556189261377
3584.0,0.0008022816036827862
3840.0,8.673558477312326e-05
4096.0,0.00029847738915123045
4608.0,-0.0009892747038975358
5120.0,-0.0015545241767540574
5632.0,-0.0026075176429003477
6144.0,-0.0003300146490801126
6656.0,-0.0022727572359144688
7168.0,-0.0005507455207407475
7680.0,0.0018248420674353838
8192.0,0.0006572220008820295
end
