version,3.0
numOfCh,1
type,point
parent_name,fe81d_0dot08-1dot0
ch_type,1_1
kcount,1
numberNandB,1
brightnessNandB,1
carpet pos,0
pc,0
Time (ms),CH1 Auto-Correlation
1.0,0.023109763860702515
2.0,0.022923244163393974
3.0,0.02274698205292225
4.0,0.022577371448278427
5.0,0.022412417456507683
6.0,0.022245846688747406
7.0,0.02207653596997261
8.0,0.021905628964304924
9.0,0.02173973061144352
10.0,0.021573832258582115
11.0,0.02140887640416622
12.0,0.021247979253530502
13.0,0.02108559012413025
14.0,0.020927369594573975
15.0,0.020770596340298653
16.0,0.020615020766854286
18.0,0.020320504903793335
20.0,0.020029904320836067
22.0,0.01973455213010311
24.0,0.01943402737379074
26.0,0.019134026020765305
28.0,0.018844278529286385
30.0,0.01856658048927784
32.0,0.01828937791287899
36.0,0.017763236537575722
40.0,0.017267590388655663
44.0,0.016786610707640648
48.0,0.016340406611561775
52.0,0.01590900681912899
56.0,0.015470150858163834
60.0,0.015040954574942589
64.0,0.014641674235463142
72.0,0.013992509804666042
80.0,0.013382955454289913
88.0,0.012802235782146454
96.0,0.012302371673285961
104.0,0.011850729584693909
112.0,0.011402825824916363
120.0,0.010963630862534046
128.0,0.010503232479095459
144.0,0.00969668012112379
160.0,0.008838352747261524
176.0,0.0080162538215518
192.0,0.007491613272577524
208.0,0.00707921152934432
224.0,0.00663192942738533
240.0,0.006168886087834835
256.0,0.005723181180655956
288.0,0.005118613131344318
320.0,0.00485750799998641
352.0,0.004900573752820492
384.0,0.005263093858957291
416.0,0.005534499883651733
448.0,0.005341008771210909
480.0,0.0046318285167217255
512.0,0.0033438396640121937
576.0,0.0015446683391928673
640.0,0.000678026641253382
704.0,0.00012344756396487355
768.0,-0.0003107124357484281
832.0,-5.5397900723619387e-05
896.0,-0.00024242608924396336
960.0,-0.000487314275233075
1024.0,-0.0006477975402958691
1152.0,0.001037737587466836
1280.0,0.0008455606293864548
1408.0,0.0004528230056166649
1536.0,-0.0006654987810179591
1664.0,-0.0010369407245889306
1792.0,-0.0012191658606752753
1920.0,-0.0022716312669217587
2048.0,-0.0026112222112715244
2304.0,0.0005288597894832492
2560.0,0.002535061212256551
2816.0,0.004888744093477726
3072.0,0.0017909336602315307
3328.0,0.0019526160322129726
3584.0,-0.001994416117668152
3840.0,-0.0003640946524683386
4096.0,-0.00378014356829226
4608.0,-0.003971125930547714
5120.0,-0.002158173592761159
5632.0,-0.001144744805060327
6144.0,0.0018983149202540517
6656.0,0.00024061018484644592
7168.0,-0.0010258496040478349
7680.0,-0.002662837039679289
8192.0,-0.0037617424968630075
end
