version,3.0
numOfCh,1
type,point
parent_name,fe81d_0dot08-1dot0
ch_type,1_1
kcount,1
numberNandB,1
brightnessNandB,1
carpet pos,0
pc,0
Time (ms),CH1 Auto-Correlation
1.0,0.021321112290024757
2.0,0.021115856245160103
3.0,0.020915336906909943
4.0,0.020731493830680847
5.0,0.020541878417134285
6.0,0.0203581340610981
7.0,0.02017500065267086
8.0,0.01999850571155548
9.0,0.01982610858976841
10.0,0.01965557597577572
11.0,0.019484084099531174
12.0,0.01931876130402088
13.0,0.019148439168930054
14.0,0.018981745466589928
15.0,0.01880611479282379
16.0,0.018635811284184456
18.0,0.018306763842701912
20.0,0.017988290637731552
22.0,0.01769435964524746
24.0,0.01740751415491104
26.0,0.017124855890870094
28.0,0.016856972128152847
30.0,0.01658638007938862
32.0,0.016324801370501518
36.0,0.015858501195907593
40.0,0.015423575416207314
44.0,0.014991196803748608
48.0,0.014569523744285107
52.0,0.014174855314195156
56.0,0.01383899338543415
60.0,0.013528295792639256
64.0,0.01322715450078249
72.0,0.012689787894487381
80.0,0.012219944037497044
88.0,0.01175787765532732
96.0,0.01129056978970766
104.0,0.010965344496071339
112.0,0.010701247490942478
120.0,0.010392989963293076
128.0,0.009993370622396469
144.0,0.009124538861215115
160.0,0.008352466858923435
176.0,0.007689821068197489
192.0,0.007257670629769564
208.0,0.006939493119716644
224.0,0.006459314376115799
240.0,0.005832660477608442
256.0,0.005158483982086182
288.0,0.004115640185773373
320.0,0.003188096219673753
352.0,0.0026139486581087112
384.0,0.0020519858226180077
416.0,0.0011131844948977232
448.0,0.00019220603280700743
480.0,-0.00018117038416676223
512.0,-0.00022204266861081123
576.0,-0.00014182488666847348
640.0,-3.684277180582285e-05
704.0,-0.0009901033481583
768.0,-0.0013751820661127567
832.0,-0.0011192357633262873
896.0,-0.0007876181625761092
960.0,-0.000303732231259346
1024.0,8.081905207291129e-07
1152.0,-0.00014740187907591462
1280.0,-0.0003513084666337818
1408.0,-0.0005003197584301233
1536.0,-0.0011184723116457462
1664.0,-0.002211871789768338
1792.0,-0.002788115991279483
1920.0,-0.002504124538972974
2048.0,-0.0012746243737637997
2304.0,-0.001631554332561791
2560.0,2.3594449885422364e-05
2816.0,0.0016245965380221605
3072.0,0.0031759138219058514
3328.0,0.002341649029403925
3584.0,0.002378033706918359
3840.0,0.000543978763744235
4096.0,-0.0003000271099153906
4608.0,-0.003579304553568363
5120.0,-0.0033660721965134144
5632.0,8.795224857749417e-05
6144.0,-0.000382748810807243
6656.0,0.0011338136391714215
7168.0,0.001754063880071044
7680.0,-0.0012730670860037208
8192.0,-0.0030393721535801888
end
