version,3.0
numOfCh,1
type,point
parent_name,fe81d_0dot08-1dot0
ch_type,1_1
kcount,1
numberNandB,1
brightnessNandB,1
carpet pos,0
pc,0
Time (ms),CH1 Auto-Correlation
1.0,0.01831059530377388
2.0,0.018092375248670578
3.0,0.017892709001898766
4.0,0.01770045980811119
5.0,0.017514657229185104
6.0,0.01733396202325821
7.0,0.017160680145025253
8.0,0.016985716298222542
9.0,0.016809653490781784
10.0,0.016638828441500664
11.0,0.01647062785923481
12.0,0.016298770904541016
13.0,0.016128500923514366
14.0,0.015959132462739944
15.0,0.01579532027244568
16.0,0.01563742756843567
18.0,0.015316505916416645
20.0,0.01501090545207262
22.0,0.014711668714880943
24.0,0.014423958025872707
26.0,0.014143140986561775
28.0,0.013886399567127228
30.0,0.013639065437018871
32.0,0.013397978618741035
36.0,0.012950051575899124
40.0,0.012525191530585289
44.0,0.012104536406695843
48.0,0.011702431365847588
52.0,0.011368809267878532
56.0,0.011100339703261852
60.0,0.010840469971299171
64.0,0.010586777701973915
72.0,0.010121205821633339
80.0,0.009678816422820091
88.0,0.009274457581341267
96.0,0.008886764757335186
104.0,0.008449065499007702
112.0,0.008000976406037807
120.0,0.007623204495757818
128.0,0.007342103868722916
144.0,0.006894701160490513
160.0,0.006397952325642109
176.0,0.005914679728448391
192.0,0.0056440881453454494
208.0,0.005337847396731377
224.0,0.004980660043656826
240.0,0.0045756069011986256
256.0,0.004341821651905775
288.0,0.004096762742847204
320.0,0.00356448907405138
352.0,0.00274482904933393
384.0,0.0020683298353105783
416.0,0.0018760905368253589
448.0,0.00158050493337214
480.0,0.0011311931302770972
512.0,0.0013008355163037777
576.0,0.001963808201253414
640.0,0.003104787552729249
704.0,0.0028316997922956944
768.0,0.002016873564571142
832.0,0.0010916651226580143
896.0,0.00019358644203748554
960.0,0.00020869189756922424
1024.0,-0.0008486356819048524
1152.0,-0.0007326921913772821
1280.0,8.940206316765398e-05
1408.0,-0.0009725120035000145
1536.0,-0.0019644484855234623
1664.0,-0.0018942164024338126
1792.0,-0.0010625598952174187
1920.0,0.0008516296511515975
2048.0,0.001778849633410573
2304.0,-0.0017407482955604792
2560.0,-0.0016031758859753609
2816.0,-0.0010839051101356745
3072.0,-0.005278260912746191
3328.0,-0.003891460131853819
3584.0,-0.003458799095824361
3840.0,-0.0027398543898016214
4096.0,0.0003408105403650552
4608.0,0.000560342101380229
5120.0,0.0016940375789999962
5632.0,0.0014526534359902143
6144.0,0.0010779401054605842
6656.0,0.003032062901183963
7168.0,0.0026008898857980967
7680.0,0.0004564896516967565
8192.0,-0.0017749983817338943
end
