version,3.0
numOfCh,1
type,point
parent_name,fe81d_0dot08-1dot0
ch_type,1_1
kcount,1
numberNandB,1
brightnessNandB,1
carpet pos,0
pc,0
Time (ms),CH1 Auto-Correlation
1.0,0.022195788100361824
2.0,0.021997716277837753
3.0,0.02181176096200943
4.0,0.02163473516702652
5.0,0.02146213687956333
6.0,0.02129889652132988
7.0,0.021135851740837097
8.0,0.020981352776288986
9.0,0.02082660421729088
10.0,0.02067878469824791
11.0,0.020532870665192604
12.0,0.020390599966049194
13.0,0.02024933323264122
14.0,0.020108025521039963
15.0,0.019969454035162926
16.0,0.01982857845723629
18.0,0.01954178884625435
20.0,0.0192720890045166
22.0,0.019019916653633118
24.0,0.01877705194056034
26.0,0.018530139699578285
28.0,0.018284736201167107
30.0,0.018042150884866714
32.0,0.01779467798769474
36.0,0.01733778975903988
40.0,0.01690318062901497
44.0,0.01646323688328266
48.0,0.016040129587054253
52.0,0.015627017244696617
56.0,0.015218215063214302
60.0,0.01483725942671299
64.0,0.014455907046794891
72.0,0.013764744624495506
80.0,0.01309982780367136
88.0,0.012454960495233536
96.0,0.011843682266771793
104.0,0.011270949617028236
112.0,0.010736525990068913
120.0,0.010183368809521198
128.0,0.009693142957985401
144.0,0.00898896437138319
160.0,0.00820913165807724
176.0,0.0074395062401890755
192.0,0.006961229257285595
208.0,0.006768331862986088
224.0,0.006679935846477747
240.0,0.006625318434089422
256.0,0.006657083984464407
288.0,0.006517726927995682
320.0,0.006068041548132896
352.0,0.005426754243671894
384.0,0.005005889572203159
416.0,0.0044880821369588375
448.0,0.003564519574865699
480.0,0.0026305303908884525
512.0,0.002177189104259014
576.0,0.0023469163570553064
640.0,0.00243621738627553
704.0,0.0013866594526916742
768.0,-0.0004162158875260502
832.0,-0.002083675703033805
896.0,-0.0023416299372911453
960.0,-0.002113749971613288
1024.0,-0.0017228961223736405
1152.0,-4.730206637759693e-05
1280.0,0.0015167476376518607
1408.0,0.0015633751172572374
1536.0,0.0019721821881830692
1664.0,0.0030354370828717947
1792.0,0.0037479267921298742
1920.0,0.0037081295158714056
2048.0,0.004370115231722593
2304.0,0.0019036702578887343
2560.0,-0.0008454360067844391
2816.0,-0.0010515886824578047
3072.0,-0.0010836266446858644
3328.0,0.00048488524043932557
3584.0,0.0015178510220721364
3840.0,8.407406130572781e-05
4096.0,-0.0015441604191437364
4608.0,-0.0022167146671563387
5120.0,0.0002935973461717367
5632.0,-0.0018422513967379928
6144.0,-0.004464448429644108
6656.0,-0.0037970782723277807
7168.0,-0.0035666273906826973
7680.0,-0.003568920074030757
8192.0,-0.003007279708981514
end
