version,3.0
numOfCh,1
type,point
parent_name,fe81d_0dot08-1dot0
ch_type,1_1
kcount,1
numberNandB,1
brightnessNandB,1
carpet pos,0
pc,0
Time (ms),CH1 Auto-Correlation
1.0,0.021159641444683075
2.0,0.020970754325389862
3.0,0.020782876759767532
4.0,0.020599015057086945
5.0,0.020420337095856667
6.0,0.020248249173164368
7.0,0.020073674619197845
8.0,0.019900299608707428
9.0,0.019733976572752
10.0,0.019569100812077522
11.0,0.019411437213420868
12.0,0.01925470121204853
13.0,0.019103053957223892
14.0,0.0189503263682127
15.0,0.0187905915081501
16.0,0.01863451860845089
18.0,0.018344715237617493
20.0,0.01807248592376709
22.0,0.017811637371778488
24.0,0.017564749345183372
26.0,0.017328893765807152
28.0,0.0170900858938694
30.0,0.016863316297531128
32.0,0.016634536907076836
36.0,0.016167277470231056
40.0,0.01568949967622757
44.0,0.015238195657730103
48.0,0.014811579138040543
52.0,0.01439660508185625
56.0,0.013997513800859451
60.0,0.013589086011052132
64.0,0.013169008307158947
72.0,0.012444637715816498
80.0,0.011792491190135479
88.0,0.011239539831876755
96.0,0.010803323239088058
104.0,0.01040981337428093
112.0,0.010018760338425636
120.0,0.009665774181485176
128.0,0.009410742670297623
144.0,0.008844533003866673
160.0,0.00840385165065527
176.0,0.00820313673466444
192.0,0.007780659943819046
208.0,0.007176064886152744
224.0,0.006548512261360884
240.0,0.005969645455479622
256.0,0.005358923692256212
288.0,0.004309298470616341
320.0,0.003398319473490119
352.0,0.0028310581110417843
384.0,0.002850038930773735
416.0,0.002954635303467512
448.0,0.002857343526557088
480.0,0.0030743328388780355
512.0,0.002936080563813448
576.0,0.00239812140353024
640.0,0.0029746980872005224
704.0,0.0034895124845206738
768.0,0.0035134218633174896
832.0,0.0037459966260939837
896.0,0.0034881127066910267
960.0,0.0024012732319533825
1024.0,0.0024159704335033894
1152.0,0.0015638117911294103
1280.0,0.0018801395781338215
1408.0,0.0014635756378993392
1536.0,0.0017911508912220597
1664.0,0.0008000239031389356
1792.0,-0.0002883560082409531
1920.0,-0.0019761251751333475
2048.0,-0.0035790407564491034
2304.0,-0.004514473490417004
2560.0,-0.0009528582450002432
2816.0,0.0012570139952003956
3072.0,-0.0010981481755152345
3328.0,-0.0016130672302097082
3584.0,0.0007682142895646393
3840.0,0.0002707770327106118
4096.0,0.0017099672695621848
4608.0,1.042506755766226e-05
5120.0,-0.0010800333693623543
5632.0,0.00016601762035861611
6144.0,-0.004079535603523254
6656.0,-0.005004903767257929
7168.0,-0.0020939456298947334
7680.0,-0.0037145884707570076
8192.0,-0.002698562340810895
end
