version,3.0
numOfCh,1
type,point
parent_name,fe81d_0dot08-1dot0
ch_type,1_1
kcount,1
numberNandB,1
brightnessNandB,1
carpet pos,0
pc,0
Time (ms),CH1 Auto-Correlation
1.0,0.029007554054260254
2.0,0.028796475380659103
3.0,0.0285967867821455
4.0,0.028399700298905373
5.0,0.028206247836351395
6.0,0.028023604303598404
7.0,0.027840476483106613
8.0,0.02765711396932602
9.0,0.027474718168377876
10.0,0.0272965244948864
11.0,0.0271162036806345
12.0,0.026939865201711655
13.0,0.026762844994664192
14.0,0.02659635618329048
15.0,0.026432519778609276
16.0,0.02626936137676239
18.0,0.025939730927348137
20.0,0.02563180774450302
22.0,0.025331035256385803
24.0,0.025045981630682945
26.0,0.024770228192210197
28.0,0.024492774158716202
30.0,0.024215325713157654
32.0,0.023955481126904488
36.0,0.023425061255693436
40.0,0.02290722355246544
44.0,0.022412650287151337
48.0,0.021939795464277267
52.0,0.021454576402902603
56.0,0.020981693640351295
60.0,0.020519953221082687
64.0,0.020097460597753525
72.0,0.01931767165660858
80.0,0.01859261654317379
88.0,0.01791808195412159
96.0,0.017300162464380264
104.0,0.01667327620089054
112.0,0.016055148094892502
120.0,0.015458891168236732
128.0,0.01489891204982996
144.0,0.013856966979801655
160.0,0.012806851416826248
176.0,0.011931709945201874
192.0,0.01111507136374712
208.0,0.01035032607614994
224.0,0.00964698102325201
240.0,0.008929533883929253
256.0,0.00832272693514824
288.0,0.007180556654930115
320.0,0.006762038450688124
352.0,0.006720667704939842
384.0,0.006442961283028126
416.0,0.006243221461772919
448.0,0.00568061089143157
480.0,0.005489578004926443
512.0,0.005050764884799719
576.0,0.004414034076035023
640.0,0.004233104642480612
704.0,0.0031467655207961798
768.0,0.0017399296630173922
832.0,0.00015426977188326418
896.0,2.2993945094640367e-05
960.0,0.000957176205702126
1024.0,0.0012326843570917845
1152.0,0.0008208934450522065
1280.0,0.0018232442671433091
1408.0,0.0025302378926426172
1536.0,0.0004655352095142007
1664.0,-0.0008685285574756563
1792.0,-0.0010864281794056296
1920.0,-0.0004920312203466892
2048.0,0.00017165903409477323
2304.0,0.0020568331237882376
2560.0,0.0004676000971812755
2816.0,-0.0013958822237327695
3072.0,-0.002721227705478668
3328.0,-0.004902059677988291
3584.0,-0.0032716665882617235
3840.0,-0.0017407384002581239
4096.0,-0.0030671260319650173
4608.0,-0.0009683481766842306
5120.0,0.00190899264998734
5632.0,0.00012501596938818693
6144.0,0.0053102863021194935
6656.0,0.003587818704545498
7168.0,0.0022227747831493616
7680.0,-0.0011751572601497173
8192.0,-0.00434507429599762
end
