version,3.0
numOfCh,1
type,point
parent_name,fe81d_0dot08-1dot0
ch_type,1_1
kcount,1
numberNandB,1
brightnessNandB,1
carpet pos,0
pc,0
Time (ms),CH1 Auto-Correlation
1.0,0.02339800074696541
2.0,0.023182159289717674
3.0,0.02297908626496792
4.0,0.022773003205657005
5.0,0.022574568167328835
6.0,0.02238379791378975
7.0,0.02219085767865181
8.0,0.0220011156052351
9.0,0.021816566586494446
10.0,0.021632906049489975
11.0,0.021460965275764465
12.0,0.021294958889484406
13.0,0.021135300397872925
14.0,0.020981358364224434
15.0,0.02083427831530571
16.0,0.020690931007266045
18.0,0.020401673391461372
20.0,0.02012724243104458
22.0,0.01986010931432247
24.0,0.01959710568189621
26.0,0.019347067922353745
28.0,0.019112100824713707
30.0,0.018874891102313995
32.0,0.018642844632267952
36.0,0.01820051670074463
40.0,0.017769386991858482
44.0,0.017365815117955208
48.0,0.01700737327337265
52.0,0.016684507951140404
56.0,0.016380833461880684
60.0,0.016076698899269104
64.0,0.015797317028045654
72.0,0.015268364921212196
80.0,0.014784893952310085
88.0,0.014333531260490417
96.0,0.013936342671513557
104.0,0.013597770594060421
112.0,0.013267193920910358
120.0,0.0129045145586133
128.0,0.012560289353132248
144.0,0.011903420090675354
160.0,0.011330842971801758
176.0,0.010860799811780453
192.0,0.010564702562987804
208.0,0.010399848222732544
224.0,0.010194081813097
240.0,0.01000737864524126
256.0,0.009749066084623337
288.0,0.009128082543611526
320.0,0.008340110071003437
352.0,0.007873066700994968
384.0,0.007328566629439592
416.0,0.006656355690211058
448.0,0.005954842548817396
480.0,0.005530670750886202
512.0,0.005130152218043804
576.0,0.0041560400277376175
640.0,0.004126309882849455
704.0,0.004720739088952541
768.0,0.004495757631957531
832.0,0.004323189612478018
896.0,0.004362361039966345
960.0,0.004020349588245153
1024.0,0.00354073871858418
1152.0,0.0013659627875313163
1280.0,-0.00016803547623567283
1408.0,-0.0017384984530508518
1536.0,-0.0045780097134411335
1664.0,-0.00530271977186203
1792.0,-0.00390273192897439
1920.0,-0.0034322759602218866
2048.0,-0.0026766303926706314
2304.0,-0.0021463276352733374
2560.0,-0.0029516902286559343
2816.0,-0.003110244870185852
3072.0,-0.0019703726284205914
3328.0,-0.001024266006425023
3584.0,-0.0023999458644539118
3840.0,-0.003004699945449829
4096.0,-0.0008388051646761596
4608.0,1.513727693236433e-05
5120.0,-0.0012508833315223455
5632.0,-0.002444927114993334
6144.0,-0.0014514621580019593
6656.0,0.0025143250823020935
7168.0,0.004916390869766474
7680.0,0.0024260764475911856
8192.0,-0.003425583243370056
end
