version,3.0
numOfCh,1
type,point
parent_name,fe81d_0dot08-1dot0
ch_type,1_1
kcount,1
numberNandB,1
brightnessNandB,1
carpet pos,0
pc,0
Time (ms),CH1 Auto-Correlation
1.0,0.022031361237168312
2.0,0.021832942962646484
3.0,0.02164062112569809
4.0,0.021453173831105232
5.0,0.021271495148539543
6.0,0.021084338426589966
7.0,0.020903369411826134
8.0,0.020727001130580902
9.0,0.020553939044475555
10.0,0.020384231582283974
11.0,0.02021699957549572
12.0,0.02004857175052166
13.0,0.019885867834091187
14.0,0.019719725474715233
15.0,0.01956462487578392
16.0,0.01941118948161602
18.0,0.01910559833049774
20.0,0.018794264644384384
22.0,0.018494192510843277
24.0,0.0182090625166893
26.0,0.017925545573234558
28.0,0.017638497054576874
30.0,0.01735744997859001
32.0,0.017095986753702164
36.0,0.01661277376115322
40.0,0.016138046979904175
44.0,0.01565946638584137
48.0,0.015217442065477371
52.0,0.014802641235291958
56.0,0.014401757158339024
60.0,0.014037360437214375
64.0,0.01367960311472416
72.0,0.01298096776008606
80.0,0.01231900230050087
88.0,0.011743866838514805
96.0,0.011249897070229053
104.0,0.010812832042574883
112.0,0.010462676174938679
120.0,0.010115920566022396
128.0,0.00975846592336893
144.0,0.009060032665729523
160.0,0.008477424271404743
176.0,0.008116106502711773
192.0,0.007790439296513796
208.0,0.007473274599760771
224.0,0.007433863822370768
240.0,0.007481805048882961
256.0,0.007472975179553032
288.0,0.007393629755824804
320.0,0.0069047836586833
352.0,0.006079849321395159
384.0,0.004971300717443228
416.0,0.003815618809312582
448.0,0.0029860190115869045
480.0,0.0026246155612170696
512.0,0.002488363767042756
576.0,0.002453459892421961
640.0,0.0016628706362098455
704.0,0.001387204509228468
768.0,0.0018938536522909999
832.0,0.002962813712656498
896.0,0.003566501894965768
960.0,0.003370915073901415
1024.0,0.0026554418727755547
1152.0,0.0018724639667198062
1280.0,0.001502509694546461
1408.0,0.0015448919730260968
1536.0,5.511557901627384e-05
1664.0,-0.00025095976889133453
1792.0,0.00020114197104703635
1920.0,-0.001006219070404768
2048.0,-0.000594594341237098
2304.0,-0.00215890328399837
2560.0,-0.001895779394544661
2816.0,0.0011547631584107876
3072.0,0.0026718771550804377
3328.0,0.002229464240372181
3584.0,0.00035235227551311255
3840.0,0.0008866792777553201
4096.0,0.0016373541438952088
4608.0,0.00042742802179418504
5120.0,-0.0017193363746628165
5632.0,-0.0039008844178169966
6144.0,-0.0010911599965766072
6656.0,-0.00269715185277164
7168.0,0.0015154436696320772
7680.0,-3.80157507606782e-05
8192.0,-0.0031181257218122482
end
