version,3.0
numOfCh,1
type,point
parent_name,fe81d_0dot08-1dot0
ch_type,1_1
kcount,1
numberNandB,1
brightnessNandB,1
carpet pos,0
pc,0
Time (ms),CH1 Auto-Correlation
1.0,0.024883029982447624
2.0,0.024689435958862305
3.0,0.024504970759153366
4.0,0.02432851307094097
5.0,0.02414943091571331
6.0,0.02397201769053936
7.0,0.023795990273356438
8.0,0.02361886575818062
9.0,0.023444846272468567
10.0,0.023285791277885437
11.0,0.023129135370254517
12.0,0.02297080121934414
13.0,0.022815609350800514
14.0,0.02266608737409115
15.0,0.022520761936903
16.0,0.022373316809535027
18.0,0.022076526656746864
20.0,0.021787023171782494
22.0,0.02151055447757244
24.0,0.021231597289443016
26.0,0.02096233144402504
28.0,0.020702192559838295
30.0,0.020443901419639587
32.0,0.02020358107984066
36.0,0.019739415496587753
40.0,0.019307762384414673
44.0,0.018879519775509834
48.0,0.018449611961841583
52.0,0.01804206520318985
56.0,0.017682839184999466
60.0,0.01740158349275589
64.0,0.01714947447180748
72.0,0.016622358933091164
80.0,0.016065416857600212
88.0,0.015576425939798355
96.0,0.01513326819986105
104.0,0.014780058525502682
112.0,0.014389410614967346
120.0,0.013944155536592007
128.0,0.013517600484192371
144.0,0.012553377076983452
160.0,0.011763553135097027
176.0,0.011191565543413162
192.0,0.010680373758077621
208.0,0.010190713219344616
224.0,0.00964768510311842
240.0,0.009084807708859444
256.0,0.008604666218161583
288.0,0.008118138648569584
320.0,0.007621639873832464
352.0,0.007068074308335781
384.0,0.007079762406647205
416.0,0.007613898254930973
448.0,0.007806672248989344
480.0,0.007656665984541178
512.0,0.007275347597897053
576.0,0.0055761877447366714
640.0,0.003950499463826418
704.0,0.0033372617326676846
768.0,0.003598571987822652
832.0,0.004051105119287968
896.0,0.003866543062031269
960.0,0.0038249690551310778
1024.0,0.003561110468581319
1152.0,0.0030033511575311422
1280.0,0.002870666328817606
1408.0,0.0026197691913694143
1536.0,0.0024884745944291353
1664.0,0.0032005272805690765
1792.0,0.0029787651728838682
1920.0,0.002291053766384721
2048.0,0.0013328981585800648
2304.0,0.00108799256850034
2560.0,0.0011278827441856265
2816.0,0.002405336359515786
3072.0,0.0030467400792986155
3328.0,0.004512502811849117
3584.0,0.004765138495713472
3840.0,0.0035252885427325964
4096.0,0.0012516904389485717
4608.0,0.0005394824547693133
5120.0,0.002806340344250202
5632.0,0.0011352100409567356
6144.0,0.0008030402823351324
6656.0,-0.00024379453680012375
7168.0,-0.005098509136587381
7680.0,-0.0046302033588290215
8192.0,-0.0018106948118656874
end
