version,3.0
numOfCh,1
type,point
parent_name,fe81d_0dot08-1dot0
ch_type,1_1
kcount,1
numberNandB,1
brightnessNandB,1
carpet pos,0
pc,0
Time (ms),CH1 Auto-Correlation
1.0,0.02003590390086174
2.0,0.019843814894557
3.0,0.01966344378888607
4.0,0.01949070766568184
5.0,0.019328339025378227
6.0,0.01916576735675335
7.0,0.01900714449584484
8.0,0.01885131001472473
9.0,0.018698714673519135
10.0,0.018552294000983238
11.0,0.018411146476864815
12.0,0.01827501319348812
13.0,0.018137924373149872
14.0,0.018007002770900726
15.0,0.01787787303328514
16.0,0.017747098580002785
18.0,0.017483297735452652
20.0,0.017211714759469032
22.0,0.01695857383310795
24.0,0.0167209655046463
26.0,0.01647740602493286
28.0,0.01623343862593174
30.0,0.015996495261788368
32.0,0.015762172639369965
36.0,0.015278281643986702
40.0,0.014808747917413712
44.0,0.014371590688824654
48.0,0.013951566070318222
52.0,0.013553611934185028
56.0,0.013195461593568325
60.0,0.012866313569247723
64.0,0.01251964084804058
72.0,0.011864290572702885
80.0,0.01120423898100853
88.0,0.010585981421172619
96.0,0.00995754823088646
104.0,0.009390922263264656
112.0,0.008880732581019402
120.0,0.008439198136329651
128.0,0.007980736903846264
144.0,0.0071490053087472916
160.0,0.006389073096215725
176.0,0.005785008426755667
192.0,0.005315045826137066
208.0,0.004907676950097084
224.0,0.004551609046757221
240.0,0.004267932381480932
256.0,0.004102849867194891
288.0,0.0039037626702338457
320.0,0.0035114188212901354
352.0,0.003183986758813262
384.0,0.002804283518344164
416.0,0.0020080541726201773
448.0,0.0014551724307239056
480.0,0.0010596972424536943
512.0,0.0006514853448607028
576.0,0.0010398002341389656
640.0,0.0014617969281971455
704.0,0.0022628947626799345
768.0,0.0034238905645906925
832.0,0.003709369106218219
896.0,0.0027325719129294157
960.0,0.0022664996795356274
1024.0,0.001237558200955391
1152.0,0.0016458090394735336
1280.0,0.0009233445744030178
1408.0,0.0003857411502394825
1536.0,0.0016864447388797998
1664.0,0.0017870760057121515
1792.0,0.001301455544307828
1920.0,0.0010548249119892716
2048.0,-5.794435492134653e-05
2304.0,0.001149432035163045
2560.0,0.003021779702976346
2816.0,0.0021351452451199293
3072.0,0.0015873394440859556
3328.0,0.0009939507581293583
3584.0,0.00102028448600322
3840.0,0.0016891749110072851
4096.0,0.0007857255986891687
4608.0,-0.0004470069252420217
5120.0,-0.00036032250500284135
5632.0,-0.0017720246687531471
6144.0,-0.0008684596396051347
6656.0,0.00046426276094280183
7168.0,0.001424620859324932
7680.0,0.00014825782272964716
8192.0,-0.001002154778689146
end
