version,3.0
numOfCh,1
type,point
parent_name,fe81d_0dot08-1dot0
ch_type,1_1
kcount,1
numberNandB,1
brightnessNandB,1
carpet pos,0
pc,0
Time (ms),CH1 Auto-Correlation
1.0,0.0263498667627573
2.0,0.026134159415960312
3.0,0.025926044210791588
4.0,0.025720173493027687
5.0,0.025534238666296005
6.0,0.025348687544465065
7.0,0.025175372138619423
8.0,0.024999678134918213
9.0,0.02482159622013569
10.0,0.0246545672416687
11.0,0.024486254900693893
12.0,0.024323200806975365
13.0,0.024163251742720604
14.0,0.023997709155082703
15.0,0.023841693997383118
16.0,0.023692898452281952
18.0,0.02340536005795002
20.0,0.023120291531085968
22.0,0.02283896692097187
24.0,0.022580359131097794
26.0,0.022338228300213814
28.0,0.022091908380389214
30.0,0.021851640194654465
32.0,0.0216055978089571
36.0,0.021118896082043648
40.0,0.020652158185839653
44.0,0.02022358775138855
48.0,0.019791843369603157
52.0,0.019364122301340103
56.0,0.018952947109937668
60.0,0.01854005455970764
64.0,0.01813870295882225
72.0,0.01737404428422451
80.0,0.016664642840623856
88.0,0.016028665006160736
96.0,0.01545487716794014
104.0,0.01494891382753849
112.0,0.014447880908846855
120.0,0.01395194511860609
128.0,0.013497011736035347
144.0,0.012820886448025703
160.0,0.012128187343478203
176.0,0.011468188837170601
192.0,0.01097780279815197
208.0,0.010690849274396896
224.0,0.01037715096026659
240.0,0.009978984482586384
256.0,0.009604144841432571
288.0,0.008564990945160389
320.0,0.007714552339166403
352.0,0.007019387558102608
384.0,0.006168060470372438
416.0,0.004990278743207455
448.0,0.004161502234637737
480.0,0.003549366258084774
512.0,0.0033029259648174047
576.0,0.0022226981818675995
640.0,0.0009730531019158661
704.0,0.0002837848151102662
768.0,-0.00013561185915023088
832.0,-0.0004154844209551811
896.0,-0.0009618628537282348
960.0,-0.0013991545420140028
1024.0,-0.0006477953866124153
1152.0,0.00048642067122273147
1280.0,-0.0017256513237953186
1408.0,-0.0018179852049797773
1536.0,-0.001332713756710291
1664.0,-0.0008007441065274179
1792.0,-0.0005976399988867342
1920.0,-0.0015832337085157633
2048.0,-0.0013700160197913647
2304.0,-0.0003477674617897719
2560.0,-0.0012183819198980927
2816.0,-0.001432037097401917
3072.0,-0.0008108561742119491
3328.0,0.002335998695343733
3584.0,0.0005238701123744249
3840.0,0.0016517305048182607
4096.0,0.003479911480098963
4608.0,-0.0009922862518578768
5120.0,-0.0014401735970750451
5632.0,0.0005727764219045639
6144.0,-0.001549281645566225
6656.0,-0.0021078248973935843
7168.0,0.00116746686398983
7680.0,0.00021857625688426197
8192.0,-0.001573591842316091
end
