version,3.0
numOfCh,1
type,point
parent_name,fe81d_0dot08-1dot0
ch_type,1_1
kcount,1
numberNandB,1
brightnessNandB,1
carpet pos,0
pc,0
Time (ms),CH1 Auto-Correlation
1.0,0.027619944885373116
2.0,0.027412524446845055
3.0,0.027217814698815346
4.0,0.027038997039198875
5.0,0.026862697675824165
6.0,0.02669508196413517
7.0,0.0265266764909029
8.0,0.026356684044003487
9.0,0.026190245524048805
10.0,0.02601424604654312
11.0,0.025847990065813065
12.0,0.025683490559458733
13.0,0.025525080040097237
14.0,0.02536688931286335
15.0,0.025212569162249565
16.0,0.025054577738046646
18.0,0.02474069781601429
20.0,0.024431677535176277
22.0,0.024108052253723145
24.0,0.02376808226108551
26.0,0.023428669199347496
28.0,0.02310049720108509
30.0,0.02278534136712551
32.0,0.022468741983175278
36.0,0.021866463124752045
40.0,0.021301675587892532
44.0,0.02077503502368927
48.0,0.020248902961611748
52.0,0.019762622192502022
56.0,0.019306961447000504
60.0,0.018879417330026627
64.0,0.018462926149368286
72.0,0.01759321428835392
80.0,0.016738399863243103
88.0,0.015922795981168747
96.0,0.015160427428781986
104.0,0.014531553722918034
112.0,0.013910766690969467
120.0,0.013256060890853405
128.0,0.012644696049392223
144.0,0.011564652435481548
160.0,0.010702266357839108
176.0,0.009879790246486664
192.0,0.009025911800563335
208.0,0.008420129306614399
224.0,0.008123159408569336
240.0,0.007921211421489716
256.0,0.007713099475950003
288.0,0.007298363838344812
320.0,0.00710237817838788
352.0,0.007155052851885557
384.0,0.007286888547241688
416.0,0.007168039213865995
448.0,0.006867474876344204
480.0,0.006403497885912657
512.0,0.00590046402066946
576.0,0.0050715310499072075
640.0,0.004077044315636158
704.0,0.0036049261689186096
768.0,0.004011176060885191
832.0,0.00457561481744051
896.0,0.004436979535967112
960.0,0.003059605835005641
1024.0,0.001678188913501799
1152.0,0.00027957663405686617
1280.0,-0.0006956945289857686
1408.0,-0.00281275506131351
1536.0,-0.0030837019439786673
1664.0,-0.0019926996901631355
1792.0,-0.0017535821534693241
1920.0,-0.0019846290815621614
2048.0,-0.0014980012783780694
2304.0,-0.0020764220971614122
2560.0,-0.0013993479078635573
2816.0,0.0017772498540580273
3072.0,0.00199695210903883
3328.0,-0.0011617467971518636
3584.0,-0.0012199346674606204
3840.0,-0.00010995841876138002
4096.0,-0.0019721556454896927
4608.0,-9.752302139531821e-05
5120.0,-0.0028413988184183836
5632.0,-0.005888191517442465
6144.0,-0.00544956186786294
6656.0,-0.005556924734264612
7168.0,-0.004324253648519516
7680.0,9.973270789487287e-05
8192.0,0.0005382466479204595
end
