version,3.0
numOfCh,1
type,point
parent_name,fe81d_0dot08-1dot0
ch_type,1_1
kcount,1
numberNandB,1
brightnessNandB,1
carpet pos,0
pc,0
Time (ms),CH1 Auto-Correlation
1.0,0.031153526157140732
2.0,0.03095347434282303
3.0,0.030759258195757866
4.0,0.030564719811081886
5.0,0.03037225268781185
6.0,0.030192004516720772
7.0,0.030018342658877373
8.0,0.029845470562577248
9.0,0.029672730714082718
10.0,0.029498141258955002
11.0,0.029331285506486893
12.0,0.029164494946599007
13.0,0.029001453891396523
14.0,0.0288366861641407
15.0,0.028674690052866936
16.0,0.028516126796603203
18.0,0.028217272832989693
20.0,0.02792208641767502
22.0,0.02763283997774124
24.0,0.027349554002285004
26.0,0.027062777429819107
28.0,0.026765916496515274
30.0,0.026491032913327217
32.0,0.026231709867715836
36.0,0.02571619674563408
40.0,0.025238730013370514
44.0,0.02476636692881584
48.0,0.024331286549568176
52.0,0.02393256314098835
56.0,0.02354932203888893
60.0,0.02320883236825466
64.0,0.022914526984095573
72.0,0.022370435297489166
80.0,0.021893106400966644
88.0,0.021377723664045334
96.0,0.020805533975362778
104.0,0.020239967852830887
112.0,0.019719218835234642
120.0,0.019280344247817993
128.0,0.01889805495738983
144.0,0.018229540437459946
160.0,0.01750149205327034
176.0,0.016578441485762596
192.0,0.015759620815515518
208.0,0.015227512456476688
224.0,0.01478048600256443
240.0,0.014367642812430859
256.0,0.013892323710024357
288.0,0.013284805230796337
320.0,0.012389504350721836
352.0,0.01187526062130928
384.0,0.011606591753661633
416.0,0.011093055829405785
448.0,0.01068117469549179
480.0,0.009519442915916443
512.0,0.008230738341808319
576.0,0.005879160016775131
640.0,0.004013512749224901
704.0,0.0027029807679355145
768.0,0.00152390671428293
832.0,0.0011603980092331767
896.0,0.0006465412443503737
960.0,-0.0004804553173016757
1024.0,-0.0015184166841208935
1152.0,-0.003228209912776947
1280.0,-0.002099082339555025
1408.0,-0.0016342365415766835
1536.0,-0.0031301449052989483
1664.0,-0.003388949204236269
1792.0,-0.0019745936151593924
1920.0,-0.0027230901177972555
2048.0,-0.003483858658000827
2304.0,-0.005095880012959242
2560.0,-0.009089954197406769
2816.0,-0.008900689892470837
3072.0,-0.006074152886867523
3328.0,-0.0021981303580105305
3584.0,0.004452880006283522
3840.0,0.007120083551853895
4096.0,0.006467294879257679
4608.0,-0.001990168821066618
5120.0,-0.0059538334608078
5632.0,0.0004898119368590415
6144.0,0.0011472870828583837
6656.0,0.0012368701864033937
7168.0,0.0039201886393129826
7680.0,0.011327248066663742
8192.0,0.003695457009598613
end
