version,3.0
numOfCh,1
type,point
parent_name,fe81d_0dot08-1dot0
ch_type,1_1
kcount,1
numberNandB,1
brightnessNandB,1
carpet pos,0
pc,0
Time (ms),CH1 Auto-Correlation
1.0,0.021007945761084557
2.0,0.02082929015159607
3.0,0.020649809390306473
4.0,0.020471585914492607
5.0,0.020295200869441032
6.0,0.02011801302433014
7.0,0.01994333788752556
8.0,0.019777173176407814
9.0,0.019613202661275864
10.0,0.01944376714527607
11.0,0.019275275990366936
12.0,0.019108181819319725
13.0,0.018950631842017174
14.0,0.018800299614667892
15.0,0.018651548773050308
16.0,0.018510930240154266
18.0,0.018226904794573784
20.0,0.017939560115337372
22.0,0.017651695758104324
24.0,0.017376918345689774
26.0,0.017118209972977638
28.0,0.01687534525990486
30.0,0.016629112884402275
32.0,0.01638156920671463
36.0,0.015890328213572502
40.0,0.015423868782818317
44.0,0.014958372339606285
48.0,0.014509285800158978
52.0,0.014087636955082417
56.0,0.013715214096009731
60.0,0.01337705459445715
64.0,0.013054560869932175
72.0,0.012434393167495728
80.0,0.011839259415864944
88.0,0.011330570094287395
96.0,0.010873858816921711
104.0,0.010441499762237072
112.0,0.010151700116693974
120.0,0.009946024976670742
128.0,0.009755768813192844
144.0,0.009423539973795414
160.0,0.009044225327670574
176.0,0.008631142787635326
192.0,0.00839054025709629
208.0,0.008048641495406628
224.0,0.007847118191421032
240.0,0.007696067448705435
256.0,0.007530967239290476
288.0,0.007529214955866337
320.0,0.007531594019383192
352.0,0.007022387348115444
384.0,0.006064101122319698
416.0,0.005054720211774111
448.0,0.004579240921884775
480.0,0.0044218446128070354
512.0,0.0038581581320613623
576.0,0.0034404073376208544
640.0,0.0033251631539314985
704.0,0.00297228223644197
768.0,0.0031348024494946003
832.0,0.0037351935170590878
896.0,0.00448541808873415
960.0,0.005117420107126236
1024.0,0.004388509318232536
1152.0,0.004518503323197365
1280.0,0.0049878498539328575
1408.0,0.004488990642130375
1536.0,0.0038525888230651617
1664.0,0.004642727319151163
1792.0,0.004940134938806295
1920.0,0.004973012488335371
2048.0,0.0036901459097862244
2304.0,0.002116800518706441
2560.0,0.0004913540906272829
2816.0,0.0009358046227134764
3072.0,0.0007463060901500285
3328.0,0.0002116925170412287
3584.0,0.0006773405475541949
3840.0,0.00014127344184089452
4096.0,-0.0010642819106578827
4608.0,-0.003486411878839135
5120.0,-0.004237563814967871
5632.0,-0.002960607409477234
6144.0,-0.0038317025173455477
6656.0,-0.0033789079170674086
7168.0,-0.0013520901557058096
7680.0,-0.0047275652177631855
8192.0,-0.004968647379428148
end
