version,3.0
numOfCh,1
type,point
parent_name,80-cuts
ch_type,1_1
kcount,1
numberNandB,1
brightnessNandB,1
carpet pos,0
pc,0
Time (ms),CH1 Auto-Correlation
1.0,0.07016810029745102
2.0,0.06929855048656464
3.0,0.06846924871206284
4.0,0.06766660511493683
5.0,0.06684896349906921
6.0,0.0660567432641983
7.0,0.06526220589876175
8.0,0.06446605920791626
9.0,0.06367957592010498
10.0,0.0628877654671669
11.0,0.062104083597660065
12.0,0.061338070780038834
13.0,0.06056180223822594
14.0,0.05979986861348152
15.0,0.05903283506631851
16.0,0.058297477662563324
18.0,0.05684775859117508
20.0,0.05542818456888199
22.0,0.054070256650447845
24.0,0.05273418501019478
26.0,0.051472604274749756
28.0,0.05022965371608734
30.0,0.04899127781391144
32.0,0.047785669565200806
36.0,0.04544549807906151
40.0,0.04320898279547691
44.0,0.041044894605875015
48.0,0.0389428474009037
52.0,0.036985304206609726
56.0,0.03526793047785759
60.0,0.03372974693775177
64.0,0.0322725884616375
72.0,0.029558390378952026
80.0,0.026867294684052467
88.0,0.02441706880927086
96.0,0.02220659889280796
104.0,0.020186418667435646
112.0,0.018332350999116898
120.0,0.016828760504722595
128.0,0.015816038474440575
144.0,0.013856603763997555
160.0,0.011103290133178234
176.0,0.009085725992918015
192.0,0.007697997614741325
208.0,0.006545462645590305
224.0,0.006129453890025616
240.0,0.005708097480237484
256.0,0.005067179910838604
288.0,0.003951231017708778
320.0,0.0024135643616318703
352.0,0.0015116671565920115
384.0,0.001875681453384459
416.0,0.00031088199466466904
448.0,-0.0025781365111470222
480.0,-0.006790458224713802
512.0,-0.008400828577578068
576.0,-0.005030542146414518
640.0,-0.0022243279963731766
704.0,-0.0041353958658874035
768.0,-0.005335955414921045
832.0,-0.006033599842339754
896.0,-0.008700634352862835
960.0,-0.003451976692304015
1024.0,0.001520886435173452
1152.0,-0.0018147603841498494
1280.0,-0.004286155570298433
1408.0,-0.0015527787618339062
1536.0,-0.007023529149591923
1664.0,-0.0026600193232297897
1792.0,0.0007627882296219468
1920.0,-0.005515674594789743
2048.0,-0.0009198833140544593
2304.0,-0.0004907111288048327
2560.0,0.005783164408057928
2816.0,0.005222274921834469
3072.0,0.0038228160701692104
3328.0,-0.00493214838206768
3584.0,-0.007351098116487265
3840.0,-0.001583731034770608
4096.0,-0.0012289787409827113
4608.0,0.0021828152239322662
5120.0,0.0014574554516002536
5632.0,-2.592379678389989e-05
6144.0,-0.003651215462014079
6656.0,-0.008766933344304562
7168.0,-0.0003109946846961975
7680.0,0.0072048259899020195
8192.0,0.003248790977522731
9216.0,-0.0029217994306236506
10240.0,0.004229155834764242
11264.0,-0.005013611633330584
12288.0,0.0017720285104587674
13312.0,0.002493328647688031
14336.0,-0.0031403289176523685
end
