version,3.0
numOfCh,1
type,point
parent_name,80-cuts
ch_type,1_1
kcount,1
numberNandB,1
brightnessNandB,1
carpet pos,0
pc,0
Time (ms),CH1 Auto-Correlation
1.0,0.09799772500991821
2.0,0.09704548120498657
3.0,0.09611374139785767
4.0,0.09518922865390778
5.0,0.09427310526371002
6.0,0.09336067736148834
7.0,0.09244602918624878
8.0,0.09155414253473282
9.0,0.09068268537521362
10.0,0.08982934057712555
11.0,0.08898445218801498
12.0,0.08815926313400269
13.0,0.08735406398773193
14.0,0.08658593147993088
15.0,0.08583761751651764
16.0,0.08508165925741196
18.0,0.08357330411672592
20.0,0.08203867077827454
22.0,0.08055540174245834
24.0,0.07913926243782043
26.0,0.07769987732172012
28.0,0.07629293948411942
30.0,0.07494969666004181
32.0,0.07360658794641495
36.0,0.07100710272789001
40.0,0.06857626140117645
44.0,0.06629595160484314
48.0,0.06402165442705154
52.0,0.06192311644554138
56.0,0.05992693826556206
60.0,0.05796464532613754
64.0,0.056045081466436386
72.0,0.052262939512729645
80.0,0.04837184026837349
88.0,0.04465785622596741
96.0,0.04176422953605652
104.0,0.03956528753042221
112.0,0.03744407743215561
120.0,0.03525339812040329
128.0,0.03321442753076553
144.0,0.029851004481315613
160.0,0.02633497677743435
176.0,0.022287841886281967
192.0,0.018592605367302895
208.0,0.014708050526678562
224.0,0.010877259075641632
240.0,0.007735766004770994
256.0,0.005069542210549116
288.0,0.0008477546507492661
320.0,-0.0004900551284663379
352.0,-0.0009056577109731734
384.0,-0.00011969555635005236
416.0,0.0011056886287406087
448.0,0.0032134922221302986
480.0,0.005500763189047575
512.0,0.006087916903197765
576.0,0.005819226149469614
640.0,0.004904500208795071
704.0,0.0018647959223017097
768.0,0.0025575757026672363
832.0,0.002800819929689169
896.0,-0.0004711843794211745
960.0,-0.0020832265727221966
1024.0,-0.0016123506939038634
1152.0,0.0036953624803572893
1280.0,0.001581833465024829
1408.0,0.0032060989178717136
1536.0,0.0007557235658168793
1664.0,-0.0006611871067434549
1792.0,-0.008566769771277905
1920.0,-0.012767554260790348
2048.0,-0.014018457382917404
2304.0,0.00388144189491868
2560.0,-0.0007130103767849505
2816.0,0.007323122583329678
3072.0,-0.0037082431372255087
3328.0,-0.004280679393559694
3584.0,-0.006821952760219574
3840.0,-0.003237012308090925
4096.0,-0.0010818996233865619
4608.0,-0.010321949608623981
5120.0,0.001129722804762423
5632.0,0.001144168432801962
6144.0,0.006376223172992468
6656.0,0.0054189120419323444
7168.0,0.002738052047789097
7680.0,0.0038513706531375647
8192.0,-0.010487895458936691
9216.0,-0.004914935678243637
10240.0,0.0006196431932039559
11264.0,-0.002919224789366126
12288.0,-0.0002566624607425183
13312.0,-0.0034936058800667524
14336.0,0.0019851590041071177
end
