version,3.0
numOfCh,1
type,point
parent_name,80-cuts
ch_type,1_1
kcount,1
numberNandB,1
brightnessNandB,1
carpet pos,0
pc,0
Time (ms),CH1 Auto-Correlation
1.0,0.08152627944946289
2.0,0.0807112380862236
3.0,0.07989554107189178
4.0,0.07908233255147934
5.0,0.07828415185213089
6.0,0.07748426496982574
7.0,0.07669240981340408
8.0,0.0759347602725029
9.0,0.0751773864030838
10.0,0.07441846281290054
11.0,0.07365555316209793
12.0,0.07293949276208878
13.0,0.07226081937551498
14.0,0.07159064710140228
15.0,0.07092785090208054
16.0,0.07028599083423615
18.0,0.069062240421772
20.0,0.0678342804312706
22.0,0.06658140569925308
24.0,0.0654301717877388
26.0,0.06427139043807983
28.0,0.06312873959541321
30.0,0.062020186334848404
32.0,0.06096141040325165
36.0,0.059011977165937424
40.0,0.05724998190999031
44.0,0.055530644953250885
48.0,0.05370456352829933
52.0,0.051861781626939774
56.0,0.05001402646303177
60.0,0.048216626048088074
64.0,0.04653150215744972
72.0,0.043541185557842255
80.0,0.04070379585027695
88.0,0.03803015500307083
96.0,0.035665757954120636
104.0,0.033541806042194366
112.0,0.03122827596962452
120.0,0.028697019442915916
128.0,0.026518244296312332
144.0,0.022566141560673714
160.0,0.018748490139842033
176.0,0.014746388420462608
192.0,0.01232023537158966
208.0,0.010786774568259716
224.0,0.009386568330228329
240.0,0.008354725316166878
256.0,0.006842193193733692
288.0,0.004531694110482931
320.0,0.0019106668187305331
352.0,0.0007829704554751515
384.0,-0.0004908926784992218
416.0,-0.0013212364865466952
448.0,-0.0027202710043638945
480.0,-0.004542829934507608
512.0,-0.005517308600246906
576.0,-0.006408134009689093
640.0,-0.002631598385050893
704.0,0.0003471160598564893
768.0,0.003415354061871767
832.0,0.005297056864947081
896.0,0.0047321324236691
960.0,0.007217904552817345
1024.0,0.005633750930428505
1152.0,-0.0031484090723097324
1280.0,-0.008173039183020592
1408.0,-0.0033568774815648794
1536.0,-0.006444613449275494
1664.0,-0.002567339688539505
1792.0,-0.0003628198755905032
1920.0,-0.009541674517095089
2048.0,-0.011302691884338856
2304.0,-0.007085868157446384
2560.0,0.0068087149411439896
2816.0,0.007439564913511276
3072.0,0.0005785786197520792
3328.0,-0.0011724705109372735
3584.0,0.0030588991940021515
3840.0,-0.0066912537440657616
4096.0,-0.008793261833488941
4608.0,-0.0028661100659519434
5120.0,-0.010115396231412888
5632.0,-0.00045653339475393295
6144.0,0.010553471744060516
6656.0,0.00135874655097723
7168.0,0.0009901386220008135
7680.0,-0.004326950758695602
8192.0,-0.017277294769883156
9216.0,-0.0035160265397280455
10240.0,-0.0023609334602952003
11264.0,0.0007660203264094889
12288.0,0.01823366992175579
13312.0,0.001691825338639319
14336.0,-0.012325583957135677
end
