version,3.0
numOfCh,1
type,point
parent_name,80-cuts
ch_type,1_1
kcount,1
numberNandB,1
brightnessNandB,1
carpet pos,0
pc,0
Time (ms),CH1 Auto-Correlation
1.0,0.029132410883903503
2.0,0.028821619227528572
3.0,0.028511924669146538
4.0,0.028207676485180855
5.0,0.027908289805054665
6.0,0.027624495327472687
7.0,0.027340250089764595
8.0,0.02706100046634674
9.0,0.026783518493175507
10.0,0.026514993980526924
11.0,0.026247600093483925
12.0,0.025992682203650475
13.0,0.025741174817085266
14.0,0.025496933609247208
15.0,0.025251565501093864
16.0,0.025029757991433144
18.0,0.02459654025733471
20.0,0.024187030270695686
22.0,0.023788776248693466
24.0,0.023389341309666634
26.0,0.023009678348898888
28.0,0.02264540269970894
30.0,0.022286875173449516
32.0,0.02194356545805931
36.0,0.021282654255628586
40.0,0.0206161942332983
44.0,0.01992109976708889
48.0,0.01923268847167492
52.0,0.01857752911746502
56.0,0.0180375874042511
60.0,0.017568150535225868
64.0,0.01709754206240177
72.0,0.016075540333986282
80.0,0.015079984441399574
88.0,0.0141624566167593
96.0,0.013248655945062637
104.0,0.012484637089073658
112.0,0.011792771518230438
120.0,0.01116644311696291
128.0,0.010616064071655273
144.0,0.009482083842158318
160.0,0.008307628333568573
176.0,0.006940936669707298
192.0,0.005751009099185467
208.0,0.004590299911797047
224.0,0.0034965211525559425
240.0,0.002168846782296896
256.0,0.0006767225568182766
288.0,-0.0017009142320603132
320.0,-0.003472310956567526
352.0,-0.004635152872651815
384.0,-0.0047952476888895035
416.0,-0.004979514516890049
448.0,-0.004575574304908514
480.0,-0.0036151171661913395
512.0,-0.003175123129040003
576.0,-0.0020051118917763233
640.0,-0.00047159448149614036
704.0,1.911321305669844e-05
768.0,0.0007142017129808664
832.0,0.0004536258929874748
896.0,-0.00013215161743573844
960.0,0.0003438522689975798
1024.0,0.0006476424168795347
1152.0,0.0006857477710582316
1280.0,-0.0013596736826002598
1408.0,-0.002487374236807227
1536.0,-0.003235071897506714
1664.0,-0.0015873291995376348
1792.0,0.00011241129686823115
1920.0,0.0007524517131969333
2048.0,-0.0025640539824962616
2304.0,-0.0006518190493807197
2560.0,-0.0006774708745069802
2816.0,-0.0015575469005852938
3072.0,-0.0004904565284959972
3328.0,0.0023299939930438995
3584.0,0.0012791911140084267
3840.0,0.001963705290108919
4096.0,0.00039821668178774416
4608.0,0.0030299117788672447
5120.0,-0.0006606379174627364
5632.0,0.0015415584202855825
6144.0,0.0003550575056578964
6656.0,-0.006252693943679333
7168.0,0.0013877518940716982
7680.0,-0.0015376962255686522
8192.0,0.0001299077266594395
9216.0,0.002334795193746686
10240.0,-0.0005256935837678611
11264.0,-0.0026850951835513115
12288.0,-0.0012574502034112811
13312.0,0.0013759266585111618
14336.0,0.0001753054530126974
end
