version,3.0
numOfCh,1
type,point
parent_name,80-cuts
ch_type,1_1
kcount,1
numberNandB,1
brightnessNandB,1
carpet pos,0
pc,0
Time (ms),CH1 Auto-Correlation
1.0,0.08895904570817947
2.0,0.08808858692646027
3.0,0.08723803609609604
4.0,0.08638440072536469
5.0,0.08552179485559464
6.0,0.08468523621559143
7.0,0.08388873189687729
8.0,0.08309513330459595
9.0,0.08229871094226837
10.0,0.08154445886611938
11.0,0.08079665899276733
12.0,0.08001913130283356
13.0,0.07925847917795181
14.0,0.07846969366073608
15.0,0.07769343256950378
16.0,0.07694754004478455
18.0,0.0754624456167221
20.0,0.07400860637426376
22.0,0.07259759306907654
24.0,0.07123742997646332
26.0,0.06993792951107025
28.0,0.06872357428073883
30.0,0.06754240393638611
32.0,0.06640299409627914
36.0,0.0642794668674469
40.0,0.06220674887299538
44.0,0.06021377444267273
48.0,0.058214250952005386
52.0,0.05634724348783493
56.0,0.054660502821207047
60.0,0.053059808909893036
64.0,0.05151613801717758
72.0,0.04833005368709564
80.0,0.04507441446185112
88.0,0.04190849885344505
96.0,0.03913753852248192
104.0,0.03682820498943329
112.0,0.03477323800325394
120.0,0.03281022608280182
128.0,0.030873846262693405
144.0,0.027353569865226746
160.0,0.02409495785832405
176.0,0.02100210450589657
192.0,0.017759907990694046
208.0,0.014849659986793995
224.0,0.01222316361963749
240.0,0.010623885318636894
256.0,0.009559489786624908
288.0,0.007593223359435797
320.0,0.006317613646388054
352.0,0.004231154918670654
384.0,0.0020135128870606422
416.0,5.318396506481804e-05
448.0,-0.0014695877907797694
480.0,-0.003655350999906659
512.0,-0.003953311592340469
576.0,-0.0028274208307266235
640.0,0.000539471220690757
704.0,0.0058390917256474495
768.0,0.007297586649656296
832.0,0.0077802808955311775
896.0,0.007253365591168404
960.0,0.005764950532466173
1024.0,0.006097258534282446
1152.0,0.007471079006791115
1280.0,-0.0003054931585211307
1408.0,-0.001304980949498713
1536.0,-0.002183880191296339
1664.0,-0.00792472343891859
1792.0,-0.004436287563294172
1920.0,-0.008412688970565796
2048.0,-0.003554858732968569
2304.0,-0.003858759067952633
2560.0,-0.008184890262782574
2816.0,-0.012355540879070759
3072.0,-0.0012193653965368867
3328.0,-0.006908395793288946
3584.0,-0.0088064419105649
3840.0,-0.012137429788708687
4096.0,-0.0025630714371800423
4608.0,-0.006096068304032087
5120.0,0.0009516876889392734
5632.0,-0.001109009375795722
6144.0,0.007188656833022833
6656.0,0.010665751993656158
7168.0,0.005771704483777285
7680.0,-0.0009403815492987633
8192.0,-0.0015992744592949748
9216.0,0.0031437925063073635
10240.0,-0.0026187554467469454
11264.0,-0.006035985890775919
12288.0,-0.00824326928704977
13312.0,-0.00736154755577445
14336.0,0.010391529649496078
end
