version,3.0
numOfCh,1
type,point
parent_name,80-cuts
ch_type,1_1
kcount,1
numberNandB,1
brightnessNandB,1
carpet pos,0
pc,0
Time (ms),CH1 Auto-Correlation
1.0,0.03385167196393013
2.0,0.0335395447909832
3.0,0.03323519229888916
4.0,0.03293444588780403
5.0,0.03263078257441521
6.0,0.03232865780591965
7.0,0.03202362731099129
8.0,0.031718023121356964
9.0,0.03142077475786209
10.0,0.031124679371714592
11.0,0.030839072540402412
12.0,0.030557481572031975
13.0,0.030282435938715935
14.0,0.030009914189577103
15.0,0.029737813398241997
16.0,0.02947242371737957
18.0,0.028961559757590294
20.0,0.02846989780664444
22.0,0.02798473834991455
24.0,0.02751713991165161
26.0,0.027060380205512047
28.0,0.026600660756230354
30.0,0.026154182851314545
32.0,0.025737684220075607
36.0,0.02495613880455494
40.0,0.02423783577978611
44.0,0.02352907881140709
48.0,0.02280823327600956
52.0,0.02212088741362095
56.0,0.02149219810962677
60.0,0.020920002833008766
64.0,0.020346015691757202
72.0,0.019247040152549744
80.0,0.018149448558688164
88.0,0.017161481082439423
96.0,0.01624721847474575
104.0,0.015376688912510872
112.0,0.014488755725324154
120.0,0.01361430250108242
128.0,0.012694748118519783
144.0,0.01112593337893486
160.0,0.009688211604952812
176.0,0.008788075298070908
192.0,0.008028785698115826
208.0,0.0072015090845525265
224.0,0.006582488305866718
240.0,0.006108591333031654
256.0,0.005883714649826288
288.0,0.005249908193945885
320.0,0.003995606675744057
352.0,0.002034527715295553
384.0,0.0002995978284161538
416.0,-0.0007032040739431977
448.0,-0.0020087924785912037
480.0,-0.0023967339657247066
512.0,-0.003131499048322439
576.0,-0.0037022901233285666
640.0,-0.003629210637882352
704.0,-0.0027234568260610104
768.0,-0.0014560340205207467
832.0,-0.0004515893233474344
896.0,0.00013582820247393101
960.0,-0.0009024745668284595
1024.0,-0.002130860462784767
1152.0,-0.003497910453006625
1280.0,-0.006169011816382408
1408.0,-0.005291441455483437
1536.0,-0.0031815741676837206
1664.0,-0.0006099820020608604
1792.0,-0.0018634062726050615
1920.0,-0.00332261947914958
2048.0,-0.0028025826904922724
2304.0,-0.0032977168448269367
2560.0,0.003601999022066593
2816.0,0.004153099376708269
3072.0,0.001112696947529912
3328.0,0.00251435162499547
3584.0,0.002892670687288046
3840.0,-0.0005619278526864946
4096.0,-0.004635654389858246
4608.0,-0.002699220320209861
5120.0,-0.000492250022944063
5632.0,0.002645791508257389
6144.0,0.004028485622256994
6656.0,-0.0007452350691892207
7168.0,-0.0009544179774820805
7680.0,-0.0026296349242329597
8192.0,-0.0012992467964068055
9216.0,-0.0004327794013079256
10240.0,-0.002042590407654643
11264.0,0.0031070082914084196
12288.0,0.004489810671657324
13312.0,-0.0012848683400079608
14336.0,-0.00337684596888721
end
