version,3.0
numOfCh,1
type,point
parent_name,80-cuts
ch_type,1_1
kcount,1
numberNandB,1
brightnessNandB,1
carpet pos,0
pc,0
Time (ms),CH1 Auto-Correlation
1.0,0.038607168942689896
2.0,0.03822556138038635
3.0,0.03785350173711777
4.0,0.0374862365424633
5.0,0.03711611032485962
6.0,0.03673947975039482
7.0,0.03637412562966347
8.0,0.03603340685367584
9.0,0.03569662198424339
10.0,0.03536805883049965
11.0,0.03503849729895592
12.0,0.03471803292632103
13.0,0.03439832851290703
14.0,0.03408452495932579
15.0,0.033774081617593765
16.0,0.03346430882811546
18.0,0.032853562384843826
20.0,0.03224867954850197
22.0,0.031643714755773544
24.0,0.031045472249388695
26.0,0.030445381999015808
28.0,0.02985009178519249
30.0,0.02927112765610218
32.0,0.028704751282930374
36.0,0.027606463059782982
40.0,0.026532689109444618
44.0,0.025529533624649048
48.0,0.02457531727850437
52.0,0.023634858429431915
56.0,0.022731155157089233
60.0,0.02183987945318222
64.0,0.02094786986708641
72.0,0.019288387149572372
80.0,0.017805397510528564
88.0,0.016493061557412148
96.0,0.01523838471621275
104.0,0.014155684970319271
112.0,0.01314504723995924
120.0,0.012238265946507454
128.0,0.011437531560659409
144.0,0.009926890023052692
160.0,0.008411876857280731
176.0,0.006950432900339365
192.0,0.0056437100283801556
208.0,0.0043565514497458935
224.0,0.00334331882186234
240.0,0.00267683994024992
256.0,0.0020119932014495134
288.0,0.0011141598224639893
320.0,0.00026046691345982254
352.0,0.00027005199808627367
384.0,0.0007284108432941139
416.0,0.0015782035188749433
448.0,0.0013078688643872738
480.0,0.00030403328128159046
512.0,-0.000531909754499793
576.0,-0.0011760818306356668
640.0,-0.0013302020961418748
704.0,0.0003774561337195337
768.0,0.0030911334324628115
832.0,0.005561914760619402
896.0,0.006215290166437626
960.0,0.004870259203016758
1024.0,0.0033948172349482775
1152.0,0.002808569697663188
1280.0,0.0006244166288524866
1408.0,-0.0007282567676156759
1536.0,0.00013952654262539
1664.0,0.00278290337882936
1792.0,0.002993652131408453
1920.0,6.0674341511912644e-05
2048.0,-0.0007708237390033901
2304.0,-0.0038891909644007683
2560.0,0.0031496554147452116
2816.0,0.003476749174296856
3072.0,-0.002294141799211502
3328.0,-0.0010770735098049045
3584.0,0.001639811904169619
3840.0,0.003121228888630867
4096.0,-0.00017787105753086507
4608.0,-0.00346694840118289
5120.0,-0.0010784592013806105
5632.0,-0.003932521212846041
6144.0,-0.005132996942847967
6656.0,0.0017276856815442443
7168.0,0.00015399795665871352
7680.0,-0.0019206139259040356
8192.0,-0.00380839710123837
9216.0,-0.0011061804834753275
10240.0,0.0008334311423823237
11264.0,0.002996821189299226
12288.0,0.0010891108540818095
13312.0,-0.002954001072794199
14336.0,0.0013711901847273111
end
