version,3.0
numOfCh,1
type,point
parent_name,80-cuts
ch_type,1_1
kcount,1
numberNandB,1
brightnessNandB,1
carpet pos,0
pc,0
Time (ms),CH1 Auto-Correlation
1.0,0.0617360882461071
2.0,0.06101774051785469
3.0,0.06030448526144028
4.0,0.05957791209220886
5.0,0.0588698536157608
6.0,0.058189813047647476
7.0,0.05754286050796509
8.0,0.056907013058662415
9.0,0.05630093440413475
10.0,0.05570407584309578
11.0,0.055109042674303055
12.0,0.05451954901218414
13.0,0.05394574999809265
14.0,0.05336544290184975
15.0,0.0527973473072052
16.0,0.05225123092532158
18.0,0.051184359937906265
20.0,0.05012143775820732
22.0,0.049001820385456085
24.0,0.047858692705631256
26.0,0.046752821654081345
28.0,0.045700542628765106
30.0,0.0446767583489418
32.0,0.04369591176509857
36.0,0.041820164769887924
40.0,0.03993915393948555
44.0,0.03821229562163353
48.0,0.036606453359127045
52.0,0.035051129758358
56.0,0.033623602241277695
60.0,0.032206177711486816
64.0,0.030858570709824562
72.0,0.028419941663742065
80.0,0.02631084807217121
88.0,0.024316739290952682
96.0,0.02240377478301525
104.0,0.020859774202108383
112.0,0.019413890317082405
120.0,0.017942605540156364
128.0,0.016546564176678658
144.0,0.01369477715343237
160.0,0.010790026746690273
176.0,0.008727350272238255
192.0,0.0076161762699484825
208.0,0.007353805936872959
224.0,0.007574548479169607
240.0,0.007501199841499329
256.0,0.006894600111991167
288.0,0.003915549721568823
320.0,0.00043467438081279397
352.0,-0.002135426504537463
384.0,-0.002646206645295024
416.0,-0.003818260272964835
448.0,-0.0037589161656796932
480.0,-0.003588471096009016
512.0,-0.002735250163823366
576.0,-0.0021010087803006172
640.0,-0.0008493337081745267
704.0,3.18338607030455e-05
768.0,-0.0023159051779657602
832.0,-0.004739051219075918
896.0,-0.006077257916331291
960.0,-0.005269660614430904
1024.0,-0.00415414571762085
1152.0,-0.002422791440039873
1280.0,0.00015332891780417413
1408.0,-0.002343638800084591
1536.0,-0.005319151096045971
1664.0,-0.001511099748313427
1792.0,-0.000508568889927119
1920.0,0.006662535946816206
2048.0,0.006538854446262121
2304.0,-0.0032707646023482084
2560.0,-0.01579996943473816
2816.0,-0.013033062219619751
3072.0,0.00025733973598107696
3328.0,0.005235969088971615
3584.0,-0.0026125924196094275
3840.0,0.0033491409849375486
4096.0,0.004231996834278107
4608.0,0.0001431256387149915
5120.0,0.003043149830773473
5632.0,0.0021135148126631975
6144.0,-0.0009578658500686288
6656.0,-0.005984504707157612
7168.0,0.0036752300802618265
7680.0,0.004288721363991499
8192.0,-0.005607655271887779
9216.0,0.0014086624141782522
10240.0,-0.0014828892890363932
11264.0,0.0008996510878205299
12288.0,-0.0007478857878595591
13312.0,-0.0027284016832709312
14336.0,0.0024904843885451555
end
