version,3.0
numOfCh,1
type,point
parent_name,80-cuts
ch_type,1_1
kcount,1
numberNandB,1
brightnessNandB,1
carpet pos,0
pc,0
Time (ms),CH1 Auto-Correlation
1.0,0.05100620910525322
2.0,0.05034104734659195
3.0,0.04966983199119568
4.0,0.04900806397199631
5.0,0.04836336523294449
6.0,0.04773769527673721
7.0,0.04710637405514717
8.0,0.04647361487150192
9.0,0.045858535915613174
10.0,0.0452592633664608
11.0,0.04466770961880684
12.0,0.044092923402786255
13.0,0.0435258150100708
14.0,0.04296860471367836
15.0,0.042427029460668564
16.0,0.0418863482773304
18.0,0.04079676419496536
20.0,0.039723221212625504
22.0,0.03862471878528595
24.0,0.03755001351237297
26.0,0.03652661293745041
28.0,0.03553587198257446
30.0,0.034550171345472336
32.0,0.03355294093489647
36.0,0.03163401782512665
40.0,0.02976979687809944
44.0,0.028023067861795425
48.0,0.026397768408060074
52.0,0.02480468899011612
56.0,0.023374568670988083
60.0,0.022098807618021965
64.0,0.020884070545434952
72.0,0.01851736009120941
80.0,0.016486018896102905
88.0,0.014717728830873966
96.0,0.013293501920998096
104.0,0.012170054018497467
112.0,0.01118948869407177
120.0,0.0102120041847229
128.0,0.009453834965825081
144.0,0.008055581711232662
160.0,0.006609175819903612
176.0,0.005302590783685446
192.0,0.004240785259753466
208.0,0.0037440669257193804
224.0,0.0029705457855015993
240.0,0.0021693119779229164
256.0,0.0006792392232455313
288.0,-0.0014559261035174131
320.0,-0.0013397170696407557
352.0,3.8910417060833424e-05
384.0,0.0019879895262420177
416.0,0.004624268040060997
448.0,0.00706437835469842
480.0,0.009049125015735626
512.0,0.009333021938800812
576.0,0.0053850929252803326
640.0,0.002238353481516242
704.0,-0.00014991487842053175
768.0,-0.0032531546894460917
832.0,-0.005110888741910458
896.0,-0.005354312714189291
960.0,-0.0022589298896491528
1024.0,-0.0021425685845315456
1152.0,0.0019708399195224047
1280.0,-0.0018743963446468115
1408.0,-0.0028560964856296778
1536.0,-0.0031558291520923376
1664.0,-0.008790475316345692
1792.0,-0.005826895125210285
1920.0,-0.0038607248570770025
2048.0,0.001282953075133264
2304.0,0.0012108992086723447
2560.0,0.0018404176225885749
2816.0,0.002883461071178317
3072.0,0.001108601689338684
3328.0,0.0034248766023665667
3584.0,-0.001130092074163258
3840.0,-0.007661714684218168
4096.0,-0.002602029824629426
4608.0,0.001583246630616486
5120.0,0.005057931877672672
5632.0,0.002756696892902255
6144.0,-0.004088105168193579
6656.0,-0.005995942745357752
7168.0,-0.007230065762996674
7680.0,0.0007318413117900491
8192.0,0.002882829401642084
9216.0,-0.0026447258424013853
10240.0,0.002139634918421507
11264.0,-0.0003627618425525725
12288.0,-0.004629261791706085
13312.0,0.007668300531804562
14336.0,-0.00219453452154994
end
