version,3.0
numOfCh,1
type,point
parent_name,80-cuts
ch_type,1_1
kcount,1
numberNandB,1
brightnessNandB,1
carpet pos,0
pc,0
Time (ms),CH1 Auto-Correlation
1.0,0.12664715945720673
2.0,0.12549979984760284
3.0,0.12435212731361389
4.0,0.12322688847780228
5.0,0.12211582064628601
6.0,0.12104685604572296
7.0,0.11995838582515717
8.0,0.1188834011554718
9.0,0.11783379316329956
10.0,0.11683595180511475
11.0,0.11584490537643433
12.0,0.11484372615814209
13.0,0.11386130005121231
14.0,0.11289485543966293
15.0,0.11192984133958817
16.0,0.11096853017807007
18.0,0.1090889722108841
20.0,0.10725273936986923
22.0,0.1054651290178299
24.0,0.10370226204395294
26.0,0.10197124630212784
28.0,0.10029275715351105
30.0,0.09870939701795578
32.0,0.09715735167264938
36.0,0.09425342082977295
40.0,0.09155309200286865
44.0,0.08900843560695648
48.0,0.0865592285990715
52.0,0.08428922295570374
56.0,0.082147017121315
60.0,0.08020597696304321
64.0,0.07843630760908127
72.0,0.07537265866994858
80.0,0.07237354665994644
88.0,0.06920967996120453
96.0,0.06593072414398193
104.0,0.06295188516378403
112.0,0.06040601804852486
120.0,0.05764403194189072
128.0,0.0545591339468956
144.0,0.0486367866396904
160.0,0.04262872040271759
176.0,0.03657788410782814
192.0,0.03174387663602829
208.0,0.027786124497652054
224.0,0.02462804690003395
240.0,0.022018510848283768
256.0,0.01880870759487152
288.0,0.012721923179924488
320.0,0.008977066725492477
352.0,0.007104930002242327
384.0,0.005737863481044769
416.0,0.004050121642649174
448.0,0.0037044768687337637
480.0,0.004327763803303242
512.0,0.00473630428314209
576.0,0.004493921063840389
640.0,0.004247920587658882
704.0,0.0016559042269364
768.0,0.003711631754413247
832.0,0.009173276834189892
896.0,0.015855738893151283
960.0,0.017821326851844788
1024.0,0.01200611237436533
1152.0,-0.006402092985808849
1280.0,-0.013007364235818386
1408.0,-0.012480652891099453
1536.0,-0.011598235927522182
1664.0,-0.014262542128562927
1792.0,-0.01213096734136343
1920.0,-0.0051769171841442585
2048.0,-0.006998613476753235
2304.0,8.34566235425882e-05
2560.0,-0.004482873249799013
2816.0,0.004554541315883398
3072.0,0.025885025039315224
3328.0,0.010532069019973278
3584.0,0.0016523674130439758
3840.0,0.0075150830671191216
4096.0,-0.011955616064369678
4608.0,-0.010655819438397884
5120.0,-0.013240196742117405
5632.0,-0.0060802241787314415
6144.0,0.009220000356435776
6656.0,0.01989355869591236
7168.0,-0.0099128857254982
7680.0,-0.011094984598457813
8192.0,-0.021310999989509583
9216.0,-0.005787365138530731
10240.0,-0.011204815469682217
11264.0,-0.0016002774937078357
12288.0,0.009386464953422546
13312.0,0.01004172582179308
14336.0,0.01582387275993824
end
