version,3.0
numOfCh,1
type,point
parent_name,80-cuts
ch_type,1_1
kcount,1
numberNandB,1
brightnessNandB,1
carpet pos,0
pc,0
Time (ms),CH1 Auto-Correlation
1.0,0.0795656368136406
2.0,0.07855038344860077
3.0,0.07758595794439316
4.0,0.0766184851527214
5.0,0.07563281059265137
6.0,0.07467042654752731
7.0,0.07369616627693176
8.0,0.0727478638291359
9.0,0.07180561870336533
10.0,0.07089120149612427
11.0,0.06998930126428604
12.0,0.06907323747873306
13.0,0.06815289705991745
14.0,0.06725450605154037
15.0,0.06637252122163773
16.0,0.06549923866987228
18.0,0.06373358517885208
20.0,0.06201302260160446
22.0,0.06036151200532913
24.0,0.05874371901154518
26.0,0.057167887687683105
28.0,0.05560556799173355
30.0,0.054072462022304535
32.0,0.052625566720962524
36.0,0.04976965859532356
40.0,0.04694388434290886
44.0,0.044201478362083435
48.0,0.041679006069898605
52.0,0.03936420753598213
56.0,0.03730392828583717
60.0,0.035404883325099945
64.0,0.03373175486922264
72.0,0.030732739716768265
80.0,0.02784908376634121
88.0,0.02513311058282852
96.0,0.022577673196792603
104.0,0.01973353512585163
112.0,0.01713830605149269
120.0,0.015128002502024174
128.0,0.01384721789509058
144.0,0.010941884480416775
160.0,0.008403599262237549
176.0,0.006902717985212803
192.0,0.005732161458581686
208.0,0.005236748140305281
224.0,0.005179727450013161
240.0,0.004731137305498123
256.0,0.003907375503331423
288.0,6.53944953228347e-05
320.0,-0.0009950811509042978
352.0,-0.001756202895194292
384.0,-0.003976001869887114
416.0,-0.0025675506331026554
448.0,0.0020529422909021378
480.0,0.004328801296651363
512.0,0.005020138807594776
576.0,0.001203741878271103
640.0,-0.002692044945433736
704.0,-0.002260147128254175
768.0,-0.0016879955073818564
832.0,-0.0010863329516723752
896.0,0.003196965903043747
960.0,0.006682057399302721
1024.0,0.007100577466189861
1152.0,0.007734896149486303
1280.0,0.005139074753969908
1408.0,0.0020410693250596523
1536.0,-0.005872142501175404
1664.0,-0.0018252881709486246
1792.0,0.0026645066682249308
1920.0,0.007232686039060354
2048.0,0.00810414832085371
2304.0,0.004634433425962925
2560.0,-0.004116837400943041
2816.0,-0.0021101743914186954
3072.0,0.008789201267063618
3328.0,0.005548277869820595
3584.0,0.006236543413251638
3840.0,0.0074203419499099255
4096.0,0.0012502312893047929
4608.0,-0.0029729248490184546
5120.0,-0.0009361524134874344
5632.0,0.008483514189720154
6144.0,-0.0012521944008767605
6656.0,-0.0011568899499252439
7168.0,-0.004646906163543463
7680.0,-0.0024745117407292128
8192.0,-0.0095143411308527
9216.0,-0.002598558319732547
10240.0,-0.009804212488234043
11264.0,-0.0033931275829672813
12288.0,-0.009440072812139988
13312.0,-0.0024485280737280846
14336.0,-0.01891990751028061
end
