version,3.0
numOfCh,1
type,point
parent_name,80-cuts
ch_type,1_1
kcount,1
numberNandB,1
brightnessNandB,1
carpet pos,0
pc,0
Time (ms),CH1 Auto-Correlation
1.0,0.09400544315576553
2.0,0.09291519969701767
3.0,0.09186302870512009
4.0,0.09083952009677887
5.0,0.08986134827136993
6.0,0.08889579027891159
7.0,0.0879121795296669
8.0,0.08695370703935623
9.0,0.0859963670372963
10.0,0.08506692945957184
11.0,0.08415199816226959
12.0,0.08325529843568802
13.0,0.0823487937450409
14.0,0.08145572990179062
15.0,0.0805894061923027
16.0,0.07976213097572327
18.0,0.07811498641967773
20.0,0.07653995603322983
22.0,0.07500194013118744
24.0,0.07348927855491638
26.0,0.07203050702810287
28.0,0.07064258307218552
30.0,0.06935562193393707
32.0,0.06813155114650726
36.0,0.06571022421121597
40.0,0.06321516633033752
44.0,0.060718122869729996
48.0,0.058103326708078384
52.0,0.055569782853126526
56.0,0.05318322405219078
60.0,0.0511523000895977
64.0,0.049417827278375626
72.0,0.04633917286992073
80.0,0.0434618815779686
88.0,0.04103429242968559
96.0,0.03889503702521324
104.0,0.03699837252497673
112.0,0.03552232310175896
120.0,0.03369387611746788
128.0,0.0313880518078804
144.0,0.027171825990080833
160.0,0.023316483944654465
176.0,0.019770553335547447
192.0,0.01747242733836174
208.0,0.01524399220943451
224.0,0.012680969201028347
240.0,0.009930348955094814
256.0,0.006779097020626068
288.0,0.0024482395965605974
320.0,-0.0019886402878910303
352.0,-0.007369301747530699
384.0,-0.011852630414068699
416.0,-0.014520609751343727
448.0,-0.01593845710158348
480.0,-0.01576225459575653
512.0,-0.014578519389033318
576.0,-0.015433888882398605
640.0,-0.012440357357263565
704.0,-0.005380384158343077
768.0,0.0015922699822112918
832.0,0.012413845397531986
896.0,0.016825804486870766
960.0,0.017071302980184555
1024.0,0.011713423766195774
1152.0,0.00044773422996513546
1280.0,-0.01123600360006094
1408.0,-0.01310891006141901
1536.0,-0.009886138141155243
1664.0,-0.004501658957451582
1792.0,-0.0014647371135652065
1920.0,0.0023385128006339073
2048.0,0.004694345872849226
2304.0,-0.0013599242083728313
2560.0,-0.0031564109958708286
2816.0,-0.004311913624405861
3072.0,-0.0026033215690404177
3328.0,-0.0015051101800054312
3584.0,0.0036538748536258936
3840.0,0.0014426650013774633
4096.0,-0.007918267510831356
4608.0,0.009216572158038616
5120.0,-0.0014341436326503754
5632.0,-0.006911087315529585
6144.0,-0.007134363986551762
6656.0,0.0032461383379995823
7168.0,0.006832306273281574
7680.0,0.002190767088904977
8192.0,-0.0014308315003290772
9216.0,-0.0006346897571347654
10240.0,-0.008247685618698597
11264.0,-0.004491172265261412
12288.0,0.0004510653088800609
13312.0,-0.002021764637902379
14336.0,0.002971212612465024
end
