version,3.0
numOfCh,1
type,point
parent_name,80-cuts
ch_type,1_1
kcount,1
numberNandB,1
brightnessNandB,1
carpet pos,0
pc,0
Time (ms),CH1 Auto-Correlation
1.0,0.07961805164813995
2.0,0.07873149961233139
3.0,0.07786830514669418
4.0,0.07700606435537338
5.0,0.07615078240633011
6.0,0.07531429827213287
7.0,0.07447782158851624
8.0,0.07364693284034729
9.0,0.07280885428190231
10.0,0.0719783827662468
11.0,0.0711493194103241
12.0,0.07033480703830719
13.0,0.06952876597642899
14.0,0.06873287260532379
15.0,0.0679553970694542
16.0,0.06719102710485458
18.0,0.06567192077636719
20.0,0.06420233845710754
22.0,0.06276872754096985
24.0,0.061307068914175034
26.0,0.05991581827402115
28.0,0.058588530868291855
30.0,0.05729987844824791
32.0,0.05603518709540367
36.0,0.05359487980604172
40.0,0.05118346959352493
44.0,0.0487656369805336
48.0,0.04628082364797592
52.0,0.04393329843878746
56.0,0.04175981506705284
60.0,0.039750050753355026
64.0,0.03787495195865631
72.0,0.034460633993148804
80.0,0.0314086377620697
88.0,0.02864978089928627
96.0,0.025992438197135925
104.0,0.023681117221713066
112.0,0.021461479365825653
120.0,0.019640840590000153
128.0,0.01817362755537033
144.0,0.017117533832788467
160.0,0.017704876139760017
176.0,0.01725098118185997
192.0,0.015544725582003593
208.0,0.013640839606523514
224.0,0.011910753324627876
240.0,0.010467789135873318
256.0,0.008896728046238422
288.0,0.008621729910373688
320.0,0.009187531657516956
352.0,0.0089859114959836
384.0,0.006213563494384289
416.0,0.0032597766257822514
448.0,0.0012917403364554048
480.0,0.0003556408337317407
512.0,0.0011647013016045094
576.0,0.0033082771115005016
640.0,0.0001838727475842461
704.0,-0.005264849402010441
768.0,-0.0053040762431919575
832.0,-0.0068336897529661655
896.0,-0.0029325541108846664
960.0,0.002056956524029374
1024.0,0.00047659099800512195
1152.0,-0.004283532965928316
1280.0,-0.0004203652497380972
1408.0,0.0011008077999576926
1536.0,0.0038519897498190403
1664.0,-0.0029845419339835644
1792.0,-0.00365676311776042
1920.0,-0.00395940663293004
2048.0,-0.0033341592643409967
2304.0,-0.00385305006057024
2560.0,-0.005569443106651306
2816.0,0.0005777946789748967
3072.0,0.007137895096093416
3328.0,0.007102325093001127
3584.0,0.0008878971566446126
3840.0,0.003275298746302724
4096.0,-0.0038714923430234194
4608.0,0.0009346864535473287
5120.0,0.0033382775727659464
5632.0,-0.008258221670985222
6144.0,-0.01096704974770546
6656.0,0.0019812914542853832
7168.0,0.002390427514910698
7680.0,-8.970317139755934e-05
8192.0,0.0010395583231002092
9216.0,-0.0031089007388800383
10240.0,-0.0023185114841908216
11264.0,0.00042805582052096725
12288.0,-0.001456491881981492
13312.0,-0.0009139738976955414
14336.0,0.0016987218987196684
end
