version,3.0
numOfCh,1
type,point
parent_name,80-cuts
ch_type,1_1
kcount,1
numberNandB,1
brightnessNandB,1
carpet pos,0
pc,0
Time (ms),CH1 Auto-Correlation
1.0,0.0647142305970192
2.0,0.06402607262134552
3.0,0.06332096457481384
4.0,0.06262019276618958
5.0,0.06193186342716217
6.0,0.06125965341925621
7.0,0.060579992830753326
8.0,0.05992099642753601
9.0,0.05926215648651123
10.0,0.05862467736005783
11.0,0.05799860134720802
12.0,0.05737864971160889
13.0,0.056760553270578384
14.0,0.05614582449197769
15.0,0.05553348734974861
16.0,0.054927386343479156
18.0,0.053717490285634995
20.0,0.05253119394183159
22.0,0.05139593780040741
24.0,0.05031174048781395
26.0,0.049276288598775864
28.0,0.048280443996191025
30.0,0.04733694717288017
32.0,0.046424414962530136
36.0,0.0447024330496788
40.0,0.043169908225536346
44.0,0.04176763445138931
48.0,0.04045731574296951
52.0,0.03920840471982956
56.0,0.038097284734249115
60.0,0.03703095763921738
64.0,0.035999834537506104
72.0,0.03417206555604935
80.0,0.032604239881038666
88.0,0.030987422913312912
96.0,0.02935948222875595
104.0,0.027887478470802307
112.0,0.026365188881754875
120.0,0.024741843342781067
128.0,0.023258427157998085
144.0,0.020849863067269325
160.0,0.018881719559431076
176.0,0.01745384745299816
192.0,0.01643545925617218
208.0,0.01636037789285183
224.0,0.015780027955770493
240.0,0.014782381244003773
256.0,0.013978183269500732
288.0,0.011115938425064087
320.0,0.008839618414640427
352.0,0.004755871370434761
384.0,0.000462661380879581
416.0,-0.0020565481390804052
448.0,-0.0031609642319381237
480.0,-0.0031924990471452475
512.0,-0.0024183071218430996
576.0,-0.003613972570747137
640.0,-0.004489944316446781
704.0,-0.0025496238376945257
768.0,0.0020561369601637125
832.0,0.004538536071777344
896.0,0.0025497626047581434
960.0,0.0023318512830883265
1024.0,0.0021699185017496347
1152.0,0.005133521743118763
1280.0,0.005283345002681017
1408.0,0.002740236697718501
1536.0,0.004421479534357786
1664.0,0.0031052501872181892
1792.0,0.0025986444670706987
1920.0,0.004323615692555904
2048.0,0.003831269219517708
2304.0,-0.004106617998331785
2560.0,0.0006153511931188405
2816.0,0.0034635011106729507
3072.0,0.002919084159657359
3328.0,0.0022810876835137606
3584.0,0.005666183307766914
3840.0,0.0031616780906915665
4096.0,-0.004779996816068888
4608.0,-0.0033591825049370527
5120.0,-0.0007518542115576565
5632.0,0.0009465328184887767
6144.0,-0.008000440895557404
6656.0,0.004670249298214912
7168.0,-0.0028203085530549288
7680.0,-0.009976968169212341
8192.0,-0.0026918749790638685
9216.0,0.0016087341355159879
10240.0,0.0003892304957844317
11264.0,-0.005814016796648502
12288.0,-0.005263274535536766
13312.0,-0.008776909671723843
14336.0,-0.016200602054595947
end
