version,3.0
numOfCh,1
type,point
parent_name,80-cuts
ch_type,1_1
kcount,1
numberNandB,1
brightnessNandB,1
carpet pos,0
pc,0
Time (ms),CH1 Auto-Correlation
1.0,0.0767669677734375
2.0,0.0758054256439209
3.0,0.07485722750425339
4.0,0.07392009347677231
5.0,0.07301956415176392
6.0,0.07211664319038391
7.0,0.07123135030269623
8.0,0.0703551396727562
9.0,0.06948529928922653
10.0,0.06866390258073807
11.0,0.06783852726221085
12.0,0.06704394519329071
13.0,0.06625696271657944
14.0,0.0654744803905487
15.0,0.06469714641571045
16.0,0.06395231187343597
18.0,0.06242695078253746
20.0,0.06091773137450218
22.0,0.05944875627756119
24.0,0.05804377421736717
26.0,0.05664315074682236
28.0,0.0552959106862545
30.0,0.05394452437758446
32.0,0.052600935101509094
36.0,0.05001333728432655
40.0,0.04753781482577324
44.0,0.045164115726947784
48.0,0.043022315949201584
52.0,0.04100043699145317
56.0,0.0391499400138855
60.0,0.037457916885614395
64.0,0.03578755259513855
72.0,0.032781682908535004
80.0,0.02980259619653225
88.0,0.02676125057041645
96.0,0.024029409512877464
104.0,0.021580694243311882
112.0,0.019468722864985466
120.0,0.017847996205091476
128.0,0.016592878848314285
144.0,0.01404588669538498
160.0,0.011506889015436172
176.0,0.008186320774257183
192.0,0.00481161056086421
208.0,0.00225987215526402
224.0,0.001487266388721764
240.0,0.001266539329662919
256.0,0.0005406439304351807
288.0,-0.0008163911988958716
320.0,-0.002395526971668005
352.0,-0.0035699615254998207
384.0,-0.0031626876443624496
416.0,-0.0017204748000949621
448.0,-0.001472252537496388
480.0,0.00017543171998113394
512.0,0.0017363964579999447
576.0,0.0057510193437337875
640.0,0.009052685461938381
704.0,0.008797555230557919
768.0,0.007436606101691723
832.0,0.005232805386185646
896.0,0.002947949105873704
960.0,-0.0005979781853966415
1024.0,-0.006374725606292486
1152.0,-0.003911605570465326
1280.0,0.004780204966664314
1408.0,0.005369862075895071
1536.0,-0.004457893315702677
1664.0,-0.00832311436533928
1792.0,-0.0024120593443512917
1920.0,-0.002549775643274188
2048.0,-0.0007519526989199221
2304.0,-0.002389345085248351
2560.0,0.002236400730907917
2816.0,-0.0012611240381374955
3072.0,-0.004215988330543041
3328.0,0.0061243330128490925
3584.0,0.0036608472000807524
3840.0,-0.0066699497401714325
4096.0,0.0018436235841363668
4608.0,-0.005014439113438129
5120.0,-0.005159993655979633
5632.0,-0.007842620834708214
6144.0,-0.0008350851712748408
6656.0,0.003709616372361779
7168.0,0.0029975317884236574
7680.0,0.001882352982647717
8192.0,-0.004500429145991802
9216.0,-0.004197410773485899
10240.0,0.0038529098965227604
11264.0,-0.0008252328843809664
12288.0,-0.003249935107305646
13312.0,0.005735068116337061
14336.0,0.002364051528275013
end
