version,3.0
numOfCh,1
type,point
parent_name,80-cuts
ch_type,1_1
kcount,1
numberNandB,1
brightnessNandB,1
carpet pos,0
pc,0
Time (ms),CH1 Auto-Correlation
1.0,0.10644759982824326
2.0,0.10535147041082382
3.0,0.10427408665418625
4.0,0.10322153568267822
5.0,0.10223225504159927
6.0,0.10124120861291885
7.0,0.10026195645332336
8.0,0.09927483648061752
9.0,0.09830351918935776
10.0,0.09733478724956512
11.0,0.09636462479829788
12.0,0.09539657831192017
13.0,0.09446795284748077
14.0,0.09352079033851624
15.0,0.0925980880856514
16.0,0.09166255593299866
18.0,0.08993983268737793
20.0,0.08826318383216858
22.0,0.08662308007478714
24.0,0.08499765396118164
26.0,0.0834360271692276
28.0,0.0818914845585823
30.0,0.0803450420498848
32.0,0.07880061119794846
36.0,0.07579340040683746
40.0,0.07292883843183517
44.0,0.07032021880149841
48.0,0.0678023248910904
52.0,0.06526480615139008
56.0,0.06275255233049393
60.0,0.060235921293497086
64.0,0.057928863912820816
72.0,0.05393611639738083
80.0,0.050406213849782944
88.0,0.04663354530930519
96.0,0.042984914034605026
104.0,0.039880551397800446
112.0,0.037112846970558167
120.0,0.034249626100063324
128.0,0.03166136145591736
144.0,0.026750704273581505
160.0,0.022252367809414864
176.0,0.018792349845170975
192.0,0.01609129272401333
208.0,0.014513973146677017
224.0,0.013373303227126598
240.0,0.012493201531469822
256.0,0.011066455394029617
288.0,0.005476444493979216
320.0,-0.0023669458460062742
352.0,-0.008785790763795376
384.0,-0.012949132360517979
416.0,-0.01343480497598648
448.0,-0.012326077558100224
480.0,-0.00950113870203495
512.0,-0.008841270580887794
576.0,-0.00803682766854763
640.0,-0.002867206698283553
704.0,0.005185230635106564
768.0,0.005007653031498194
832.0,-0.0010980720398947597
896.0,-0.010342015884816647
960.0,-0.01063773687928915
1024.0,-0.008350652642548084
1152.0,-0.011078929528594017
1280.0,-0.0057950373739004135
1408.0,-0.009314607828855515
1536.0,-0.005184514448046684
1664.0,-0.003521193517372012
1792.0,0.0016897307941690087
1920.0,-0.003943330608308315
2048.0,0.002154336078092456
2304.0,-0.00019331957446411252
2560.0,-0.007822302170097828
2816.0,-0.011191432364284992
3072.0,-0.006872577592730522
3328.0,-0.0021687843836843967
3584.0,0.004034950397908688
3840.0,0.00046580497291870415
4096.0,-0.0009136165026575327
4608.0,0.01345211174339056
5120.0,0.0012660679640248418
5632.0,-0.0005571066285483539
6144.0,0.0013594516785815358
6656.0,0.005307047162204981
7168.0,-0.01235942356288433
7680.0,-0.004804766736924648
8192.0,-0.0015423207078129053
9216.0,0.006795571185648441
10240.0,-0.008097048848867416
11264.0,0.010459410026669502
12288.0,0.002086399821564555
13312.0,-0.005344064440578222
14336.0,-0.0152006009593606
end
