version,3.0
numOfCh,1
type,point
parent_name,80-cuts
ch_type,1_1
kcount,1
numberNandB,1
brightnessNandB,1
carpet pos,0
pc,0
Time (ms),CH1 Auto-Correlation
1.0,0.05769649147987366
2.0,0.057053711265325546
3.0,0.05641757696866989
4.0,0.055795855820178986
5.0,0.055174559354782104
6.0,0.054558299481868744
7.0,0.053948309272527695
8.0,0.05334574356675148
9.0,0.052754342555999756
10.0,0.05217689275741577
11.0,0.05161247029900551
12.0,0.05103285610675812
13.0,0.05045333132147789
14.0,0.04989296570420265
15.0,0.04933008924126625
16.0,0.048772476613521576
18.0,0.04763820394873619
20.0,0.046560317277908325
22.0,0.045502837747335434
24.0,0.0444805845618248
26.0,0.0434664748609066
28.0,0.042461931705474854
30.0,0.04148086532950401
32.0,0.04051493480801582
36.0,0.038607049733400345
40.0,0.036827459931373596
44.0,0.035194315016269684
48.0,0.03363353759050369
52.0,0.03214912861585617
56.0,0.030743179842829704
60.0,0.029450776055455208
64.0,0.028182990849018097
72.0,0.025758612900972366
80.0,0.023610737174749374
88.0,0.021618379279971123
96.0,0.019817257300019264
104.0,0.01795397512614727
112.0,0.016124669462442398
120.0,0.014528412371873856
128.0,0.013212639838457108
144.0,0.010724407620728016
160.0,0.008418569341301918
176.0,0.0062310113571584225
192.0,0.004440437536686659
208.0,0.0026611704379320145
224.0,0.0015695869224146008
240.0,0.0008327669347636402
256.0,0.0009077026043087244
288.0,0.0019143496174365282
320.0,0.003129902994260192
352.0,0.0046584755182266235
384.0,0.004709501285105944
416.0,0.00423417566344142
448.0,0.0037440438754856586
480.0,0.002476830268278718
512.0,0.0009940465679392219
576.0,-0.0022324887104332447
640.0,-0.00370451295748353
704.0,-0.0046575916931033134
768.0,-0.000959796248935163
832.0,0.0018296863418072462
896.0,0.0003779492690227926
960.0,-0.001096330233849585
1024.0,-0.0037532385904341936
1152.0,-0.0018400584813207388
1280.0,0.0028521441854536533
1408.0,-0.0005929960170760751
1536.0,0.0009593884460628033
1664.0,0.0044404128566384315
1792.0,-0.00016380223678424954
1920.0,-0.005033538676798344
2048.0,0.00020756441517733037
2304.0,0.001880053081549704
2560.0,-0.0007102593081071973
2816.0,-0.0005138127016834915
3072.0,0.0016968760173767805
3328.0,0.003264192258939147
3584.0,0.005903083831071854
3840.0,0.004962664097547531
4096.0,0.00623755156993866
4608.0,-0.0010033826110884547
5120.0,0.0009537494624964893
5632.0,0.00010519731586100534
6144.0,-0.004152994137257338
6656.0,-0.0036855177022516727
7168.0,0.0036109474021941423
7680.0,-0.00029643491143360734
8192.0,-0.002988595049828291
9216.0,-0.003544829087331891
10240.0,-0.004752702079713345
11264.0,-0.0036396184004843235
12288.0,-0.0013343555619940162
13312.0,-0.003915814217180014
14336.0,-0.010344073176383972
end
