version,3.0
numOfCh,1
type,point
parent_name,80-cuts
ch_type,1_1
kcount,1
numberNandB,1
brightnessNandB,1
carpet pos,0
pc,0
Time (ms),CH1 Auto-Correlation
1.0,0.028087874874472618
2.0,0.02773137018084526
3.0,0.027377109974622726
4.0,0.02702311985194683
5.0,0.02666652947664261
6.0,0.02630647085607052
7.0,0.025946417823433876
8.0,0.02558552287518978
9.0,0.025226298719644547
10.0,0.024873260408639908
11.0,0.024525359272956848
12.0,0.0241861492395401
13.0,0.023854583501815796
14.0,0.02353055216372013
15.0,0.023211399093270302
16.0,0.02290070801973343
18.0,0.022291263565421104
20.0,0.021711166948080063
22.0,0.02116052806377411
24.0,0.020631862804293633
26.0,0.020114952698349953
28.0,0.01961211860179901
30.0,0.019141606986522675
32.0,0.018698789179325104
36.0,0.01783674955368042
40.0,0.017016557976603508
44.0,0.01627466082572937
48.0,0.015582052059471607
52.0,0.014922073110938072
56.0,0.014293507672846317
60.0,0.013673534616827965
64.0,0.013119157403707504
72.0,0.012261662632226944
80.0,0.01155698299407959
88.0,0.010813876986503601
96.0,0.01004661712795496
104.0,0.00942922942340374
112.0,0.008836871013045311
120.0,0.00829140655696392
128.0,0.0077137122862041
144.0,0.00649816682562232
160.0,0.0052904593758285046
176.0,0.0041995118372142315
192.0,0.0029834494926035404
208.0,0.002501095412299037
224.0,0.002753413049504161
240.0,0.002883539069443941
256.0,0.0026145009323954582
288.0,0.0015495624393224716
320.0,0.00019198683730792254
352.0,-0.0011332071153447032
384.0,-0.0022152229212224483
416.0,-0.0033042493741959333
448.0,-0.003423489863052964
480.0,-0.0035811271518468857
512.0,-0.003321530297398567
576.0,-0.0023643644526600838
640.0,-0.0023227338679134846
704.0,-0.0018154889112338424
768.0,-0.0007397473091259599
832.0,0.00141635921318084
896.0,0.0018407845636829734
960.0,0.0005601206794381142
1024.0,0.0018083450850099325
1152.0,0.0008282576454803348
1280.0,-0.0008631838718429208
1408.0,-0.0003938156005460769
1536.0,-0.00021471665240824223
1664.0,0.0006810807972215116
1792.0,0.0018365462310612202
1920.0,0.0010722149163484573
2048.0,-0.0012513381661847234
2304.0,0.002390210283920169
2560.0,0.0006560137262567878
2816.0,-0.0013627515872940421
3072.0,-0.00034746629535220563
3328.0,0.0036557940766215324
3584.0,0.00115577329415828
3840.0,0.00040341459680348635
4096.0,0.00220324844121933
4608.0,-0.0012874661479145288
5120.0,0.0008358206250704825
5632.0,0.0023551974445581436
6144.0,-0.00047977539361454546
6656.0,-0.003112457226961851
7168.0,0.0021723974496126175
7680.0,-0.0026367800310254097
8192.0,0.0026461428496986628
9216.0,-0.001374229439534247
10240.0,-0.0028479713946580887
11264.0,-3.7107154639670625e-05
12288.0,-0.0016469816910102963
13312.0,-0.0026120305992662907
14336.0,-0.005624627228826284
end
