version,3.0
numOfCh,1
type,point
parent_name,80-cuts
ch_type,1_1
kcount,1
numberNandB,1
brightnessNandB,1
carpet pos,0
pc,0
Time (ms),CH1 Auto-Correlation
1.0,0.07188180088996887
2.0,0.07093420624732971
3.0,0.06999518722295761
4.0,0.06906498223543167
5.0,0.0681239664554596
6.0,0.06718175858259201
7.0,0.06623483449220657
8.0,0.0653069019317627
9.0,0.06440747529268265
10.0,0.06353380531072617
11.0,0.06266922503709793
12.0,0.06183372437953949
13.0,0.06099473312497139
14.0,0.06016972288489342
15.0,0.0593571737408638
16.0,0.05855072662234306
18.0,0.056976985186338425
20.0,0.05538056418299675
22.0,0.05384784936904907
24.0,0.05238892138004303
26.0,0.05102915316820145
28.0,0.04973863437771797
30.0,0.048504795879125595
32.0,0.047323063015937805
36.0,0.045044805854558945
40.0,0.04283604025840759
44.0,0.040786195546388626
48.0,0.03874203935265541
52.0,0.03692854195833206
56.0,0.035264305770397186
60.0,0.03365670144557953
64.0,0.03224317729473114
72.0,0.02985181100666523
80.0,0.02777712605893612
88.0,0.02585786022245884
96.0,0.023883415386080742
104.0,0.021904828026890755
112.0,0.02012362889945507
120.0,0.01883448287844658
128.0,0.01771087571978569
144.0,0.015034053474664688
160.0,0.012188381515443325
176.0,0.009262915700674057
192.0,0.006283686030656099
208.0,0.003943071700632572
224.0,0.003461359068751335
240.0,0.0035996558144688606
256.0,0.002857802202925086
288.0,-1.7407190171070397e-05
320.0,-0.0019180667586624622
352.0,-0.0010314234532415867
384.0,0.0019965842366218567
416.0,0.004950776696205139
448.0,0.00533765135332942
480.0,0.006195604335516691
512.0,0.007551221642643213
576.0,0.0045617022551596165
640.0,0.005288653075695038
704.0,0.007716180291026831
768.0,0.007655405905097723
832.0,0.003989125601947308
896.0,-0.0007404556381516159
960.0,-0.001150408643297851
1024.0,-0.0016338556306436658
1152.0,0.0021727813873440027
1280.0,0.005087760277092457
1408.0,0.0054112146608531475
1536.0,0.005717088468372822
1664.0,0.005711544305086136
1792.0,0.0004165650170762092
1920.0,0.0014832536689937115
2048.0,0.005364818032830954
2304.0,0.006045008078217506
2560.0,-0.0010412278352305293
2816.0,0.004762942902743816
3072.0,-0.001583985285833478
3328.0,-0.002695742528885603
3584.0,0.0007776269339956343
3840.0,0.005100489594042301
4096.0,-0.005944531410932541
4608.0,-0.005215718876570463
5120.0,-0.00024766192655079067
5632.0,0.0003894676046911627
6144.0,-0.0011844815453514457
6656.0,-0.00247765495441854
7168.0,-0.006327834911644459
7680.0,-0.005523968953639269
8192.0,-0.005031405482441187
9216.0,0.002114118542522192
10240.0,-0.004400371573865414
11264.0,0.0033397595398128033
12288.0,-0.007211959455162287
13312.0,-0.007490421645343304
14336.0,-0.007629061583429575
end
