version,3.0
numOfCh,1
type,point
parent_name,80-cuts
ch_type,1_1
kcount,1
numberNandB,1
brightnessNandB,1
carpet pos,0
pc,0
Time (ms),CH1 Auto-Correlation
1.0,0.05868500471115112
2.0,0.05801215022802353
3.0,0.057354796677827835
4.0,0.056717801839113235
5.0,0.05610804259777069
6.0,0.05550353601574898
7.0,0.05488996580243111
8.0,0.05428435280919075
9.0,0.053685300052165985
10.0,0.05310877412557602
11.0,0.052545029670000076
12.0,0.051996082067489624
13.0,0.05144516006112099
14.0,0.05090032517910004
15.0,0.05034853518009186
16.0,0.04978296905755997
18.0,0.048731639981269836
20.0,0.047750409692525864
22.0,0.04681728035211563
24.0,0.04591243341565132
26.0,0.04507127031683922
28.0,0.04426693916320801
30.0,0.043465495109558105
32.0,0.0426635667681694
36.0,0.041067272424697876
40.0,0.0396457277238369
44.0,0.03827224671840668
48.0,0.03691418468952179
52.0,0.03570179268717766
56.0,0.03456246480345726
60.0,0.03351178765296936
64.0,0.032545942813158035
72.0,0.03088006004691124
80.0,0.029648754745721817
88.0,0.028475342318415642
96.0,0.02714611403644085
104.0,0.025845300406217575
112.0,0.024417085573077202
120.0,0.022894663736224174
128.0,0.02129392698407173
144.0,0.018121711909770966
160.0,0.015563047491014004
176.0,0.013283590786159039
192.0,0.011289877817034721
208.0,0.009445535950362682
224.0,0.00772430282086134
240.0,0.005906519014388323
256.0,0.004567865282297134
288.0,0.001968264114111662
320.0,-0.00013440662587527186
352.0,-0.00041985479765571654
384.0,0.0004941402585245669
416.0,1.4672014913230669e-05
448.0,-0.002383079845458269
480.0,-0.0025094528682529926
512.0,6.73667891533114e-05
576.0,0.0022321888245642185
640.0,0.0030681330244988203
704.0,0.004042797721922398
768.0,0.00627632113173604
832.0,0.005807108245790005
896.0,0.004240410402417183
960.0,0.0009179268963634968
1024.0,-0.004458039533346891
1152.0,-0.007850365713238716
1280.0,-0.004238313529640436
1408.0,0.0004702087608166039
1536.0,0.003556631039828062
1664.0,0.002729334169998765
1792.0,-0.0012856527464464307
1920.0,-0.0097506707534194
2048.0,-0.008768899366259575
2304.0,0.003331972286105156
2560.0,-0.0016559285577386618
2816.0,-0.0030807338189333677
3072.0,0.0013866639928892255
3328.0,-0.0036407695151865482
3584.0,-0.004285785369575024
3840.0,0.005826123058795929
4096.0,0.005159769672900438
4608.0,-0.0049161482602357864
5120.0,-0.010186653584241867
5632.0,-0.0008341875509358943
6144.0,0.002658048179000616
6656.0,0.003457203507423401
7168.0,0.010060722939670086
7680.0,0.001171389245428145
8192.0,-0.000627095636446029
9216.0,-0.004136977251619101
10240.0,0.00018538344011176378
11264.0,-0.0013933908194303513
12288.0,-0.005992560181766748
13312.0,-0.0001471244468120858
14336.0,0.006143749225884676
end
