version,3.0
numOfCh,1
type,point
parent_name,80-cuts
ch_type,1_1
kcount,1
numberNandB,1
brightnessNandB,1
carpet pos,0
pc,0
Time (ms),CH1 Auto-Correlation
1.0,0.0569797046482563
2.0,0.05625510588288307
3.0,0.05557495355606079
4.0,0.054889827966690063
5.0,0.05423053726553917
6.0,0.053579770028591156
7.0,0.052940864115953445
8.0,0.052311159670352936
9.0,0.05167815461754799
10.0,0.051052164286375046
11.0,0.050453070551157
12.0,0.04986785352230072
13.0,0.04929037764668465
14.0,0.04874390363693237
15.0,0.048184290528297424
16.0,0.047639328986406326
18.0,0.04661979526281357
20.0,0.04564306512475014
22.0,0.044655341655015945
24.0,0.04364459589123726
26.0,0.042636364698410034
28.0,0.04163145646452904
30.0,0.04061800613999367
32.0,0.03968263044953346
36.0,0.037939395755529404
40.0,0.036435388028621674
44.0,0.03498043492436409
48.0,0.033605366945266724
52.0,0.0323028601706028
56.0,0.031009521335363388
60.0,0.029739446938037872
64.0,0.02846594899892807
72.0,0.026030639186501503
80.0,0.023711401969194412
88.0,0.021697666496038437
96.0,0.019962338730692863
104.0,0.018491674214601517
112.0,0.0173883605748415
120.0,0.016430223360657692
128.0,0.01555708609521389
144.0,0.013828583061695099
160.0,0.012140801176428795
176.0,0.010738221928477287
192.0,0.009521504864096642
208.0,0.0075514717027544975
224.0,0.0054824380204081535
240.0,0.003868803149089217
256.0,0.003050168976187706
288.0,0.00291886692866683
320.0,0.002721051685512066
352.0,0.0015710671432316303
384.0,-0.0002538540284149349
416.0,-0.0025240255054086447
448.0,-0.003502162406221032
480.0,-0.0036148191429674625
512.0,-0.002783436793833971
576.0,-0.0009871722431853414
640.0,0.0007072447915561497
704.0,0.004855629056692123
768.0,0.006323087960481644
832.0,0.004121863283216953
896.0,0.004599140956997871
960.0,0.005438020918518305
1024.0,0.0030865760054439306
1152.0,0.0016531660221517086
1280.0,0.002897488186135888
1408.0,-0.0004518559144344181
1536.0,0.0011678176233544946
1664.0,0.0040777078829705715
1792.0,0.004117718897759914
1920.0,0.0029989511240273714
2048.0,0.0059052687138319016
2304.0,0.0043634213507175446
2560.0,0.0033500927966088057
2816.0,-0.0008035983191803098
3072.0,-0.004459917079657316
3328.0,-0.004238942172378302
3584.0,-0.005465968511998653
3840.0,-0.002589970361441374
4096.0,0.003666536184027791
4608.0,-0.0012808858882635832
5120.0,-0.005202040076255798
5632.0,-0.004932889714837074
6144.0,-0.0022987232077866793
6656.0,0.00026190929929725826
7168.0,-0.0009828486945480108
7680.0,-0.00736910430714488
8192.0,-0.0007782443426549435
9216.0,-0.0029248620849102736
10240.0,-0.0045566619373857975
11264.0,0.0012001259019598365
12288.0,0.002172543667256832
13312.0,0.0077911787666380405
14336.0,0.005222805310040712
end
