version,3.0
numOfCh,1
type,point
parent_name,80-cuts
ch_type,1_1
kcount,1
numberNandB,1
brightnessNandB,1
carpet pos,0
pc,0
Time (ms),CH1 Auto-Correlation
1.0,0.029564358294010162
2.0,0.029207607731223106
3.0,0.028862589970231056
4.0,0.028523674234747887
5.0,0.028181465342640877
6.0,0.027844712138175964
7.0,0.027511298656463623
8.0,0.02717335894703865
9.0,0.02683006040751934
10.0,0.026492197066545486
11.0,0.026183415204286575
12.0,0.025887370109558105
13.0,0.02560153789818287
14.0,0.02532329596579075
15.0,0.025044722482562065
16.0,0.024772226810455322
18.0,0.024224627763032913
20.0,0.02368728257715702
22.0,0.02315412648022175
24.0,0.022645190358161926
26.0,0.02215651050209999
28.0,0.021679848432540894
30.0,0.021208228543400764
32.0,0.020737381651997566
36.0,0.01980665884912014
40.0,0.0189104825258255
44.0,0.01799822598695755
48.0,0.017078422009944916
52.0,0.016176890581846237
56.0,0.015305469743907452
60.0,0.014453238807618618
64.0,0.013630125671625137
72.0,0.012024340219795704
80.0,0.010577184148132801
88.0,0.009211480617523193
96.0,0.0077776252292096615
104.0,0.006476942915469408
112.0,0.005308428779244423
120.0,0.004267238080501556
128.0,0.003317912109196186
144.0,0.0016827457584440708
160.0,0.0003051520907320082
176.0,-0.0006410802598111331
192.0,-0.0011124077718704939
208.0,-0.0010903510265052319
224.0,-0.0011640540324151516
240.0,-0.0011790191056206822
256.0,-0.0010367300128564239
288.0,-0.00041602327837608755
320.0,-9.084874182008207e-05
352.0,-0.0005664563504979014
384.0,-0.001800473895855248
416.0,-0.0027421102859079838
448.0,-0.003258212236687541
480.0,-0.0032157928217202425
512.0,-0.002439957344904542
576.0,-4.2403582483530045e-05
640.0,0.0008843938703648746
704.0,0.0015055028488859534
768.0,0.0010456923628225923
832.0,0.0008924792055040598
896.0,0.0006963637424632907
960.0,0.0016492280410602689
1024.0,0.0007038114708848298
1152.0,0.002226209035143256
1280.0,0.00284727499820292
1408.0,-0.0009691055165603757
1536.0,0.0014182610902935266
1664.0,-0.00010227296297671273
1792.0,-0.005391046404838562
1920.0,-0.003947563469409943
2048.0,-0.0024738090578466654
2304.0,9.243203749065287e-07
2560.0,-0.00098228151910007
2816.0,-0.0010393968550488353
3072.0,-0.0012757349759340286
3328.0,-0.000778151850681752
3584.0,-0.0007929836283437908
3840.0,-0.0008163281017914414
4096.0,-6.947364909137832e-06
4608.0,0.0008501382544636726
5120.0,-0.00028669426683336496
5632.0,0.0009155718144029379
6144.0,0.001335055218078196
6656.0,0.0003461099404376
7168.0,-0.00022867061488796026
7680.0,-0.0009219080093316734
8192.0,-0.001200193539261818
9216.0,0.0004692885559052229
10240.0,-0.00014342664508149028
11264.0,-0.0007957869675010443
12288.0,-0.0009188850526697934
13312.0,-0.0004419674805831164
14336.0,4.347324193076929e-06
end
