version,3.0
numOfCh,1
type,point
parent_name,80-cuts
ch_type,1_1
kcount,1
numberNandB,1
brightnessNandB,1
carpet pos,0
pc,0
Time (ms),CH1 Auto-Correlation
1.0,0.026601208373904228
2.0,0.026277823373675346
3.0,0.02595795877277851
4.0,0.02563767321407795
5.0,0.025316722691059113
6.0,0.02499900385737419
7.0,0.024685310199856758
8.0,0.024379633367061615
9.0,0.0240803025662899
10.0,0.02378907799720764
11.0,0.023506898432970047
12.0,0.023222194984555244
13.0,0.02294253744184971
14.0,0.022665852680802345
15.0,0.02239617519080639
16.0,0.022130826488137245
18.0,0.021636759862303734
20.0,0.02115432545542717
22.0,0.020695507526397705
24.0,0.02025986649096012
26.0,0.0198340006172657
28.0,0.01940838433802128
30.0,0.01898384466767311
32.0,0.01858578808605671
36.0,0.017811309546232224
40.0,0.017094649374485016
44.0,0.016368810087442398
48.0,0.01565282605588436
52.0,0.014991579577326775
56.0,0.0143544040620327
60.0,0.013731176033616066
64.0,0.013139400631189346
72.0,0.01190197467803955
80.0,0.010849636048078537
88.0,0.009891748428344727
96.0,0.009034059941768646
104.0,0.00827077031135559
112.0,0.007682620547711849
120.0,0.00716652674600482
128.0,0.006809762679040432
144.0,0.006247379817068577
160.0,0.005801609251648188
176.0,0.005683260969817638
192.0,0.0055846283212304115
208.0,0.005383193027228117
224.0,0.005253736861050129
240.0,0.0055017550475895405
256.0,0.005384921096265316
288.0,0.004443418234586716
320.0,0.0037862653844058514
352.0,0.0034636983182281256
384.0,0.0041076489724218845
416.0,0.004701212979853153
448.0,0.004776316229254007
480.0,0.0047554997727274895
512.0,0.005040284711867571
576.0,0.0043491581454873085
640.0,0.0027747356798499823
704.0,0.0021683122031390667
768.0,0.0018346289871260524
832.0,0.0016035473672673106
896.0,0.0027183133643120527
960.0,0.0032602499704807997
1024.0,0.001874843263067305
1152.0,0.0016936424653977156
1280.0,-7.839317549951375e-05
1408.0,-0.0014753768919035792
1536.0,-0.0004689821507781744
1664.0,0.001862629665993154
1792.0,0.0010947210248559713
1920.0,0.0026096953079104424
2048.0,0.0030587029177695513
2304.0,0.0015935453120619059
2560.0,0.0015437948750331998
2816.0,0.001371284481137991
3072.0,8.158324635587633e-05
3328.0,-0.0019398838048800826
3584.0,-0.003696251893416047
3840.0,-0.002529307035729289
4096.0,-0.0032135548535734415
4608.0,-0.002525521442294121
5120.0,-0.0031605674885213375
5632.0,-0.004195632413029671
6144.0,-0.004362824838608503
6656.0,-0.0012957962462678552
7168.0,-0.0006159978220239282
7680.0,-0.0005057437811046839
8192.0,-0.0013518371852114797
9216.0,0.0021551039535552263
10240.0,0.0015568756498396397
11264.0,0.002921662526205182
12288.0,0.0006489967927336693
13312.0,-0.005188264884054661
14336.0,0.0008168530184775591
end
