version,3.0
numOfCh,1
type,point
parent_name,80-cuts
ch_type,1_1
kcount,1
numberNandB,1
brightnessNandB,1
carpet pos,0
pc,0
Time (ms),CH1 Auto-Correlation
1.0,0.07169297337532043
2.0,0.07081887125968933
3.0,0.06996304541826248
4.0,0.06911693513393402
5.0,0.06828729808330536
6.0,0.06746900826692581
7.0,0.06667474657297134
8.0,0.0659138411283493
9.0,0.06516203284263611
10.0,0.0644177719950676
11.0,0.06369639188051224
12.0,0.0629698783159256
13.0,0.062246233224868774
14.0,0.06154312938451767
15.0,0.06086702272295952
16.0,0.06020298972725868
18.0,0.05886419489979744
20.0,0.057584621012210846
22.0,0.05630704388022423
24.0,0.055048245936632156
26.0,0.05380670726299286
28.0,0.052590321749448776
30.0,0.05141943320631981
32.0,0.05025219917297363
36.0,0.048033036291599274
40.0,0.04597378522157669
44.0,0.04395123943686485
48.0,0.04213114082813263
52.0,0.04045539349317551
56.0,0.03876534104347229
60.0,0.03710388392210007
64.0,0.03540131449699402
72.0,0.032305262982845306
80.0,0.029663965106010437
88.0,0.02744501456618309
96.0,0.025575412437319756
104.0,0.023886896669864655
112.0,0.02228325977921486
120.0,0.020899979397654533
128.0,0.019518418237566948
144.0,0.017549987882375717
160.0,0.01598670333623886
176.0,0.01441135536879301
192.0,0.01223854161798954
208.0,0.010228830389678478
224.0,0.007869615219533443
240.0,0.005612795706838369
256.0,0.003921354189515114
288.0,0.0012256044428795576
320.0,-0.00037678179796785116
352.0,-0.0013817804865539074
384.0,-0.0004484048404265195
416.0,-1.8668528355192393e-05
448.0,-0.0017695588758215308
480.0,-0.002373598050326109
512.0,-0.002184760756790638
576.0,-0.0013138501672074199
640.0,0.0013566197594627738
704.0,0.0014884208794683218
768.0,-0.0013153573963791132
832.0,-0.003080118680372834
896.0,-0.0037101919297128916
960.0,-0.005435079336166382
1024.0,-0.005402980372309685
1152.0,-0.006995790172368288
1280.0,-0.0010281241266056895
1408.0,0.002745527308434248
1536.0,0.006554147694259882
1664.0,0.003803676925599575
1792.0,0.0026199461426585913
1920.0,-0.0026033897884190083
2048.0,-0.003589829197153449
2304.0,-0.0029698600992560387
2560.0,-0.002944416832178831
2816.0,0.002273766789585352
3072.0,0.007946033030748367
3328.0,0.00568689638748765
3584.0,0.00038112769834697247
3840.0,-0.0013726084725931287
4096.0,-0.004794378764927387
4608.0,-0.0053409854881465435
5120.0,0.006262490991503
5632.0,0.0008909864700399339
6144.0,-0.0043800463899970055
6656.0,0.0005365124088712037
7168.0,0.0039535691030323505
7680.0,-0.007288504857569933
8192.0,-0.0024966264609247446
9216.0,-0.00022088152763899416
10240.0,-0.004352419171482325
11264.0,-0.007104204501956701
12288.0,-0.0024301735684275627
13312.0,-0.00046817719703540206
14336.0,0.0039482442662119865
end
