version,3.0
numOfCh,1
type,point
parent_name,80-cuts
ch_type,1_1
kcount,1
numberNandB,1
brightnessNandB,1
carpet pos,0
pc,0
Time (ms),CH1 Auto-Correlation
1.0,0.07113189250230789
2.0,0.07023818790912628
3.0,0.06935551017522812
4.0,0.06848737597465515
5.0,0.06761936098337173
6.0,0.06676077842712402
7.0,0.06590073555707932
8.0,0.06505586206912994
9.0,0.06427207589149475
10.0,0.06349612027406693
11.0,0.06274676322937012
12.0,0.062007561326026917
13.0,0.06128557026386261
14.0,0.060564447194337845
15.0,0.059857144951820374
16.0,0.059157975018024445
18.0,0.05775444209575653
20.0,0.05633533000946045
22.0,0.05495607480406761
24.0,0.053610797971487045
26.0,0.052312638610601425
28.0,0.0510127954185009
30.0,0.049747247248888016
32.0,0.04850822314620018
36.0,0.04616454243659973
40.0,0.0441351979970932
44.0,0.04211393743753433
48.0,0.04031290113925934
52.0,0.03880525380373001
56.0,0.037608154118061066
60.0,0.03656397759914398
64.0,0.03554437309503555
72.0,0.033564493060112
80.0,0.03169300779700279
88.0,0.030171619728207588
96.0,0.029200782999396324
104.0,0.028347551822662354
112.0,0.027267558500170708
120.0,0.026121903210878372
128.0,0.024929510429501534
144.0,0.02266768552362919
160.0,0.020474694669246674
176.0,0.01816527545452118
192.0,0.015973612666130066
208.0,0.013429525308310986
224.0,0.010617842897772789
240.0,0.008285975083708763
256.0,0.007292937953025103
288.0,0.006074126809835434
320.0,0.004008592572063208
352.0,0.0012368174502626061
384.0,0.0008507765014655888
416.0,0.000881010084412992
448.0,0.0013928728876635432
480.0,0.00046359203406609595
512.0,-0.0001277963601751253
576.0,0.003552875714376569
640.0,0.0010960550280287862
704.0,-0.00012370143667794764
768.0,-0.00014933427155483514
832.0,0.0021770407911390066
896.0,0.003215025644749403
960.0,0.0066545819863677025
1024.0,0.004218975082039833
1152.0,0.0041574169881641865
1280.0,0.005523101892322302
1408.0,0.0010311282239854336
1536.0,-0.0021156040020287037
1664.0,-0.0020834484603255987
1792.0,0.002446000697091222
1920.0,0.0035974772181361914
2048.0,0.0006688909488730133
2304.0,-0.005996330641210079
2560.0,-0.010905430652201176
2816.0,-0.006109397392719984
3072.0,-0.00040295356302522123
3328.0,-0.006503142882138491
3584.0,0.000729920924641192
3840.0,-0.001661121379584074
4096.0,-0.007334968540817499
4608.0,-0.0032777292653918266
5120.0,-0.00699494918808341
5632.0,-0.0029069362208247185
6144.0,-0.003565006423741579
6656.0,-0.00019184793927706778
7168.0,-0.003092336468398571
7680.0,0.011038435623049736
8192.0,0.0014340748311951756
9216.0,0.000890729483217001
10240.0,0.0025980856735259295
11264.0,0.004006273113191128
12288.0,-0.0032408328261226416
13312.0,-0.0038877632468938828
14336.0,-0.005412396043539047
end
