version,3.0
numOfCh,1
type,point
parent_name,80-cuts
ch_type,1_1
kcount,1
numberNandB,1
brightnessNandB,1
carpet pos,0
pc,0
Time (ms),CH1 Auto-Correlation
1.0,0.036107633262872696
2.0,0.03575659543275833
3.0,0.035412635654211044
4.0,0.03507741540670395
5.0,0.034745726734399796
6.0,0.03442017734050751
7.0,0.03410416096448898
8.0,0.03380022943019867
9.0,0.033497296273708344
10.0,0.03319288417696953
11.0,0.032899465411901474
12.0,0.03260968625545502
13.0,0.032326072454452515
14.0,0.032037001103162766
15.0,0.031742557883262634
16.0,0.03145216777920723
18.0,0.0308678038418293
20.0,0.0303080752491951
22.0,0.029777076095342636
24.0,0.029293490573763847
26.0,0.028862686827778816
28.0,0.02844594046473503
30.0,0.028046518564224243
32.0,0.027661273255944252
36.0,0.026905938982963562
40.0,0.026230905205011368
44.0,0.025536080822348595
48.0,0.02484651654958725
52.0,0.02416345663368702
56.0,0.023526687175035477
60.0,0.02291349694132805
64.0,0.02230396680533886
72.0,0.021129095926880836
80.0,0.020111029967665672
88.0,0.019189532846212387
96.0,0.018285272642970085
104.0,0.017347460612654686
112.0,0.016422821208834648
120.0,0.015554822981357574
128.0,0.014761322177946568
144.0,0.0130182895809412
160.0,0.011465298943221569
176.0,0.010543379932641983
192.0,0.009507890790700912
208.0,0.008265355601906776
224.0,0.007043112069368362
240.0,0.006167943123728037
256.0,0.005480480380356312
288.0,0.00407774792984128
320.0,0.0034387032501399517
352.0,0.00328865391202271
384.0,0.003752026939764619
416.0,0.002889453200623393
448.0,0.001462428132072091
480.0,0.0006008336204104125
512.0,0.0008816787740215659
576.0,0.002357444493100047
640.0,0.0024676898028701544
704.0,0.0017032247269526124
768.0,0.0009944087360054255
832.0,0.00014848107821308076
896.0,-0.0005758191109634936
960.0,-0.0008596339612267911
1024.0,-0.0008709002286195755
1152.0,-0.0022764992900192738
1280.0,-0.0030487177427858114
1408.0,-0.001803507562726736
1536.0,-0.0001163222550530918
1664.0,0.00021645317610818893
1792.0,-0.0006687595741823316
1920.0,-0.0008165244362317026
2048.0,-0.0012509814696386456
2304.0,-0.00043999249464832246
2560.0,0.0029649545904248953
2816.0,0.001163405948318541
3072.0,0.0002602867316454649
3328.0,0.0015360809629783034
3584.0,0.0001623380376258865
3840.0,-0.0021336236968636513
4096.0,-0.0015607067616656423
4608.0,0.0024233921431005
5120.0,0.005079990718513727
5632.0,0.0026229452341794968
6144.0,-0.0060908738523721695
6656.0,0.0007721649017184973
7168.0,-0.0012995755532756448
7680.0,-0.0013865638757124543
8192.0,0.006406239699572325
9216.0,-0.007370470091700554
10240.0,-1.5766328942845576e-05
11264.0,-0.0019112027948722243
12288.0,0.00023736944422125816
13312.0,-0.0023186039179563522
14336.0,-0.022181378677487373
end
