version,3.0
numOfCh,1
type,point
parent_name,80-cuts
ch_type,1_1
kcount,1
numberNandB,1
brightnessNandB,1
carpet pos,0
pc,0
Time (ms),CH1 Auto-Correlation
1.0,0.03205849230289459
2.0,0.03175673261284828
3.0,0.03146037831902504
4.0,0.03116796538233757
5.0,0.030876629054546356
6.0,0.030582113191485405
7.0,0.03029126301407814
8.0,0.030002254992723465
9.0,0.029717709869146347
10.0,0.02943931706249714
11.0,0.029164273291826248
12.0,0.028903000056743622
13.0,0.028642555698752403
14.0,0.028389791026711464
15.0,0.028135649859905243
16.0,0.027883512899279594
18.0,0.02739289030432701
20.0,0.026908310130238533
22.0,0.026440152898430824
24.0,0.025989430025219917
26.0,0.025561347603797913
28.0,0.025159746408462524
30.0,0.02475867047905922
32.0,0.024359604343771935
36.0,0.023584360256791115
40.0,0.022832060232758522
44.0,0.022107737138867378
48.0,0.021436257287859917
52.0,0.020829038694500923
56.0,0.020275359973311424
60.0,0.01974477618932724
64.0,0.019217880442738533
72.0,0.018174530938267708
80.0,0.017193615436553955
88.0,0.016408365219831467
96.0,0.01577308587729931
104.0,0.015208890661597252
112.0,0.014672216027975082
120.0,0.014135932549834251
128.0,0.013609441928565502
144.0,0.012472717091441154
160.0,0.01138549018651247
176.0,0.010522938333451748
192.0,0.00985048245638609
208.0,0.009188245050609112
224.0,0.008635886013507843
240.0,0.008396350778639317
256.0,0.008312604390084743
288.0,0.007607248146086931
320.0,0.006001965142786503
352.0,0.00429677264764905
384.0,0.0034764744341373444
416.0,0.0032810166012495756
448.0,0.003100643865764141
480.0,0.0028618250507861376
512.0,0.0030645804945379496
576.0,0.0034719870891422033
640.0,0.004061597865074873
704.0,0.0044973185285925865
768.0,0.005499059800058603
832.0,0.007187927607446909
896.0,0.007968712598085403
960.0,0.007114897016435862
1024.0,0.005807527806609869
1152.0,0.0018442326691001654
1280.0,-2.2433436242863536e-05
1408.0,-0.00025847138022072613
1536.0,-0.001293893321417272
1664.0,-0.0009076199494302273
1792.0,0.0005945092416368425
1920.0,0.0015954648843035102
2048.0,-0.00200006109662354
2304.0,-0.007138744927942753
2560.0,-0.008012909442186356
2816.0,-0.006268897093832493
3072.0,-0.01195373386144638
3328.0,-0.006680324673652649
3584.0,-0.0030833985656499863
3840.0,-0.0014035424683243036
4096.0,-0.0051450883038342
4608.0,-4.6610548452008516e-05
5120.0,0.004546955693513155
5632.0,0.005517580080777407
6144.0,0.0018467947375029325
6656.0,0.0006320297252386808
7168.0,-0.001126125454902649
7680.0,-0.0034594174940139055
8192.0,-0.007663937285542488
9216.0,-0.001496880897320807
10240.0,0.004054220858961344
11264.0,0.005349095445126295
12288.0,0.001632128143683076
13312.0,-0.0026870444416999817
14336.0,-0.0028511122800409794
end
