version,3.0
numOfCh,1
type,point
parent_name,80-cuts
ch_type,1_1
kcount,1
numberNandB,1
brightnessNandB,1
carpet pos,0
pc,0
Time (ms),CH1 Auto-Correlation
1.0,0.1007663682103157
2.0,0.09962467849254608
3.0,0.09846983850002289
4.0,0.09731213003396988
5.0,0.09616275876760483
6.0,0.0950130745768547
7.0,0.09389807283878326
8.0,0.09282331168651581
9.0,0.0917430892586708
10.0,0.09065110236406326
11.0,0.08959509432315826
12.0,0.08854814618825912
13.0,0.08751481026411057
14.0,0.08646483719348907
15.0,0.08541931211948395
16.0,0.08436733484268188
18.0,0.08236447721719742
20.0,0.08045128732919693
22.0,0.07857690006494522
24.0,0.07674147933721542
26.0,0.07494998723268509
28.0,0.0732942670583725
30.0,0.0716199055314064
32.0,0.06995019316673279
36.0,0.06679902225732803
40.0,0.06394273787736893
44.0,0.06114707887172699
48.0,0.05831236019730568
52.0,0.05548504739999771
56.0,0.05282171070575714
60.0,0.05038890242576599
64.0,0.04816325753927231
72.0,0.04462055116891861
80.0,0.04167276248335838
88.0,0.039398808032274246
96.0,0.03750874847173691
104.0,0.03569163754582405
112.0,0.03357156366109848
120.0,0.03181345760822296
128.0,0.029945729300379753
144.0,0.02519177831709385
160.0,0.0208872240036726
176.0,0.016755295917391777
192.0,0.013555599376559258
208.0,0.011678730137646198
224.0,0.010149489156901836
240.0,0.008790985681116581
256.0,0.007712387014180422
288.0,0.0053500160574913025
320.0,0.004793079569935799
352.0,0.005719107575714588
384.0,0.00744637381285429
416.0,0.007090828847140074
448.0,0.005682982970029116
480.0,0.007159336935728788
512.0,0.010121181607246399
576.0,0.014377910643815994
640.0,0.014330189675092697
704.0,0.008384463377296925
768.0,-8.438500458396447e-07
832.0,-0.005166409537196159
896.0,-0.007120050489902496
960.0,-0.003035550704225898
1024.0,-0.004407336004078388
1152.0,5.6062126532197e-05
1280.0,0.009981591254472733
1408.0,0.0004381480684969574
1536.0,-0.007441139314323664
1664.0,-0.0058143651112914085
1792.0,0.003997413907200098
1920.0,0.00735537288710475
2048.0,-0.0041927858255803585
2304.0,-0.010748546570539474
2560.0,-0.0022910600528120995
2816.0,-0.01268790289759636
3072.0,-0.003155129263177514
3328.0,-0.009008916094899178
3584.0,-0.0009624019148759544
3840.0,0.010335172526538372
4096.0,0.0034771827049553394
4608.0,0.012629557400941849
5120.0,0.007993929088115692
5632.0,-0.0027873918879777193
6144.0,-0.0034354215022176504
6656.0,-0.005333166569471359
7168.0,-0.018461128696799278
7680.0,-0.0018968959338963032
8192.0,0.0035007267724722624
9216.0,0.0065770624205470085
10240.0,0.0009493207326158881
11264.0,-0.020605068653821945
12288.0,-0.01521688885986805
13312.0,-0.004887466784566641
14336.0,0.028306838124990463
end
