version,3.0
numOfCh,1
type,point
parent_name,80-cuts
ch_type,1_1
kcount,1
numberNandB,1
brightnessNandB,1
carpet pos,0
pc,0
Time (ms),CH1 Auto-Correlation
1.0,0.07157778739929199
2.0,0.07077650725841522
3.0,0.06999746710062027
4.0,0.0692356750369072
5.0,0.06847792863845825
6.0,0.06769315898418427
7.0,0.06690511107444763
8.0,0.06613242626190186
9.0,0.06536753475666046
10.0,0.06460228562355042
11.0,0.06386396288871765
12.0,0.06313590705394745
13.0,0.06241416186094284
14.0,0.06169215962290764
15.0,0.06098204478621483
16.0,0.060269907116889954
18.0,0.058879654854536057
20.0,0.057521410286426544
22.0,0.05617609992623329
24.0,0.054833754897117615
26.0,0.05346180871129036
28.0,0.05213227495551109
30.0,0.05086357519030571
32.0,0.049675602465867996
36.0,0.047454334795475006
40.0,0.04538802057504654
44.0,0.04336225613951683
48.0,0.041438255459070206
52.0,0.03980191424489021
56.0,0.03834788128733635
60.0,0.03709591552615166
64.0,0.035920578986406326
72.0,0.03367697447538376
80.0,0.03138892352581024
88.0,0.029384896159172058
96.0,0.02751776948571205
104.0,0.02592109516263008
112.0,0.024560891091823578
120.0,0.023106005042791367
128.0,0.02180452272295952
144.0,0.0193399116396904
160.0,0.017064595595002174
176.0,0.014829834923148155
192.0,0.01289520412683487
208.0,0.01109988335520029
224.0,0.00971235428005457
240.0,0.009663835167884827
256.0,0.009374547749757767
288.0,0.008305410854518414
320.0,0.0067816125229001045
352.0,0.005974451079964638
384.0,0.006273839622735977
416.0,0.004784812685102224
448.0,0.0029508580919355154
480.0,0.0014575938694179058
512.0,-0.0006971149705350399
576.0,-0.0009901657467707992
640.0,0.002169953193515539
704.0,0.0065796589478850365
768.0,0.0022635580971837044
832.0,-0.005012232810258865
896.0,-0.007699709385633469
960.0,-0.007322989869862795
1024.0,-0.004158405587077141
1152.0,-0.00528645608574152
1280.0,-0.005262212827801704
1408.0,-0.0021960942540317774
1536.0,0.0007216549129225314
1664.0,0.0020471045281738043
1792.0,0.0011699758470058441
1920.0,-0.00478021614253521
2048.0,-0.004083993379026651
2304.0,-2.5691240807645954e-05
2560.0,-0.0037219389341771603
2816.0,-0.005169290583580732
3072.0,-0.009271970018744469
3328.0,-0.0024367752484977245
3584.0,-0.0026016910560429096
3840.0,-0.006539052817970514
4096.0,0.006881708279252052
4608.0,0.006754762027412653
5120.0,0.004086116328835487
5632.0,-0.003484969725832343
6144.0,0.002550913719460368
6656.0,-0.003536356147378683
7168.0,-0.0019764613825827837
7680.0,-0.002466152887791395
8192.0,-0.011727393604815006
9216.0,0.0011566539760679007
10240.0,0.000980097334831953
11264.0,-0.0007939627976156771
12288.0,-0.0015188453253358603
13312.0,0.003915096167474985
14336.0,0.007124012336134911
end
