version,3.0
numOfCh,1
type,point
parent_name,80-cuts
ch_type,1_1
kcount,1
numberNandB,1
brightnessNandB,1
carpet pos,0
pc,0
Time (ms),CH1 Auto-Correlation
1.0,0.027043236419558525
2.0,0.02673845738172531
3.0,0.02643943950533867
4.0,0.026147646829485893
5.0,0.025849809870123863
6.0,0.02554849162697792
7.0,0.025248315185308456
8.0,0.02495501935482025
9.0,0.02466723695397377
10.0,0.024384155869483948
11.0,0.024109741672873497
12.0,0.023839162662625313
13.0,0.023573877289891243
14.0,0.02330722287297249
15.0,0.023040855303406715
16.0,0.022773366421461105
18.0,0.02226288989186287
20.0,0.021776199340820312
22.0,0.02130216732621193
24.0,0.020837802439928055
26.0,0.020399408414959908
28.0,0.01998257078230381
30.0,0.019572146236896515
32.0,0.019157493487000465
36.0,0.01836407743394375
40.0,0.017621897161006927
44.0,0.016913214698433876
48.0,0.016235094517469406
52.0,0.015597905963659286
56.0,0.014971042051911354
60.0,0.014352369122207165
64.0,0.013791020959615707
72.0,0.012714139185845852
80.0,0.011640322394669056
88.0,0.01068892702460289
96.0,0.00991054717451334
104.0,0.009222094900906086
112.0,0.008652258664369583
120.0,0.008186960592865944
128.0,0.0077487933449447155
144.0,0.006961817387491465
160.0,0.006088401190936565
176.0,0.005284945480525494
192.0,0.00459689274430275
208.0,0.0037976293824613094
224.0,0.0030121791642159224
240.0,0.0025287216994911432
256.0,0.001984973670914769
288.0,0.0009142689523287117
320.0,-0.00010312679660273716
352.0,-0.0008941703126765788
384.0,-0.001312369597144425
416.0,-0.001254696981050074
448.0,-0.0007546210545115173
480.0,-0.0011377936461940408
512.0,-0.0018311655148863792
576.0,-0.001676836865954101
640.0,-0.0006297717918641865
704.0,0.0003448948555160314
768.0,0.0012749774614349008
832.0,0.00256086653098464
896.0,0.002307350980117917
960.0,0.0012395521625876427
1024.0,0.001560103497467935
1152.0,0.0008613057434558868
1280.0,-0.0009113723644986749
1408.0,-0.0013899393379688263
1536.0,-0.0020022019743919373
1664.0,-0.0005782967782579362
1792.0,-0.0019920077174901962
1920.0,-0.00247555086389184
2048.0,-0.0023140073753893375
2304.0,-0.0018663113005459309
2560.0,-0.0027901753783226013
2816.0,-0.0038582123816013336
3072.0,-0.00064040970755741
3328.0,-0.00023529957979917526
3584.0,-0.0006696381024084985
3840.0,-0.000659579411149025
4096.0,-0.0017949874745681882
4608.0,0.0014787492109462619
5120.0,0.0004153860791120678
5632.0,0.0023009765427559614
6144.0,0.0012947238283231854
6656.0,-0.0026587771717458963
7168.0,0.0029501852113753557
7680.0,-0.003903097240254283
8192.0,0.0004366037610452622
9216.0,-8.520255505573004e-05
10240.0,-0.0008337979088537395
11264.0,0.000898414698895067
12288.0,0.0009869495406746864
13312.0,-0.0015782903647050261
14336.0,0.0016405426431447268
end
