version,3.0
numOfCh,1
type,point
parent_name,80-cuts
ch_type,1_1
kcount,1
numberNandB,1
brightnessNandB,1
carpet pos,0
pc,0
Time (ms),CH1 Auto-Correlation
1.0,0.05905823037028313
2.0,0.05838199704885483
3.0,0.05771159380674362
4.0,0.05705387517809868
5.0,0.056409742683172226
6.0,0.05578400567173958
7.0,0.05516766756772995
8.0,0.05455724149942398
9.0,0.053947094827890396
10.0,0.05333687365055084
11.0,0.05272471532225609
12.0,0.05211997032165527
13.0,0.05151375010609627
14.0,0.05091605335474014
15.0,0.050349827855825424
16.0,0.04979368671774864
18.0,0.048719730228185654
20.0,0.04765401780605316
22.0,0.04659658297896385
24.0,0.04560066759586334
26.0,0.04465465992689133
28.0,0.043736688792705536
30.0,0.0428122878074646
32.0,0.041862789541482925
36.0,0.040017616003751755
40.0,0.03833851218223572
44.0,0.03667495399713516
48.0,0.0350232757627964
52.0,0.033362600952386856
56.0,0.03172806650400162
60.0,0.03019920364022255
64.0,0.02868751995265484
72.0,0.026141615584492683
80.0,0.023934712633490562
88.0,0.021800775080919266
96.0,0.01989077962934971
104.0,0.018129970878362656
112.0,0.016483062878251076
120.0,0.014979284256696701
128.0,0.013735136948525906
144.0,0.012717414647340775
160.0,0.012063262052834034
176.0,0.011475363746285439
192.0,0.011030057445168495
208.0,0.010848109610378742
224.0,0.010531456209719181
240.0,0.010186771862208843
256.0,0.009575683623552322
288.0,0.00836196169257164
320.0,0.0082189766690135
352.0,0.007877585478127003
384.0,0.008025012910366058
416.0,0.008453216403722763
448.0,0.009253133088350296
480.0,0.008972465991973877
512.0,0.007757388520985842
576.0,0.005249124485999346
640.0,0.004348054062575102
704.0,0.0021297612693160772
768.0,0.0013968184357509017
832.0,-0.00029834217275492847
896.0,-0.0015335188945755363
960.0,-0.004851015284657478
1024.0,-0.007436693180352449
1152.0,-0.005712871439754963
1280.0,-0.003915779292583466
1408.0,-0.003923012875020504
1536.0,-0.0025708284229040146
1664.0,-0.0029690726660192013
1792.0,-0.0007895213202573359
1920.0,0.0003994079015683383
2048.0,0.0035040383227169514
2304.0,0.004661761224269867
2560.0,-0.0017898913938552141
2816.0,0.0009274402400478721
3072.0,-0.001310510910116136
3328.0,-0.005375048145651817
3584.0,0.001710759475827217
3840.0,-0.0001716030528768897
4096.0,0.0016038005705922842
4608.0,-0.00047929107677191496
5120.0,-0.008162365294992924
5632.0,-0.0026897741481661797
6144.0,0.0031964979134500027
6656.0,-0.0016527001280337572
7168.0,-0.009138221852481365
7680.0,-0.005902611184865236
8192.0,-0.0017689294181764126
9216.0,-0.0019502181094139814
10240.0,0.001993973273783922
11264.0,-0.004127160646021366
12288.0,0.0017189986538141966
13312.0,0.006333968136459589
14336.0,0.004247827921062708
end
