version,3.0
numOfCh,1
type,point
parent_name,80-cuts
ch_type,1_1
kcount,1
numberNandB,1
brightnessNandB,1
carpet pos,0
pc,0
Time (ms),CH1 Auto-Correlation
1.0,0.07416141778230667
2.0,0.07334395498037338
3.0,0.07257751375436783
4.0,0.07181621342897415
5.0,0.07106012850999832
6.0,0.07031915336847305
7.0,0.06956217437982559
8.0,0.06881137192249298
9.0,0.06807540357112885
10.0,0.06734652817249298
11.0,0.06662540137767792
12.0,0.0659174993634224
13.0,0.06522100418806076
14.0,0.06452848017215729
15.0,0.06386187672615051
16.0,0.06318877637386322
18.0,0.06189056858420372
20.0,0.06064828485250473
22.0,0.05946781113743782
24.0,0.05835096910595894
26.0,0.057227011770009995
28.0,0.05609768629074097
30.0,0.05502268299460411
32.0,0.05396674573421478
36.0,0.05191456899046898
40.0,0.04992455989122391
44.0,0.04798315837979317
48.0,0.04613113775849342
52.0,0.04433388262987137
56.0,0.042588673532009125
60.0,0.04098159819841385
64.0,0.03938829153776169
72.0,0.036387138068675995
80.0,0.033869873732328415
88.0,0.03179175779223442
96.0,0.02980012632906437
104.0,0.02788504771888256
112.0,0.026100246235728264
120.0,0.024613816291093826
128.0,0.02306535467505455
144.0,0.02043907903134823
160.0,0.018705427646636963
176.0,0.017370101064443588
192.0,0.01614639349281788
208.0,0.014556658454239368
224.0,0.012520487420260906
240.0,0.010160285979509354
256.0,0.00850323773920536
288.0,0.007876792922616005
320.0,0.007190018426626921
352.0,0.006159232929348946
384.0,0.0038675707764923573
416.0,0.001449268194846809
448.0,0.0003146562958136201
480.0,-0.00026084284763783216
512.0,-0.0013760479632765055
576.0,-0.002204697811976075
640.0,-0.002245464827865362
704.0,-0.0036849472671747208
768.0,-0.0022279596887528896
832.0,-0.00027055389364250004
896.0,-0.001046419027261436
960.0,0.00024762062821537256
1024.0,0.002282172441482544
1152.0,-0.002023281529545784
1280.0,-0.006269198842346668
1408.0,-0.0004967734566889703
1536.0,-0.002760301809757948
1664.0,-0.0042693219147622585
1792.0,-0.007130973506718874
1920.0,-0.005298381205648184
2048.0,0.0031242480035871267
2304.0,0.008523584343492985
2560.0,0.009294524788856506
2816.0,0.006634170189499855
3072.0,0.002902744337916374
3328.0,0.0012637260369956493
3584.0,-0.0027039269916713238
3840.0,-0.002880335319787264
4096.0,-0.007542738225311041
4608.0,-0.0008179470896720886
5120.0,-0.005845639854669571
5632.0,-0.00395968509837985
6144.0,-0.003957580309361219
6656.0,-0.007140336558222771
7168.0,0.00027754897018894553
7680.0,-0.0026483365800231695
8192.0,-0.005486818961799145
9216.0,-0.005335422232747078
10240.0,0.004821030423045158
11264.0,-0.0006235130131244659
12288.0,0.001384434406645596
13312.0,0.00654238136485219
14336.0,0.0015646808315068483
end
