version,3.0
numOfCh,1
type,point
parent_name,80-cuts
ch_type,1_1
kcount,1
numberNandB,1
brightnessNandB,1
carpet pos,0
pc,0
Time (ms),CH1 Auto-Correlation
1.0,0.03334302455186844
2.0,0.03302330896258354
3.0,0.03270477056503296
4.0,0.03239072114229202
5.0,0.032084040343761444
6.0,0.031782496720552444
7.0,0.03148941695690155
8.0,0.031192364171147346
9.0,0.030896589159965515
10.0,0.030603913590312004
11.0,0.030321044847369194
12.0,0.030035335570573807
13.0,0.029763251543045044
14.0,0.029489310458302498
15.0,0.029220186173915863
16.0,0.02895607426762581
18.0,0.02843414433300495
20.0,0.027930229902267456
22.0,0.027439001947641373
24.0,0.02695193700492382
26.0,0.02646532468497753
28.0,0.02597222290933132
30.0,0.025474149733781815
32.0,0.024992406368255615
36.0,0.02407226152718067
40.0,0.023224998265504837
44.0,0.02242918498814106
48.0,0.021645527333021164
52.0,0.02086467482149601
56.0,0.020084314048290253
60.0,0.019334549084305763
64.0,0.018644878640770912
72.0,0.01737205870449543
80.0,0.01629096455872059
88.0,0.015272658318281174
96.0,0.014339571818709373
104.0,0.013534762896597385
112.0,0.012803626246750355
120.0,0.012099680490791798
128.0,0.011511812917888165
144.0,0.010750949382781982
160.0,0.009913723915815353
176.0,0.008902874775230885
192.0,0.007642783690243959
208.0,0.006152646150439978
224.0,0.004425899125635624
240.0,0.0024886997416615486
256.0,0.0005242108018137515
288.0,-0.002008805749937892
320.0,-0.0029895680490881205
352.0,-0.0036413122434169054
384.0,-0.0044774762354791164
416.0,-0.0054563479498028755
448.0,-0.006645572371780872
480.0,-0.00634370744228363
512.0,-0.004899659194052219
576.0,-0.0029352863784879446
640.0,-0.002419120166450739
704.0,0.0001534539187559858
768.0,0.0026615832466632128
832.0,0.002741897478699684
896.0,0.0028110691346228123
960.0,0.0022120769135653973
1024.0,-0.000698961375746876
1152.0,-0.0009009927744045854
1280.0,-0.0029622416477650404
1408.0,-0.004383887629956007
1536.0,-0.0023160751443356276
1664.0,-0.00010280888818670064
1792.0,0.002410346642136574
1920.0,0.00199587969109416
2048.0,-0.0021480966825038195
2304.0,-0.006494686473160982
2560.0,-0.0031739934347569942
2816.0,0.0011339979246258736
3072.0,-0.00028703632415272295
3328.0,-0.003749281633645296
3584.0,0.00392523780465126
3840.0,0.0061656455509364605
4096.0,-0.0010756095871329308
4608.0,0.0018819741671904922
5120.0,0.002618720754981041
5632.0,-0.0023064054548740387
6144.0,-0.0030382354743778706
6656.0,-0.0018124481430277228
7168.0,-0.003443414345383644
7680.0,0.00330012827180326
8192.0,0.00010715823736973107
9216.0,-0.0002146566257579252
10240.0,-0.0015610549598932266
11264.0,0.0008279215544462204
12288.0,0.002570542972534895
13312.0,0.0016155769117176533
14336.0,-0.0034526344388723373
end
