version,3.0
numOfCh,1
type,point
parent_name,80-cuts
ch_type,1_1
kcount,1
numberNandB,1
brightnessNandB,1
carpet pos,0
pc,0
Time (ms),CH1 Auto-Correlation
1.0,0.028675664216279984
2.0,0.02831464260816574
3.0,0.027952589094638824
4.0,0.027588991448283195
5.0,0.027230503037571907
6.0,0.026872863993048668
7.0,0.026518836617469788
8.0,0.026170453056693077
9.0,0.02582462504506111
10.0,0.025479977950453758
11.0,0.02513952925801277
12.0,0.024795465171337128
13.0,0.024452563375234604
14.0,0.02412048913538456
15.0,0.023796476423740387
16.0,0.023473400622606277
18.0,0.022856757044792175
20.0,0.022266369313001633
22.0,0.021683942526578903
24.0,0.021107681095600128
26.0,0.020542509853839874
28.0,0.01999734528362751
30.0,0.01946929469704628
32.0,0.01895582117140293
36.0,0.01796063967049122
40.0,0.017036521807312965
44.0,0.016168149188160896
48.0,0.015313198789954185
52.0,0.014416374266147614
56.0,0.013477073051035404
60.0,0.012569128535687923
64.0,0.011703421361744404
72.0,0.010176131501793861
80.0,0.008883493952453136
88.0,0.007784764748066664
96.0,0.006768942344933748
104.0,0.005896186921745539
112.0,0.0051894402131438255
120.0,0.00467176316305995
128.0,0.0042321826331317425
144.0,0.003161235712468624
160.0,0.002589654643088579
176.0,0.0025224771816283464
192.0,0.001862522796727717
208.0,0.0009389753104187548
224.0,0.00020889182633254677
240.0,-0.00048156874254345894
256.0,-0.00114387774374336
288.0,-0.0024320476222783327
320.0,-0.0030679749324917793
352.0,-0.003101398004218936
384.0,-0.003403130918741226
416.0,-0.0038271916564553976
448.0,-0.0048530022613704205
480.0,-0.005141882691532373
512.0,-0.0036801316309720278
576.0,-0.001063769101165235
640.0,-0.00010737377306213602
704.0,0.001110280747525394
768.0,0.001265473896637559
832.0,0.0021876089740544558
896.0,0.0028982863295823336
960.0,0.003732980927452445
1024.0,0.002145181642845273
1152.0,0.0015058062272146344
1280.0,0.001322057913057506
1408.0,-0.0004651513590943068
1536.0,-0.0012319363886490464
1664.0,-0.001549152540974319
1792.0,0.0012309789890423417
1920.0,-0.00011850503506138921
2048.0,-0.0003951763501390815
2304.0,-0.0013054792070761323
2560.0,-0.0016602546675130725
2816.0,-0.0013238097308203578
3072.0,-4.510164217208512e-05
3328.0,0.0007298846612684429
3584.0,-0.0009983963100239635
3840.0,-0.0017326128436252475
4096.0,-0.0026408142875880003
4608.0,0.0007734312675893307
5120.0,4.1447256080573425e-05
5632.0,-0.00191822974011302
6144.0,0.0018451196374371648
6656.0,0.0009481653687544167
7168.0,-0.0018147834343835711
7680.0,0.0016910736449062824
8192.0,-6.482724711531773e-05
9216.0,-0.0005516113596968353
10240.0,-0.00010765768820419908
11264.0,0.0002635956334415823
12288.0,-0.00016615907952655107
13312.0,0.0012859725393354893
14336.0,-0.00039932873914949596
end
