version,3.0
numOfCh,1
type,point
parent_name,80-cuts
ch_type,1_1
kcount,1
numberNandB,1
brightnessNandB,1
carpet pos,0
pc,0
Time (ms),CH1 Auto-Correlation
1.0,0.07308506965637207
2.0,0.07231158763170242
3.0,0.07156769186258316
4.0,0.07083678245544434
5.0,0.07010950893163681
6.0,0.06939782947301865
7.0,0.06870339065790176
8.0,0.0680343359708786
9.0,0.06737807393074036
10.0,0.06674327701330185
11.0,0.06611473113298416
12.0,0.06547265499830246
13.0,0.06482470035552979
14.0,0.0641702264547348
15.0,0.0635167583823204
16.0,0.06287558376789093
18.0,0.0616007074713707
20.0,0.060390904545784
22.0,0.059257976710796356
24.0,0.05815839394927025
26.0,0.057077065110206604
28.0,0.05605631694197655
30.0,0.05505814030766487
32.0,0.05405671149492264
36.0,0.052116233855485916
40.0,0.05013946443796158
44.0,0.048196353018283844
48.0,0.04634815827012062
52.0,0.044555358588695526
56.0,0.04288903623819351
60.0,0.041341185569763184
64.0,0.03988872841000557
72.0,0.037446875125169754
80.0,0.03561610355973244
88.0,0.03387080878019333
96.0,0.03223532438278198
104.0,0.030884934589266777
112.0,0.029544688761234283
120.0,0.028269944712519646
128.0,0.027277570217847824
144.0,0.02557932585477829
160.0,0.023956146091222763
176.0,0.021938901394605637
192.0,0.019997164607048035
208.0,0.01862221211194992
224.0,0.01715332455933094
240.0,0.015178286470472813
256.0,0.012773311696946621
288.0,0.0073412382043898106
320.0,0.004110916052013636
352.0,0.002923625521361828
384.0,0.0010783510515466332
416.0,-0.0005095560336485505
448.0,-0.0025621966924518347
480.0,-0.005096987821161747
512.0,-0.0068384502083063126
576.0,-0.007115645799785852
640.0,-0.00795810017734766
704.0,-0.008967500180006027
768.0,-0.009401010349392891
832.0,-0.011703725904226303
896.0,-0.010179591365158558
960.0,-0.008936312049627304
1024.0,-0.006209647748619318
1152.0,-0.005676726810634136
1280.0,0.0012133052805438638
1408.0,0.002470151986926794
1536.0,0.0003918416623491794
1664.0,0.0019303743029013276
1792.0,0.0031994988676160574
1920.0,0.005692304577678442
2048.0,0.006108665838837624
2304.0,0.005721157882362604
2560.0,0.002723833778873086
2816.0,-0.004509003832936287
3072.0,0.0009921854361891747
3328.0,-0.0005724116344936192
3584.0,-0.005047200247645378
3840.0,0.003042172407731414
4096.0,0.010981352999806404
4608.0,0.0007170065073296428
5120.0,-0.014068658463656902
5632.0,0.0033805209677666426
6144.0,0.003980701789259911
6656.0,0.0010323856258764863
7168.0,-0.007406360469758511
7680.0,-0.005313668865710497
8192.0,-0.006091665010899305
9216.0,-0.004739540163427591
10240.0,-0.0043028416112065315
11264.0,-0.004305815324187279
12288.0,-0.0002734790905378759
13312.0,0.00835543405264616
14336.0,-0.011778576299548149
end
