version,3.0
numOfCh,1
type,point
parent_name,80-cuts
ch_type,1_1
kcount,1
numberNandB,1
brightnessNandB,1
carpet pos,0
pc,0
Time (ms),CH1 Auto-Correlation
1.0,0.03050713613629341
2.0,0.030154971405863762
3.0,0.029799405485391617
4.0,0.02945421077311039
5.0,0.029111821204423904
6.0,0.028770145028829575
7.0,0.028437666594982147
8.0,0.02811306342482567
9.0,0.02778729423880577
10.0,0.02746795304119587
11.0,0.02715342491865158
12.0,0.026838170364499092
13.0,0.026520632207393646
14.0,0.026210730895400047
15.0,0.025903983041644096
16.0,0.02560321055352688
18.0,0.02501807175576687
20.0,0.024445297196507454
22.0,0.023881560191512108
24.0,0.023323873057961464
26.0,0.022787025198340416
28.0,0.022259941324591637
30.0,0.0217277854681015
32.0,0.02118985541164875
36.0,0.02016810141503811
40.0,0.019202187657356262
44.0,0.018263405188918114
48.0,0.017372233793139458
52.0,0.01652378961443901
56.0,0.015734585002064705
60.0,0.014958035200834274
64.0,0.014217328280210495
72.0,0.012965776957571507
80.0,0.01182420551776886
88.0,0.010842901654541492
96.0,0.010009389370679855
104.0,0.00936087965965271
112.0,0.008833273313939571
120.0,0.008445502258837223
128.0,0.008225996978580952
144.0,0.00825718604028225
160.0,0.008280199021100998
176.0,0.008111183531582355
192.0,0.007483273278921843
208.0,0.006733658257871866
224.0,0.005714067257940769
240.0,0.004880319815129042
256.0,0.004092735704034567
288.0,0.0028325235471129417
320.0,0.0033211277332156897
352.0,0.003689630189910531
384.0,0.0025440268218517303
416.0,0.0005854597548022866
448.0,-0.00022990517027210444
480.0,0.0005399982328526676
512.0,0.0019430561223998666
576.0,0.002413464244455099
640.0,0.0009562770137563348
704.0,0.0011581535218283534
768.0,0.0011942945420742035
832.0,0.0008512502536177635
896.0,0.0003359986294526607
960.0,-0.0013703870354220271
1024.0,-0.0012467678170651197
1152.0,-0.0014916384825482965
1280.0,-0.0008953486103564501
1408.0,0.0003944886557292193
1536.0,0.0024222475476562977
1664.0,0.002573685022071004
1792.0,0.0016511372523382306
1920.0,0.0018778240773826838
2048.0,0.0034072240814566612
2304.0,0.002221746603026986
2560.0,0.002104897750541568
2816.0,-0.0008010866586118937
3072.0,-0.0025978332851082087
3328.0,0.0004324511392042041
3584.0,0.0018820996629074216
3840.0,0.000410188251407817
4096.0,-0.0006710328161716461
4608.0,-0.0007112993625923991
5120.0,-0.004709763918071985
5632.0,-0.0020309840328991413
6144.0,0.0010888337856158614
6656.0,-0.0025182163808494806
7168.0,-0.001183225424028933
7680.0,-0.0018288582796230912
8192.0,-0.00091206916840747
9216.0,-0.002280713291838765
10240.0,0.00026792314019985497
11264.0,-0.001030852785333991
12288.0,-0.0030378152150660753
13312.0,0.0029681322630494833
14336.0,0.003024846548214555
end
