version,3.0
numOfCh,1
type,point
parent_name,80-cuts
ch_type,1_1
kcount,1
numberNandB,1
brightnessNandB,1
carpet pos,0
pc,0
Time (ms),CH1 Auto-Correlation
1.0,0.055319324135780334
2.0,0.054584335535764694
3.0,0.05387617275118828
4.0,0.05317431688308716
5.0,0.052470702677965164
6.0,0.05177801102399826
7.0,0.05111347511410713
8.0,0.05043638125061989
9.0,0.049770113080739975
10.0,0.04909839108586311
11.0,0.04843684285879135
12.0,0.047793976962566376
13.0,0.04715355858206749
14.0,0.046545982360839844
15.0,0.04594828933477402
16.0,0.045337364077568054
18.0,0.044185299426317215
20.0,0.04307584464550018
22.0,0.041951969265937805
24.0,0.04085477814078331
26.0,0.03977862000465393
28.0,0.038737669587135315
30.0,0.03772066906094551
32.0,0.036732267588377
36.0,0.03481423482298851
40.0,0.03300395980477333
44.0,0.03132094442844391
48.0,0.029639283195137978
52.0,0.028037656098604202
56.0,0.02655450627207756
60.0,0.025087034329771996
64.0,0.02361256070435047
72.0,0.021044958382844925
80.0,0.018638379871845245
88.0,0.016281956806778908
96.0,0.014053402468562126
104.0,0.012064795009791851
112.0,0.010388694703578949
120.0,0.009214340709149837
128.0,0.008340764790773392
144.0,0.007074459921568632
160.0,0.006222420372068882
176.0,0.0052946098148822784
192.0,0.004307347349822521
208.0,0.003333934349939227
224.0,0.0018167049856856465
240.0,-0.00013183798000682145
256.0,-0.0015206490643322468
288.0,-0.002660067519173026
320.0,-0.00185488595161587
352.0,0.00013320115976966918
384.0,0.0014981115236878395
416.0,0.001769177382811904
448.0,0.002043153392150998
480.0,0.0009323360281996429
512.0,-0.0005858996883034706
576.0,-0.0039075943641364574
640.0,-0.002699738135561347
704.0,-0.0016221158439293504
768.0,-0.001063923118636012
832.0,-0.0017216620035469532
896.0,-0.002198498696088791
960.0,-0.001947835204191506
1024.0,-0.0009437529370188713
1152.0,0.0034459286835044622
1280.0,0.0017908855807036161
1408.0,-0.005587415769696236
1536.0,-0.005913772154599428
1664.0,-0.002937414450570941
1792.0,-0.004826714750379324
1920.0,-0.001990069169551134
2048.0,-0.00292328093200922
2304.0,0.0028746325988322496
2560.0,0.0026110804174095392
2816.0,0.0011791842989623547
3072.0,0.0031715696677565575
3328.0,0.0018589927349239588
3584.0,-0.0004916524048894644
3840.0,-0.004630928859114647
4096.0,-0.0008267433731816709
4608.0,0.0037958433385938406
5120.0,-0.00037027994403615594
5632.0,0.0013570180162787437
6144.0,-0.005754638463258743
6656.0,-0.004627632908523083
7168.0,0.0024584373459219933
7680.0,0.002593963872641325
8192.0,0.002971285255625844
9216.0,-0.004107089713215828
10240.0,-3.767715679714456e-05
11264.0,-0.003608215833082795
12288.0,0.005100723821669817
13312.0,-3.0694547604070976e-05
14336.0,-0.006951861083507538
end
