version,3.0
numOfCh,1
type,point
parent_name,80-cuts
ch_type,1_1
kcount,1
numberNandB,1
brightnessNandB,1
carpet pos,0
pc,0
Time (ms),CH1 Auto-Correlation
1.0,0.0330967903137207
2.0,0.032777197659015656
3.0,0.03246115893125534
4.0,0.032144397497177124
5.0,0.031842175871133804
6.0,0.031541526317596436
7.0,0.03124977834522724
8.0,0.030954157933592796
9.0,0.030664412304759026
10.0,0.03038821741938591
11.0,0.03011862002313137
12.0,0.02985653094947338
13.0,0.029594888910651207
14.0,0.029340803623199463
15.0,0.02908615954220295
16.0,0.028840364888310432
18.0,0.028360435739159584
20.0,0.027888670563697815
22.0,0.027441374957561493
24.0,0.027009762823581696
26.0,0.026584139093756676
28.0,0.026174623519182205
30.0,0.025754328817129135
32.0,0.025333795696496964
36.0,0.024506032466888428
40.0,0.023688549175858498
44.0,0.022888382896780968
48.0,0.022153498604893684
52.0,0.02148248441517353
56.0,0.020814865827560425
60.0,0.020151039585471153
64.0,0.019549816846847534
72.0,0.018463000655174255
80.0,0.017389221116900444
88.0,0.016314847394824028
96.0,0.015264979563653469
104.0,0.014234587550163269
112.0,0.013244732283055782
120.0,0.012316923588514328
128.0,0.011450829915702343
144.0,0.009751304052770138
160.0,0.007976836524903774
176.0,0.006372343748807907
192.0,0.005249777343124151
208.0,0.004342841450124979
224.0,0.0035822540521621704
240.0,0.002789272228255868
256.0,0.0019407138461247087
288.0,0.0006623851368203759
320.0,-0.00042349781142547727
352.0,-0.0014181211590766907
384.0,-0.002044333377853036
416.0,-0.001974482787773013
448.0,-0.0012839138507843018
480.0,-0.0007737371488474309
512.0,-0.0005843670223839581
576.0,-3.7619620343321003e-06
640.0,0.0016008944949135184
704.0,0.0019864097703248262
768.0,0.0009555051801726222
832.0,-0.001104065217077732
896.0,-0.0014015526976436377
960.0,-0.001048533944413066
1024.0,-0.00020197757112327963
1152.0,-0.0004958341014571488
1280.0,-0.0018088063225150108
1408.0,-0.000213515930227004
1536.0,-0.00017729586397763342
1664.0,0.0013510964345186949
1792.0,0.0009900983422994614
1920.0,-3.623536031227559e-05
2048.0,-0.0007660405244678259
2304.0,0.0036722857039421797
2560.0,0.0003909336810465902
2816.0,-0.004840936046093702
3072.0,-0.0002754992456175387
3328.0,0.0009597174357622862
3584.0,0.004209637641906738
3840.0,0.00233854865655303
4096.0,0.0012812318746000528
4608.0,-0.0014138048281893134
5120.0,-0.0020519429817795753
5632.0,0.002923539374023676
6144.0,-0.0030003597494214773
6656.0,-0.0002574394457042217
7168.0,0.0023376529570668936
7680.0,0.0028020446188747883
8192.0,-0.0021297947969287634
9216.0,0.0014044544659554958
10240.0,-0.0030499009881168604
11264.0,-0.0005726184463128448
12288.0,-0.004338864237070084
13312.0,-0.004933047108352184
14336.0,-0.002453694585710764
end
