version,3.0
numOfCh,1
type,point
parent_name,80-cuts
ch_type,1_1
kcount,1
numberNandB,1
brightnessNandB,1
carpet pos,0
pc,0
Time (ms),CH1 Auto-Correlation
1.0,0.027497893199324608
2.0,0.027198899537324905
3.0,0.02689710259437561
4.0,0.02660810761153698
5.0,0.026321183890104294
6.0,0.026039449498057365
7.0,0.025768613442778587
8.0,0.02549770101904869
9.0,0.025230074301362038
10.0,0.02497274987399578
11.0,0.024716757237911224
12.0,0.024463417008519173
13.0,0.02420707419514656
14.0,0.02395687997341156
15.0,0.023707274347543716
16.0,0.023462342098355293
18.0,0.022973760962486267
20.0,0.022492138668894768
22.0,0.02202419564127922
24.0,0.021579569205641747
26.0,0.021159572526812553
28.0,0.020741544663906097
30.0,0.020331885665655136
32.0,0.0199241042137146
36.0,0.019121255725622177
40.0,0.018359988927841187
44.0,0.017678285017609596
48.0,0.017045026645064354
52.0,0.01642465405166149
56.0,0.015823373571038246
60.0,0.015241020359098911
64.0,0.014683803543448448
72.0,0.013662495650351048
80.0,0.012737836688756943
88.0,0.011984596028923988
96.0,0.011290674097836018
104.0,0.01064694207161665
112.0,0.010058821178972721
120.0,0.009597143158316612
128.0,0.00914671178907156
144.0,0.008200257085263729
160.0,0.007368888705968857
176.0,0.00675512058660388
192.0,0.005798684898763895
208.0,0.004711896646767855
224.0,0.0038197780959308147
240.0,0.0032292576506733894
256.0,0.0028915987350046635
288.0,0.0026354906149208546
320.0,0.0020766162779182196
352.0,0.0012273546308279037
384.0,0.000610976479947567
416.0,0.0003501058090478182
448.0,1.3125421673976234e-06
480.0,-0.0002504214644432068
512.0,-0.0007729562930762768
576.0,-0.00041564879938960075
640.0,2.5969266062020324e-05
704.0,-8.802975207800046e-05
768.0,0.0011509801261126995
832.0,0.0022851277608424425
896.0,0.0016789301298558712
960.0,0.0019447706872597337
1024.0,0.00278721796348691
1152.0,0.0022451055701822042
1280.0,0.0011591797228902578
1408.0,0.0003950480022467673
1536.0,-0.0015941751189529896
1664.0,-0.002110779285430908
1792.0,-0.0003699391963891685
1920.0,5.476263686432503e-05
2048.0,-0.0013173904735594988
2304.0,0.0005322204087860882
2560.0,0.0025200655218213797
2816.0,0.0017271460965275764
3072.0,0.003183953929692507
3328.0,0.002005266956984997
3584.0,0.0013388446532189846
3840.0,0.0013607072178274393
4096.0,0.0019598128274083138
4608.0,0.0016860212199389935
5120.0,-0.004013905767351389
5632.0,0.0009611820569261909
6144.0,-0.0033721306826919317
6656.0,-0.0008242916082963347
7168.0,0.00020040219533257186
7680.0,-0.001877729082480073
8192.0,-0.00041797501035034657
9216.0,-0.0032207185868173838
10240.0,-0.0019193856278434396
11264.0,-0.00046649680007249117
12288.0,-0.003881840966641903
13312.0,-0.0024564811028540134
14336.0,-0.002277612453326583
end
