version,3.0
numOfCh,1
type,point
parent_name,80-cuts
ch_type,1_1
kcount,1
numberNandB,1
brightnessNandB,1
carpet pos,0
pc,0
Time (ms),CH1 Auto-Correlation
1.0,0.028952907770872116
2.0,0.02857961878180504
3.0,0.02821093238890171
4.0,0.027845308184623718
5.0,0.027477292343974113
6.0,0.02712079882621765
7.0,0.026766350492835045
8.0,0.026409495621919632
9.0,0.026053396984934807
10.0,0.02569320984184742
11.0,0.02533106692135334
12.0,0.02498132921755314
13.0,0.024635381996631622
14.0,0.02429954893887043
15.0,0.023968897759914398
16.0,0.02365129441022873
18.0,0.023049265146255493
20.0,0.022476859390735626
22.0,0.021935677155852318
24.0,0.021420545876026154
26.0,0.020934782922267914
28.0,0.020450972020626068
30.0,0.019968252629041672
32.0,0.019486015662550926
36.0,0.018576007336378098
40.0,0.017727836966514587
44.0,0.016981633380055428
48.0,0.016298772767186165
52.0,0.015668928623199463
56.0,0.015052767470479012
60.0,0.014469198882579803
64.0,0.013874508440494537
72.0,0.01273680105805397
80.0,0.011653665453195572
88.0,0.010576855391263962
96.0,0.00963837280869484
104.0,0.008927307091653347
112.0,0.008553313091397285
120.0,0.008284315466880798
128.0,0.007920505478978157
144.0,0.007334832567721605
160.0,0.006669791415333748
176.0,0.005810948088765144
192.0,0.004943712614476681
208.0,0.004077235236763954
224.0,0.0034207263961434364
240.0,0.002867922419682145
256.0,0.0022007881198078394
288.0,0.0008928998722694814
320.0,0.0003004705940838903
352.0,0.00022952331346459687
384.0,0.000558584404643625
416.0,0.0011028626468032598
448.0,0.001004494959488511
480.0,0.0005991517682559788
512.0,-0.00015263156092260033
576.0,-0.0009083799086511135
640.0,-0.0012850846396759152
704.0,-0.0014928827295079827
768.0,-0.0012876292457804084
832.0,-0.0014027898432686925
896.0,-0.0007327004568651319
960.0,-0.0012546719517558813
1024.0,-0.0018175236182287335
1152.0,-5.4782271035946906e-05
1280.0,0.0013483043294399977
1408.0,0.0008131116628646851
1536.0,-0.00017221682355739176
1664.0,0.0005741545464843512
1792.0,0.0008282360504381359
1920.0,-0.0021838881075382233
2048.0,-0.0016761625884100795
2304.0,-0.0012075082631781697
2560.0,-0.0019330469658598304
2816.0,-0.0009908461943268776
3072.0,-0.0036858718376606703
3328.0,-0.0023731098044663668
3584.0,0.001609960338100791
3840.0,0.0010260549606755376
4096.0,0.0016902636270970106
4608.0,0.0016507171094417572
5120.0,0.0012269146973267198
5632.0,0.00194803555496037
6144.0,-0.0014898922527208924
6656.0,-0.0021682698279619217
7168.0,0.0007824820349924266
7680.0,-0.001565990038216114
8192.0,-0.0023979784455150366
9216.0,0.0006601171917282045
10240.0,0.0002307623508386314
11264.0,-0.00037396932020783424
12288.0,-0.0021463753655552864
13312.0,-0.0017083727288991213
14336.0,0.0016921948408707976
end
