version,3.0
numOfCh,1
type,point
parent_name,80-cuts
ch_type,1_1
kcount,1
numberNandB,1
brightnessNandB,1
carpet pos,0
pc,0
Time (ms),CH1 Auto-Correlation
1.0,0.09692956507205963
2.0,0.09591063112020493
3.0,0.09489300847053528
4.0,0.09388478100299835
5.0,0.09289199858903885
6.0,0.09191550314426422
7.0,0.09096894413232803
8.0,0.09003312140703201
9.0,0.08911850303411484
10.0,0.088206447660923
11.0,0.08732158690690994
12.0,0.08644594997167587
13.0,0.08555840700864792
14.0,0.08469335734844208
15.0,0.08385196328163147
16.0,0.08302648365497589
18.0,0.0813959538936615
20.0,0.07976757735013962
22.0,0.07813435047864914
24.0,0.07658170908689499
26.0,0.0750574916601181
28.0,0.07359244674444199
30.0,0.07217620313167572
32.0,0.07076989114284515
36.0,0.06806210428476334
40.0,0.06535586714744568
44.0,0.06251450628042221
48.0,0.05964212492108345
52.0,0.056768715381622314
56.0,0.05399617552757263
60.0,0.05149940401315689
64.0,0.049270838499069214
72.0,0.04498164728283882
80.0,0.04106125980615616
88.0,0.037618350237607956
96.0,0.03432689979672432
104.0,0.031845737248659134
112.0,0.030029302462935448
120.0,0.028708266094326973
128.0,0.027812153100967407
144.0,0.02621711790561676
160.0,0.02472114935517311
176.0,0.022441929206252098
192.0,0.02067205309867859
208.0,0.018715981394052505
224.0,0.01643199846148491
240.0,0.013945882208645344
256.0,0.011537543497979641
288.0,0.007780303247272968
320.0,0.0036371126770973206
352.0,0.0018961105961352587
384.0,0.001225746818818152
416.0,0.0037073269486427307
448.0,0.0042477259412407875
480.0,0.0033785675186663866
512.0,0.003009130246937275
576.0,0.004064467735588551
640.0,0.004518435336649418
704.0,0.007178839296102524
768.0,0.009839888662099838
832.0,0.0094540324062109
896.0,0.007261740043759346
960.0,0.0077493214048445225
1024.0,0.009406342171132565
1152.0,0.007986107841134071
1280.0,0.010320410132408142
1408.0,0.009934592060744762
1536.0,0.009592602960765362
1664.0,0.0069264317862689495
1792.0,-0.0012196885654702783
1920.0,-0.004763370379805565
2048.0,-0.0032342402264475822
2304.0,-0.00674974313005805
2560.0,0.01042887195944786
2816.0,-0.0019167069112882018
3072.0,-0.006239970680326223
3328.0,-0.0023176425602287054
3584.0,-0.00857730582356453
3840.0,-0.005090167745947838
4096.0,-8.268441160907969e-05
4608.0,-0.002825810108333826
5120.0,-0.007840029895305634
5632.0,-0.004384629428386688
6144.0,-0.004118571523576975
6656.0,-0.003327618120238185
7168.0,-0.0012668113922700286
7680.0,-0.012073764577507973
8192.0,-0.014850766398012638
9216.0,-0.0066085983999073505
10240.0,-0.0006385016022250056
11264.0,0.004085346590727568
12288.0,0.015545930713415146
13312.0,0.018130837008357048
14336.0,-0.0030858824029564857
end
