version,3.0
numOfCh,1
type,point
parent_name,80-cuts
ch_type,1_1
kcount,1
numberNandB,1
brightnessNandB,1
carpet pos,0
pc,0
Time (ms),CH1 Auto-Correlation
1.0,0.13635261356830597
2.0,0.1348162442445755
3.0,0.1333218663930893
4.0,0.13184846937656403
5.0,0.13038641214370728
6.0,0.12893658876419067
7.0,0.1274925321340561
8.0,0.12604697048664093
9.0,0.12460669875144958
10.0,0.12315511703491211
11.0,0.12175573408603668
12.0,0.12035421282052994
13.0,0.11894208937883377
14.0,0.11757801473140717
15.0,0.11620765924453735
16.0,0.11485212296247482
18.0,0.1121242567896843
20.0,0.10960627347230911
22.0,0.10728102177381516
24.0,0.10507142543792725
26.0,0.10291316360235214
28.0,0.10073812305927277
30.0,0.09857242554426193
32.0,0.09649789333343506
36.0,0.09233478456735611
40.0,0.08829540759325027
44.0,0.08426804095506668
48.0,0.08024207502603531
52.0,0.07620442658662796
56.0,0.07236964255571365
60.0,0.06862965226173401
64.0,0.06514386087656021
72.0,0.058857180178165436
80.0,0.052221521735191345
88.0,0.04578502103686333
96.0,0.04021850973367691
104.0,0.035534460097551346
112.0,0.031151119619607925
120.0,0.02760579250752926
128.0,0.024604354053735733
144.0,0.01998082734644413
160.0,0.01757374219596386
176.0,0.015768637880682945
192.0,0.013585351407527924
208.0,0.012741352431476116
224.0,0.012253081426024437
240.0,0.010456984862685204
256.0,0.0071881902404129505
288.0,0.0013269585324451327
320.0,-0.00089119968470186
352.0,-0.002463557990267873
384.0,-0.0015221470966935158
416.0,0.0019351695664227009
448.0,0.005743735004216433
480.0,0.005108032841235399
512.0,0.0021613731514662504
576.0,-0.006731786765158176
640.0,-0.008550046011805534
704.0,-0.006170504726469517
768.0,-0.009862268343567848
832.0,-0.017095616087317467
896.0,-0.021442366763949394
960.0,-0.02369735948741436
1024.0,-0.020119983702898026
1152.0,-0.010826416313648224
1280.0,-0.010927745141088963
1408.0,-0.0035799765028059483
1536.0,-0.010478097945451736
1664.0,-0.008220899850130081
1792.0,-0.0017358839977532625
1920.0,0.009567130357027054
2048.0,0.007508223410695791
2304.0,0.010857727378606796
2560.0,-0.009085485711693764
2816.0,-0.010444127954542637
3072.0,-0.0007177490624599159
3328.0,0.000357830838765949
3584.0,-0.007490723859518766
3840.0,-0.007262643426656723
4096.0,-0.00124543986748904
4608.0,0.014784757047891617
5120.0,0.008127481676638126
5632.0,-0.0006240396178327501
6144.0,-0.00675794156268239
6656.0,-0.012026576325297356
7168.0,0.003996605519205332
7680.0,-0.0034605625551193953
8192.0,-0.0038884717505425215
9216.0,0.011493404395878315
10240.0,-0.011236517690122128
11264.0,0.0029312679544091225
12288.0,-0.004079331643879414
13312.0,0.005221082363277674
14336.0,0.010169596411287785
end
