version,3.0
numOfCh,1
type,point
parent_name,80-cuts
ch_type,1_1
kcount,1
numberNandB,1
brightnessNandB,1
carpet pos,0
pc,0
Time (ms),CH1 Auto-Correlation
1.0,0.0833340510725975
2.0,0.08237919956445694
3.0,0.08144065737724304
4.0,0.0805136039853096
5.0,0.07959277182817459
6.0,0.07869469374418259
7.0,0.0778033658862114
8.0,0.07691719383001328
9.0,0.07605522871017456
10.0,0.07519485801458359
11.0,0.07433871179819107
12.0,0.07350187748670578
13.0,0.07264938205480576
14.0,0.07180486619472504
15.0,0.07096368819475174
16.0,0.0701211616396904
18.0,0.06848732382059097
20.0,0.0669061616063118
22.0,0.06539206206798553
24.0,0.0639498382806778
26.0,0.06251595169305801
28.0,0.06109803169965744
30.0,0.059708964079618454
32.0,0.05837153643369675
36.0,0.05582542344927788
40.0,0.05351458862423897
44.0,0.051267098635435104
48.0,0.04916299134492874
52.0,0.0472109392285347
56.0,0.04542034491896629
60.0,0.043702054768800735
64.0,0.042091432958841324
72.0,0.03914397582411766
80.0,0.036666713654994965
88.0,0.034451983869075775
96.0,0.03253522887825966
104.0,0.030804529786109924
112.0,0.029067423194646835
120.0,0.027211803942918777
128.0,0.025366034358739853
144.0,0.02158990502357483
160.0,0.01817404478788376
176.0,0.015753790736198425
192.0,0.014615362510085106
208.0,0.014239808544516563
224.0,0.013984371908009052
240.0,0.012936939485371113
256.0,0.011616435833275318
288.0,0.009306421503424644
320.0,0.006212987937033176
352.0,0.00456203194335103
384.0,0.003509313566610217
416.0,0.0030347516294568777
448.0,0.003876525443047285
480.0,0.0038948990404605865
512.0,0.0031431999523192644
576.0,0.005134942941367626
640.0,0.007549297530204058
704.0,0.009750323370099068
768.0,0.008647728711366653
832.0,0.0016339437570422888
896.0,-0.004403133410960436
960.0,-0.003105882555246353
1024.0,-0.001104418421164155
1152.0,-0.004066797439008951
1280.0,-0.006053317338228226
1408.0,-0.003287295112386346
1536.0,-0.001720804488286376
1664.0,0.00048797554336488247
1792.0,3.445135007495992e-05
1920.0,-0.006157653406262398
2048.0,-0.008487816900014877
2304.0,-0.0026046838611364365
2560.0,0.003884184407070279
2816.0,0.0061981892213225365
3072.0,0.006603871006518602
3328.0,0.006960215978324413
3584.0,-0.0013381035532802343
3840.0,-0.0005919153918512166
4096.0,-0.0008601963054388762
4608.0,-0.0015963850310072303
5120.0,-0.00799739919602871
5632.0,-0.0015306458808481693
6144.0,0.007072729524224997
6656.0,0.00787320826202631
7168.0,-0.008092165924608707
7680.0,-0.011595571413636208
8192.0,-0.0028841898310929537
9216.0,0.0023194828536361456
10240.0,-0.0012707592686638236
11264.0,-0.012871645390987396
12288.0,-0.008189096115529537
13312.0,-0.0023009194992482662
14336.0,-0.014548690989613533
end
