version,3.0
numOfCh,1
type,point
parent_name,80-cuts
ch_type,1_1
kcount,1
numberNandB,1
brightnessNandB,1
carpet pos,0
pc,0
Time (ms),CH1 Auto-Correlation
1.0,0.06812428683042526
2.0,0.06732926517724991
3.0,0.06655306369066238
4.0,0.06579389423131943
5.0,0.06502760946750641
6.0,0.06426812708377838
7.0,0.0635317862033844
8.0,0.06279826909303665
9.0,0.06207859888672829
10.0,0.06137170270085335
11.0,0.060664478689432144
12.0,0.05996941775083542
13.0,0.05928075313568115
14.0,0.05861373245716095
15.0,0.05795687437057495
16.0,0.057337675243616104
18.0,0.0561334453523159
20.0,0.054961908608675
22.0,0.05379067361354828
24.0,0.052635107189416885
26.0,0.05150466039776802
28.0,0.05037963017821312
30.0,0.04927324503660202
32.0,0.04816443473100662
36.0,0.046066779643297195
40.0,0.04415937513113022
44.0,0.04242134094238281
48.0,0.04082424193620682
52.0,0.03928011655807495
56.0,0.0378325879573822
60.0,0.03650521859526634
64.0,0.03523361682891846
72.0,0.03265906125307083
80.0,0.030406970530748367
88.0,0.028406094759702682
96.0,0.026372533291578293
104.0,0.024100426584482193
112.0,0.022098926827311516
120.0,0.020304342731833458
128.0,0.01865125074982643
144.0,0.015636052936315536
160.0,0.012928647920489311
176.0,0.010022955015301704
192.0,0.0073306201957166195
208.0,0.0047461059875786304
224.0,0.0023885846603661776
240.0,0.0009474621620029211
256.0,0.0003672510210890323
288.0,-0.0002188459038734436
320.0,-0.00034692237386479974
352.0,-0.00038450455758720636
384.0,-0.0020951097831130028
416.0,-0.001393247046507895
448.0,-0.0010123271495103836
480.0,-0.0008970212074927986
512.0,-0.00033452661591582
576.0,0.002362934174016118
640.0,0.002750680549070239
704.0,0.001739979605190456
768.0,-0.0009532205294817686
832.0,-0.0014658685540780425
896.0,-0.004684720654040575
960.0,-0.009186223149299622
1024.0,-0.009931403212249279
1152.0,-0.005345870740711689
1280.0,-0.0011083758436143398
1408.0,-0.0038732029497623444
1536.0,-0.0003878653224091977
1664.0,0.0045224083587527275
1792.0,0.004289983306080103
1920.0,0.0012927529169246554
2048.0,0.0037846143823117018
2304.0,-0.00732473935931921
2560.0,-0.012484699487686157
2816.0,-0.003642926225438714
3072.0,-0.0026955350767821074
3328.0,0.001624374301172793
3584.0,0.0034514714498072863
3840.0,0.006339835934340954
4096.0,-0.002721379278227687
4608.0,-0.006316439248621464
5120.0,0.007863713428378105
5632.0,0.003960439935326576
6144.0,-0.005019483622163534
6656.0,-0.00276313629001379
7168.0,0.0038926510605961084
7680.0,-0.004904182627797127
8192.0,-0.0038688085041940212
9216.0,0.005262518301606178
10240.0,-0.001818857854232192
11264.0,-0.0031128572300076485
12288.0,-0.0038439540658146143
13312.0,0.0032875819597393274
14336.0,0.007824597880244255
end
