version,3.0
numOfCh,1
type,point
parent_name,80-cuts
ch_type,1_1
kcount,1
numberNandB,1
brightnessNandB,1
carpet pos,0
pc,0
Time (ms),CH1 Auto-Correlation
1.0,0.05926361680030823
2.0,0.058701831847429276
3.0,0.05815073475241661
4.0,0.057608481496572495
5.0,0.05708315968513489
6.0,0.056572552770376205
7.0,0.05606953427195549
8.0,0.05557403713464737
9.0,0.05507764220237732
10.0,0.054596614092588425
11.0,0.05412501096725464
12.0,0.05366790294647217
13.0,0.05321280285716057
14.0,0.052770692855119705
15.0,0.05233811214566231
16.0,0.05190589651465416
18.0,0.051048919558525085
20.0,0.05020533502101898
22.0,0.04939223825931549
24.0,0.04859675094485283
26.0,0.04785480350255966
28.0,0.04716755449771881
30.0,0.04653234779834747
32.0,0.0459328219294548
36.0,0.04479456692934036
40.0,0.04374467581510544
44.0,0.042687930166721344
48.0,0.04164400324225426
52.0,0.04062792286276817
56.0,0.039597637951374054
60.0,0.038571860641241074
64.0,0.037593189626932144
72.0,0.03592633828520775
80.0,0.034343499690294266
88.0,0.0328063890337944
96.0,0.03129967302083969
104.0,0.029891954734921455
112.0,0.02848987653851509
120.0,0.027122821658849716
128.0,0.025673173367977142
144.0,0.02296486869454384
160.0,0.020427746698260307
176.0,0.018177391961216927
192.0,0.016498450189828873
208.0,0.01511023472994566
224.0,0.013800292275846004
240.0,0.012182218953967094
256.0,0.010768694803118706
288.0,0.008040344342589378
320.0,0.005549339111894369
352.0,0.003267995547503233
384.0,0.0011659055016934872
416.0,-0.0009356426307931542
448.0,-0.0030691130086779594
480.0,-0.004988338332623243
512.0,-0.006099207792431116
576.0,-0.006973229348659515
640.0,-0.0064987665973603725
704.0,-0.005907874554395676
768.0,-0.005250298883765936
832.0,-0.0034843559842556715
896.0,0.000624550215434283
960.0,0.003931458108127117
1024.0,0.006091519724577665
1152.0,0.005659110378473997
1280.0,0.0025883137714117765
1408.0,-0.0032958444207906723
1536.0,-0.006631788332015276
1664.0,-0.006214431021362543
1792.0,-0.006726629566401243
1920.0,-0.0049401577562093735
2048.0,-0.0007053054287098348
2304.0,0.0018020966090261936
2560.0,0.002791972365230322
2816.0,-0.0008735526935197413
3072.0,-0.007171279285103083
3328.0,-0.006813447922468185
3584.0,-0.002576025202870369
3840.0,-0.0017453867476433516
4096.0,0.003982966300100088
4608.0,0.0027287094853818417
5120.0,0.0027089889626950026
5632.0,-0.001611757674254477
6144.0,-0.0063090333715081215
6656.0,-5.4976750107016414e-05
7168.0,-0.0028666420839726925
7680.0,-0.00493252370506525
8192.0,-0.005746979732066393
9216.0,-0.0034499599132686853
10240.0,-0.003277903888374567
11264.0,0.006241458002477884
12288.0,0.0017263770569115877
13312.0,-9.095584391616285e-05
14336.0,-0.0005178970750421286
end
