version,3.0
numOfCh,1
type,point
parent_name,80-cuts
ch_type,1_1
kcount,1
numberNandB,1
brightnessNandB,1
carpet pos,0
pc,0
Time (ms),CH1 Auto-Correlation
1.0,0.02271217666566372
2.0,0.022387158125638962
3.0,0.022067874670028687
4.0,0.021755127236247063
5.0,0.021452397108078003
6.0,0.021144263446331024
7.0,0.0208338163793087
8.0,0.020521825179457664
9.0,0.020214520394802094
10.0,0.01990683376789093
11.0,0.01960640400648117
12.0,0.0193035826086998
13.0,0.018995128571987152
14.0,0.018691319972276688
15.0,0.018390754237771034
16.0,0.018094049766659737
18.0,0.01752004213631153
20.0,0.016953008249402046
22.0,0.016401173546910286
24.0,0.015877049416303635
26.0,0.01537609938532114
28.0,0.014893931336700916
30.0,0.01442625466734171
32.0,0.013972346670925617
36.0,0.013120033778250217
40.0,0.012326149269938469
44.0,0.011595381423830986
48.0,0.010909613221883774
52.0,0.010290068574249744
56.0,0.009712827391922474
60.0,0.009168445132672787
64.0,0.008623271249234676
72.0,0.007674089167267084
80.0,0.006864170543849468
88.0,0.006267291959375143
96.0,0.005774497054517269
104.0,0.005323292687535286
112.0,0.00490848533809185
120.0,0.004500443581491709
128.0,0.004193985369056463
144.0,0.0035611363127827644
160.0,0.002897192258387804
176.0,0.002048036316409707
192.0,0.0012705185217782855
208.0,0.0009085778146982193
224.0,0.0007934336899779737
240.0,0.0003795823431573808
256.0,-9.999878238886595e-05
288.0,-0.00045282006612978876
320.0,-0.00048515546950511634
352.0,-0.0002975095412693918
384.0,-0.0002668346860446036
416.0,-1.7057387594832107e-05
448.0,0.0001664207229623571
480.0,-8.598480781074613e-05
512.0,-0.0005838145152665675
576.0,-0.0005142714944668114
640.0,-0.00017099935212172568
704.0,0.0007535152835771441
768.0,0.0010177353397011757
832.0,0.0014829111751168966
896.0,0.002047449117526412
960.0,0.0012733300682157278
1024.0,0.001576350419782102
1152.0,-2.0825371393584646e-05
1280.0,-0.00028831162489950657
1408.0,0.0017037822399288416
1536.0,0.0022506238892674446
1664.0,0.0029203176964074373
1792.0,0.0009331289329566061
1920.0,-0.0004066184046678245
2048.0,-0.0018989320378750563
2304.0,-0.0021084200125187635
2560.0,0.0003010495565831661
2816.0,-0.0001643352588871494
3072.0,-0.0020007083658128977
3328.0,-0.0015340143581852317
3584.0,-0.0025750575587153435
3840.0,-0.0029836497269570827
4096.0,0.0005698027089238167
4608.0,-0.00201971223577857
5120.0,-0.0005659796879626811
5632.0,-0.000790055317338556
6144.0,-0.00010312294762115926
6656.0,0.001058059511706233
7168.0,0.0008103668224066496
7680.0,0.0018223916413262486
8192.0,0.0026368116959929466
9216.0,0.0004752515524160117
10240.0,-0.00047231410280801356
11264.0,-0.0013481820933520794
12288.0,-0.0007340636802837253
13312.0,-0.0008120479178614914
14336.0,-0.00027556062559597194
end
