version,3.0
numOfCh,1
type,point
parent_name,80-cuts
ch_type,1_1
kcount,1
numberNandB,1
brightnessNandB,1
carpet pos,0
pc,0
Time (ms),CH1 Auto-Correlation
1.0,0.03081580623984337
2.0,0.03054063953459263
3.0,0.03026411309838295
4.0,0.02998933382332325
5.0,0.029714524745941162
6.0,0.0294498261064291
7.0,0.029186967760324478
8.0,0.028932809829711914
9.0,0.02867349050939083
10.0,0.02841956913471222
11.0,0.028165850788354874
12.0,0.027911745011806488
13.0,0.02766123041510582
14.0,0.027406703680753708
15.0,0.027159010991454124
16.0,0.02691040188074112
18.0,0.026410816237330437
20.0,0.025914190337061882
22.0,0.02542901039123535
24.0,0.024952881038188934
26.0,0.024493498727679253
28.0,0.024057552218437195
30.0,0.023638859391212463
32.0,0.023230241611599922
36.0,0.022481463849544525
40.0,0.021741634234786034
44.0,0.02098425105214119
48.0,0.020213179290294647
52.0,0.01943213865160942
56.0,0.018635690212249756
60.0,0.017834000289440155
64.0,0.017094558104872704
72.0,0.015678372234106064
80.0,0.014252383261919022
88.0,0.012878636829555035
96.0,0.011547242291271687
104.0,0.010382602922618389
112.0,0.00941902119666338
120.0,0.00857087504118681
128.0,0.007864943705499172
144.0,0.006745724007487297
160.0,0.005716665647923946
176.0,0.00462966226041317
192.0,0.0037109656259417534
208.0,0.00282845227047801
224.0,0.0017812723526731133
240.0,0.0006451467634178698
256.0,-0.0002253188140457496
288.0,-0.0007777618011459708
320.0,-0.00034723468706943095
352.0,0.000988091342151165
384.0,0.0022011573892086744
416.0,0.00309135764837265
448.0,0.0029409979470074177
480.0,0.002729046856984496
512.0,0.002282403875142336
576.0,0.0009179300395771861
640.0,-0.00039885807200334966
704.0,-0.0011953550856560469
768.0,-0.0011771525023505092
832.0,-0.0014494505012407899
896.0,-0.0011777601903304458
960.0,-0.0015339128440245986
1024.0,-0.002925389911979437
1152.0,-0.0047720433212816715
1280.0,-0.003951311111450195
1408.0,-0.0027079395949840546
1536.0,0.0003341100236866623
1664.0,0.0031711237970739603
1792.0,0.0025096472818404436
1920.0,0.0015787621960043907
2048.0,1.4647931493527722e-05
2304.0,0.0010349125368520617
2560.0,0.0007858660537749529
2816.0,-0.004263585899025202
3072.0,-0.003280036384239793
3328.0,-0.004288153722882271
3584.0,-0.0009505408233962953
3840.0,-0.00125577999278903
4096.0,0.00042533851228654385
4608.0,-0.0005576841067522764
5120.0,0.0010985818225890398
5632.0,-9.980618779081851e-05
6144.0,0.00029937655199319124
6656.0,0.0025661010295152664
7168.0,0.0021987801883369684
7680.0,0.0003524382191244513
8192.0,-0.003825470805168152
9216.0,-0.001532483845949173
10240.0,0.00013635153300128877
11264.0,-0.00011146447650389746
12288.0,3.1510313419857994e-05
13312.0,0.00011895161878783256
14336.0,-0.0019757291302084923
end
