version,3.0
numOfCh,1
type,point
parent_name,80-cuts
ch_type,1_1
kcount,1
numberNandB,1
brightnessNandB,1
carpet pos,0
pc,0
Time (ms),CH1 Auto-Correlation
1.0,0.07114465534687042
2.0,0.07022739201784134
3.0,0.06930749863386154
4.0,0.06840090453624725
5.0,0.06747251749038696
6.0,0.0665682852268219
7.0,0.06563834100961685
8.0,0.06472603231668472
9.0,0.06382915377616882
10.0,0.06296232342720032
11.0,0.06213248148560524
12.0,0.061323828995227814
13.0,0.06054501608014107
14.0,0.05976955592632294
15.0,0.059014108031988144
16.0,0.058267537504434586
18.0,0.05677789822220802
20.0,0.05535193532705307
22.0,0.05399749428033829
24.0,0.052688442170619965
26.0,0.05138278007507324
28.0,0.050118252635002136
30.0,0.04889780655503273
32.0,0.04770819842815399
36.0,0.04560714587569237
40.0,0.04356022924184799
44.0,0.04157258942723274
48.0,0.03973741829395294
52.0,0.03815309703350067
56.0,0.03670498728752136
60.0,0.0351850762963295
64.0,0.03367229551076889
72.0,0.03094453550875187
80.0,0.028653083369135857
88.0,0.026800917461514473
96.0,0.02498881332576275
104.0,0.02369076758623123
112.0,0.02265876904129982
120.0,0.02160969004034996
128.0,0.020413663238286972
144.0,0.01750681921839714
160.0,0.014414888806641102
176.0,0.01152676809579134
192.0,0.009289929643273354
208.0,0.007399533875286579
224.0,0.0052676936611533165
240.0,0.0031586496625095606
256.0,0.0015106693608686328
288.0,-0.000651104433927685
320.0,-0.0014857063069939613
352.0,-0.0005801451043225825
384.0,0.000161144562298432
416.0,-0.0015617740573361516
448.0,-0.0030468262266367674
480.0,-0.004081308376044035
512.0,-0.004462702199816704
576.0,-0.006742983590811491
640.0,-0.005897939205169678
704.0,-0.007082214578986168
768.0,-0.010637686587870121
832.0,-0.012264642864465714
896.0,-0.01046658493578434
960.0,-0.007129698060452938
1024.0,-0.004642148036509752
1152.0,0.0036016954109072685
1280.0,0.008602089248597622
1408.0,0.003500087419524789
1536.0,0.00041134466300718486
1664.0,0.0009172051795758307
1792.0,-0.00594075582921505
1920.0,-0.004248893819749355
2048.0,-0.0036415320355445147
2304.0,-0.000646937289275229
2560.0,-0.0011801698710769415
2816.0,0.0019918575417250395
3072.0,-0.005919094663113356
3328.0,-0.0011483742855489254
3584.0,0.007583900820463896
3840.0,-0.00042895780643448234
4096.0,-0.008471659384667873
4608.0,0.006329613737761974
5120.0,0.007920184172689915
5632.0,-0.009663237258791924
6144.0,0.003352482570335269
6656.0,-0.005710753146559
7168.0,0.004185263533145189
7680.0,-0.0023383654188364744
8192.0,0.00010158877557842061
9216.0,0.005476861726492643
10240.0,-0.0029681294690817595
11264.0,-0.00620674854144454
12288.0,0.0034611171577125788
13312.0,0.002723371610045433
14336.0,-0.001901685493066907
end
