version,3.0
numOfCh,1
type,point
parent_name,80-cuts
ch_type,1_1
kcount,1
numberNandB,1
brightnessNandB,1
carpet pos,0
pc,0
Time (ms),CH1 Auto-Correlation
1.0,0.0665053054690361
2.0,0.06578514724969864
3.0,0.06506050378084183
4.0,0.06435805559158325
5.0,0.06367158144712448
6.0,0.06297692656517029
7.0,0.062304671853780746
8.0,0.06164059415459633
9.0,0.06098994240164757
10.0,0.060374870896339417
11.0,0.05975062772631645
12.0,0.05913916602730751
13.0,0.05853191018104553
14.0,0.05792319402098656
15.0,0.05733303353190422
16.0,0.05675085261464119
18.0,0.05565933883190155
20.0,0.05456474423408508
22.0,0.05346842482686043
24.0,0.052417196333408356
26.0,0.05137130618095398
28.0,0.05030691251158714
30.0,0.04924340918660164
32.0,0.048192042857408524
36.0,0.04616624861955643
40.0,0.044224511831998825
44.0,0.04244351014494896
48.0,0.040758904069662094
52.0,0.039076678454875946
56.0,0.0374453067779541
60.0,0.035907670855522156
64.0,0.03448709473013878
72.0,0.03182395547628403
80.0,0.029399601742625237
88.0,0.027277547866106033
96.0,0.025354424491524696
104.0,0.02344520017504692
112.0,0.021387064829468727
120.0,0.019355636090040207
128.0,0.017735332250595093
144.0,0.01450863666832447
160.0,0.010560167022049427
176.0,0.0071325660683214664
192.0,0.004778146743774414
208.0,0.0029631566721946
224.0,0.0017730467952787876
240.0,0.0010127783752977848
256.0,0.0001338376896455884
288.0,-0.0017759660258889198
320.0,-0.003133525140583515
352.0,-0.0025971424765884876
384.0,-0.0028423394542187452
416.0,-0.002926853485405445
448.0,-0.0017305550863966346
480.0,-0.0008757396135479212
512.0,-0.00017266177746932954
576.0,-0.003369515296071768
640.0,-0.005321997217833996
704.0,-0.0055880434811115265
768.0,-0.0035597754176706076
832.0,-0.0019897879101336002
896.0,-0.0016987067647278309
960.0,-0.0026882635429501534
1024.0,-0.0029113327618688345
1152.0,-0.002044683787971735
1280.0,-0.00025953943259082735
1408.0,0.006450257264077663
1536.0,0.006361678708344698
1664.0,0.000672483816742897
1792.0,-3.435102553339675e-05
1920.0,-0.0037713022902607918
2048.0,-0.009002159349620342
2304.0,-0.006158651318401098
2560.0,-0.00038671004585921764
2816.0,0.0020406132098287344
3072.0,0.0006280514062382281
3328.0,-0.003324792254716158
3584.0,-0.003236280521377921
3840.0,0.00041460609645582736
4096.0,-0.0039016662631183863
4608.0,0.004237055312842131
5120.0,0.0005886543658562005
5632.0,-0.0003234740870539099
6144.0,0.0005459740059450269
6656.0,-0.0023669390939176083
7168.0,-0.009095672518014908
7680.0,-0.0029484275728464127
8192.0,0.008262629620730877
9216.0,0.0022711518686264753
10240.0,-0.00250840000808239
11264.0,0.001386345480568707
12288.0,0.001958833308890462
13312.0,-0.0035385722294449806
14336.0,0.0019270667107775807
end
