version,3.0
numOfCh,1
type,point
parent_name,80-cuts
ch_type,1_1
kcount,1
numberNandB,1
brightnessNandB,1
carpet pos,0
pc,0
Time (ms),CH1 Auto-Correlation
1.0,0.06864649802446365
2.0,0.06787954270839691
3.0,0.06712136417627335
4.0,0.0663658082485199
5.0,0.06561993807554245
6.0,0.06490815430879593
7.0,0.06419958174228668
8.0,0.06349680572748184
9.0,0.06279843300580978
10.0,0.06211560592055321
11.0,0.061458438634872437
12.0,0.060811229050159454
13.0,0.060188282281160355
14.0,0.059579260647296906
15.0,0.05900752544403076
16.0,0.05845380946993828
18.0,0.05738331377506256
20.0,0.056326478719711304
22.0,0.0552995465695858
24.0,0.054241906851530075
26.0,0.05324320122599602
28.0,0.0522606186568737
30.0,0.051343731582164764
32.0,0.05049552023410797
36.0,0.04889672249555588
40.0,0.04736940935254097
44.0,0.04592681676149368
48.0,0.044484470039606094
52.0,0.0429825559258461
56.0,0.04141567274928093
60.0,0.039895668625831604
64.0,0.0384606271982193
72.0,0.035767968744039536
80.0,0.03285966441035271
88.0,0.030093202367424965
96.0,0.027645759284496307
104.0,0.02538493648171425
112.0,0.02335316687822342
120.0,0.02168494276702404
128.0,0.02007666975259781
144.0,0.01748192124068737
160.0,0.015261002816259861
176.0,0.013378450646996498
192.0,0.011140215210616589
208.0,0.008692091330885887
224.0,0.006577242631465197
240.0,0.0045532588846981525
256.0,0.0029843784868717194
288.0,0.002125489292666316
320.0,0.0007648158934898674
352.0,-0.00160433747805655
384.0,-0.0033807316794991493
416.0,-0.004503754433244467
448.0,-0.003769468516111374
480.0,-0.002383721526712179
512.0,-0.00044042328954674304
576.0,0.001659916713833809
640.0,0.003369653830304742
704.0,0.005953697953373194
768.0,0.00509216170758009
832.0,0.0026344284415245056
896.0,1.9387447537155822e-05
960.0,-0.0029462494421750307
1024.0,-0.006503040436655283
1152.0,-0.007976246066391468
1280.0,-0.006771421525627375
1408.0,-0.0032731397077441216
1536.0,-0.0015544467605650425
1664.0,-0.0018028445774689317
1792.0,-0.002938436344265938
1920.0,-0.002064026426523924
2048.0,-0.0018831469351425767
2304.0,0.0012174035655334592
2560.0,-0.00017843749083112925
2816.0,0.00481803435832262
3072.0,-0.003947483841329813
3328.0,0.005333776585757732
3584.0,0.012160430662333965
3840.0,0.008145309053361416
4096.0,0.008576400578022003
4608.0,-0.0039029486943036318
5120.0,-0.006868721917271614
5632.0,-0.006246692501008511
6144.0,7.258592086145654e-05
6656.0,-0.002628488000482321
7168.0,0.003385860240086913
7680.0,0.004434480797499418
8192.0,-0.0017875009216368198
9216.0,-0.00697051826864481
10240.0,0.002426672959700227
11264.0,0.0010739901335909963
12288.0,-0.00585103128105402
13312.0,3.2220323191722855e-05
14336.0,0.0031584249809384346
end
