version,3.0
numOfCh,1
type,point
parent_name,80-cuts
ch_type,1_1
kcount,1
numberNandB,1
brightnessNandB,1
carpet pos,0
pc,0
Time (ms),CH1 Auto-Correlation
1.0,0.06213813275098801
2.0,0.06139788031578064
3.0,0.06069150194525719
4.0,0.060005899518728256
5.0,0.05936954542994499
6.0,0.058745127171278
7.0,0.05812663212418556
8.0,0.05751528590917587
9.0,0.05690356716513634
10.0,0.05628141015768051
11.0,0.05568597465753555
12.0,0.0550965741276741
13.0,0.05451533943414688
14.0,0.05394183471798897
15.0,0.053380876779556274
16.0,0.05283436179161072
18.0,0.0517643503844738
20.0,0.050711724907159805
22.0,0.04969239979982376
24.0,0.048712167888879776
26.0,0.04778634384274483
28.0,0.04688733443617821
30.0,0.046021100133657455
32.0,0.04518168792128563
36.0,0.04359843581914902
40.0,0.04208318144083023
44.0,0.040680013597011566
48.0,0.03928593546152115
52.0,0.03793329373002052
56.0,0.036642901599407196
60.0,0.03542856499552727
64.0,0.03429947793483734
72.0,0.03241260349750519
80.0,0.03087020106613636
88.0,0.029301252216100693
96.0,0.02784608118236065
104.0,0.026728305965662003
112.0,0.025668403133749962
120.0,0.024747516959905624
128.0,0.024017861112952232
144.0,0.022179150953888893
160.0,0.02059929445385933
176.0,0.019169116392731667
192.0,0.017857156693935394
208.0,0.016592837870121002
224.0,0.016070611774921417
240.0,0.016076918691396713
256.0,0.015527048148214817
288.0,0.014350773766636848
320.0,0.01187173742800951
352.0,0.010130743496119976
384.0,0.009777561761438847
416.0,0.0077643063850700855
448.0,0.00508258119225502
480.0,0.004932045936584473
512.0,0.006252671591937542
576.0,0.00407865596935153
640.0,-0.0009199070045724511
704.0,-0.0032076435163617134
768.0,-0.002218465553596616
832.0,-0.0026998284738510847
896.0,-0.0038598987739533186
960.0,-0.0033597410656511784
1024.0,-0.004589700140058994
1152.0,-0.0033062209840863943
1280.0,-0.004631022922694683
1408.0,-0.00618119677528739
1536.0,-0.003974534571170807
1664.0,-0.003888442413881421
1792.0,-0.004486597143113613
1920.0,-0.000911763112526387
2048.0,0.0038930776063352823
2304.0,0.006784637924283743
2560.0,0.014030209742486477
2816.0,0.008377115242183208
3072.0,0.005152361001819372
3328.0,7.002241909503937e-05
3584.0,-0.003388252342119813
3840.0,-0.004076213110238314
4096.0,-0.009842632338404655
4608.0,-0.007964765653014183
5120.0,0.002806091448292136
5632.0,0.006701008416712284
6144.0,-0.006781943142414093
6656.0,-0.009938448667526245
7168.0,-0.011755825020372868
7680.0,-0.0025500054471194744
8192.0,-0.0006968272500671446
9216.0,-0.004192472901195288
10240.0,-0.004454007372260094
11264.0,-0.0019077196484431624
12288.0,0.007715180516242981
13312.0,0.004479788243770599
14336.0,0.009859815239906311
end
