version,3.0
numOfCh,1
type,point
parent_name,80-cuts
ch_type,1_1
kcount,1
numberNandB,1
brightnessNandB,1
carpet pos,0
pc,0
Time (ms),CH1 Auto-Correlation
1.0,0.020638220012187958
2.0,0.020388459786772728
3.0,0.02014639973640442
4.0,0.019903378561139107
5.0,0.019661860540509224
6.0,0.019428081810474396
7.0,0.019198181107640266
8.0,0.01897338032722473
9.0,0.018747752532362938
10.0,0.018528154119849205
11.0,0.018308397382497787
12.0,0.018086852505803108
13.0,0.017868373543024063
14.0,0.01765342988073826
15.0,0.01744246482849121
16.0,0.017237015068531036
18.0,0.016838163137435913
20.0,0.01644461415708065
22.0,0.016062775626778603
24.0,0.0156965684145689
26.0,0.015336413867771626
28.0,0.014986692927777767
30.0,0.014651725068688393
32.0,0.014329466037452221
36.0,0.013747459277510643
40.0,0.013252758421003819
44.0,0.012802527286112309
48.0,0.012376181781291962
52.0,0.011962822638452053
56.0,0.011539090424776077
60.0,0.01113301794975996
64.0,0.010752887465059757
72.0,0.010015856474637985
80.0,0.009287317283451557
88.0,0.008560947142541409
96.0,0.00785801187157631
104.0,0.007103248033672571
112.0,0.006313002668321133
120.0,0.005526598077267408
128.0,0.004751010797917843
144.0,0.0036675368901342154
160.0,0.0028634043410420418
176.0,0.0022951425053179264
192.0,0.0018715646583586931
208.0,0.0015589777613058686
224.0,0.0011656542774289846
240.0,0.0006484647165052593
256.0,0.00018884554447140545
288.0,-0.0004472765140235424
320.0,-0.0004352743271738291
352.0,-0.0006125815561972558
384.0,-0.0010323893511667848
416.0,-0.0016507575055584311
448.0,-0.0019115990726277232
480.0,-0.001858404604718089
512.0,-0.0013972035376355052
576.0,-0.0009570372058078647
640.0,-0.00039721038774587214
704.0,8.909081952879205e-05
768.0,0.00025642948457971215
832.0,-4.493782398640178e-05
896.0,-6.753038906026632e-05
960.0,-0.00042203516932204366
1024.0,-0.0013858753954991698
1152.0,0.00043971530976705253
1280.0,-8.38992764329305e-06
1408.0,-0.00314077059738338
1536.0,-0.004146016202867031
1664.0,-0.0047956351190805435
1792.0,-0.0010899751214310527
1920.0,0.0006534314597956836
2048.0,0.0015165702207013965
2304.0,0.002107013249769807
2560.0,0.0017501618713140488
2816.0,-0.0009799218969419599
3072.0,0.001274973270483315
3328.0,0.001101820613257587
3584.0,-0.002936688484624028
3840.0,-0.002313563833013177
4096.0,-0.0018743600230664015
4608.0,-0.0006934684934094548
5120.0,0.0014555180678144097
5632.0,0.0006910122465342283
6144.0,-0.0009529641247354448
6656.0,0.0012033873936161399
7168.0,-0.0005649668746627867
7680.0,0.0018223186489194632
8192.0,-0.0023170553613454103
9216.0,0.00029010852449573576
10240.0,-0.0018652532016858459
11264.0,0.0010419022291898727
12288.0,-0.00021733628818765283
13312.0,0.00015345805149991065
14336.0,0.0003381957649253309
end
