version,3.0
numOfCh,1
type,point
parent_name,80-cuts
ch_type,1_1
kcount,1
numberNandB,1
brightnessNandB,1
carpet pos,0
pc,0
Time (ms),CH1 Auto-Correlation
1.0,0.10863801091909409
2.0,0.10761193186044693
3.0,0.10658497363328934
4.0,0.10557934641838074
5.0,0.10460197925567627
6.0,0.10364717990159988
7.0,0.10271810740232468
8.0,0.10182131826877594
9.0,0.10092967003583908
10.0,0.10006574541330338
11.0,0.09919478744268417
12.0,0.09834402799606323
13.0,0.09752565622329712
14.0,0.09674131870269775
15.0,0.09598182886838913
16.0,0.09522329270839691
18.0,0.09370795637369156
20.0,0.09222434461116791
22.0,0.09076248854398727
24.0,0.08930937200784683
26.0,0.08793286234140396
28.0,0.08663783967494965
30.0,0.08537924289703369
32.0,0.08411314338445663
36.0,0.0816296711564064
40.0,0.07909206300973892
44.0,0.07656543701887131
48.0,0.07406482100486755
52.0,0.07168049365282059
56.0,0.0694611445069313
60.0,0.06736563891172409
64.0,0.06542558968067169
72.0,0.062139108777046204
80.0,0.05925004184246063
88.0,0.056065697222948074
96.0,0.052782412618398666
104.0,0.04991117864847183
112.0,0.04742030054330826
120.0,0.045110564678907394
128.0,0.04289985075592995
144.0,0.039486490190029144
160.0,0.03662118688225746
176.0,0.03453957661986351
192.0,0.03295980393886566
208.0,0.0308796688914299
224.0,0.028832679614424706
240.0,0.026474636048078537
256.0,0.02379089593887329
288.0,0.021395206451416016
320.0,0.019350554794073105
352.0,0.016154540702700615
384.0,0.01316638570278883
416.0,0.011110684834420681
448.0,0.00938084814697504
480.0,0.007699008099734783
512.0,0.006985611282289028
576.0,0.0015390889020636678
640.0,-0.002242714399471879
704.0,-0.0019065020605921745
768.0,-0.005051722750067711
832.0,-0.008174355141818523
896.0,-0.004108356311917305
960.0,-0.000886613386683166
1024.0,-0.0002603950269985944
1152.0,-0.004610282834619284
1280.0,-0.0023989921901375055
1408.0,0.0022061511408537626
1536.0,0.006921401713043451
1664.0,-0.0004108585708308965
1792.0,-0.00621732696890831
1920.0,-0.007138402666896582
2048.0,-0.010149629786610603
2304.0,-0.00909141730517149
2560.0,-0.0033473314251750708
2816.0,-0.002156635280698538
3072.0,-0.003220487153157592
3328.0,-0.0011650614906102419
3584.0,0.014805251732468605
3840.0,0.0058915880508720875
4096.0,-0.005763278808444738
4608.0,-0.010091512463986874
5120.0,-0.00978429988026619
5632.0,0.00010398979065939784
6144.0,-0.005810728762298822
6656.0,0.0031282734125852585
7168.0,0.009622733108699322
7680.0,-0.003742218017578125
8192.0,0.004507442004978657
9216.0,-0.00314708543010056
10240.0,-0.004440419375896454
11264.0,-0.00132597959600389
12288.0,0.007153645623475313
13312.0,-0.013853396289050579
14336.0,-0.004012104123830795
end
