version,3.0
numOfCh,1
type,point
parent_name,80-cuts
ch_type,1_1
kcount,1
numberNandB,1
brightnessNandB,1
carpet pos,0
pc,0
Time (ms),CH1 Auto-Correlation
1.0,0.08299938589334488
2.0,0.08210303634405136
3.0,0.08121500164270401
4.0,0.08035045117139816
5.0,0.07950805127620697
6.0,0.07866191864013672
7.0,0.07780703157186508
8.0,0.07696136087179184
9.0,0.07611676305532455
10.0,0.07530464977025986
11.0,0.07452067732810974
12.0,0.07374780625104904
13.0,0.07298865914344788
14.0,0.07224256545305252
15.0,0.07149957865476608
16.0,0.07076723873615265
18.0,0.06926991790533066
20.0,0.06782148033380508
22.0,0.06640934199094772
24.0,0.06507489830255508
26.0,0.06380198150873184
28.0,0.06258423626422882
30.0,0.06143241003155708
32.0,0.06033540517091751
36.0,0.05827172473073006
40.0,0.05635422095656395
44.0,0.05452153459191322
48.0,0.0527370348572731
52.0,0.050909560173749924
56.0,0.04915737360715866
60.0,0.04745800048112869
64.0,0.04583609476685524
72.0,0.042892638593912125
80.0,0.04036726430058479
88.0,0.03869178518652916
96.0,0.03752564638853073
104.0,0.03615138307213783
112.0,0.034914903342723846
120.0,0.03394428640604019
128.0,0.03287860378623009
144.0,0.03109164349734783
160.0,0.03042592853307724
176.0,0.030421020463109016
192.0,0.02993045561015606
208.0,0.028748448938131332
224.0,0.027351874858140945
240.0,0.02480621077120304
256.0,0.022282758727669716
288.0,0.020517166703939438
320.0,0.01744168810546398
352.0,0.014918605796992779
384.0,0.014014828018844128
416.0,0.014069413766264915
448.0,0.013265344314277172
480.0,0.012027009390294552
512.0,0.009986965917050838
576.0,0.007635521236807108
640.0,0.007352487184107304
704.0,0.007314939983189106
768.0,0.00757145881652832
832.0,0.007036714348942041
896.0,0.005681926850229502
960.0,0.008325242437422276
1024.0,0.011608624830842018
1152.0,0.006817477755248547
1280.0,0.004634106531739235
1408.0,0.0006086885696277022
1536.0,-0.002647069049999118
1664.0,-0.005895381793379784
1792.0,-0.0002962327271234244
1920.0,-0.00066132697975263
2048.0,-0.0008723047794774175
2304.0,0.00020525218860711902
2560.0,-0.0018986478680744767
2816.0,-0.002650417620316148
3072.0,-0.0005910950130783021
3328.0,0.0015366625739261508
3584.0,0.002127903513610363
3840.0,0.0010066363029181957
4096.0,0.001349739613942802
4608.0,0.012854893691837788
5120.0,0.0017646864289417863
5632.0,-0.004307594150304794
6144.0,-0.018102165311574936
6656.0,-0.01888357847929001
7168.0,-0.008053524419665337
7680.0,-0.00040261249523609877
8192.0,-0.006370299495756626
9216.0,-0.0031545800156891346
10240.0,-0.015058520250022411
11264.0,-0.013674911111593246
12288.0,0.006498150527477264
13312.0,0.00686099985614419
14336.0,0.0028454544954001904
end
