version,3.0
numOfCh,1
type,point
parent_name,80-cuts
ch_type,1_1
kcount,1
numberNandB,1
brightnessNandB,1
carpet pos,0
pc,0
Time (ms),CH1 Auto-Correlation
1.0,0.07467256486415863
2.0,0.07378799468278885
3.0,0.07291816174983978
4.0,0.07205512374639511
5.0,0.07121536135673523
6.0,0.0703650489449501
7.0,0.06952201575040817
8.0,0.06868404150009155
9.0,0.06786829233169556
10.0,0.06707924604415894
11.0,0.0663084015250206
12.0,0.06555065512657166
13.0,0.06479285657405853
14.0,0.06404347717761993
15.0,0.0633060559630394
16.0,0.06258408725261688
18.0,0.06113617494702339
20.0,0.05974890664219856
22.0,0.058443669229745865
24.0,0.05718030780553818
26.0,0.05599629133939743
28.0,0.05481782183051109
30.0,0.05366281792521477
32.0,0.05256907641887665
36.0,0.050407614558935165
40.0,0.04835563898086548
44.0,0.04634467884898186
48.0,0.044403497129678726
52.0,0.042420174926519394
56.0,0.04052331671118736
60.0,0.03878089413046837
64.0,0.037210267037153244
72.0,0.03451744467020035
80.0,0.03219633176922798
88.0,0.030039597302675247
96.0,0.028046732768416405
104.0,0.026103239506483078
112.0,0.024208374321460724
120.0,0.022307172417640686
128.0,0.02070792391896248
144.0,0.017840107902884483
160.0,0.015605447813868523
176.0,0.013703620992600918
192.0,0.012414767406880856
208.0,0.011278616264462471
224.0,0.01058773510158062
240.0,0.010069416835904121
256.0,0.010204119607806206
288.0,0.010990563780069351
320.0,0.00979374349117279
352.0,0.008777150884270668
384.0,0.008402903564274311
416.0,0.00695020891726017
448.0,0.00525881489738822
480.0,0.003215310163795948
512.0,0.002175776055082679
576.0,0.0013356206472963095
640.0,-0.0009958699811249971
704.0,-0.0027206686791032553
768.0,-0.0006237559719011188
832.0,-0.0014102078275755048
896.0,-0.0016399376327171922
960.0,-0.0046869488433003426
1024.0,-0.006349347066134214
1152.0,-0.006638174410909414
1280.0,-0.004939616657793522
1408.0,-0.0027883388102054596
1536.0,-0.007174448575824499
1664.0,-0.00550406938418746
1792.0,-0.009179249405860901
1920.0,-0.009082932956516743
2048.0,-0.004661285784095526
2304.0,-0.00342650362290442
2560.0,-0.0028305083978921175
2816.0,-0.005563299171626568
3072.0,-0.006531707942485809
3328.0,-0.00935763493180275
3584.0,-0.0025666088331490755
3840.0,0.00034665985731408
4096.0,0.010577695444226265
4608.0,0.012627062387764454
5120.0,0.002489955397322774
5632.0,-0.003234861185774207
6144.0,7.078799535520375e-05
6656.0,0.0058563039638102055
7168.0,-0.009533011354506016
7680.0,-0.014793427661061287
8192.0,-0.007965825498104095
9216.0,0.01076294481754303
10240.0,0.006384436506778002
11264.0,-0.005186241585761309
12288.0,-0.014124223031103611
13312.0,0.010066380724310875
14336.0,0.013419114053249359
end
