version,3.0
numOfCh,1
type,point
parent_name,80-cuts
ch_type,1_1
kcount,1
numberNandB,1
brightnessNandB,1
carpet pos,0
pc,0
Time (ms),CH1 Auto-Correlation
1.0,0.03470785543322563
2.0,0.03430796414613724
3.0,0.03391154110431671
4.0,0.0335143618285656
5.0,0.03311365842819214
6.0,0.032721810042858124
7.0,0.03232840821146965
8.0,0.03193755820393562
9.0,0.03154092654585838
10.0,0.03114384040236473
11.0,0.030756868422031403
12.0,0.03038652613759041
13.0,0.030016429722309113
14.0,0.02964276820421219
15.0,0.029273688793182373
16.0,0.028917964547872543
18.0,0.028225703164935112
20.0,0.02756805717945099
22.0,0.026944424957036972
24.0,0.026344729587435722
26.0,0.02575083076953888
28.0,0.025140130892395973
30.0,0.02455134131014347
32.0,0.023992890492081642
36.0,0.022888286039233208
40.0,0.02181754633784294
44.0,0.020794793963432312
48.0,0.019857758656144142
52.0,0.019015014171600342
56.0,0.018262973055243492
60.0,0.01757923513650894
64.0,0.01691540703177452
72.0,0.015735944733023643
80.0,0.014753959141671658
88.0,0.013918195851147175
96.0,0.013125773519277573
104.0,0.0123637355864048
112.0,0.011647474020719528
120.0,0.010868141427636147
128.0,0.010321506299078465
144.0,0.009338973090052605
160.0,0.00809597596526146
176.0,0.007109057158231735
192.0,0.006389078684151173
208.0,0.0058162459172308445
224.0,0.005074703134596348
240.0,0.00445630494505167
256.0,0.0036755907349288464
288.0,0.0022922875359654427
320.0,8.73820754350163e-05
352.0,-0.0015802057459950447
384.0,-0.0018877804977819324
416.0,-0.00234072282910347
448.0,-0.0027136688586324453
480.0,-0.001962630543857813
512.0,-0.0010985059197992086
576.0,-0.0014482602709904313
640.0,-0.00015968672232702374
704.0,0.0011538960970938206
768.0,0.0009396367240697145
832.0,-0.0006658502970822155
896.0,-0.00039883036515675485
960.0,-0.0017068717861548066
1024.0,-0.0024097850546240807
1152.0,-0.005286712199449539
1280.0,-0.005747901741415262
1408.0,-0.0025952656287699938
1536.0,-0.002193078398704529
1664.0,-0.0014424858381971717
1792.0,-0.0035328271333128214
1920.0,-0.002389343921095133
2048.0,-0.0012494781985878944
2304.0,0.0007034073933027685
2560.0,0.0011256859870627522
2816.0,0.0008270383113995194
3072.0,0.0006471069646067917
3328.0,0.003075798973441124
3584.0,0.0033868371974676847
3840.0,-0.0027740055229514837
4096.0,-0.004361308645457029
4608.0,0.0011811217991635203
5120.0,0.0007397140725515783
5632.0,-0.0009700568625703454
6144.0,-0.003756842343136668
6656.0,0.0008509826730005443
7168.0,0.001409260556101799
7680.0,0.002211760962381959
8192.0,0.0014172190567478538
9216.0,-0.0031536405440419912
10240.0,0.0027812786865979433
11264.0,-0.0029734820127487183
12288.0,0.00013268231123220176
13312.0,0.002118556760251522
14336.0,-0.00015817438543308526
end
