version,3.0
numOfCh,1
type,point
parent_name,80-cuts
ch_type,1_1
kcount,1
numberNandB,1
brightnessNandB,1
carpet pos,0
pc,0
Time (ms),CH1 Auto-Correlation
1.0,0.021047085523605347
2.0,0.020779995247721672
3.0,0.020517287775874138
4.0,0.02025788463652134
5.0,0.020000027492642403
6.0,0.019745999947190285
7.0,0.019495325163006783
8.0,0.01924937218427658
9.0,0.019005024805665016
10.0,0.01876351237297058
11.0,0.01852419041097164
12.0,0.018285531550645828
13.0,0.01805824600160122
14.0,0.01782909221947193
15.0,0.01760452426970005
16.0,0.017383061349391937
18.0,0.016966339200735092
20.0,0.01656390354037285
22.0,0.016169939190149307
24.0,0.01577162742614746
26.0,0.015375933609902859
28.0,0.015005897730588913
30.0,0.01465476956218481
32.0,0.014316592365503311
36.0,0.013692312873899937
40.0,0.013115309178829193
44.0,0.012588759884238243
48.0,0.012060669250786304
52.0,0.01154299546033144
56.0,0.011001773178577423
60.0,0.010449055582284927
64.0,0.00993061438202858
72.0,0.009023850783705711
80.0,0.008228544145822525
88.0,0.007580597419291735
96.0,0.007036397699266672
104.0,0.006553343962877989
112.0,0.006092593539506197
120.0,0.005640022922307253
128.0,0.005169684998691082
144.0,0.0043337903916835785
160.0,0.003732987679541111
176.0,0.0030187030788511038
192.0,0.002338380552828312
208.0,0.00215285480953753
224.0,0.002302086679264903
240.0,0.0022100494243204594
256.0,0.0022341141011565924
288.0,0.00238401023671031
320.0,0.002534494735300541
352.0,0.002742756623774767
384.0,0.003145708702504635
416.0,0.003350477898493409
448.0,0.003733370453119278
480.0,0.0038751286920160055
512.0,0.004162942990660667
576.0,0.003565264865756035
640.0,0.002017129212617874
704.0,0.00010034021397586912
768.0,-0.0005443606059998274
832.0,0.00026551049086265266
896.0,0.0013701379066333175
960.0,0.0010373066179454327
1024.0,0.0006394774536602199
1152.0,-0.00037131100543774664
1280.0,-0.0006191626889631152
1408.0,0.00016699975822120905
1536.0,-0.00021193003340158612
1664.0,-0.0004730969376396388
1792.0,0.002225627191364765
1920.0,0.003741296473890543
2048.0,0.001584468293003738
2304.0,0.0020512931514531374
2560.0,0.0013581090606749058
2816.0,0.00032274104887619615
3072.0,0.0008935239166021347
3328.0,-0.000808853714261204
3584.0,-0.00039468484465032816
3840.0,-0.001399100641719997
4096.0,-0.0019735535606741905
4608.0,-0.00141637132037431
5120.0,-0.0003861940058413893
5632.0,-0.000586727459449321
6144.0,-0.0013439437607303262
6656.0,-0.002936973934993148
7168.0,-0.003060291986912489
7680.0,-0.0037373583763837814
8192.0,-0.0013762710150331259
9216.0,-0.00018702166562434286
10240.0,-0.00021708078566007316
11264.0,0.0011937555391341448
12288.0,0.0013273782096803188
13312.0,-3.67017782991752e-05
14336.0,0.00027115526609122753
end
