version,3.0
numOfCh,1
type,point
parent_name,80-cuts
ch_type,1_1
kcount,1
numberNandB,1
brightnessNandB,1
carpet pos,0
pc,0
Time (ms),CH1 Auto-Correlation
1.0,0.042470645159482956
2.0,0.042097318917512894
3.0,0.041719019412994385
4.0,0.04135909676551819
5.0,0.04100177437067032
6.0,0.04063817486166954
7.0,0.04027658328413963
8.0,0.03992423787713051
9.0,0.03957673907279968
10.0,0.039236657321453094
11.0,0.038900941610336304
12.0,0.03855856508016586
13.0,0.038219716399908066
14.0,0.03788825497031212
15.0,0.03755597770214081
16.0,0.03723153471946716
18.0,0.03657546639442444
20.0,0.03593573346734047
22.0,0.035300079733133316
24.0,0.034662872552871704
26.0,0.03404361009597778
28.0,0.03343871235847473
30.0,0.03284284844994545
32.0,0.03225439786911011
36.0,0.031088517978787422
40.0,0.029950696974992752
44.0,0.028818679973483086
48.0,0.027699964120984077
52.0,0.02657501772046089
56.0,0.02544897049665451
60.0,0.024296870455145836
64.0,0.023129653185606003
72.0,0.020939191803336143
80.0,0.0188822690397501
88.0,0.017022741958498955
96.0,0.01555505022406578
104.0,0.014329170808196068
112.0,0.013230584561824799
120.0,0.012258348055183887
128.0,0.011447137221693993
144.0,0.010303584858775139
160.0,0.009650017134845257
176.0,0.008954946883022785
192.0,0.008292226120829582
208.0,0.007741132285445929
224.0,0.007256820797920227
240.0,0.006732683163136244
256.0,0.005964851472526789
288.0,0.004779644776135683
320.0,0.003591009182855487
352.0,0.003007377963513136
384.0,0.0033967227209359407
416.0,0.004117543343454599
448.0,0.004337463993579149
480.0,0.004139928612858057
512.0,0.004349867347627878
576.0,0.00445990776643157
640.0,0.002629728289321065
704.0,0.0017854457255452871
768.0,0.0026036687195301056
832.0,0.0019527915865182877
896.0,0.00018210480629932135
960.0,-0.0009104434284381568
1024.0,-0.00046161917271092534
1152.0,0.0005244361236691475
1280.0,0.00326621625572443
1408.0,0.001051566214300692
1536.0,0.003315854584798217
1664.0,0.006102837156504393
1792.0,0.002926059067249298
1920.0,0.0019612254109233618
2048.0,-0.0011341470526531339
2304.0,-0.0012144115753471851
2560.0,-0.0036475840024650097
2816.0,-0.0040718489326536655
3072.0,-0.0012215194292366505
3328.0,-0.0015714457258582115
3584.0,-0.0035202964209020138
3840.0,-0.000955608207732439
4096.0,-0.0015722756506875157
4608.0,-0.00368798547424376
5120.0,-0.003766773035749793
5632.0,-0.002167418599128723
6144.0,-0.0017405783291906118
6656.0,-0.005076925735920668
7168.0,0.0002053644711850211
7680.0,-0.0013010952388867736
8192.0,-0.005342733580619097
9216.0,0.004483997821807861
10240.0,-0.0011753313010558486
11264.0,0.0037317625246942043
12288.0,-0.0011378353228792548
13312.0,0.007899800315499306
14336.0,-0.009174526669085026
end
