version,3.0
numOfCh,1
type,point
parent_name,80-cuts
ch_type,1_1
kcount,1
numberNandB,1
brightnessNandB,1
carpet pos,0
pc,0
Time (ms),CH1 Auto-Correlation
1.0,0.05071520432829857
2.0,0.050163861364126205
3.0,0.049622658640146255
4.0,0.04907672107219696
5.0,0.04855741932988167
6.0,0.04804820194840431
7.0,0.04755441099405289
8.0,0.04706086218357086
9.0,0.04658304899930954
10.0,0.046097103506326675
11.0,0.04560745134949684
12.0,0.045111168175935745
13.0,0.04461461305618286
14.0,0.0441068671643734
15.0,0.04360191524028778
16.0,0.043109387159347534
18.0,0.042168207466602325
20.0,0.04123443737626076
22.0,0.04032568633556366
24.0,0.03943583369255066
26.0,0.03859083727002144
28.0,0.03778640180826187
30.0,0.0369802750647068
32.0,0.036169372498989105
36.0,0.03461875766515732
40.0,0.033181965351104736
44.0,0.031747009605169296
48.0,0.03036530315876007
52.0,0.02908959984779358
56.0,0.02780924178659916
60.0,0.026547862216830254
64.0,0.025273405015468597
72.0,0.0228259339928627
80.0,0.020488286390900612
88.0,0.018375925719738007
96.0,0.01649395190179348
104.0,0.014739030972123146
112.0,0.013059222139418125
120.0,0.011322898790240288
128.0,0.009710412472486496
144.0,0.007634788751602173
160.0,0.006459388416260481
176.0,0.005566718988120556
192.0,0.004582015331834555
208.0,0.004113207571208477
224.0,0.0041549960151314735
240.0,0.0034605625551193953
256.0,0.0028513900469988585
288.0,0.0019670811016112566
320.0,-0.0002834961051121354
352.0,-0.00048638228327035904
384.0,0.0011428740108385682
416.0,0.002190985484048724
448.0,0.0030583832412958145
480.0,0.0036207379307597876
512.0,0.0036608248483389616
576.0,0.002333002397790551
640.0,0.0018706973642110825
704.0,0.0021894611418247223
768.0,0.0028237816877663136
832.0,0.002668993780389428
896.0,0.004782696254551411
960.0,0.0022663732524961233
1024.0,-0.003385692136362195
1152.0,-0.004841499496251345
1280.0,-0.0019366869237273932
1408.0,-0.0017774476436898112
1536.0,-0.00271014217287302
1664.0,-0.006995427422225475
1792.0,-0.003753350581973791
1920.0,-0.00403496203944087
2048.0,-0.00079824507702142
2304.0,-0.004386241547763348
2560.0,-0.002801850438117981
2816.0,-0.0006320547545328736
3072.0,-0.005595437716692686
3328.0,-0.0029318223241716623
3584.0,-0.0005270966212265193
3840.0,-0.0049667637795209885
4096.0,0.0021382630802690983
4608.0,0.003559141419827938
5120.0,0.0036910276394337416
5632.0,0.0045706164091825485
6144.0,-0.0016653920756652951
6656.0,-0.0029606116004288197
7168.0,0.0006181621574796736
7680.0,0.003889648709446192
8192.0,-0.003137842519208789
9216.0,-0.002493873704224825
10240.0,-6.119529280113056e-05
11264.0,0.00021729245781898499
12288.0,0.0013533527962863445
13312.0,-5.685175347025506e-05
14336.0,-0.003676199121400714
end
