version,3.0
numOfCh,1
type,point
parent_name,80-cuts
ch_type,1_1
kcount,1
numberNandB,1
brightnessNandB,1
carpet pos,0
pc,0
Time (ms),CH1 Auto-Correlation
1.0,0.034475378692150116
2.0,0.03417636454105377
3.0,0.0338800810277462
4.0,0.03359147161245346
5.0,0.033307697623968124
6.0,0.03302783891558647
7.0,0.032756444066762924
8.0,0.0324910432100296
9.0,0.03223283216357231
10.0,0.03197057172656059
11.0,0.031715601682662964
12.0,0.03145907446742058
13.0,0.031209632754325867
14.0,0.030968664214015007
15.0,0.03074021451175213
16.0,0.030522674322128296
18.0,0.030088772997260094
20.0,0.02965705655515194
22.0,0.02924293838441372
24.0,0.02883361093699932
26.0,0.028448229655623436
28.0,0.028088130056858063
30.0,0.027726126834750175
32.0,0.027371827512979507
36.0,0.026638377457857132
40.0,0.025952808558940887
44.0,0.025322597473859787
48.0,0.024716397747397423
52.0,0.024069197475910187
56.0,0.023424185812473297
60.0,0.022781217470765114
64.0,0.022168612107634544
72.0,0.020931707695126534
80.0,0.019720522686839104
88.0,0.0186357069760561
96.0,0.017615625634789467
104.0,0.01667700707912445
112.0,0.01586693897843361
120.0,0.01515685673803091
128.0,0.014481869526207447
144.0,0.012897200882434845
160.0,0.011454409919679165
176.0,0.0104323485866189
192.0,0.00953369028866291
208.0,0.008885083720088005
224.0,0.008389518596231937
240.0,0.007971739396452904
256.0,0.007583352271467447
288.0,0.006605439353734255
320.0,0.005730919074267149
352.0,0.005363997537642717
384.0,0.004787725396454334
416.0,0.004010709468275309
448.0,0.0031683326233178377
480.0,0.002069038338959217
512.0,0.0011192687088623643
576.0,-0.0005474333884194493
640.0,-0.0007346493075601757
704.0,0.0005724094226025045
768.0,0.0013463813811540604
832.0,0.0016000758623704314
896.0,0.0026814581360667944
960.0,0.0030143356416374445
1024.0,0.003349179634824395
1152.0,0.0037898749578744173
1280.0,0.0038013537414371967
1408.0,0.004272907972335815
1536.0,0.002502922900021076
1664.0,-4.086678382009268e-05
1792.0,-6.94479376761592e-06
1920.0,-0.00019512824655976146
2048.0,-0.0014760741032660007
2304.0,0.0003740825632121414
2560.0,0.0032382309436798096
2816.0,0.00216642371378839
3072.0,0.0026375919114798307
3328.0,0.001744381501339376
3584.0,-0.0023105714935809374
3840.0,-0.0034938352182507515
4096.0,-0.001406560535542667
4608.0,-0.0016225362196564674
5120.0,-0.004588430281728506
5632.0,-0.004670394118875265
6144.0,-0.0012123450869694352
6656.0,-0.0015294887125492096
7168.0,0.0015868679620325565
7680.0,0.0014861742965877056
8192.0,0.0003665346303023398
9216.0,0.0021817167289555073
10240.0,-0.0004957073251716793
11264.0,-0.0011787768453359604
12288.0,-0.0023318855091929436
13312.0,-0.01024683378636837
14336.0,-0.013128337450325489
end
