version,3.0
numOfCh,1
type,point
parent_name,80-cuts
ch_type,1_1
kcount,1
numberNandB,1
brightnessNandB,1
carpet pos,0
pc,0
Time (ms),CH1 Auto-Correlation
1.0,0.07041990011930466
2.0,0.06956365704536438
3.0,0.06871233135461807
4.0,0.06787995994091034
5.0,0.0670502558350563
6.0,0.06622368842363358
7.0,0.06540357321500778
8.0,0.06458798050880432
9.0,0.06376519054174423
10.0,0.06295771151781082
11.0,0.062149498611688614
12.0,0.061346184462308884
13.0,0.060558490455150604
14.0,0.05980374664068222
15.0,0.0590580552816391
16.0,0.058349236845970154
18.0,0.056955285370349884
20.0,0.05555810034275055
22.0,0.05418170243501663
24.0,0.05287335813045502
26.0,0.05163665860891342
28.0,0.05043056607246399
30.0,0.04924272745847702
32.0,0.04811103641986847
36.0,0.04603106155991554
40.0,0.04413260146975517
44.0,0.04237348213791847
48.0,0.040701739490032196
52.0,0.03905429318547249
56.0,0.03747473284602165
60.0,0.03600095957517624
64.0,0.034556180238723755
72.0,0.03170807287096977
80.0,0.029117697849869728
88.0,0.02684183046221733
96.0,0.024745158851146698
104.0,0.022541752085089684
112.0,0.020373988896608353
120.0,0.01828058436512947
128.0,0.016430627554655075
144.0,0.013676104135811329
160.0,0.011201312765479088
176.0,0.00822825450450182
192.0,0.006315701175481081
208.0,0.0054573193192481995
224.0,0.004739345982670784
240.0,0.0039003416895866394
256.0,0.0032712218817323446
288.0,0.001983731286600232
320.0,0.002026961650699377
352.0,0.003110635792836547
384.0,0.005253226030617952
416.0,0.0066258166916668415
448.0,0.005610315129160881
480.0,0.0044952379539608955
512.0,0.0033636344596743584
576.0,0.002840175060555339
640.0,0.0027973828837275505
704.0,-0.00014115596422925591
768.0,-0.0024593202397227287
832.0,-0.00046072358964011073
896.0,-0.0009727693977765739
960.0,-0.0015101159224286675
1024.0,-0.0021559048909693956
1152.0,-0.004990279208868742
1280.0,-0.0024628345854580402
1408.0,-0.0006653702002950013
1536.0,-0.0027986345812678337
1664.0,-0.001775865675881505
1792.0,0.0025390603113919497
1920.0,0.0011889372253790498
2048.0,-0.0030408028978854418
2304.0,0.002609777497127652
2560.0,0.0025575384497642517
2816.0,0.00191942707169801
3072.0,-0.0034862984903156757
3328.0,0.002066689310595393
3584.0,-0.001506715314462781
3840.0,-0.00038829862023703754
4096.0,-0.0001880764903035015
4608.0,-0.003649916034191847
5120.0,-0.0025730780325829983
5632.0,-0.004499430302530527
6144.0,-0.007444586604833603
6656.0,-0.0033234229777008295
7168.0,-0.0025393087416887283
7680.0,-0.005257947836071253
8192.0,-0.004028301686048508
9216.0,-0.00010150310845347121
10240.0,0.006130182184278965
11264.0,-0.001492034294642508
12288.0,-0.001454652869142592
13312.0,0.014608855359256268
14336.0,-0.008882145397365093
end
