version,3.0
numOfCh,1
type,point
parent_name,80-cuts
ch_type,1_1
kcount,1
numberNandB,1
brightnessNandB,1
carpet pos,0
pc,0
Time (ms),CH1 Auto-Correlation
1.0,0.08312676101922989
2.0,0.08238470554351807
3.0,0.08166607469320297
4.0,0.08094529062509537
5.0,0.08024537563323975
6.0,0.07953773438930511
7.0,0.07883384823799133
8.0,0.07813815027475357
9.0,0.07746611535549164
10.0,0.07678817212581635
11.0,0.07612324506044388
12.0,0.07548163831233978
13.0,0.07484953850507736
14.0,0.07422570139169693
15.0,0.0735938549041748
16.0,0.07296478003263474
18.0,0.07175751030445099
20.0,0.07058065384626389
22.0,0.06946805864572525
24.0,0.06835432350635529
26.0,0.06722842156887054
28.0,0.06613743305206299
30.0,0.06509815156459808
32.0,0.06410309672355652
36.0,0.062186483293771744
40.0,0.06029190868139267
44.0,0.05846438556909561
48.0,0.05678541958332062
52.0,0.055176861584186554
56.0,0.053614292293787
60.0,0.05210600420832634
64.0,0.05070142075419426
72.0,0.0482020229101181
80.0,0.04608369246125221
88.0,0.04396027699112892
96.0,0.04195043444633484
104.0,0.04020838066935539
112.0,0.038676440715789795
120.0,0.037285905331373215
128.0,0.03598279133439064
144.0,0.03372842073440552
160.0,0.03075825609266758
176.0,0.02771131694316864
192.0,0.026023777201771736
208.0,0.024660492315888405
224.0,0.022653676569461823
240.0,0.02172074466943741
256.0,0.020773084834218025
288.0,0.018320364877581596
320.0,0.01644086465239525
352.0,0.015524782240390778
384.0,0.015442127361893654
416.0,0.015874698758125305
448.0,0.014966127462685108
480.0,0.0120713384822011
512.0,0.01110162679105997
576.0,0.009812599048018456
640.0,0.006014760117977858
704.0,0.0012031998485326767
768.0,-0.0013534303288906813
832.0,-0.002819701796397567
896.0,-0.004201457370072603
960.0,-0.004547905642539263
1024.0,-0.004775312729179859
1152.0,-0.006183988880366087
1280.0,-0.003341885982081294
1408.0,-0.0017264744965359569
1536.0,-0.003079318208619952
1664.0,0.0015039994614198804
1792.0,0.009486309252679348
1920.0,0.009085114113986492
2048.0,0.00042738206684589386
2304.0,-0.009123996831476688
2560.0,-0.0133904367685318
2816.0,-0.007998267188668251
3072.0,-0.0070504373870790005
3328.0,-0.007239069323986769
3584.0,-0.00030973542015999556
3840.0,-0.0054499441757798195
4096.0,-0.00618461100384593
4608.0,-0.008040870539844036
5120.0,-0.006680539809167385
5632.0,-0.002084920182824135
6144.0,0.000571464654058218
6656.0,0.0036201912444084883
7168.0,0.011062907055020332
7680.0,0.009114542976021767
8192.0,0.010279051959514618
9216.0,-0.001790480688214302
10240.0,-0.013068437576293945
11264.0,0.00730289937928319
12288.0,0.003998003900051117
13312.0,-0.02014065347611904
14336.0,-0.008678492158651352
end
