version,3.0
numOfCh,1
type,point
parent_name,80-cuts
ch_type,1_1
kcount,1
numberNandB,1
brightnessNandB,1
carpet pos,0
pc,0
Time (ms),CH1 Auto-Correlation
1.0,0.06575480103492737
2.0,0.06493040174245834
3.0,0.06410116702318192
4.0,0.06329711526632309
5.0,0.06249716877937317
6.0,0.06172103062272072
7.0,0.06095069646835327
8.0,0.0601898618042469
9.0,0.059435684233903885
10.0,0.058678142726421356
11.0,0.05793788284063339
12.0,0.057252492755651474
13.0,0.056563399732112885
14.0,0.05587918683886528
15.0,0.0551946796476841
16.0,0.05451172962784767
18.0,0.05316828936338425
20.0,0.05190053954720497
22.0,0.05065906420350075
24.0,0.049403116106987
26.0,0.048169225454330444
28.0,0.0469660758972168
30.0,0.04579346254467964
32.0,0.04466020315885544
36.0,0.04250038415193558
40.0,0.04040423408150673
44.0,0.03842947259545326
48.0,0.036625538021326065
52.0,0.0348568819463253
56.0,0.03314031660556793
60.0,0.03159703314304352
64.0,0.030197519809007645
72.0,0.02783070132136345
80.0,0.02582579478621483
88.0,0.02387031726539135
96.0,0.021980291232466698
104.0,0.020227011293172836
112.0,0.01847548969089985
120.0,0.016517864540219307
128.0,0.014695882797241211
144.0,0.011624820530414581
160.0,0.008904867805540562
176.0,0.006804852746427059
192.0,0.006272591184824705
208.0,0.0062648830935359
224.0,0.00636125635355711
240.0,0.00569313345476985
256.0,0.004568102769553661
288.0,0.002991484245285392
320.0,0.000796650187112391
352.0,-0.0004588403971865773
384.0,-0.000970857625361532
416.0,-0.0017876862548291683
448.0,-0.0012951206881552935
480.0,0.00025319610722362995
512.0,0.0017412897432222962
576.0,-0.0012690458679571748
640.0,-0.007680688519030809
704.0,-0.01107652485370636
768.0,-0.009469044394791126
832.0,-0.0023966447915881872
896.0,0.0018411125056445599
960.0,0.0020658019930124283
1024.0,0.0030969649087637663
1152.0,-0.0003940328606404364
1280.0,-0.0007532993913628161
1408.0,0.00296385632827878
1536.0,0.0017921986291185021
1664.0,-0.0010349835501983762
1792.0,-0.003450533142313361
1920.0,-0.007586600258946419
2048.0,-0.008866825141012669
2304.0,-0.001472254516556859
2560.0,0.0028934732545167208
2816.0,0.0020838917698711157
3072.0,-0.0054793767631053925
3328.0,-0.004913397133350372
3584.0,-0.0015984909841790795
3840.0,0.0017054295167326927
4096.0,0.001807770924642682
4608.0,-0.004831258673220873
5120.0,0.002390516921877861
5632.0,-0.0017299667233601213
6144.0,0.00639077415689826
6656.0,-0.005572041496634483
7168.0,-0.007211847696453333
7680.0,0.005052122753113508
8192.0,-0.007030232343822718
9216.0,0.005981140304356813
10240.0,-8.01388596300967e-05
11264.0,-0.0017850854201242328
12288.0,-0.0026060633827000856
13312.0,-0.0051828487776219845
14336.0,0.006160109303891659
end
