version,3.0
numOfCh,1
type,point
parent_name,80-cuts
ch_type,1_1
kcount,1
numberNandB,1
brightnessNandB,1
carpet pos,0
pc,0
Time (ms),CH1 Auto-Correlation
1.0,0.1020103320479393
2.0,0.10105963796377182
3.0,0.10014622658491135
4.0,0.09923357516527176
5.0,0.09831755608320236
6.0,0.09741821885108948
7.0,0.09656472504138947
8.0,0.09572385996580124
9.0,0.09488168358802795
10.0,0.09404464066028595
11.0,0.09322640299797058
12.0,0.09242433309555054
13.0,0.0916224792599678
14.0,0.09083954989910126
15.0,0.0900513231754303
16.0,0.08925027400255203
18.0,0.08770612627267838
20.0,0.08619771152734756
22.0,0.08470406383275986
24.0,0.08321012556552887
26.0,0.08179084211587906
28.0,0.08039820194244385
30.0,0.07904954254627228
32.0,0.07770146429538727
36.0,0.07498667389154434
40.0,0.07230499386787415
44.0,0.06961522251367569
48.0,0.06698661297559738
52.0,0.0644790381193161
56.0,0.062005043029785156
60.0,0.059654638171195984
64.0,0.057335883378982544
72.0,0.053099483251571655
80.0,0.04916004091501236
88.0,0.04577511548995972
96.0,0.042856451123952866
104.0,0.039734888821840286
112.0,0.03651617467403412
120.0,0.033430714160203934
128.0,0.03055465593934059
144.0,0.024920154362916946
160.0,0.020009415224194527
176.0,0.01570356823503971
192.0,0.012063504196703434
208.0,0.008736880496144295
224.0,0.005282009020447731
240.0,0.0016251675551757216
256.0,-0.0013028074754402041
288.0,-0.005341088864952326
320.0,-0.008038215339183807
352.0,-0.008957525715231895
384.0,-0.008069765754044056
416.0,-0.005964685697108507
448.0,-0.0019498453475534916
480.0,0.0003298305091448128
512.0,0.0013498114421963692
576.0,0.005923119373619556
640.0,0.009896477684378624
704.0,0.012596570886671543
768.0,0.009875769726932049
832.0,0.006825205869972706
896.0,0.0014336968306452036
960.0,0.002767554484307766
1024.0,0.003073184983804822
1152.0,-0.004803570453077555
1280.0,0.0011048020096495748
1408.0,0.008794646710157394
1536.0,0.0092764375731349
1664.0,0.0011832535965368152
1792.0,-0.009584477171301842
1920.0,-0.013055974617600441
2048.0,-0.008982024155557156
2304.0,-0.015376115217804909
2560.0,-0.015334198251366615
2816.0,-0.007959225215017796
3072.0,-0.012178248725831509
3328.0,-0.012940747663378716
3584.0,-0.005454035010188818
3840.0,0.0035186666063964367
4096.0,-0.012549096718430519
4608.0,0.004862603731453419
5120.0,0.00865173153579235
5632.0,0.013238729909062386
6144.0,0.007190490607172251
6656.0,-0.0027259401977062225
7168.0,-0.005344929173588753
7680.0,-0.008415566757321358
8192.0,-0.01537268701940775
9216.0,0.002366702537983656
10240.0,0.00781914871186018
11264.0,-0.0027229904662817717
12288.0,-0.00031782363657839596
13312.0,-0.008688475005328655
14336.0,-0.0011470549507066607
end
