version,3.0
numOfCh,1
type,point
parent_name,80-cuts
ch_type,1_1
kcount,1
numberNandB,1
brightnessNandB,1
carpet pos,0
pc,0
Time (ms),CH1 Auto-Correlation
1.0,0.024891486391425133
2.0,0.02458440698683262
3.0,0.02428497187793255
4.0,0.02398846670985222
5.0,0.023696377873420715
6.0,0.023405443876981735
7.0,0.023126142099499702
8.0,0.022846119478344917
9.0,0.022576985880732536
10.0,0.02231443114578724
11.0,0.022053884342312813
12.0,0.021793538704514503
13.0,0.02153255045413971
14.0,0.021268341690301895
15.0,0.021014584228396416
16.0,0.020756468176841736
18.0,0.020245959982275963
20.0,0.01974235475063324
22.0,0.01926836185157299
24.0,0.01881386712193489
26.0,0.018369805067777634
28.0,0.017935361713171005
30.0,0.017514120787382126
32.0,0.017114881426095963
36.0,0.016345160081982613
40.0,0.015606011264026165
44.0,0.014894546009600163
48.0,0.014259764924645424
52.0,0.013672253116965294
56.0,0.013102760538458824
60.0,0.012594620697200298
64.0,0.012158853933215141
72.0,0.011295667849481106
80.0,0.010530169121921062
88.0,0.00976959802210331
96.0,0.009005693718791008
104.0,0.008336855098605156
112.0,0.007789617870002985
120.0,0.007324063219130039
128.0,0.0068631586618721485
144.0,0.00587918795645237
160.0,0.004645081702619791
176.0,0.0034878323785960674
192.0,0.0024724744725972414
208.0,0.0014220353914424777
224.0,0.00044797107693739235
240.0,-0.00017370525165461004
256.0,-0.00036593727418221533
288.0,-0.00023317134764511138
320.0,0.0006422466831281781
352.0,0.0014455373166128993
384.0,0.001943201175890863
416.0,0.002428260864689946
448.0,0.0029869726859033108
480.0,0.002509763929992914
512.0,0.0017391833243891597
576.0,0.0012844166485592723
640.0,0.00044742104364559054
704.0,-0.0005565964966081083
768.0,-0.00030641930061392486
832.0,-0.001125798560678959
896.0,-0.0006662645027972758
960.0,-9.956264693755656e-05
1024.0,0.000400019547669217
1152.0,0.0009654990863054991
1280.0,0.0011462174588814378
1408.0,0.0010098210768774152
1536.0,0.0012721309904009104
1664.0,0.0026883871760219336
1792.0,0.0035061303060501814
1920.0,0.0021307365968823433
2048.0,0.0022620896343141794
2304.0,0.0020901276730000973
2560.0,0.00010734884563134983
2816.0,0.0012697858037427068
3072.0,-0.0011922888224944472
3328.0,-0.0004208845493849367
3584.0,-0.0014751243870705366
3840.0,0.0016758627025410533
4096.0,0.0011471438920125365
4608.0,0.0005567622720263898
5120.0,-0.0023932831827551126
5632.0,0.00011656045535346493
6144.0,-0.0007649906328879297
6656.0,-0.00204650592058897
7168.0,0.0005234707496128976
7680.0,0.000692955800332129
8192.0,-0.0013330524088814855
9216.0,-0.0010007931850850582
10240.0,-0.0025043960195034742
11264.0,-0.0013449012767523527
12288.0,-0.002724587684497237
13312.0,-0.0023751219268888235
14336.0,-0.0019620393868535757
end
