version,3.0
numOfCh,1
type,point
parent_name,80-cuts
ch_type,1_1
kcount,1
numberNandB,1
brightnessNandB,1
carpet pos,0
pc,0
Time (ms),CH1 Auto-Correlation
1.0,0.08104860037565231
2.0,0.08025102317333221
3.0,0.07944556325674057
4.0,0.07864361256361008
5.0,0.07784481346607208
6.0,0.07703929394483566
7.0,0.07624807208776474
8.0,0.075468048453331
9.0,0.07471568882465363
10.0,0.07398441433906555
11.0,0.0732540711760521
12.0,0.0725589171051979
13.0,0.07186590880155563
14.0,0.071177177131176
15.0,0.07050791382789612
16.0,0.06982582062482834
18.0,0.06849803030490875
20.0,0.06721709668636322
22.0,0.06591349840164185
24.0,0.06458587199449539
26.0,0.0632452666759491
28.0,0.061940066516399384
30.0,0.060660552233457565
32.0,0.05937996506690979
36.0,0.05689474567770958
40.0,0.0545588955283165
44.0,0.05232972651720047
48.0,0.050162434577941895
52.0,0.04809701815247536
56.0,0.04623257741332054
60.0,0.044521015137434006
64.0,0.04290607199072838
72.0,0.04002680256962776
80.0,0.03758736327290535
88.0,0.03544456884264946
96.0,0.03331043943762779
104.0,0.031234832480549812
112.0,0.029075510799884796
120.0,0.02712346985936165
128.0,0.02524462528526783
144.0,0.02117418684065342
160.0,0.017329832538962364
176.0,0.014375298283994198
192.0,0.012070690281689167
208.0,0.010344958864152431
224.0,0.009549418464303017
240.0,0.009258400648832321
256.0,0.009415365755558014
288.0,0.009996245615184307
320.0,0.009531261399388313
352.0,0.00727246655151248
384.0,0.005660769995301962
416.0,0.004439307376742363
448.0,0.002075367607176304
480.0,-0.0013580152299255133
512.0,-0.003937722649425268
576.0,-0.00681643420830369
640.0,-0.0064268712885677814
704.0,-0.00134567404165864
768.0,0.00040611092117615044
832.0,0.0010586160933598876
896.0,-0.00215976033359766
960.0,-0.002014131285250187
1024.0,5.8439381973585114e-05
1152.0,0.0044739809818565845
1280.0,-0.004500199109315872
1408.0,-0.006012572906911373
1536.0,-0.0007620790274813771
1664.0,-0.0019069565460085869
1792.0,0.0016553053865209222
1920.0,0.004490228835493326
2048.0,-0.004662724677473307
2304.0,-0.00016367407806683332
2560.0,0.004360972438007593
2816.0,-0.004066809080541134
3072.0,-0.007027346640825272
3328.0,-0.004776168614625931
3584.0,-0.0013743559829890728
3840.0,-0.007625683676451445
4096.0,-0.011440377682447433
4608.0,-0.004860104061663151
5120.0,-0.009374088607728481
5632.0,0.00731167197227478
6144.0,0.0019139077048748732
6656.0,0.0006380105041898787
7168.0,0.007717565167695284
7680.0,0.000238058200920932
8192.0,0.010574501007795334
9216.0,0.00581237580627203
10240.0,-0.0011058052768930793
11264.0,-0.010292019695043564
12288.0,-0.004327270667999983
13312.0,-0.007147743366658688
14336.0,-0.0007864147191867232
end
