version,3.0
numOfCh,1
type,point
parent_name,80-cuts
ch_type,1_1
kcount,1
numberNandB,1
brightnessNandB,1
carpet pos,0
pc,0
Time (ms),CH1 Auto-Correlation
1.0,0.061557650566101074
2.0,0.06093776598572731
3.0,0.060314279049634933
4.0,0.05969928950071335
5.0,0.059085357934236526
6.0,0.05848017707467079
7.0,0.05788761377334595
8.0,0.05729607120156288
9.0,0.05671747773885727
10.0,0.056141503155231476
11.0,0.05555921047925949
12.0,0.05497704818844795
13.0,0.05439500883221626
14.0,0.05380536615848541
15.0,0.05322650820016861
16.0,0.05263293907046318
18.0,0.051472123712301254
20.0,0.050333421677351
22.0,0.04919051378965378
24.0,0.04810648784041405
26.0,0.04705464839935303
28.0,0.046026017516851425
30.0,0.04502733051776886
32.0,0.04405352100729942
36.0,0.04217973351478577
40.0,0.04034047573804855
44.0,0.038591787219047546
48.0,0.036903124302625656
52.0,0.03525642678141594
56.0,0.033636003732681274
60.0,0.032044392079114914
64.0,0.03051285818219185
72.0,0.027675850316882133
80.0,0.0252213254570961
88.0,0.02306751348078251
96.0,0.021200554445385933
104.0,0.019431855529546738
112.0,0.017927085980772972
120.0,0.01659189537167549
128.0,0.015391272492706776
144.0,0.013096378184854984
160.0,0.011188272386789322
176.0,0.009496343322098255
192.0,0.007503225468099117
208.0,0.0066541340202093124
224.0,0.006475243251770735
240.0,0.006183103658258915
256.0,0.006282438989728689
288.0,0.005879029165953398
320.0,0.0064840009436011314
352.0,0.00402802275493741
384.0,0.001539531396701932
416.0,0.0006171736749820411
448.0,0.00034383629099465907
480.0,-0.00021037887199781835
512.0,-0.0031305626034736633
576.0,-0.006563704460859299
640.0,-0.0032099911477416754
704.0,-0.0024668832775205374
768.0,-0.0032303736079484224
832.0,-0.005162790883332491
896.0,-0.004167542327195406
960.0,-0.0019328658236190677
1024.0,-0.0016678485553711653
1152.0,0.00465249503031373
1280.0,0.001589236781001091
1408.0,0.0005949682672508061
1536.0,0.002361681079491973
1664.0,0.0010761512676253915
1792.0,6.525104254251346e-06
1920.0,0.0025446719955652952
2048.0,0.002799778478220105
2304.0,-0.004535134881734848
2560.0,-0.007127499207854271
2816.0,-0.002532953629270196
3072.0,-0.0012311333557590842
3328.0,0.0006460341392084956
3584.0,-0.0016025156946852803
3840.0,0.0004825782380066812
4096.0,-0.000315734650939703
4608.0,0.0031382415909320116
5120.0,-0.0007853714632801712
5632.0,-0.001573009416460991
6144.0,-0.004285492934286594
6656.0,-0.002599812811240554
7168.0,0.0021899747662246227
7680.0,-0.0026234034448862076
8192.0,-0.00231629959307611
9216.0,0.001360460533760488
10240.0,-0.011141466908156872
11264.0,0.00632971478626132
12288.0,-0.00017752825806383044
13312.0,0.012828302569687366
14336.0,-0.002655423479154706
end
