version,3.0
numOfCh,1
type,point
parent_name,80-cuts
ch_type,1_1
kcount,1
numberNandB,1
brightnessNandB,1
carpet pos,0
pc,0
Time (ms),CH1 Auto-Correlation
1.0,0.07631463557481766
2.0,0.07547912001609802
3.0,0.07466059923171997
4.0,0.07385954260826111
5.0,0.07305222004652023
6.0,0.07225088775157928
7.0,0.07149016112089157
8.0,0.07074407488107681
9.0,0.07001082599163055
10.0,0.06928100436925888
11.0,0.06858115643262863
12.0,0.06789280474185944
13.0,0.06720300763845444
14.0,0.06652272492647171
15.0,0.065853551030159
16.0,0.06517364829778671
18.0,0.06386642903089523
20.0,0.06259609758853912
22.0,0.061327219009399414
24.0,0.06009208410978317
26.0,0.05894255265593529
28.0,0.057800207287073135
30.0,0.05669282376766205
32.0,0.05563631281256676
36.0,0.05358561500906944
40.0,0.05150238424539566
44.0,0.049424681812524796
48.0,0.0475105382502079
52.0,0.04556180164217949
56.0,0.04358496144413948
60.0,0.04158538952469826
64.0,0.03976732864975929
72.0,0.03667804226279259
80.0,0.03394407033920288
88.0,0.03156425803899765
96.0,0.029441459104418755
104.0,0.027282487601041794
112.0,0.025205859914422035
120.0,0.023197513073682785
128.0,0.02128981053829193
144.0,0.017620408907532692
160.0,0.014070606790482998
176.0,0.01126039493829012
192.0,0.009376575239002705
208.0,0.00913939904421568
224.0,0.009455768391489983
240.0,0.009709317237138748
256.0,0.010115585289895535
288.0,0.011422613635659218
320.0,0.013220619410276413
352.0,0.014106960035860538
384.0,0.012695753015577793
416.0,0.009233048185706139
448.0,0.006079977378249168
480.0,0.0035525397397577763
512.0,0.0016155277844518423
576.0,0.0019805477932095528
640.0,0.0030910465866327286
704.0,0.0022608505096286535
768.0,2.7655471058096737e-05
832.0,-0.004155102651566267
896.0,-0.004915882367640734
960.0,-0.004012122284621
1024.0,-0.0050605363212525845
1152.0,-0.002311785239726305
1280.0,-0.0047364505007863045
1408.0,-0.011804986745119095
1536.0,-0.012937590479850769
1664.0,-0.010601717978715897
1792.0,-0.013468053191900253
1920.0,-0.009360919706523418
2048.0,-0.0038078792858868837
2304.0,0.00048037912347353995
2560.0,-0.002034605946391821
2816.0,0.0031133329030126333
3072.0,-0.0010017006425186992
3328.0,0.009113858453929424
3584.0,-0.0020792947616428137
3840.0,-0.00495861005038023
4096.0,-0.0019963926170021296
4608.0,-0.004086955916136503
5120.0,0.0033145593479275703
5632.0,0.006663515232503414
6144.0,0.0040803211741149426
6656.0,-0.0017101570265367627
7168.0,-0.005994804203510284
7680.0,-0.010167554952204227
8192.0,-0.010898211970925331
9216.0,0.006336499005556107
10240.0,0.006859657820314169
11264.0,0.001347504323348403
12288.0,-0.0009592052083462477
13312.0,-0.005831989925354719
14336.0,-0.0003439957508817315
end
