version,3.0
numOfCh,1
type,point
parent_name,80-cuts
ch_type,1_1
kcount,1
numberNandB,1
brightnessNandB,1
carpet pos,0
pc,0
Time (ms),CH1 Auto-Correlation
1.0,0.03666776791214943
2.0,0.03630086034536362
3.0,0.03594016656279564
4.0,0.0355893075466156
5.0,0.03524085879325867
6.0,0.034893427044153214
7.0,0.03454599529504776
8.0,0.03420126438140869
9.0,0.033855848014354706
10.0,0.03351360559463501
11.0,0.03318255394697189
12.0,0.03284117951989174
13.0,0.03249688819050789
14.0,0.03215690702199936
15.0,0.031829025596380234
16.0,0.03150177747011185
18.0,0.03084258921444416
20.0,0.030186515301465988
22.0,0.029521523043513298
24.0,0.028857242316007614
26.0,0.028197525069117546
28.0,0.027551762759685516
30.0,0.026912713423371315
32.0,0.02629094570875168
36.0,0.025111455470323563
40.0,0.023992301896214485
44.0,0.022923892363905907
48.0,0.021880503743886948
52.0,0.020891884341835976
56.0,0.019907724112272263
60.0,0.018941674381494522
64.0,0.01802397519350052
72.0,0.016306884586811066
80.0,0.014907949604094028
88.0,0.013765273615717888
96.0,0.012597480788826942
104.0,0.011492702178657055
112.0,0.0103530278429389
120.0,0.009158434346318245
128.0,0.008031931705772877
144.0,0.006235365755856037
160.0,0.004712877795100212
176.0,0.003732820972800255
192.0,0.0031636222265660763
208.0,0.002861607354134321
224.0,0.002626152476295829
240.0,0.0024586974177509546
256.0,0.00232546660117805
288.0,0.0010147120337933302
320.0,-0.00034895341377705336
352.0,-0.0008957160753197968
384.0,-0.0014015646884217858
416.0,-0.0020549038890749216
448.0,-0.0018873292719945312
480.0,-0.00029160449048504233
512.0,0.0008464243728667498
576.0,0.0012910279911011457
640.0,0.0021671850699931383
704.0,0.0019893080461770296
768.0,0.0020464982371777296
832.0,0.0025091376155614853
896.0,0.0005703074857592583
960.0,-0.0005707690143026412
1024.0,2.8993590603931807e-05
1152.0,0.004434231203049421
1280.0,0.00403623515740037
1408.0,0.003470475785434246
1536.0,0.004237186163663864
1664.0,0.0005190890515223145
1792.0,0.0002615856647025794
1920.0,-0.0006833340157754719
2048.0,-0.0016610840102657676
2304.0,0.001408039010129869
2560.0,-0.001886952668428421
2816.0,-0.0028078434988856316
3072.0,0.0013781724264845252
3328.0,-0.0033935809042304754
3584.0,-0.006547913420945406
3840.0,-0.0035508868750184774
4096.0,-0.004469013772904873
4608.0,-0.0016684430884197354
5120.0,-0.0027632464189082384
5632.0,-0.0006982410559430718
6144.0,-0.0024686772376298904
6656.0,0.0006688499706797302
7168.0,0.0027618976309895515
7680.0,-0.0020702602341771126
8192.0,0.0031619530636817217
9216.0,-0.00040230556624010205
10240.0,0.002429584041237831
11264.0,-0.0012610999401658773
12288.0,0.0007314325775951147
13312.0,0.0013300093123689294
14336.0,-0.0020992420613765717
end
