version,3.0
numOfCh,1
type,point
parent_name,80-cuts
ch_type,1_1
kcount,1
numberNandB,1
brightnessNandB,1
carpet pos,0
pc,0
Time (ms),CH1 Auto-Correlation
1.0,0.04499400407075882
2.0,0.04441029578447342
3.0,0.043840859085321426
4.0,0.04329865425825119
5.0,0.042760416865348816
6.0,0.04222940653562546
7.0,0.04171121492981911
8.0,0.041190825402736664
9.0,0.04067188873887062
10.0,0.040165893733501434
11.0,0.03967324644327164
12.0,0.039171911776065826
13.0,0.038675904273986816
14.0,0.038187284022569656
15.0,0.037692174315452576
16.0,0.03719966113567352
18.0,0.03624672070145607
20.0,0.035350386053323746
22.0,0.03447222337126732
24.0,0.03364045172929764
26.0,0.03282848000526428
28.0,0.03204518184065819
30.0,0.03127216175198555
32.0,0.030512221157550812
36.0,0.029077501967549324
40.0,0.027727831155061722
44.0,0.026382803916931152
48.0,0.025093451142311096
52.0,0.023869656026363373
56.0,0.022684745490550995
60.0,0.02159685082733631
64.0,0.02059107832610607
72.0,0.018785543739795685
80.0,0.017272433266043663
88.0,0.01601543463766575
96.0,0.015081321820616722
104.0,0.014140351675450802
112.0,0.013203066773712635
120.0,0.012194877490401268
128.0,0.011072485707700253
144.0,0.008995682932436466
160.0,0.007507969159632921
176.0,0.00644543906673789
192.0,0.005820246879011393
208.0,0.005365440156310797
224.0,0.004696254152804613
240.0,0.003949315287172794
256.0,0.003278648480772972
288.0,0.0030082003213465214
320.0,0.0031135680619627237
352.0,0.0030442073475569487
384.0,0.0026815268211066723
416.0,0.003906939644366503
448.0,0.004289891570806503
480.0,0.0037927317898720503
512.0,0.003762616775929928
576.0,0.0028476736042648554
640.0,-0.0007889672997407615
704.0,-0.0026661234442144632
768.0,-0.004663433879613876
832.0,-0.006787369959056377
896.0,-0.006373596843332052
960.0,-0.006370841059833765
1024.0,-0.004737826995551586
1152.0,-0.0075389486737549305
1280.0,-0.010133660398423672
1408.0,-0.007734457962214947
1536.0,-0.002966213272884488
1664.0,-0.00209341524168849
1792.0,-0.0026039890944957733
1920.0,-0.00071014987770468
2048.0,0.002469482133165002
2304.0,0.0009111135732382536
2560.0,0.003474930999800563
2816.0,0.0014739616308361292
3072.0,0.0011150590144097805
3328.0,-0.00045819475781172514
3584.0,0.0013302821898832917
3840.0,-0.003486709436401725
4096.0,-0.00011542203719727695
4608.0,-0.0020689379889518023
5120.0,-0.0009303672122769058
5632.0,0.0011168784694746137
6144.0,0.0016101222718134522
6656.0,0.0015364338178187609
7168.0,0.0006516418070532382
7680.0,-0.0016332375817000866
8192.0,-0.0032206173054873943
9216.0,0.0017183832824230194
10240.0,-0.0011805781396105886
11264.0,-0.0014048179145902395
12288.0,0.001545242965221405
13312.0,0.0008657373837195337
14336.0,-0.0009805411100387573
end
