version,3.0
numOfCh,1
type,point
parent_name,80-cuts
ch_type,1_1
kcount,1
numberNandB,1
brightnessNandB,1
carpet pos,0
pc,0
Time (ms),CH1 Auto-Correlation
1.0,0.031061256304383278
2.0,0.030757853761315346
3.0,0.03045753948390484
4.0,0.03016575425863266
5.0,0.02988613210618496
6.0,0.029612014070153236
7.0,0.029338577762246132
8.0,0.029073234647512436
9.0,0.028812306001782417
10.0,0.028568828478455544
11.0,0.02832380309700966
12.0,0.028081972151994705
13.0,0.027838146314024925
14.0,0.027599407359957695
15.0,0.027365896850824356
16.0,0.027139175683259964
18.0,0.0266884658485651
20.0,0.026266824454069138
22.0,0.02584337629377842
24.0,0.025422614067792892
26.0,0.025018762797117233
28.0,0.0246222335845232
30.0,0.024233130738139153
32.0,0.023851722478866577
36.0,0.023104429244995117
40.0,0.02238774113357067
44.0,0.021742280572652817
48.0,0.021104464307427406
52.0,0.020471841096878052
56.0,0.01985405944287777
60.0,0.019220853224396706
64.0,0.01862504333257675
72.0,0.017530107870697975
80.0,0.01655176840722561
88.0,0.015558301471173763
96.0,0.014628386124968529
104.0,0.013840461149811745
112.0,0.013051041401922703
120.0,0.012375895865261555
128.0,0.011830595321953297
144.0,0.010990051552653313
160.0,0.009993495419621468
176.0,0.009055053815245628
192.0,0.008212774991989136
208.0,0.00751555385068059
224.0,0.006617796141654253
240.0,0.006037173792719841
256.0,0.00544129591435194
288.0,0.0046654921025037766
320.0,0.0034045774955302477
352.0,0.002160115633159876
384.0,0.001551533117890358
416.0,0.0008096352103166282
448.0,0.0002063171996269375
480.0,-0.0005020948592573404
512.0,-0.0005975086824037135
576.0,-0.000513020611833781
640.0,-0.0004937388584949076
704.0,-0.00022555414761882275
768.0,0.0005980154382996261
832.0,-0.0001594950444996357
896.0,-0.0011481997789815068
960.0,-0.0022686240263283253
1024.0,-0.002579180058091879
1152.0,-0.0011896052164956927
1280.0,0.001027811085805297
1408.0,0.0004301584849599749
1536.0,0.00036083164741285145
1664.0,0.0004428184765856713
1792.0,0.001613240223377943
1920.0,0.0034173314925283194
2048.0,0.00179279746953398
2304.0,-0.0037409921642392874
2560.0,-0.006135840434581041
2816.0,-0.0031899174209684134
3072.0,-0.0011390370782464743
3328.0,-0.0006742317928001285
3584.0,0.00022583833197131753
3840.0,0.001406754250638187
4096.0,0.000780598318669945
4608.0,-0.005600735545158386
5120.0,-0.0009018781129270792
5632.0,9.45013016462326e-05
6144.0,-0.0009387639001943171
6656.0,0.0012304977281019092
7168.0,0.0030742380768060684
7680.0,0.00030916821560822427
8192.0,-0.001659528468735516
9216.0,0.0019414769485592842
10240.0,0.00022869484382681549
11264.0,0.0007078714552335441
12288.0,-0.000638104451354593
13312.0,-0.0007431203266605735
14336.0,0.0006202582735568285
end
