version,3.0
numOfCh,1
type,point
parent_name,80-cuts
ch_type,1_1
kcount,1
numberNandB,1
brightnessNandB,1
carpet pos,0
pc,0
Time (ms),CH1 Auto-Correlation
1.0,0.028723204508423805
2.0,0.028310349211096764
3.0,0.02789902500808239
4.0,0.027496902272105217
5.0,0.027110489085316658
6.0,0.026731854304671288
7.0,0.026366569101810455
8.0,0.02600463293492794
9.0,0.02564609795808792
10.0,0.025284549221396446
11.0,0.02493688464164734
12.0,0.024616144597530365
13.0,0.024291926994919777
14.0,0.023961948230862617
15.0,0.023636866360902786
16.0,0.023314213380217552
18.0,0.022664275020360947
20.0,0.022025683894753456
22.0,0.021407950669527054
24.0,0.020794415846467018
26.0,0.02019389718770981
28.0,0.01960521563887596
30.0,0.01902960054576397
32.0,0.01848895661532879
36.0,0.017528602853417397
40.0,0.016630129888653755
44.0,0.015767628327012062
48.0,0.014958333224058151
52.0,0.014214123599231243
56.0,0.013514685444533825
60.0,0.012825537472963333
64.0,0.012178058736026287
72.0,0.010952160693705082
80.0,0.009769050404429436
88.0,0.008622253313660622
96.0,0.007638250477612019
104.0,0.006870700046420097
112.0,0.00628169160336256
120.0,0.005930453073233366
128.0,0.005633071530610323
144.0,0.005012235604226589
160.0,0.0046294513158500195
176.0,0.004470318555831909
192.0,0.00429946556687355
208.0,0.004358759615570307
224.0,0.004148084670305252
240.0,0.003614868735894561
256.0,0.00291342381387949
288.0,0.0014370061689987779
320.0,-1.6502053767908365e-05
352.0,-0.00043328976607881486
384.0,-0.0006203650846146047
416.0,-0.0007881808560341597
448.0,-0.00033947816700674593
480.0,0.0001988954609259963
512.0,-0.000506628246512264
576.0,-0.0020476547069847584
640.0,-0.003539086552336812
704.0,-0.0031606811098754406
768.0,-0.00298440083861351
832.0,-0.004276438616216183
896.0,-0.003818368073552847
960.0,-0.0022077513858675957
1024.0,0.0003578985924832523
1152.0,0.0025001142639666796
1280.0,0.0020012063905596733
1408.0,0.0024611065164208412
1536.0,0.001201285282149911
1664.0,0.0002932468487415463
1792.0,-0.0015681463992223144
1920.0,0.0001465834939153865
2048.0,-0.0007583394763059914
2304.0,0.00011093686043750495
2560.0,0.0017583485459908843
2816.0,0.0013964357785880566
3072.0,0.0018020166317000985
3328.0,0.000947337131947279
3584.0,0.00041776656871661544
3840.0,1.3216769730206579e-05
4096.0,-0.0011516730301082134
4608.0,0.000231110054301098
5120.0,-0.00257646176032722
5632.0,-0.0003185395908076316
6144.0,0.002648603403940797
6656.0,-0.0004420900659170002
7168.0,-0.0008863063412718475
7680.0,-0.0022250444162636995
8192.0,-0.0006794878863729537
9216.0,0.0014102403074502945
10240.0,-0.001630987855605781
11264.0,-0.0016882277559489012
12288.0,0.0032720714807510376
13312.0,-0.0036834049969911575
14336.0,-0.006114049348980188
end
