version,3.0
numOfCh,1
type,point
parent_name,80-cuts
ch_type,1_1
kcount,1
numberNandB,1
brightnessNandB,1
carpet pos,0
pc,0
Time (ms),CH1 Auto-Correlation
1.0,0.02210105210542679
2.0,0.021816639229655266
3.0,0.02154594473540783
4.0,0.02128143236041069
5.0,0.021025266498327255
6.0,0.02076953463256359
7.0,0.02050968073308468
8.0,0.020250562578439713
9.0,0.020000316202640533
10.0,0.019744418561458588
11.0,0.019482441246509552
12.0,0.01921466924250126
13.0,0.018956823274493217
14.0,0.018712099641561508
15.0,0.01847057044506073
16.0,0.018232181668281555
18.0,0.01775054633617401
20.0,0.017274467274546623
22.0,0.01681811735033989
24.0,0.016370950266718864
26.0,0.015924856066703796
28.0,0.01548285037279129
30.0,0.01505230087786913
32.0,0.01462962944060564
36.0,0.01384779904037714
40.0,0.013140411116182804
44.0,0.012479760684072971
48.0,0.011826085858047009
52.0,0.011225933209061623
56.0,0.01066627912223339
60.0,0.010130628943443298
64.0,0.009631703607738018
72.0,0.008706940338015556
80.0,0.007859892211854458
88.0,0.0071539562195539474
96.0,0.0065879360772669315
104.0,0.0060742320492863655
112.0,0.005570503417402506
120.0,0.005054336041212082
128.0,0.004542803391814232
144.0,0.0033640610054135323
160.0,0.002246029209345579
176.0,0.0012492028763517737
192.0,0.0005121130379848182
208.0,-5.1603194151539356e-05
224.0,-0.0004361540195532143
240.0,-0.0005087247118353844
256.0,-0.00018170205294154584
288.0,0.000728274171706289
320.0,0.0008848210563883185
352.0,9.625597158446908e-05
384.0,-0.00046077914885245264
416.0,-0.0006605829694308341
448.0,-0.0009878682903945446
480.0,-0.0008515861118212342
512.0,-0.0003868078056257218
576.0,0.000463087490061298
640.0,0.0008072163327597082
704.0,0.0005545917083509266
768.0,0.0005892498884350061
832.0,0.0017504632705822587
896.0,0.0024482342414557934
960.0,0.0029499665834009647
1024.0,0.001505395513959229
1152.0,-0.001823845086619258
1280.0,-0.0038802181370556355
1408.0,-0.001997891115024686
1536.0,0.0015382661949843168
1664.0,-0.0007051105494610965
1792.0,-0.0014676495920866728
1920.0,0.0006806242745369673
2048.0,-0.0005569467321038246
2304.0,0.0004502943775150925
2560.0,0.0011930998880416155
2816.0,-0.0013176536886021495
3072.0,-0.0006339947576634586
3328.0,0.00015418833936564624
3584.0,0.0003498436708468944
3840.0,-0.0011845763074234128
4096.0,-0.0006074791308492422
4608.0,-0.00034538726322352886
5120.0,-1.5135848116187844e-05
5632.0,0.000862274959217757
6144.0,0.0014942697016522288
6656.0,-0.00027568225050345063
7168.0,-0.0007563066319562495
7680.0,-0.001633396022953093
8192.0,-0.0007068338454701006
9216.0,0.0007745042676106095
10240.0,-5.9367575886426494e-05
11264.0,0.0011815422913059592
12288.0,-0.0002797162742353976
13312.0,-0.0030950396321713924
14336.0,-0.005648707505315542
end
