version,3.0
numOfCh,1
type,point
parent_name,80-cuts
ch_type,1_1
kcount,1
numberNandB,1
brightnessNandB,1
carpet pos,0
pc,0
Time (ms),CH1 Auto-Correlation
1.0,0.09990531206130981
2.0,0.09891293942928314
3.0,0.09795108437538147
4.0,0.09701836109161377
5.0,0.0961228609085083
6.0,0.0952489897608757
7.0,0.09436904639005661
8.0,0.0934983342885971
9.0,0.09263502806425095
10.0,0.09177004545927048
11.0,0.09093791991472244
12.0,0.0901181548833847
13.0,0.08930610865354538
14.0,0.0884973555803299
15.0,0.0877687856554985
16.0,0.08704813569784164
18.0,0.08559653162956238
20.0,0.08413425832986832
22.0,0.08267547935247421
24.0,0.08121694624423981
26.0,0.07981836795806885
28.0,0.07839077711105347
30.0,0.07696504145860672
32.0,0.07556311041116714
36.0,0.07269222289323807
40.0,0.06988075375556946
44.0,0.06712893396615982
48.0,0.06434277445077896
52.0,0.06157904863357544
56.0,0.058946527540683746
60.0,0.056529197841882706
64.0,0.05412754788994789
72.0,0.04941082373261452
80.0,0.04517240822315216
88.0,0.04172355681657791
96.0,0.03863947093486786
104.0,0.03606817126274109
112.0,0.033447545021772385
120.0,0.03099735639989376
128.0,0.02922108769416809
144.0,0.026194583624601364
160.0,0.024208519607782364
176.0,0.02154819667339325
192.0,0.019480392336845398
208.0,0.017789047211408615
224.0,0.017256855964660645
240.0,0.01707363873720169
256.0,0.016518395394086838
288.0,0.014262104406952858
320.0,0.01177709549665451
352.0,0.008319503627717495
384.0,0.007099648471921682
416.0,0.008513413369655609
448.0,0.00914805382490158
480.0,0.007969153113663197
512.0,0.008200220763683319
576.0,0.0061680893413722515
640.0,-1.0919168744294439e-05
704.0,-0.008523176424205303
768.0,-0.008437707088887691
832.0,-0.005954221356660128
896.0,-0.007909219712018967
960.0,-0.011306492611765862
1024.0,-0.015796521678566933
1152.0,-0.013893836177885532
1280.0,-0.021731767803430557
1408.0,-0.021130792796611786
1536.0,-0.008223243057727814
1664.0,-0.010104372166097164
1792.0,-0.011260086670517921
1920.0,-0.002783646108582616
2048.0,0.0006256598862819374
2304.0,0.003533134236931801
2560.0,0.012240998446941376
2816.0,0.007503531873226166
3072.0,-0.009448867291212082
3328.0,-0.014923377893865108
3584.0,-0.0008609903743490577
3840.0,-0.00575484661385417
4096.0,-0.00481748441234231
4608.0,0.014506418257951736
5120.0,0.004566679242998362
5632.0,-0.010304232127964497
6144.0,-0.01710449531674385
6656.0,-0.0019630608148872852
7168.0,0.01796250231564045
7680.0,0.009948702529072762
8192.0,-0.009840157814323902
9216.0,0.0032951284665614367
10240.0,-0.00787796825170517
11264.0,-0.002269019605591893
12288.0,0.003565468592569232
13312.0,-0.004889228381216526
14336.0,0.0021887735929340124
end
