version,3.0
numOfCh,1
type,point
parent_name,80-cuts
ch_type,1_1
kcount,1
numberNandB,1
brightnessNandB,1
carpet pos,0
pc,0
Time (ms),CH1 Auto-Correlation
1.0,0.024064302444458008
2.0,0.023774106055498123
3.0,0.02349015511572361
4.0,0.023207584396004677
5.0,0.022928258404135704
6.0,0.02265772596001625
7.0,0.022384721785783768
8.0,0.02210957743227482
9.0,0.02183357998728752
10.0,0.02156323380768299
11.0,0.02129286900162697
12.0,0.02102554589509964
13.0,0.02076674997806549
14.0,0.02050642855465412
15.0,0.020250961184501648
16.0,0.019992303103208542
18.0,0.019468141719698906
20.0,0.018941018730401993
22.0,0.01842193491756916
24.0,0.01791904680430889
26.0,0.017423970624804497
28.0,0.016929088160395622
30.0,0.016449222341179848
32.0,0.015979215502738953
36.0,0.015100110322237015
40.0,0.01427960954606533
44.0,0.013502165675163269
48.0,0.01275792345404625
52.0,0.012024310417473316
56.0,0.011302904225885868
60.0,0.01062470767647028
64.0,0.009980798698961735
72.0,0.008868713863193989
80.0,0.007881822064518929
88.0,0.006892617326229811
96.0,0.0060453335754573345
104.0,0.005345053970813751
112.0,0.00476306164637208
120.0,0.004252511542290449
128.0,0.00380346761085093
144.0,0.002944318810477853
160.0,0.0020514121279120445
176.0,0.0013794460101053119
192.0,0.0010471339337527752
208.0,0.001015183748677373
224.0,0.0007658436661586165
240.0,0.00032020651269704103
256.0,-0.00018001518037635833
288.0,-0.0007788062794134021
320.0,-0.0010717062978073955
352.0,-0.0012673626188188791
384.0,-0.001567902392707765
416.0,-0.0017399757634848356
448.0,-0.0024214903824031353
480.0,-0.0029195998795330524
512.0,-0.002403321908786893
576.0,-0.001223709317855537
640.0,-0.0010993159376084805
704.0,-0.002072796458378434
768.0,-0.0018316664500162005
832.0,-0.0016997656784951687
896.0,-0.0001639987895032391
960.0,-0.0003530415706336498
1024.0,0.0013484270311892033
1152.0,0.00285576400347054
1280.0,0.0006380567792803049
1408.0,-0.0011209325166419148
1536.0,-0.0009496630518697202
1664.0,-0.0029955438803881407
1792.0,-0.0033494681119918823
1920.0,-0.0012620449997484684
2048.0,0.0010776459239423275
2304.0,0.0016223900020122528
2560.0,-0.0016589350998401642
2816.0,-0.0012578779133036733
3072.0,0.0018357429653406143
3328.0,0.0025220727548003197
3584.0,-0.0009721706155687571
3840.0,-0.0031056914012879133
4096.0,-0.0013070892309769988
4608.0,4.648197500500828e-05
5120.0,0.0009691471932455897
5632.0,0.0008721108315512538
6144.0,-0.0014201615704223514
6656.0,-0.00048248303937725723
7168.0,-0.001393149490468204
7680.0,-0.0010560231748968363
8192.0,0.0015069198561832309
9216.0,8.317742322105914e-05
10240.0,2.454156128806062e-05
11264.0,-0.0011531135533005
12288.0,6.411799404304475e-06
13312.0,0.000475563108921051
14336.0,0.0008587446063756943
end
