version,3.0
numOfCh,1
type,point
parent_name,80-cuts
ch_type,1_1
kcount,1
numberNandB,1
brightnessNandB,1
carpet pos,0
pc,0
Time (ms),CH1 Auto-Correlation
1.0,0.07487861812114716
2.0,0.07394972443580627
3.0,0.07302608340978622
4.0,0.07211127877235413
5.0,0.071177639067173
6.0,0.0702526643872261
7.0,0.06933226436376572
8.0,0.06844009459018707
9.0,0.06755906343460083
10.0,0.06668484956026077
11.0,0.06582408398389816
12.0,0.06494329124689102
13.0,0.06411541998386383
14.0,0.06331343948841095
15.0,0.06252551823854446
16.0,0.061738211661577225
18.0,0.06022036075592041
20.0,0.0587548092007637
22.0,0.05728348344564438
24.0,0.05583930015563965
26.0,0.054442740976810455
28.0,0.05309288948774338
30.0,0.05175444856286049
32.0,0.050443634390830994
36.0,0.04792427271604538
40.0,0.04547538608312607
44.0,0.043150678277015686
48.0,0.0408831387758255
52.0,0.03871634230017662
56.0,0.036726128309965134
60.0,0.034855831414461136
64.0,0.03304858133196831
72.0,0.03021272085607052
80.0,0.027809906750917435
88.0,0.025632129982113838
96.0,0.023415548726916313
104.0,0.02168004773557186
112.0,0.02032720483839512
120.0,0.019229121506214142
128.0,0.018020784482359886
144.0,0.015667490661144257
160.0,0.01387123204767704
176.0,0.011554082855582237
192.0,0.009379108436405659
208.0,0.007175026461482048
224.0,0.0048714252188801765
240.0,0.0033622293267399073
256.0,0.0018466104520484805
288.0,-0.00046707794535905123
320.0,-0.000924895575735718
352.0,0.0004575215280056
384.0,0.002518160967156291
416.0,0.0032807867974042892
448.0,0.0012581460177898407
480.0,-0.0013008492533117533
512.0,-0.0022468336392194033
576.0,-7.098442438291386e-05
640.0,-0.00033634001738391817
704.0,-0.005124131683260202
768.0,-0.005190712865442038
832.0,-0.002957066288217902
896.0,-0.0019839690066874027
960.0,-0.0027473813388496637
1024.0,-5.1528477342799306e-05
1152.0,-0.0008211478707380593
1280.0,0.002077196491882205
1408.0,0.0023827890399843454
1536.0,-0.0024936902336776257
1664.0,-0.0006310003227554262
1792.0,-0.000746578152757138
1920.0,0.00013116760237608105
2048.0,-0.0038151515182107687
2304.0,-0.0031044052448123693
2560.0,0.00011766538955271244
2816.0,-0.0003923505137208849
3072.0,-0.007305386010557413
3328.0,-0.006482446100562811
3584.0,-0.0024066937621682882
3840.0,-0.008028575219213963
4096.0,0.0006312394398264587
4608.0,0.008133484981954098
5120.0,-0.001539441174827516
5632.0,0.0018846922321245074
6144.0,-0.005701602902263403
6656.0,-0.0036228925455361605
7168.0,-0.0024329153820872307
7680.0,-0.0011806479888036847
8192.0,2.1549634766415693e-05
9216.0,0.006249004974961281
10240.0,0.0011181156150996685
11264.0,-0.0027031933423131704
12288.0,-0.006779473274946213
13312.0,-0.00024101286544464529
14336.0,-0.0007272487273439765
end
