version,3.0
numOfCh,1
type,point
parent_name,80-cuts
ch_type,1_1
kcount,1
numberNandB,1
brightnessNandB,1
carpet pos,0
pc,0
Time (ms),CH1 Auto-Correlation
1.0,0.07554757595062256
2.0,0.0747411772608757
3.0,0.07395631074905396
4.0,0.07319179177284241
5.0,0.07243716716766357
6.0,0.07169978320598602
7.0,0.07097028940916061
8.0,0.07025253772735596
9.0,0.06953833997249603
10.0,0.06886546313762665
11.0,0.06819050014019012
12.0,0.06752712279558182
13.0,0.06686770915985107
14.0,0.06621696799993515
15.0,0.065583236515522
16.0,0.0649370402097702
18.0,0.0636819526553154
20.0,0.06246844306588173
22.0,0.061254847794771194
24.0,0.06000492721796036
26.0,0.05877799168229103
28.0,0.05755797028541565
30.0,0.05637413635849953
32.0,0.05518412962555885
36.0,0.05297539755702019
40.0,0.0509134903550148
44.0,0.048910774290561676
48.0,0.046889714896678925
52.0,0.044908307492733
56.0,0.04289092868566513
60.0,0.040972258895635605
64.0,0.03909948095679283
72.0,0.03541751950979233
80.0,0.032088715583086014
88.0,0.029350508004426956
96.0,0.02719191648066044
104.0,0.025265706703066826
112.0,0.023517539724707603
120.0,0.021907804533839226
128.0,0.020381635054945946
144.0,0.01814122498035431
160.0,0.01640394516289234
176.0,0.01494279969483614
192.0,0.013533883728086948
208.0,0.012080809101462364
224.0,0.01117097306996584
240.0,0.010509048588573933
256.0,0.009232825599610806
288.0,0.006654947530478239
320.0,0.004022627137601376
352.0,0.001984085887670517
384.0,0.0031741568818688393
416.0,0.005410884041339159
448.0,0.006055039819329977
480.0,0.006182617507874966
512.0,0.003512613708153367
576.0,0.0009136773878708482
640.0,-0.0024696961045265198
704.0,-0.0035515055060386658
768.0,-0.0012784033315256238
832.0,0.002678015735000372
896.0,0.0031012562103569508
960.0,0.002422097371891141
1024.0,0.003696545260027051
1152.0,-0.0068231914192438126
1280.0,-0.009040385484695435
1408.0,-0.007130797486752272
1536.0,-0.004511361941695213
1664.0,-0.006500049494206905
1792.0,-0.00977165438234806
1920.0,-0.010387679561972618
2048.0,-0.007081713527441025
2304.0,0.0007999392109923065
2560.0,-0.0007702763541601598
2816.0,-0.0009810442570596933
3072.0,-0.0068132271990180016
3328.0,0.002687519183382392
3584.0,0.0023557639215141535
3840.0,0.008566673845052719
4096.0,0.0036296986509114504
4608.0,0.0027441794518381357
5120.0,-0.0012882138835266232
5632.0,-0.009771168231964111
6144.0,0.0021683441009372473
6656.0,-0.006494069006294012
7168.0,0.004453836940228939
7680.0,0.006487502250820398
8192.0,-0.0012268759310245514
9216.0,-0.006990198511630297
10240.0,0.005828011780977249
11264.0,-0.007765828166157007
12288.0,-0.00012178089673398063
13312.0,-0.011902807280421257
14336.0,0.014315237291157246
end
