version,3.0
numOfCh,1
type,point
parent_name,80-cuts
ch_type,1_1
kcount,1
numberNandB,1
brightnessNandB,1
carpet pos,0
pc,0
Time (ms),CH1 Auto-Correlation
1.0,0.07175098359584808
2.0,0.07080994546413422
3.0,0.06985674798488617
4.0,0.06891088932752609
5.0,0.06798175722360611
6.0,0.06706874817609787
7.0,0.06615645438432693
8.0,0.06527829170227051
9.0,0.0644088014960289
10.0,0.06357076019048691
11.0,0.06273942440748215
12.0,0.061927229166030884
13.0,0.06111811846494675
14.0,0.060338910669088364
15.0,0.05956907570362091
16.0,0.058820098638534546
18.0,0.057402342557907104
20.0,0.05607908219099045
22.0,0.05482541024684906
24.0,0.05361118167638779
26.0,0.05243571475148201
28.0,0.05129965394735336
30.0,0.05021053925156593
32.0,0.04915909096598625
36.0,0.04721299931406975
40.0,0.04538924619555473
44.0,0.0436476431787014
48.0,0.041953012347221375
52.0,0.04042840749025345
56.0,0.03893658518791199
60.0,0.03750774264335632
64.0,0.03617144376039505
72.0,0.03325807675719261
80.0,0.030162522569298744
88.0,0.027135273441672325
96.0,0.024150848388671875
104.0,0.021379711106419563
112.0,0.018977105617523193
120.0,0.01675400137901306
128.0,0.014476194977760315
144.0,0.010793943889439106
160.0,0.008427543565630913
176.0,0.006152092479169369
192.0,0.004151908680796623
208.0,0.003009882289916277
224.0,0.0034121298231184483
240.0,0.003914731089025736
256.0,0.004559575114399195
288.0,0.006225265096873045
320.0,0.006291516125202179
352.0,0.0039380574598908424
384.0,0.0035929311998188496
416.0,0.0034424620680510998
448.0,0.0029315471183508635
480.0,0.0011926700826734304
512.0,0.0016613746993243694
576.0,0.0033345092087984085
640.0,0.0028856757562607527
704.0,0.0016174180200323462
768.0,0.0002727434039115906
832.0,0.00229604821652174
896.0,0.0011567439651116729
960.0,-0.0016272400971502066
1024.0,-0.0012798617826774716
1152.0,-0.00015739920490887016
1280.0,0.0015140665927901864
1408.0,0.00805940106511116
1536.0,-0.0008076540543697774
1664.0,-0.005409290082752705
1792.0,-0.002835279330611229
1920.0,0.002193176420405507
2048.0,-0.0031600387301295996
2304.0,-0.009212655015289783
2560.0,0.0013437620364129543
2816.0,0.004505903460085392
3072.0,0.0016608056612312794
3328.0,0.003903114702552557
3584.0,-0.0018110343953594565
3840.0,-0.001108031254261732
4096.0,-0.002787893172353506
4608.0,-0.006240040995180607
5120.0,0.0003188317932654172
5632.0,0.0006937345024198294
6144.0,0.011058571748435497
6656.0,0.003785662353038788
7168.0,-0.004002593923360109
7680.0,-0.010384098626673222
8192.0,-0.0015329436864703894
9216.0,-0.0023075921926647425
10240.0,-0.010330047458410263
11264.0,0.0017418661154806614
12288.0,0.006876320578157902
13312.0,0.0021132961846888065
14336.0,-0.0010759402066469193
end
