version,3.0
numOfCh,1
type,point
parent_name,80-cuts
ch_type,1_1
kcount,1
numberNandB,1
brightnessNandB,1
carpet pos,0
pc,0
Time (ms),CH1 Auto-Correlation
1.0,0.08172294497489929
2.0,0.08095582574605942
3.0,0.0801939070224762
4.0,0.07942277193069458
5.0,0.0786498636007309
6.0,0.07788906246423721
7.0,0.07713983207941055
8.0,0.07641905546188354
9.0,0.07572242617607117
10.0,0.07500796765089035
11.0,0.07432723045349121
12.0,0.07365719228982925
13.0,0.07300322502851486
14.0,0.07234896719455719
15.0,0.07167820632457733
16.0,0.0710042268037796
18.0,0.06973224133253098
20.0,0.06851568818092346
22.0,0.06729505956172943
24.0,0.06607914716005325
26.0,0.06486883759498596
28.0,0.06370292603969574
30.0,0.06253204494714737
32.0,0.06143290922045708
36.0,0.05933031812310219
40.0,0.05737125128507614
44.0,0.05547655001282692
48.0,0.05363944172859192
52.0,0.05176970362663269
56.0,0.04994850605726242
60.0,0.048208121210336685
64.0,0.046430643647909164
72.0,0.042941864579916
80.0,0.03973004221916199
88.0,0.03666843846440315
96.0,0.03399084880948067
104.0,0.03152453899383545
112.0,0.029473476111888885
120.0,0.02763507515192032
128.0,0.025593826547265053
144.0,0.021077832207083702
160.0,0.01656513661146164
176.0,0.013331971131265163
192.0,0.01136564090847969
208.0,0.00952908769249916
224.0,0.007876848801970482
240.0,0.006538539659231901
256.0,0.00551960151642561
288.0,0.0030976904090493917
320.0,0.0004047585534863174
352.0,-0.0026738368906080723
384.0,-0.0051019457168877125
416.0,-0.0053163981065154076
448.0,-0.005238936748355627
480.0,-0.005729054566472769
512.0,-0.00502818962559104
576.0,6.503134500235319e-05
640.0,0.0043696570210158825
704.0,0.0049645681865513325
768.0,0.002946313237771392
832.0,0.0016904497751966119
896.0,0.000920964521355927
960.0,-0.002281553577631712
1024.0,-0.0030615725554525852
1152.0,-0.0004753112734761089
1280.0,-0.008878378197550774
1408.0,-0.011315562762320042
1536.0,-0.005458153784275055
1664.0,0.006185879930853844
1792.0,0.0024249758571386337
1920.0,-0.003558492986485362
2048.0,-0.008003363385796547
2304.0,0.002475281246006489
2560.0,0.006240160204470158
2816.0,0.011815669946372509
3072.0,0.010675875470042229
3328.0,0.00916814710944891
3584.0,0.002143390243873
3840.0,-0.004990965593606234
4096.0,-0.0026921338867396116
4608.0,-0.004701489116996527
5120.0,-0.00065312918741256
5632.0,0.0032786820083856583
6144.0,0.003260419936850667
6656.0,-0.0030117910355329514
7168.0,-0.004597637336701155
7680.0,-0.001198447309434414
8192.0,-0.006810458842664957
9216.0,-0.001323434873484075
10240.0,-0.009673905558884144
11264.0,-0.0042380825616419315
12288.0,-0.004769822582602501
13312.0,-0.004406975582242012
14336.0,0.003924482502043247
end
