version,3.0
numOfCh,1
type,point
parent_name,80-cuts
ch_type,1_1
kcount,1
numberNandB,1
brightnessNandB,1
carpet pos,0
pc,0
Time (ms),CH1 Auto-Correlation
1.0,0.029804043471813202
2.0,0.029500558972358704
3.0,0.029202168807387352
4.0,0.028904298320412636
5.0,0.02860354632139206
6.0,0.028307972475886345
7.0,0.0280090793967247
8.0,0.027715306729078293
9.0,0.027431266382336617
10.0,0.027148397639393806
11.0,0.02687031403183937
12.0,0.026599740609526634
13.0,0.026337388902902603
14.0,0.02607189491391182
15.0,0.025818651542067528
16.0,0.02557404525578022
18.0,0.025087105110287666
20.0,0.024599751457571983
22.0,0.02412284165620804
24.0,0.023678209632635117
26.0,0.02326175570487976
28.0,0.022865116596221924
30.0,0.02248566597700119
32.0,0.0221151914447546
36.0,0.02141823060810566
40.0,0.020755482837557793
44.0,0.020153924822807312
48.0,0.019550422206521034
52.0,0.018933646380901337
56.0,0.01832633465528488
60.0,0.01770286075770855
64.0,0.017091121524572372
72.0,0.01595749333500862
80.0,0.014954421669244766
88.0,0.014122837223112583
96.0,0.013293823227286339
104.0,0.012469124980270863
112.0,0.011599631048738956
120.0,0.010779384523630142
128.0,0.010094442404806614
144.0,0.009149338118731976
160.0,0.008420761674642563
176.0,0.007628183346241713
192.0,0.00674781296402216
208.0,0.005949097685515881
224.0,0.00515085831284523
240.0,0.0044221957214176655
256.0,0.0037548462860286236
288.0,0.003099410329014063
320.0,0.0032990192994475365
352.0,0.0037178967613726854
384.0,0.004311432130634785
416.0,0.004251652862876654
448.0,0.0035237802658230066
480.0,0.002432076958939433
512.0,0.002207951620221138
576.0,0.0025730750057846308
640.0,0.002880851039662957
704.0,0.0017848254647105932
768.0,0.0018141402397304773
832.0,0.0016865275101736188
896.0,-0.00020139073603786528
960.0,-0.0017972253262996674
1024.0,-0.0030034773517400026
1152.0,-0.0043411171063780785
1280.0,-0.002669774228706956
1408.0,-0.002487985650077462
1536.0,-0.001931569306179881
1664.0,-0.0032220641151070595
1792.0,-0.004118809476494789
1920.0,-0.0011192267993465066
2048.0,6.099034726503305e-05
2304.0,-0.0014886448625475168
2560.0,-0.0011808103881776333
2816.0,0.0008461069082841277
3072.0,0.0001507843262515962
3328.0,0.0032903787214308977
3584.0,0.0022852085530757904
3840.0,0.0030264013912528753
4096.0,0.002787831937894225
4608.0,-0.001047185156494379
5120.0,-0.002424731384962797
5632.0,-0.0027371011674404144
6144.0,-0.004393130075186491
6656.0,-0.0006222088122740388
7168.0,0.004280169028788805
7680.0,0.004968347959220409
8192.0,0.0019542996305972338
9216.0,-0.0029664342291653156
10240.0,0.0009197291801683605
11264.0,-0.0023458681534975767
12288.0,-0.0012088163057342172
13312.0,-0.0042633661068975925
14336.0,-0.0021489786449819803
end
