version,3.0
numOfCh,1
type,point
parent_name,80-cuts
ch_type,1_1
kcount,1
numberNandB,1
brightnessNandB,1
carpet pos,0
pc,0
Time (ms),CH1 Auto-Correlation
1.0,0.03070453181862831
2.0,0.03037494793534279
3.0,0.030045678839087486
4.0,0.02971777506172657
5.0,0.029403869062662125
6.0,0.029100971296429634
7.0,0.028803009539842606
8.0,0.028506910428404808
9.0,0.028223596513271332
10.0,0.027948085218667984
11.0,0.02768028900027275
12.0,0.027418015524744987
13.0,0.02716078981757164
14.0,0.026899902150034904
15.0,0.026639489457011223
16.0,0.026377640664577484
18.0,0.025870081037282944
20.0,0.0253690667450428
22.0,0.024876253679394722
24.0,0.024390390142798424
26.0,0.023931404575705528
28.0,0.023489851504564285
30.0,0.02304878458380699
32.0,0.02262369729578495
36.0,0.02180180884897709
40.0,0.020991623401641846
44.0,0.020243316888809204
48.0,0.019550014287233353
52.0,0.018896976485848427
56.0,0.018254674971103668
60.0,0.017619777470827103
64.0,0.016996651887893677
72.0,0.01582256704568863
80.0,0.014770814217627048
88.0,0.013969548977911472
96.0,0.013324455358088017
104.0,0.012625551782548428
112.0,0.011948828585445881
120.0,0.01124836876988411
128.0,0.010599530301988125
144.0,0.0092227878049016
160.0,0.007646456826478243
176.0,0.006461485754698515
192.0,0.005754466634243727
208.0,0.0052369944751262665
224.0,0.005011748522520065
240.0,0.005147707648575306
256.0,0.005225657485425472
288.0,0.005100531503558159
320.0,0.0047813537530601025
352.0,0.003798282239586115
384.0,0.002794993110001087
416.0,0.0018715198384597898
448.0,0.0015750890597701073
480.0,0.0015588534297421575
512.0,0.0017603198066353798
576.0,0.0018934065010398626
640.0,0.0014817311894148588
704.0,0.0009925467893481255
768.0,-0.0005941992276348174
832.0,-0.0012985883513465524
896.0,3.356460001668893e-05
960.0,0.0010427279630675912
1024.0,0.0020388236735016108
1152.0,0.0008897741208784282
1280.0,0.0006965948268771172
1408.0,1.697102197795175e-05
1536.0,-0.0030309136491268873
1664.0,-0.0016605964628979564
1792.0,-0.00270909839309752
1920.0,-0.0024895251262933016
2048.0,-0.003508351743221283
2304.0,-0.00019814334518741816
2560.0,0.0025989359710365534
2816.0,0.0034303897991776466
3072.0,0.0016584309050813317
3328.0,0.0005610429798252881
3584.0,-0.0007549265865236521
3840.0,-0.0005128199700266123
4096.0,-0.00029040267691016197
4608.0,-0.0018520682351663709
5120.0,0.00048326526302844286
5632.0,-0.00036879145773127675
6144.0,-0.0033873089123517275
6656.0,-0.0009453114471398294
7168.0,-0.003377062501385808
7680.0,-0.00029935655766166747
8192.0,0.0013525582617148757
9216.0,0.0029509428422898054
10240.0,-0.0006533966516144574
11264.0,-0.0034678461961448193
12288.0,0.0006604150985367596
13312.0,-0.001194247743114829
14336.0,-0.010979946702718735
end
