version,3.0
numOfCh,1
type,point
parent_name,80-cuts
ch_type,1_1
kcount,1
numberNandB,1
brightnessNandB,1
carpet pos,0
pc,0
Time (ms),CH1 Auto-Correlation
1.0,0.02625795267522335
2.0,0.02595515176653862
3.0,0.025655822828412056
4.0,0.025351371616125107
5.0,0.025053512305021286
6.0,0.024767134338617325
7.0,0.024483999237418175
8.0,0.02419896051287651
9.0,0.023928070440888405
10.0,0.023651983588933945
11.0,0.023381805047392845
12.0,0.02311958558857441
13.0,0.022869659587740898
14.0,0.022625066339969635
15.0,0.022389855235815048
16.0,0.0221555233001709
18.0,0.021711116656661034
20.0,0.021275542676448822
22.0,0.020861230790615082
24.0,0.020477090030908585
26.0,0.020098721608519554
28.0,0.019734933972358704
30.0,0.019369881600141525
32.0,0.019018467515707016
36.0,0.018360743299126625
40.0,0.01771489530801773
44.0,0.017081085592508316
48.0,0.01646357774734497
52.0,0.01584930717945099
56.0,0.015260174870491028
60.0,0.014672622084617615
64.0,0.014102140441536903
72.0,0.01291855052113533
80.0,0.011701449751853943
88.0,0.010631678625941277
96.0,0.009781371802091599
104.0,0.008994684554636478
112.0,0.008348067291080952
120.0,0.0077750603668391705
128.0,0.0072052618488669395
144.0,0.006173815578222275
160.0,0.005201047286391258
176.0,0.0044327485375106335
192.0,0.003815277246758342
208.0,0.003516030265018344
224.0,0.0032464973628520966
240.0,0.0029964554123580456
256.0,0.0027725640684366226
288.0,0.002303623827174306
320.0,0.002081405371427536
352.0,0.0020146681927144527
384.0,0.0017078402452170849
416.0,0.0010801537428051233
448.0,0.0004592395853251219
480.0,0.0005171145894564688
512.0,0.0008301202324219048
576.0,0.0007599579403176904
640.0,-0.00032425698009319603
704.0,0.0002636966819409281
768.0,0.0016212704358622432
832.0,0.0023246796336025
896.0,0.0024722234811633825
960.0,0.001886866637505591
1024.0,0.0012265167897567153
1152.0,-0.0028841146267950535
1280.0,-0.003203540574759245
1408.0,-0.0011937370290979743
1536.0,0.0004929027636535466
1664.0,0.0010010829428210855
1792.0,0.0010225925361737609
1920.0,0.001695678336545825
2048.0,0.0010272559011355042
2304.0,0.0025070279370993376
2560.0,-0.00011344667291268706
2816.0,-0.0011007189750671387
3072.0,-0.0009114581625908613
3328.0,-0.0003211574221495539
3584.0,-0.002087157219648361
3840.0,-0.002616358920931816
4096.0,-0.0009136163862422109
4608.0,-0.000523179885931313
5120.0,-0.000245266332058236
5632.0,-0.0028077701572328806
6144.0,-0.0017859020736068487
6656.0,-0.002498510293662548
7168.0,0.0008111530914902687
7680.0,-0.0007213338394649327
8192.0,-0.002963601378723979
9216.0,0.00034167381818406284
10240.0,-9.175969171337783e-05
11264.0,0.0015203319489955902
12288.0,0.0020678441505879164
13312.0,0.0009173554135486484
14336.0,-0.001629140111617744
end
