version,3.0
numOfCh,1
type,point
parent_name,80-cuts
ch_type,1_1
kcount,1
numberNandB,1
brightnessNandB,1
carpet pos,0
pc,0
Time (ms),CH1 Auto-Correlation
1.0,0.06387960910797119
2.0,0.06312505900859833
3.0,0.062375716865062714
4.0,0.06161706894636154
5.0,0.06086283549666405
6.0,0.060116078704595566
7.0,0.059384141117334366
8.0,0.05864289402961731
9.0,0.05791837349534035
10.0,0.057209234684705734
11.0,0.05649476870894432
12.0,0.05581047758460045
13.0,0.05514693260192871
14.0,0.05447874963283539
15.0,0.05384115129709244
16.0,0.053223226219415665
18.0,0.0520029217004776
20.0,0.05081511288881302
22.0,0.04964183643460274
24.0,0.048535801470279694
26.0,0.047440387308597565
28.0,0.04639793187379837
30.0,0.045380447059869766
32.0,0.04437682777643204
36.0,0.042428597807884216
40.0,0.040539588779211044
44.0,0.03868579864501953
48.0,0.03692290186882019
52.0,0.03522646427154541
56.0,0.03352314978837967
60.0,0.03187001124024391
64.0,0.030349796637892723
72.0,0.027504200115799904
80.0,0.025020981207489967
88.0,0.022892111912369728
96.0,0.0211001168936491
104.0,0.019453294575214386
112.0,0.018250707536935806
120.0,0.017336931079626083
128.0,0.016226986423134804
144.0,0.013825781643390656
160.0,0.01150786317884922
176.0,0.009407504461705685
192.0,0.0077262450940907
208.0,0.006292225793004036
224.0,0.005233404226601124
240.0,0.005064358469098806
256.0,0.004435145296156406
288.0,0.002171942964196205
320.0,-0.0004030683485325426
352.0,-0.0024363556876778603
384.0,-0.0031241332180798054
416.0,-0.004247726406902075
448.0,-0.0057706814259290695
480.0,-0.007479934487491846
512.0,-0.00972327683120966
576.0,-0.008160571567714214
640.0,-0.00449214456602931
704.0,-0.0018600494368001819
768.0,0.0012691991869360209
832.0,-0.0009500255691818893
896.0,0.000655929499771446
960.0,-0.0027984355110675097
1024.0,-0.005127946846187115
1152.0,-0.004385786131024361
1280.0,-0.005264731589704752
1408.0,-0.0038381298072636127
1536.0,0.002416307805106044
1664.0,0.005276377312839031
1792.0,0.0035079913213849068
1920.0,0.007601841818541288
2048.0,0.006670020055025816
2304.0,-0.001969908131286502
2560.0,-0.005234207957983017
2816.0,-0.006236780434846878
3072.0,-0.0051062158308923244
3328.0,-0.007214163430035114
3584.0,-0.0027973875403404236
3840.0,0.008152966387569904
4096.0,0.0036115357652306557
4608.0,0.0014248262159526348
5120.0,-0.008680821396410465
5632.0,0.0029442417435348034
6144.0,0.008396118879318237
6656.0,-0.0005956319510005414
7168.0,-0.003903825767338276
7680.0,0.0006835668464191258
8192.0,0.0033650309778749943
9216.0,-0.0032406512182205915
10240.0,0.0021638490725308657
11264.0,0.0010731357615441084
12288.0,0.0012837181566283107
13312.0,0.004332742188125849
14336.0,0.00014905346324667335
end
