version,3.0
numOfCh,1
type,point
parent_name,80-cuts
ch_type,1_1
kcount,1
numberNandB,1
brightnessNandB,1
carpet pos,0
pc,0
Time (ms),CH1 Auto-Correlation
1.0,0.06136959418654442
2.0,0.06055724248290062
3.0,0.059752531349658966
4.0,0.05900160223245621
5.0,0.058247167617082596
6.0,0.05751083046197891
7.0,0.05677783489227295
8.0,0.056053146719932556
9.0,0.05534430965781212
10.0,0.05465800315141678
11.0,0.053979892283678055
12.0,0.053311482071876526
13.0,0.05266903340816498
14.0,0.05202086642384529
15.0,0.05141453072428703
16.0,0.050811633467674255
18.0,0.04963564872741699
20.0,0.04850943386554718
22.0,0.047420527786016464
24.0,0.046336691826581955
26.0,0.0452597551047802
28.0,0.044220954179763794
30.0,0.043218232691287994
32.0,0.04221705347299576
36.0,0.04041658341884613
40.0,0.03874950483441353
44.0,0.03717319667339325
48.0,0.03573710843920708
52.0,0.0344248004257679
56.0,0.033181082457304
60.0,0.031974952667951584
64.0,0.030832486227154732
72.0,0.028641805052757263
80.0,0.02667376399040222
88.0,0.024784695357084274
96.0,0.023058345541357994
104.0,0.02147904969751835
112.0,0.019944829866290092
120.0,0.018880557268857956
128.0,0.01805710420012474
144.0,0.016218187287449837
160.0,0.014544827863574028
176.0,0.013216584920883179
192.0,0.012346203438937664
208.0,0.011932749301195145
224.0,0.011107156984508038
240.0,0.009821321815252304
256.0,0.009638268500566483
288.0,0.009855699725449085
320.0,0.009374919347465038
352.0,0.008407068438827991
384.0,0.007552716415375471
416.0,0.0067387656308710575
448.0,0.007101442199200392
480.0,0.008237908594310284
512.0,0.0081120440736413
576.0,0.0024085058830678463
640.0,-0.001473132404498756
704.0,-0.0030645541846752167
768.0,-0.002973583759739995
832.0,-0.003051165258511901
896.0,-0.0040524797514081
960.0,-0.0073236702010035515
1024.0,-0.006337657570838928
1152.0,-0.0029230332002043724
1280.0,-0.0015108766965568066
1408.0,-0.0037528667598962784
1536.0,-0.003545560874044895
1664.0,-0.0037249682936817408
1792.0,-9.099052840610966e-05
1920.0,-0.005509707145392895
2048.0,-0.007995575666427612
2304.0,-0.006453066132962704
2560.0,-0.006589602679014206
2816.0,-0.005771673750132322
3072.0,-0.003235727548599243
3328.0,-0.0014064693823456764
3584.0,0.0032606669701635838
3840.0,0.002493361011147499
4096.0,0.003764272900298238
4608.0,-0.0029811696149408817
5120.0,-0.005682333372533321
5632.0,0.006266208831220865
6144.0,0.008212353102862835
6656.0,0.005689920391887426
7168.0,0.004458976443856955
7680.0,0.002849298994988203
8192.0,-0.003979778382927179
9216.0,-0.005970748607069254
10240.0,-0.0032443974632769823
11264.0,0.0021620471961796284
12288.0,0.007566040847450495
13312.0,0.0008956274250522256
14336.0,-0.008890116587281227
end
