version,3.0
numOfCh,1
type,point
parent_name,80-cuts
ch_type,1_1
kcount,1
numberNandB,1
brightnessNandB,1
carpet pos,0
pc,0
Time (ms),CH1 Auto-Correlation
1.0,0.06843605637550354
2.0,0.06753210723400116
3.0,0.0666516050696373
4.0,0.0657491683959961
5.0,0.06488370895385742
6.0,0.06400787085294724
7.0,0.06315699219703674
8.0,0.062336765229701996
9.0,0.061547596007585526
10.0,0.060767222195863724
11.0,0.059972330927848816
12.0,0.05919055640697479
13.0,0.05841904133558273
14.0,0.05766978859901428
15.0,0.05693318694829941
16.0,0.05620317906141281
18.0,0.05477528274059296
20.0,0.0534023754298687
22.0,0.05205294489860535
24.0,0.050747305154800415
26.0,0.04944876953959465
28.0,0.048221003264188766
30.0,0.047069817781448364
32.0,0.045938652008771896
36.0,0.043734509497880936
40.0,0.041534651070833206
44.0,0.0394539050757885
48.0,0.03748627007007599
52.0,0.03573358803987503
56.0,0.034256208688020706
60.0,0.032864686101675034
64.0,0.03159573674201965
72.0,0.029058968648314476
80.0,0.026483992114663124
88.0,0.023982012644410133
96.0,0.021833332255482674
104.0,0.020037971436977386
112.0,0.018505413085222244
120.0,0.017028599977493286
128.0,0.01572360098361969
144.0,0.013581686653196812
160.0,0.012036810629069805
176.0,0.010642715729773045
192.0,0.009325393475592136
208.0,0.008674295619130135
224.0,0.008070454932749271
240.0,0.006591483950614929
256.0,0.003893294371664524
288.0,-8.263558993348852e-05
320.0,-0.0021529074292629957
352.0,-0.0028141727671027184
384.0,-0.0023501261603087187
416.0,-0.002400549128651619
448.0,-0.0023100508842617273
480.0,-0.001240442623384297
512.0,-0.0006944460910744965
576.0,-0.0013751914957538247
640.0,-0.0018412154167890549
704.0,2.0569957996485755e-05
768.0,0.00012888852506875992
832.0,-0.0009015617542900145
896.0,-0.004382509272545576
960.0,-0.002168883802369237
1024.0,0.001415296457707882
1152.0,0.003023330820724368
1280.0,0.004346110392361879
1408.0,0.0019147334387525916
1536.0,-0.0008804973331280053
1664.0,-0.0001242208236362785
1792.0,0.0022034153807908297
1920.0,-0.001685713417828083
2048.0,-0.0039868527092039585
2304.0,0.0020124700386077166
2560.0,0.004541753325611353
2816.0,-0.0031237336806952953
3072.0,0.001163673005066812
3328.0,-0.0020940867252647877
3584.0,-0.003747267182916403
3840.0,-0.003123900620266795
4096.0,-0.0058778077363967896
4608.0,-0.0012148951645940542
5120.0,-0.0035354974679648876
5632.0,-0.0028772519435733557
6144.0,-0.0035427387338131666
6656.0,0.0032963489647954702
7168.0,-0.0004526745469775051
7680.0,-0.006195418536663055
8192.0,-0.004343555774539709
9216.0,0.008069195784628391
10240.0,-0.002317188074812293
11264.0,-0.0005443752161227167
12288.0,0.01154363714158535
13312.0,-0.007893923670053482
14336.0,-0.005654342472553253
end
