version,3.0
numOfCh,1
type,point
parent_name,80-cuts
ch_type,1_1
kcount,1
numberNandB,1
brightnessNandB,1
carpet pos,0
pc,0
Time (ms),CH1 Auto-Correlation
1.0,0.044578950852155685
2.0,0.04422641918063164
3.0,0.04387134686112404
4.0,0.043513644486665726
5.0,0.043160635977983475
6.0,0.04280996695160866
7.0,0.042465467005968094
8.0,0.042118992656469345
9.0,0.04177871346473694
10.0,0.04144224151968956
11.0,0.04111047461628914
12.0,0.040784142911434174
13.0,0.04046212136745453
14.0,0.040133703500032425
15.0,0.03980819135904312
16.0,0.03948679566383362
18.0,0.038854267448186874
20.0,0.03822481632232666
22.0,0.03761657699942589
24.0,0.037025559693574905
26.0,0.03644859045743942
28.0,0.035888273268938065
30.0,0.03535075858235359
32.0,0.034827034920454025
36.0,0.03376205638051033
40.0,0.03276368975639343
44.0,0.03180268034338951
48.0,0.03086395561695099
52.0,0.02997397631406784
56.0,0.029130809009075165
60.0,0.028355594724416733
64.0,0.027625441551208496
72.0,0.026165885850787163
80.0,0.024775732308626175
88.0,0.023605918511748314
96.0,0.022554127499461174
104.0,0.02168123424053192
112.0,0.020817985758185387
120.0,0.020004693418741226
128.0,0.019243042916059494
144.0,0.017608458176255226
160.0,0.015968695282936096
176.0,0.01424923911690712
192.0,0.012686587870121002
208.0,0.01149118971079588
224.0,0.010315259918570518
240.0,0.009079325944185257
256.0,0.007632820401340723
288.0,0.004894454497843981
320.0,0.0027212267741560936
352.0,0.0018109416123479605
384.0,0.001423922716639936
416.0,0.0005092324572615325
448.0,-2.6022225938504562e-05
480.0,-0.0004648094472941011
512.0,-0.001094935229048133
576.0,-0.0021955850534141064
640.0,-0.0026022049132734537
704.0,-0.003271314548328519
768.0,-0.004431373439729214
832.0,-0.0019721458666026592
896.0,0.0008856182103045285
960.0,0.002492791973054409
1024.0,0.0024908483028411865
1152.0,0.001986048649996519
1280.0,0.0023633658420294523
1408.0,0.0018825434381142259
1536.0,0.0028001582249999046
1664.0,0.004055548459291458
1792.0,0.0019142396049574018
1920.0,0.0005038680974394083
2048.0,-2.146617043763399e-05
2304.0,0.000821037741843611
2560.0,-0.0008056118967942894
2816.0,-0.0032627228647470474
3072.0,-0.0004484160162974149
3328.0,0.00576418312266469
3584.0,0.007416641339659691
3840.0,-0.0012132208794355392
4096.0,-0.00432096142321825
4608.0,0.000980631448328495
5120.0,-0.006438066251575947
5632.0,-0.000903735461179167
6144.0,-0.0014445869019255042
6656.0,-0.0018925433978438377
7168.0,0.0009093802073039114
7680.0,-0.005211162846535444
8192.0,-0.0030868123285472393
9216.0,-0.00539928674697876
10240.0,-0.005702834576368332
11264.0,-0.0006141978083178401
12288.0,-0.0021398006938397884
13312.0,0.01091651152819395
14336.0,0.01052132248878479
end
