version,3.0
numOfCh,1
type,point
parent_name,80-cuts
ch_type,1_1
kcount,1
numberNandB,1
brightnessNandB,1
carpet pos,0
pc,0
Time (ms),CH1 Auto-Correlation
1.0,0.024562472477555275
2.0,0.024177124723792076
3.0,0.023793116211891174
4.0,0.02342672273516655
5.0,0.02307569608092308
6.0,0.022727854549884796
7.0,0.02238372154533863
8.0,0.02204439416527748
9.0,0.02171177789568901
10.0,0.02137709967792034
11.0,0.021049562841653824
12.0,0.02072230353951454
13.0,0.020403824746608734
14.0,0.020094048231840134
15.0,0.019782032817602158
16.0,0.019478632137179375
18.0,0.01890581101179123
20.0,0.018355324864387512
22.0,0.017813488841056824
24.0,0.017287662252783775
26.0,0.016779856756329536
28.0,0.01629701629281044
30.0,0.015835653990507126
32.0,0.015379978343844414
36.0,0.014552528038620949
40.0,0.013790799304842949
44.0,0.01303954515606165
48.0,0.012291952036321163
52.0,0.011624721810221672
56.0,0.011072497814893723
60.0,0.010587310418486595
64.0,0.010116800665855408
72.0,0.009270457550883293
80.0,0.008523255586624146
88.0,0.007763623259961605
96.0,0.007065512239933014
104.0,0.0065952809527516365
112.0,0.006194405723363161
120.0,0.005734725389629602
128.0,0.005253287963569164
144.0,0.004368424415588379
160.0,0.00374457030557096
176.0,0.0033188655506819487
192.0,0.0028964532539248466
208.0,0.0025790296494960785
224.0,0.002614762634038925
240.0,0.0025718347169458866
256.0,0.0024058634880930185
288.0,0.0019554749596863985
320.0,0.0009048738284036517
352.0,-1.4498150449071545e-05
384.0,9.97204892883019e-07
416.0,0.000126707018353045
448.0,0.0007891362183727324
480.0,0.0016701027052477002
512.0,0.0022860649041831493
576.0,0.002112197456881404
640.0,0.001034864573739469
704.0,0.0004436444432940334
768.0,0.0012880800059065223
832.0,5.2438932470977306e-05
896.0,0.00011888991866726428
960.0,0.0015382622368633747
1024.0,0.0015617840690538287
1152.0,0.00038432341534644365
1280.0,-0.0012136884033679962
1408.0,-0.0012566721998155117
1536.0,-6.740372919011861e-05
1664.0,-0.0015208576805889606
1792.0,-0.000965344428550452
1920.0,-0.0012221907963976264
2048.0,3.6070181522518396e-05
2304.0,0.00105925218667835
2560.0,0.002342821331694722
2816.0,0.0024600785691291094
3072.0,0.00148773065302521
3328.0,0.003539407392963767
3584.0,0.002397121861577034
3840.0,0.00025351240765303373
4096.0,-0.0011772209545597434
4608.0,-0.0004335470439400524
5120.0,-0.0018889232305809855
5632.0,-9.483671601628885e-05
6144.0,0.000731740437913686
6656.0,0.0007677301182411611
7168.0,0.0007689809426665306
7680.0,-0.0013283368898555636
8192.0,-0.0015342371771112084
9216.0,-0.0006680687656626105
10240.0,7.39291645004414e-05
11264.0,-0.004412434529513121
12288.0,-0.003489652182906866
13312.0,0.0012119450839236379
14336.0,-0.009178053587675095
end
