version,3.0
numOfCh,1
type,point
parent_name,80-cuts
ch_type,1_1
kcount,1
numberNandB,1
brightnessNandB,1
carpet pos,0
pc,0
Time (ms),CH1 Auto-Correlation
1.0,0.02402855083346367
2.0,0.02374771237373352
3.0,0.023469004780054092
4.0,0.023189852014183998
5.0,0.0229166429489851
6.0,0.022644642740488052
7.0,0.022381816059350967
8.0,0.02211153134703636
9.0,0.02184404991567135
10.0,0.021581824868917465
11.0,0.02132418006658554
12.0,0.021068135276436806
13.0,0.02081628143787384
14.0,0.020567994564771652
15.0,0.0203220434486866
16.0,0.020079873502254486
18.0,0.019610345363616943
20.0,0.019161950796842575
22.0,0.018748342990875244
24.0,0.018343785777688026
26.0,0.017934434115886688
28.0,0.017524564638733864
30.0,0.017129886895418167
32.0,0.016740301623940468
36.0,0.016035500913858414
40.0,0.015347293578088284
44.0,0.01471589133143425
48.0,0.014142511412501335
52.0,0.013603721745312214
56.0,0.013074023649096489
60.0,0.012552125379443169
64.0,0.012053808197379112
72.0,0.011217575520277023
80.0,0.010458854027092457
88.0,0.00973847508430481
96.0,0.009101093746721745
104.0,0.008558771573007107
112.0,0.007963122799992561
120.0,0.0073091103695333
128.0,0.006704223807901144
144.0,0.005380567163228989
160.0,0.0044114477932453156
176.0,0.00376369571313262
192.0,0.00326546560972929
208.0,0.00291207036934793
224.0,0.0025516676250845194
240.0,0.0022901901975274086
256.0,0.0020165545865893364
288.0,0.001537084230221808
320.0,0.0016430334653705359
352.0,0.0015425140736624599
384.0,0.001817548181861639
416.0,0.002002134220674634
448.0,0.0018468009075149894
480.0,0.0016813420224934816
512.0,0.001873919041827321
576.0,0.0024921053554862738
640.0,0.002119979588314891
704.0,0.0012867338955402374
768.0,0.0009503649198450148
832.0,0.0003076427965424955
896.0,-6.77306015859358e-05
960.0,-0.0004205862060189247
1024.0,-9.464033610129263e-06
1152.0,0.0008289889665320516
1280.0,0.0006924932240508497
1408.0,-0.0017878565704450011
1536.0,-0.003327969927340746
1664.0,-0.002703496254980564
1792.0,-0.0022317979019135237
1920.0,-0.001598784001544118
2048.0,-0.0002801382215693593
2304.0,-0.002123929327353835
2560.0,-0.0025623010005801916
2816.0,-0.0006444930913858116
3072.0,1.0524595381866675e-05
3328.0,-0.0019376452546566725
3584.0,-0.0006162733188830316
3840.0,-0.00018405648006591946
4096.0,0.0012744045816361904
4608.0,-0.0005560552817769349
5120.0,9.869142377283424e-05
5632.0,-0.0023523904383182526
6144.0,-0.0007328930660150945
6656.0,-0.0014299774775281549
7168.0,0.0015205824747681618
7680.0,0.00042901517008431256
8192.0,0.0033508634660393
9216.0,0.0008676117286086082
10240.0,0.0002476497320458293
11264.0,-0.0001296001864830032
12288.0,-0.0014034208143129945
13312.0,-0.0003459205327089876
14336.0,-0.0018027034820988774
end
