version,3.0
numOfCh,1
type,point
parent_name,80-cuts
ch_type,1_1
kcount,1
numberNandB,1
brightnessNandB,1
carpet pos,0
pc,0
Time (ms),CH1 Auto-Correlation
1.0,0.026099415495991707
2.0,0.025837145745754242
3.0,0.02558199129998684
4.0,0.0253341905772686
5.0,0.025089025497436523
6.0,0.02484830841422081
7.0,0.024605179205536842
8.0,0.024367675185203552
9.0,0.02412918396294117
10.0,0.023882564157247543
11.0,0.023642294108867645
12.0,0.023400653153657913
13.0,0.023161601275205612
14.0,0.02292272448539734
15.0,0.022693591192364693
16.0,0.022465845569968224
18.0,0.02200849913060665
20.0,0.02155449613928795
22.0,0.021110232919454575
24.0,0.02067704126238823
26.0,0.020250776782631874
28.0,0.01980893686413765
30.0,0.019368838518857956
32.0,0.018940238282084465
36.0,0.018148202449083328
40.0,0.01739402487874031
44.0,0.016704915091395378
48.0,0.016062909737229347
52.0,0.015434117056429386
56.0,0.01480904221534729
60.0,0.014217864722013474
64.0,0.01362899411469698
72.0,0.012479732744395733
80.0,0.011394958943128586
88.0,0.010345601476728916
96.0,0.009331395849585533
104.0,0.008394245058298111
112.0,0.007462786044925451
120.0,0.0065324390307068825
128.0,0.005559744779020548
144.0,0.0038423731457442045
160.0,0.0025494450237601995
176.0,0.0013578678481280804
192.0,0.00043257998186163604
208.0,-0.0005441342946141958
224.0,-0.0014332057908177376
240.0,-0.0021630048286169767
256.0,-0.002687891013920307
288.0,-0.0033228721003979445
320.0,-0.004020510241389275
352.0,-0.0042144847102463245
384.0,-0.0037520951591432095
416.0,-0.0028888352680951357
448.0,-0.001632598228752613
480.0,-0.00025698120589368045
512.0,-0.00016598535876255482
576.0,-1.5078141586855054e-05
640.0,-0.00037122020148672163
704.0,-0.00023257819702848792
768.0,0.00027770415181294084
832.0,0.0005052081542089581
896.0,0.0017526329029351473
960.0,0.0031945963855832815
1024.0,0.0034334533847868443
1152.0,0.0006818292895331979
1280.0,-0.0009293819894082844
1408.0,-0.0018558743176981807
1536.0,-0.0026016246993094683
1664.0,-0.0026284290943294764
1792.0,0.0001872251887107268
1920.0,0.001470848685130477
2048.0,0.0018778244266286492
2304.0,-0.0017263417830690742
2560.0,-0.000850800599437207
2816.0,-0.00022949856065679342
3072.0,0.00035297172144055367
3328.0,-0.0018874806119129062
3584.0,-0.0018908079946413636
3840.0,0.0010370013769716024
4096.0,0.001123372232541442
4608.0,-0.0004132486355956644
5120.0,9.829008195083588e-05
5632.0,-0.0010056382743641734
6144.0,0.0016316311666741967
6656.0,-0.000370536872651428
7168.0,0.0008243020856752992
7680.0,-0.0011700954055413604
8192.0,0.0009533006814308465
9216.0,-0.0017269960371777415
10240.0,0.0007732540252618492
11264.0,0.0010255039669573307
12288.0,0.0006126663065515459
13312.0,-0.002751001389697194
14336.0,0.0021793502382934093
end
