version,3.0
numOfCh,1
type,point
parent_name,80-cuts
ch_type,1_1
kcount,1
numberNandB,1
brightnessNandB,1
carpet pos,0
pc,0
Time (ms),CH1 Auto-Correlation
1.0,0.04017016664147377
2.0,0.03972906246781349
3.0,0.039298880845308304
4.0,0.03886251151561737
5.0,0.03843235969543457
6.0,0.037998851388692856
7.0,0.03756501525640488
8.0,0.03713636100292206
9.0,0.03671687841415405
10.0,0.036301374435424805
11.0,0.0358881801366806
12.0,0.03547108545899391
13.0,0.035068634897470474
14.0,0.03465813025832176
15.0,0.03425687551498413
16.0,0.0338686928153038
18.0,0.03310268372297287
20.0,0.03234567493200302
22.0,0.031596217304468155
24.0,0.030888641253113747
26.0,0.03021036647260189
28.0,0.0295355673879385
30.0,0.028851326555013657
32.0,0.028199849650263786
36.0,0.026957780122756958
40.0,0.025737527757883072
44.0,0.024628154933452606
48.0,0.02369355410337448
52.0,0.022827161476016045
56.0,0.02199600078165531
60.0,0.021183498203754425
64.0,0.020390287041664124
72.0,0.0189824178814888
80.0,0.01778160221874714
88.0,0.016596242785453796
96.0,0.015377245843410492
104.0,0.014198404736816883
112.0,0.013131377287209034
120.0,0.012119344435632229
128.0,0.01102320197969675
144.0,0.008764276280999184
160.0,0.006402226164937019
176.0,0.0040159826166927814
192.0,0.0017999002011492848
208.0,7.316436676774174e-05
224.0,-0.0011566486209630966
240.0,-0.0017201723530888557
256.0,-0.0021268301643431187
288.0,-0.002614416182041168
320.0,-0.002631812123581767
352.0,-0.003955464344471693
384.0,-0.005031768232584
416.0,-0.005078430753201246
448.0,-0.005176916718482971
480.0,-0.006170225795358419
512.0,-0.0058798352256417274
576.0,-0.0033401562832295895
640.0,-0.0013535171747207642
704.0,8.866638381732628e-05
768.0,0.0023393610026687384
832.0,0.0019163104007020593
896.0,0.0008630412630736828
960.0,0.00020005990518257022
1024.0,-0.0013365199556574225
1152.0,-0.004313962999731302
1280.0,-0.0064178695902228355
1408.0,-0.004216520115733147
1536.0,0.0010590377496555448
1664.0,0.0012054038234055042
1792.0,-0.0022563994862139225
1920.0,-0.0013058185577392578
2048.0,-0.002943377709016204
2304.0,-0.00010367485083406791
2560.0,4.123769758734852e-05
2816.0,-0.0015245211543515325
3072.0,0.003029382089152932
3328.0,0.0006607946124859154
3584.0,-0.0019318565027788281
3840.0,-0.0007019150070846081
4096.0,0.003018355229869485
4608.0,-0.0009064748883247375
5120.0,-0.0007393598207272589
5632.0,-0.0006454474059864879
6144.0,-0.00029794362490065396
6656.0,0.0011799518251791596
7168.0,0.0018306561978533864
7680.0,-0.0014435420744121075
8192.0,-0.0023540740367025137
9216.0,-0.00017729122191667557
10240.0,0.003126786556094885
11264.0,-0.0005019837990403175
12288.0,-0.003974955528974533
13312.0,-0.0016992090968415141
14336.0,0.00825564470142126
end
