version,3.0
numOfCh,1
type,point
parent_name,80-cuts
ch_type,1_1
kcount,1
numberNandB,1
brightnessNandB,1
carpet pos,0
pc,0
Time (ms),CH1 Auto-Correlation
1.0,0.08530373871326447
2.0,0.08423738926649094
3.0,0.08321171253919601
4.0,0.08220181614160538
5.0,0.08119828253984451
6.0,0.08021771162748337
7.0,0.07924257963895798
8.0,0.07827970385551453
9.0,0.07729748636484146
10.0,0.07636484503746033
11.0,0.07544150948524475
12.0,0.07454925030469894
13.0,0.07369799166917801
14.0,0.07287584245204926
15.0,0.07203523814678192
16.0,0.0712180882692337
18.0,0.06959585100412369
20.0,0.06803625822067261
22.0,0.0665365681052208
24.0,0.0651843249797821
26.0,0.06394699215888977
28.0,0.06271388381719589
30.0,0.061517536640167236
32.0,0.060347139835357666
36.0,0.05815926194190979
40.0,0.056128449738025665
44.0,0.05437279865145683
48.0,0.05276871845126152
52.0,0.05110301077365875
56.0,0.049362946301698685
60.0,0.04751615598797798
64.0,0.04573478922247887
72.0,0.042499374598264694
80.0,0.0393657460808754
88.0,0.036412324756383896
96.0,0.03401602432131767
104.0,0.03177252411842346
112.0,0.029160816222429276
120.0,0.02608911693096161
128.0,0.023127790540456772
144.0,0.01922254078090191
160.0,0.015467731282114983
176.0,0.010447853244841099
192.0,0.006034541875123978
208.0,0.0024562154430896044
224.0,0.00035777443554252386
240.0,-0.0009525562636554241
256.0,-0.0014115292578935623
288.0,-0.0005964218871667981
320.0,0.0002479368995409459
352.0,0.0019464067881926894
384.0,0.0018419841071590781
416.0,0.0013635910581797361
448.0,0.0027260249480605125
480.0,0.0023917872458696365
512.0,0.0016314537497237325
576.0,0.004173065070062876
640.0,0.006724994629621506
704.0,0.008658201433718204
768.0,0.010457085445523262
832.0,0.00998364295810461
896.0,0.009863648563623428
960.0,0.006492386572062969
1024.0,0.0019996173214167356
1152.0,-0.0009462984162382782
1280.0,-0.001665343064814806
1408.0,-0.0011047624284401536
1536.0,0.0015607847599312663
1664.0,0.0015104393241927028
1792.0,0.002855152590200305
1920.0,0.000347161665558815
2048.0,-0.0037571110296994448
2304.0,0.0014657885767519474
2560.0,0.002347961999475956
2816.0,-0.005095845088362694
3072.0,0.0014573022490367293
3328.0,-0.0009049795917235315
3584.0,-0.006308214273303747
3840.0,-0.004179682116955519
4096.0,0.007958744652569294
4608.0,-3.9559272408951074e-05
5120.0,0.001746232039295137
5632.0,-0.0063240667805075645
6144.0,-0.0091968709602952
6656.0,-0.00661505525931716
7168.0,-0.0061534857377409935
7680.0,-0.0009650253923609853
8192.0,-0.0008975090458989143
9216.0,0.0028281344566494226
10240.0,-0.0044233836233615875
11264.0,-0.010503672994673252
12288.0,0.0038181075360625982
13312.0,0.008131975308060646
14336.0,0.007823003455996513
end
