version,3.0
numOfCh,1
type,point
parent_name,80-cuts
ch_type,1_1
kcount,1
numberNandB,1
brightnessNandB,1
carpet pos,0
pc,0
Time (ms),CH1 Auto-Correlation
1.0,0.08917289972305298
2.0,0.088233582675457
3.0,0.08730468899011612
4.0,0.08639346063137054
5.0,0.08547186851501465
6.0,0.08457222580909729
7.0,0.0837051048874855
8.0,0.0828038901090622
9.0,0.08190196752548218
10.0,0.08101800829172134
11.0,0.08011531829833984
12.0,0.07922354340553284
13.0,0.07835517078638077
14.0,0.07752219587564468
15.0,0.07669240981340408
16.0,0.07589663565158844
18.0,0.07439079880714417
20.0,0.07298450917005539
22.0,0.07165534794330597
24.0,0.07038746029138565
26.0,0.06917594373226166
28.0,0.0680224746465683
30.0,0.06691880524158478
32.0,0.06586605310440063
36.0,0.06373798847198486
40.0,0.06167522445321083
44.0,0.05959776043891907
48.0,0.057417530566453934
52.0,0.05521996319293976
56.0,0.05307359620928764
60.0,0.05097610875964165
64.0,0.04900764301419258
72.0,0.04544718191027641
80.0,0.042509935796260834
88.0,0.03994712233543396
96.0,0.03752640634775162
104.0,0.034987665712833405
112.0,0.03253068029880524
120.0,0.030570631846785545
128.0,0.02909308671951294
144.0,0.025988049805164337
160.0,0.022763337939977646
176.0,0.020325573161244392
192.0,0.018220430240035057
208.0,0.015664635226130486
224.0,0.0133148692548275
240.0,0.01123534794896841
256.0,0.00972587987780571
288.0,0.00799335353076458
320.0,0.00758509011939168
352.0,0.006747948471456766
384.0,0.006889585871249437
416.0,0.006734294351190329
448.0,0.00589972548186779
480.0,0.00578096741810441
512.0,0.005333492532372475
576.0,0.0037208881694823503
640.0,0.005307117942720652
704.0,0.006966857239603996
768.0,0.004230997990816832
832.0,2.542031870689243e-05
896.0,0.00038990171742625535
960.0,0.001411614939570427
1024.0,0.003257621545344591
1152.0,0.005687044467777014
1280.0,0.0020857953932136297
1408.0,0.004492743406444788
1536.0,0.0006205052486620843
1664.0,-0.012688868679106236
1792.0,-0.016644300892949104
1920.0,-0.014228591695427895
2048.0,-0.015085381455719471
2304.0,-0.005864813458174467
2560.0,-0.004257744178175926
2816.0,-0.0154160400852561
3072.0,-0.014315440319478512
3328.0,-0.003363229800015688
3584.0,0.0059639872051775455
3840.0,0.0082363560795784
4096.0,-0.0010448053944855928
4608.0,0.006134494673460722
5120.0,0.0118201719596982
5632.0,0.001175401033833623
6144.0,0.007602590601891279
6656.0,-0.016572291031479836
7168.0,-0.009657083079218864
7680.0,-0.006500354036688805
8192.0,-0.007022760342806578
9216.0,0.012572797015309334
10240.0,0.0015017363475635648
11264.0,-0.01586879976093769
12288.0,-0.014063800685107708
13312.0,0.009825022891163826
14336.0,0.028921011835336685
end
