version,3.0
numOfCh,1
type,point
parent_name,80-cuts
ch_type,1_1
kcount,1
numberNandB,1
brightnessNandB,1
carpet pos,0
pc,0
Time (ms),CH1 Auto-Correlation
1.0,0.03180941194295883
2.0,0.03145970031619072
3.0,0.031111590564250946
4.0,0.030771393328905106
5.0,0.030431797727942467
6.0,0.03009744919836521
7.0,0.02976050227880478
8.0,0.029427871108055115
9.0,0.029103828594088554
10.0,0.028788059949874878
11.0,0.028483428061008453
12.0,0.028175311163067818
13.0,0.027873169630765915
14.0,0.027578851208090782
15.0,0.02728504128754139
16.0,0.0269927941262722
18.0,0.026434477418661118
20.0,0.02588980458676815
22.0,0.025363285094499588
24.0,0.02485297992825508
26.0,0.024359362199902534
28.0,0.023869222030043602
30.0,0.023416437208652496
32.0,0.02297031320631504
36.0,0.022104857489466667
40.0,0.021281830966472626
44.0,0.02050141990184784
48.0,0.019775478169322014
52.0,0.019096145406365395
56.0,0.018393103033304214
60.0,0.017684711143374443
64.0,0.016982678323984146
72.0,0.015707602724432945
80.0,0.014464830979704857
88.0,0.013318712823092937
96.0,0.012266971170902252
104.0,0.011328015476465225
112.0,0.010328981094062328
120.0,0.009379473514854908
128.0,0.008433377370238304
144.0,0.006975663360208273
160.0,0.00580652104690671
176.0,0.0044120610691607
192.0,0.003302917117252946
208.0,0.0026720936875790358
224.0,0.0021117881406098604
240.0,0.0016722389264032245
256.0,0.001365605159662664
288.0,0.0010302412556484342
320.0,0.000819289474748075
352.0,0.0014386008260771632
384.0,0.002157144946977496
416.0,0.0019336724653840065
448.0,0.0011631549568846822
480.0,0.00028349165222607553
512.0,-0.0008893084595911205
576.0,-0.0021775378845632076
640.0,-0.0025878881569951773
704.0,-0.002106789266690612
768.0,-0.0010636649094522
832.0,-0.0006148103857412934
896.0,0.0002034118224401027
960.0,0.00024173699785023928
1024.0,-0.0006238438072614372
1152.0,-0.0027414399664849043
1280.0,-0.004272215534001589
1408.0,-0.00369785213842988
1536.0,-0.0026046489365398884
1664.0,-0.0032651748042553663
1792.0,-0.0022621224634349346
1920.0,0.0015165599761530757
2048.0,-0.0007374284905381501
2304.0,-0.0008265746291726828
2560.0,0.00024876141105778515
2816.0,0.0023635553661733866
3072.0,0.0019986662082374096
3328.0,0.001170305535197258
3584.0,-0.00040324500878341496
3840.0,-0.0031838486902415752
4096.0,0.0007160926470533013
4608.0,-0.002056750236079097
5120.0,-0.00103157723788172
5632.0,0.0004214326327200979
6144.0,0.0011763065122067928
6656.0,-0.00016401747416239232
7168.0,0.0013318749843165278
7680.0,-0.0019645546562969685
8192.0,-0.00538462633267045
9216.0,0.0011479603126645088
10240.0,0.0015126906801015139
11264.0,-0.0003932922554668039
12288.0,0.0004153338086325675
13312.0,-0.0014779269695281982
14336.0,-0.0008811088046059012
end
