version,3.0
numOfCh,1
type,point
parent_name,80-cuts
ch_type,1_1
kcount,1
numberNandB,1
brightnessNandB,1
carpet pos,0
pc,0
Time (ms),CH1 Auto-Correlation
1.0,0.0613550990819931
2.0,0.06062587723135948
3.0,0.059910207986831665
4.0,0.05922120809555054
5.0,0.05853988975286484
6.0,0.05786934867501259
7.0,0.057250719517469406
8.0,0.05663132667541504
9.0,0.05601317808032036
10.0,0.055388398468494415
11.0,0.05476178601384163
12.0,0.05414122715592384
13.0,0.05352834612131119
14.0,0.05291125923395157
15.0,0.05228853225708008
16.0,0.05168936029076576
18.0,0.05053967237472534
20.0,0.04942907765507698
22.0,0.048376426100730896
24.0,0.047353073954582214
26.0,0.04639061540365219
28.0,0.04544781148433685
30.0,0.044537462294101715
32.0,0.04365398362278938
36.0,0.04201291874051094
40.0,0.040469516068696976
44.0,0.039000749588012695
48.0,0.037623967975378036
52.0,0.036301389336586
56.0,0.03499051183462143
60.0,0.03378269076347351
64.0,0.03262650966644287
72.0,0.03047117404639721
80.0,0.028584163635969162
88.0,0.026816247031092644
96.0,0.024975840002298355
104.0,0.023130595684051514
112.0,0.02162211574614048
120.0,0.020439619198441505
128.0,0.01934480480849743
144.0,0.016888227313756943
160.0,0.014331339858472347
176.0,0.011652008630335331
192.0,0.00905353482812643
208.0,0.007242145948112011
224.0,0.00575765548273921
240.0,0.0038469284772872925
256.0,0.002281630178913474
288.0,9.317108924733475e-05
320.0,-0.0006656604236923158
352.0,-3.4272688935743645e-05
384.0,-0.001114077284000814
416.0,-0.002069696318358183
448.0,-0.0025001505855470896
480.0,-0.003387661185115576
512.0,-0.0037727465387433767
576.0,-0.0031130106654018164
640.0,-0.0014391121221706271
704.0,-0.002740575699135661
768.0,-0.00250170542858541
832.0,0.0007558881770819426
896.0,0.001595142064616084
960.0,0.000867395952809602
1024.0,0.0011813472956418991
1152.0,-0.0014270892133936286
1280.0,-0.006411932874470949
1408.0,-0.003761077066883445
1536.0,-0.0002487596939317882
1664.0,-0.0005565167521126568
1792.0,0.0028447923250496387
1920.0,0.0013963672099635005
2048.0,-0.002475660527125001
2304.0,0.0004236309905536473
2560.0,0.0037833715323358774
2816.0,0.004274179693311453
3072.0,0.002555300248786807
3328.0,-0.0035749580711126328
3584.0,-0.0028405238408595324
3840.0,-0.003367462195456028
4096.0,-0.009298272430896759
4608.0,0.007210600655525923
5120.0,-0.005318061914294958
5632.0,0.0009565182263031602
6144.0,-0.0033609201200306416
6656.0,-0.007407834753394127
7168.0,-0.00010229275358142331
7680.0,-0.0024725524708628654
8192.0,0.0019848847296088934
9216.0,-0.0006997609743848443
10240.0,-0.0019065436208620667
11264.0,-3.997177191195078e-05
12288.0,0.0010035543236881495
13312.0,0.003618663176894188
14336.0,0.0013983547687530518
end
