version,3.0
numOfCh,1
type,point
parent_name,19e3e_1dot0-1dot0
ch_type,1_1
kcount,1
numberNandB,1
brightnessNandB,1
carpet pos,0
pc,0
Time (ms),CH1 Auto-Correlation
1.0,0.027714764699339867
2.0,0.025492070242762566
3.0,0.023553315550088882
4.0,0.02188163623213768
5.0,0.020410727709531784
6.0,0.01906655915081501
7.0,0.01783364824950695
8.0,0.01671735756099224
9.0,0.015721596777439117
10.0,0.014860217459499836
11.0,0.014053736813366413
12.0,0.013339459896087646
13.0,0.012713351286947727
14.0,0.01219009980559349
15.0,0.0116823585703969
16.0,0.011206945404410362
18.0,0.010315261781215668
20.0,0.009594757109880447
22.0,0.008974164724349976
24.0,0.008398647420108318
26.0,0.007930813357234001
28.0,0.0074119227938354015
30.0,0.0068654888309538364
32.0,0.00632771011441946
36.0,0.005527052097022533
40.0,0.005086931865662336
44.0,0.0044693429954349995
48.0,0.003876740811392665
52.0,0.0032951778266578913
56.0,0.0027778027579188347
60.0,0.002280034590512514
64.0,0.0019950452260673046
72.0,0.001935299951583147
80.0,0.0015135564608499408
88.0,0.001508269808255136
96.0,0.001008948078379035
104.0,0.0007017172174528241
112.0,0.0007290542707778513
120.0,0.0012459257850423455
128.0,0.0020309288520365953
144.0,0.001622952288016677
160.0,0.0008403519750572741
176.0,0.001221442362293601
192.0,0.0012445388128980994
208.0,0.001209577196277678
224.0,0.0009766564471647143
240.0,-0.00015876143879722804
256.0,-0.0008039303938858211
288.0,-0.0018223702209070325
320.0,-0.00013349232904147357
352.0,0.00033915549283847213
384.0,-3.887469574692659e-05
416.0,-0.0008110421476885676
448.0,-0.001148087321780622
480.0,-0.0023269846569746733
512.0,-0.0023296219296753407
576.0,-0.0011486432049423456
640.0,-0.0007118473295122385
704.0,-0.0002862128894776106
768.0,0.0015011073555797338
832.0,0.00016358072753064334
896.0,-0.001732382457703352
960.0,0.00021454418310895562
1024.0,-0.0005101546994410455
1152.0,-0.000257324572885409
1280.0,-0.0013341529993340373
1408.0,-9.274005424231291e-05
1536.0,0.00030813750345259905
1664.0,0.0003730470489244908
1792.0,0.0009514298290014267
1920.0,-7.296292460523546e-05
2048.0,0.0002198060683440417
2304.0,0.00012442767911124974
2560.0,-0.0005589418578892946
2816.0,-0.0006663187523372471
3072.0,0.0006186546524986625
3328.0,0.0005694956053048372
3584.0,-0.0006247407873161137
3840.0,-0.00015838634863030165
4096.0,9.196567407343537e-05
4608.0,-0.00030244371737353504
5120.0,-0.00013403769116848707
5632.0,0.0006895295227877796
6144.0,0.0003446153423283249
6656.0,-0.00035533885238692164
7168.0,-0.000490862934384495
7680.0,-0.00010508089326322079
8192.0,0.00048062007408589125
end
