version,3.0
numOfCh,1
type,point
parent_name,19e3e_1dot0-1dot0
ch_type,1_1
kcount,1
numberNandB,1
brightnessNandB,1
carpet pos,0
pc,0
Time (ms),CH1 Auto-Correlation
1.0,0.027799934148788452
2.0,0.025659823790192604
3.0,0.023854771628975868
4.0,0.02220851555466652
5.0,0.02076398953795433
6.0,0.019470660015940666
7.0,0.018394622951745987
8.0,0.017404617741703987
9.0,0.016520706936717033
10.0,0.015681875869631767
11.0,0.014978334307670593
12.0,0.014303655363619328
13.0,0.013659100979566574
14.0,0.013141178525984287
15.0,0.012632402591407299
16.0,0.012200184166431427
18.0,0.011363713070750237
20.0,0.010650658048689365
22.0,0.009993642568588257
24.0,0.009395129047334194
26.0,0.00885209534317255
28.0,0.008324116468429565
30.0,0.00788930244743824
32.0,0.007365761324763298
36.0,0.006286750081926584
40.0,0.005329765845090151
44.0,0.0047249929048120975
48.0,0.004573026672005653
52.0,0.004576541017740965
56.0,0.004332947079092264
60.0,0.004141643177717924
64.0,0.0038273136597126722
72.0,0.0029420568607747555
80.0,0.0026155009400099516
88.0,0.0025425993371754885
96.0,0.0024813557974994183
104.0,0.0021207064855843782
112.0,0.002383203012868762
120.0,0.002951397094875574
128.0,0.003091100137680769
144.0,0.0029292667750269175
160.0,0.0014157057739794254
176.0,0.00025169618311338127
192.0,0.00041668492485769093
208.0,0.00030238041654229164
224.0,0.0004615046491380781
240.0,0.001311969244852662
256.0,0.0022587249986827374
288.0,0.0014119725674390793
320.0,0.0005790048744529486
352.0,-0.000946792250033468
384.0,0.00011574771633604541
416.0,0.001144294161349535
448.0,0.001575095928274095
480.0,0.0011894115014001727
512.0,0.0006630830466747284
576.0,0.0013552806340157986
640.0,0.0007854769937694073
704.0,0.0014441711828112602
768.0,0.0011519899126142263
832.0,0.0016401043394580483
896.0,0.0006681516533717513
960.0,0.0009940083837136626
1024.0,0.0012044949689880013
1152.0,-0.0012731758179143071
1280.0,-0.0007035635644569993
1408.0,-0.0015206922544166446
1536.0,0.00015545707719866186
1664.0,-0.00012085153139196336
1792.0,-0.0014218894066289067
1920.0,-0.002203068695962429
2048.0,-0.0015443592565134168
2304.0,-0.0005961979040876031
2560.0,-0.0011426329147070646
2816.0,-0.0006450946675613523
3072.0,0.0007759028230793774
3328.0,0.0008073318749666214
3584.0,0.0012093528639525175
3840.0,0.0002286180097144097
4096.0,-0.0002914275391958654
4608.0,-0.00022511153656523675
5120.0,-0.00011907557200174779
5632.0,-0.0011826090048998594
6144.0,-0.0009494469850324094
6656.0,-0.00019171451276633888
7168.0,-0.00040225277189165354
7680.0,-0.0006182220531627536
8192.0,0.001088363234885037
end
