version,3.0
numOfCh,1
type,point
parent_name,19e3e_1dot0-1dot0
ch_type,1_1
kcount,1
numberNandB,1
brightnessNandB,1
carpet pos,0
pc,0
Time (ms),CH1 Auto-Correlation
1.0,0.027786005288362503
2.0,0.025514861568808556
3.0,0.0236611757427454
4.0,0.02204214595258236
5.0,0.020656870678067207
6.0,0.019382888451218605
7.0,0.018314916640520096
8.0,0.017353681847453117
9.0,0.016437938436865807
10.0,0.015621735714375973
11.0,0.014878464862704277
12.0,0.01416059210896492
13.0,0.013536607846617699
14.0,0.012920954264700413
15.0,0.012332082726061344
16.0,0.01180171500891447
18.0,0.010859022848308086
20.0,0.010092017240822315
22.0,0.009525411762297153
24.0,0.009141356684267521
26.0,0.008595437742769718
28.0,0.008032016456127167
30.0,0.007578287273645401
32.0,0.007195333484560251
36.0,0.006315203849226236
40.0,0.0056158676743507385
44.0,0.005038551054894924
48.0,0.004344946704804897
52.0,0.003504545195028186
56.0,0.002811981365084648
60.0,0.0026851771399378777
64.0,0.00268085696734488
72.0,0.0024559549055993557
80.0,0.001739255036227405
88.0,0.0008437332580797374
96.0,0.0003388262412045151
104.0,0.00018824549624696374
112.0,0.0003755802463274449
120.0,0.00039901412674225867
128.0,-5.172056989977136e-05
144.0,1.708720446913503e-05
160.0,-0.0004637265228666365
176.0,-0.00044309053919278085
192.0,-0.0004680403508245945
208.0,-0.0005997602711431682
224.0,-8.86513153091073e-05
240.0,0.0003533044655341655
256.0,0.00021334482880774885
288.0,0.0003384873562026769
320.0,0.0008614775142632425
352.0,0.0010461496422067285
384.0,0.0005543435690924525
416.0,-0.0003250089939683676
448.0,-0.0009664559038355947
480.0,-0.0001516179327154532
512.0,-0.0012743471888825297
576.0,-0.0009162609349004924
640.0,0.0002588466741144657
704.0,-3.1253865017788485e-05
768.0,-0.0007946488913148642
832.0,-0.0009254469769075513
896.0,0.0003206174005754292
960.0,0.00028846904751844704
1024.0,-0.00023138463438954204
1152.0,0.00023157063696999103
1280.0,0.0008256516885012388
1408.0,-0.0002302375214640051
1536.0,-0.0006450940854847431
1664.0,0.0005484227440319955
1792.0,4.494456516113132e-05
1920.0,-0.0003019962750840932
2048.0,0.0005631364765577018
2304.0,-0.0004969699657522142
2560.0,-0.000566198374144733
2816.0,-0.00010775371629279107
3072.0,-0.00017487927107140422
3328.0,-0.0010997351491823792
3584.0,-0.00018704583635553718
3840.0,0.0007928978884592652
4096.0,0.0006156372255645692
4608.0,0.0005456676008179784
5120.0,0.00011049565364373848
5632.0,0.00012999787577427924
6144.0,0.00026025186525657773
6656.0,-0.0007515016477555037
7168.0,-0.0006533885025419295
7680.0,-0.00027364480774849653
8192.0,-0.00037708962918259203
end
