version,3.0
numOfCh,1
type,point
parent_name,19e3e_1dot0-1dot0
ch_type,1_1
kcount,1
numberNandB,1
brightnessNandB,1
carpet pos,0
pc,0
Time (ms),CH1 Auto-Correlation
1.0,0.02668578550219536
2.0,0.02446018159389496
3.0,0.022568533197045326
4.0,0.020958751440048218
5.0,0.019503068178892136
6.0,0.01819448545575142
7.0,0.017072224989533424
8.0,0.01603967882692814
9.0,0.015141874551773071
10.0,0.014339539222419262
11.0,0.013582471758127213
12.0,0.012973646633327007
13.0,0.012399998493492603
14.0,0.01179161760956049
15.0,0.011180004104971886
16.0,0.010696597397327423
18.0,0.009776733815670013
20.0,0.008884519338607788
22.0,0.008038443513214588
24.0,0.007286435458809137
26.0,0.006802547723054886
28.0,0.0062860120087862015
30.0,0.005787541624158621
32.0,0.005455434322357178
36.0,0.004761196672916412
40.0,0.004160418175160885
44.0,0.0035102986730635166
48.0,0.002839404623955488
52.0,0.002381566446274519
56.0,0.002285320544615388
60.0,0.0023039046209305525
64.0,0.002507242374122143
72.0,0.00273300358094275
80.0,0.002490927465260029
88.0,0.0018557599978521466
96.0,0.001402402645908296
104.0,0.0012350103352218866
112.0,0.0012714022304862738
120.0,0.0010580867528915405
128.0,0.0007334962137974799
144.0,0.0006773636559955776
160.0,0.0007816931465640664
176.0,0.0013017029268667102
192.0,0.0006093554547987878
208.0,0.00024960015434771776
224.0,0.0003401187714189291
240.0,0.0004067311529070139
256.0,0.0005123231676407158
288.0,0.0009934210684150457
320.0,0.0009223404340445995
352.0,5.1395083573879674e-05
384.0,-0.0005337691400200129
416.0,-0.00015974484267644584
448.0,0.0005153317470103502
480.0,0.0005155148101039231
512.0,-0.0005792210577055812
576.0,-0.00020280835451558232
640.0,0.0003998644242528826
704.0,-2.7099082217318937e-05
768.0,0.0006833533407188952
832.0,0.0009239817736670375
896.0,0.0006147815147414804
960.0,0.0004896115860901773
1024.0,0.0006704163388349116
1152.0,-0.0013416589936241508
1280.0,-1.1143075425934512e-05
1408.0,4.176348011242226e-05
1536.0,0.0008500356925651431
1664.0,0.000702437711879611
1792.0,0.0004757627611979842
1920.0,0.00034963880898430943
2048.0,-2.6584724764688872e-05
2304.0,-0.001264887978322804
2560.0,-0.0007564927218481898
2816.0,-0.0006154770962893963
3072.0,6.243037205422297e-05
3328.0,0.0001061351940734312
3584.0,-0.0003105518117081374
3840.0,-0.00018989988893736154
4096.0,-0.0008420593803748488
4608.0,-0.00014317182649392635
5120.0,-0.00039169882074929774
5632.0,0.00017837971972767264
6144.0,-0.00011760184133891016
6656.0,-0.0003937068104278296
7168.0,9.739283268572763e-05
7680.0,0.00010806616046465933
8192.0,-0.001040303148329258
end
