version,3.0
numOfCh,1
type,point
parent_name,19e3e_1dot0-1dot0
ch_type,1_1
kcount,1
numberNandB,1
brightnessNandB,1
carpet pos,0
pc,0
Time (ms),CH1 Auto-Correlation
1.0,0.025723660364747047
2.0,0.023569904267787933
3.0,0.021750669926404953
4.0,0.02010669745504856
5.0,0.018714599311351776
6.0,0.017536884173750877
7.0,0.016486788168549538
8.0,0.015577809885144234
9.0,0.014726285822689533
10.0,0.013980362564325333
11.0,0.013352212496101856
12.0,0.01280417200177908
13.0,0.012400608509778976
14.0,0.011949880979955196
15.0,0.011471062898635864
16.0,0.011041722260415554
18.0,0.010087663307785988
20.0,0.009239529259502888
22.0,0.008554145693778992
24.0,0.008000614121556282
26.0,0.007492606993764639
28.0,0.006975148338824511
30.0,0.006525387056171894
32.0,0.006019631866365671
36.0,0.005182084161788225
40.0,0.004569016396999359
44.0,0.003872254863381386
48.0,0.0034210234880447388
52.0,0.0032107385341078043
56.0,0.0030017236713320017
60.0,0.002909768372774124
64.0,0.002754970919340849
72.0,0.0026056827045977116
80.0,0.0021575791761279106
88.0,0.001559929340146482
96.0,0.0013151970924809575
104.0,0.0005964877200312912
112.0,0.00010160428064409643
120.0,-0.0005052475025877357
128.0,-0.0007275690441019833
144.0,8.211011299863458e-05
160.0,0.0002920161932706833
176.0,-8.266614895546809e-05
192.0,0.00018803328566718847
208.0,0.0008970429771579802
224.0,0.0005668403464369476
240.0,0.0006947234505787492
256.0,7.71832637838088e-05
288.0,-0.0005659451708197594
320.0,-0.0006895099068060517
352.0,-0.0003293658373877406
384.0,0.00033182965125888586
416.0,0.0006276455824263394
448.0,-0.0005731549463234842
480.0,-0.0012198693584650755
512.0,-0.0013567653950303793
576.0,-0.0013515505706891418
640.0,-0.0004631984047591686
704.0,0.0011145012686029077
768.0,0.001172165502794087
832.0,0.0008478036615997553
896.0,0.00025376054691150784
960.0,0.0007020124467089772
1024.0,6.924826448084787e-05
1152.0,0.0006437790580093861
1280.0,6.041049800842302e-06
1408.0,-0.00028943325742147863
1536.0,0.0002194775006501004
1664.0,-0.000876756152138114
1792.0,-0.0015617295866832137
1920.0,0.0010071059223264456
2048.0,0.0010703483130782843
2304.0,-8.942366548581049e-05
2560.0,-0.0002450472384225577
2816.0,-0.00013294772361405194
3072.0,-0.0004159102390985936
3328.0,0.00012754568888340145
3584.0,0.00024838358513079584
3840.0,-0.0004685472813434899
4096.0,7.304212340386584e-05
4608.0,0.0007743361638858914
5120.0,0.00036779805668629706
5632.0,0.0004254658124409616
6144.0,-0.000292261247523129
6656.0,-2.7989735826849937e-05
7168.0,-0.0010439421748742461
7680.0,-0.0007283093291334808
8192.0,-0.00044757852447219193
end
