version,3.0
numOfCh,1
type,point
parent_name,19e3e_1dot0-1dot0
ch_type,1_1
kcount,1
numberNandB,1
brightnessNandB,1
carpet pos,0
pc,0
Time (ms),CH1 Auto-Correlation
1.0,0.028015196323394775
2.0,0.025724053382873535
3.0,0.02378474734723568
4.0,0.022065572440624237
5.0,0.020566638559103012
6.0,0.019224774092435837
7.0,0.018117306753993034
8.0,0.01706940308213234
9.0,0.016035687178373337
10.0,0.015065815299749374
11.0,0.014170104637742043
12.0,0.013352115638554096
13.0,0.012692349962890148
14.0,0.012098201550543308
15.0,0.01158168725669384
16.0,0.01106966007500887
18.0,0.010379276238381863
20.0,0.009697782807052135
22.0,0.009115138091146946
24.0,0.008445206098258495
26.0,0.00787085946649313
28.0,0.0073692211881279945
30.0,0.0068639894016087055
32.0,0.00635508680716157
36.0,0.005216341465711594
40.0,0.004375827964395285
44.0,0.0037111130077391863
48.0,0.003178312908858061
52.0,0.002843637252226472
56.0,0.0025023827329277992
60.0,0.0021502587478607893
64.0,0.0016521032666787505
72.0,0.0010414995485916734
80.0,0.0009395730448886752
88.0,0.0006939299637451768
96.0,0.0012698876671493053
104.0,0.001559977768920362
112.0,0.00157737429253757
120.0,0.0012064346810802817
128.0,0.0010098342318087816
144.0,0.00171407510060817
160.0,0.0017837326740846038
176.0,0.0019246010342612863
192.0,0.0011704888893291354
208.0,0.0003808812762144953
224.0,0.0003445942129474133
240.0,0.0006342058186419308
256.0,0.0011106334859505296
288.0,0.00022305977472569793
320.0,-0.0004017228202428669
352.0,0.0002540430868975818
384.0,-0.00011661638563964516
416.0,0.0004406278603710234
448.0,-5.595399852609262e-05
480.0,-0.00031750486232340336
512.0,0.00040588315459899604
576.0,0.00013762300659436733
640.0,0.0013583156978711486
704.0,3.8801274058641866e-05
768.0,0.00045568609493784606
832.0,3.1236279028235e-05
896.0,-0.00020276178838685155
960.0,-0.0010062608635053039
1024.0,-0.0005208936054259539
1152.0,-0.0007343691540881991
1280.0,0.00037212035385891795
1408.0,0.001646627439185977
1536.0,0.00046410365030169487
1664.0,0.0015783513663336635
1792.0,0.0004262144211679697
1920.0,-0.00015245603572111577
2048.0,-0.00018449370691087097
2304.0,-0.0002550130011513829
2560.0,-0.0008084925357252359
2816.0,-0.00045600454905070364
3072.0,0.0005842354730702937
3328.0,0.0005895685753785074
3584.0,-0.0007759357686154544
3840.0,-0.0014379950007423759
4096.0,-0.0008471686160191894
4608.0,0.00021139654563739896
5120.0,0.0005449387244880199
5632.0,1.3063850019534584e-05
6144.0,0.00031962236971594393
6656.0,-2.6972480554832146e-05
7168.0,-0.00035027784178964794
7680.0,0.0005084488075226545
8192.0,-0.00032268918585032225
end
