version,3.0
numOfCh,1
type,point
parent_name,19e3e_1dot0-1dot0
ch_type,1_1
kcount,1
numberNandB,1
brightnessNandB,1
carpet pos,0
pc,0
Time (ms),CH1 Auto-Correlation
1.0,0.029386421665549278
2.0,0.027068613097071648
3.0,0.025140758603811264
4.0,0.023524822667241096
5.0,0.02202277071774006
6.0,0.020704541355371475
7.0,0.019480904564261436
8.0,0.018393006175756454
9.0,0.01742638647556305
10.0,0.016569122672080994
11.0,0.015821393579244614
12.0,0.015199379995465279
13.0,0.014657781459391117
14.0,0.014112862758338451
15.0,0.013551808893680573
16.0,0.013042408972978592
18.0,0.012194485403597355
20.0,0.011521464213728905
22.0,0.011013180948793888
24.0,0.010713036172091961
26.0,0.010431919246912003
28.0,0.010042423382401466
30.0,0.009585220366716385
32.0,0.009266344830393791
36.0,0.008600270375609398
40.0,0.008166396990418434
44.0,0.007778731174767017
48.0,0.0076814317144453526
52.0,0.007423200644552708
56.0,0.00684749148786068
60.0,0.006126609165221453
64.0,0.005619070027023554
72.0,0.00501863332465291
80.0,0.0045595476403832436
88.0,0.003693043952807784
96.0,0.0029490755405277014
104.0,0.002517495071515441
112.0,0.0016980785876512527
120.0,0.001419468317180872
128.0,0.001504048821516335
144.0,0.001014875015243888
160.0,0.00038680803845636547
176.0,-0.0001349670346826315
192.0,-0.0004215531807858497
208.0,-0.00022577746130991727
224.0,0.0005512867937795818
240.0,0.00010683033178793266
256.0,0.0001446234673494473
288.0,0.0007870026747696102
320.0,0.001189976348541677
352.0,0.000794659776147455
384.0,0.00019704345322679728
416.0,-0.0001490987924626097
448.0,-0.0014515409711748362
480.0,-0.0012776172952726483
512.0,-0.0009666939731687307
576.0,0.00024917389964684844
640.0,0.0019092368893325329
704.0,0.0023811054416000843
768.0,0.001099542947486043
832.0,-4.098260433238465e-06
896.0,0.0008199507719837129
960.0,0.00023150564811658114
1024.0,0.00045421323738992214
1152.0,-0.0003841581637971103
1280.0,0.0010531857842579484
1408.0,-5.407002754509449e-05
1536.0,0.00031268486054614186
1664.0,0.0002347500849282369
1792.0,-0.0011194414691999555
1920.0,0.0005043064011260867
2048.0,3.254842522437684e-05
2304.0,0.0008934685029089451
2560.0,-0.0006467186030931771
2816.0,-0.0006770599284209311
3072.0,1.9096911273663864e-05
3328.0,-0.001258622738532722
3584.0,-7.870655826991424e-05
3840.0,-0.0006408524932339787
4096.0,-0.0010134215699508786
4608.0,-0.0004182326083537191
5120.0,0.00013917328033130616
5632.0,-0.0010620449902489781
6144.0,-0.0005821894737891853
6656.0,-0.00034347077598795295
7168.0,-0.0003147561219520867
7680.0,-0.0010530691361054778
8192.0,-0.0004314869875088334
end
