version,3.0
numOfCh,1
type,point
parent_name,19e3e_1dot0-1dot0
ch_type,1_1
kcount,1
numberNandB,1
brightnessNandB,1
carpet pos,0
pc,0
Time (ms),CH1 Auto-Correlation
1.0,0.026475822553038597
2.0,0.02435028739273548
3.0,0.02255706675350666
4.0,0.02094329334795475
5.0,0.019515659660100937
6.0,0.018260721117258072
7.0,0.01706548035144806
8.0,0.016019441187381744
9.0,0.015023672953248024
10.0,0.014193995855748653
11.0,0.013493369333446026
12.0,0.012796168215572834
13.0,0.012192153371870518
14.0,0.01174717303365469
15.0,0.011383485049009323
16.0,0.010981535539031029
18.0,0.010261035524308681
20.0,0.009588336572051048
22.0,0.009053395129740238
24.0,0.008654001168906689
26.0,0.008340689353644848
28.0,0.007959965616464615
30.0,0.007594716269522905
32.0,0.007333892397582531
36.0,0.006853668484836817
40.0,0.006668450776487589
44.0,0.0064904154278337955
48.0,0.006273393519222736
52.0,0.0057221511378884315
56.0,0.005210879724472761
60.0,0.004941750783473253
64.0,0.004726915620267391
72.0,0.004300467204302549
80.0,0.003697926178574562
88.0,0.0034856274724006653
96.0,0.003959708381444216
104.0,0.004313081502914429
112.0,0.004176441580057144
120.0,0.003695231629535556
128.0,0.003176870523020625
144.0,0.0029027776326984167
160.0,0.0025728850159794092
176.0,0.001485662185586989
192.0,0.0009643200319260359
208.0,0.0019545182585716248
224.0,0.001722606597468257
240.0,0.002164318226277828
256.0,0.0025431166868656874
288.0,0.002127844374626875
320.0,0.0010419852333143353
352.0,0.000742949137929827
384.0,0.0005729840486310422
416.0,-0.0005982220754958689
448.0,-0.0003962123882956803
480.0,5.1523249567253515e-05
512.0,-8.458349475404248e-05
576.0,0.00021942442981526256
640.0,0.0003738524974323809
704.0,-0.0012828841572627425
768.0,6.597836909350008e-05
832.0,0.0005855326890014112
896.0,-0.00015436136163771152
960.0,-0.001654706778936088
1024.0,-0.0011812737211585045
1152.0,0.00017427155398763716
1280.0,9.61050609475933e-05
1408.0,-0.0003376974200364202
1536.0,-0.000950587447732687
1664.0,0.0008441907702945173
1792.0,0.000851259334012866
1920.0,0.0009659059578552842
2048.0,0.0014303952921181917
2304.0,0.00039532131631858647
2560.0,0.0008080378174781799
2816.0,0.00041481913649477065
3072.0,0.00031968404073268175
3328.0,-0.0014457760844379663
3584.0,-0.0016370927914977074
3840.0,-0.0005478457896970212
4096.0,0.001262360136024654
4608.0,-2.7141762984683737e-05
5120.0,-6.670707807643339e-05
5632.0,-0.0007493934826925397
6144.0,-0.0005947819445282221
6656.0,-0.0004239634145051241
7168.0,0.0004438442992977798
7680.0,-0.0007209014729596674
8192.0,0.0019270807970315218
end
