version,3.0
numOfCh,1
type,point
parent_name,19e3e_1dot0-1dot0
ch_type,1_1
kcount,1
numberNandB,1
brightnessNandB,1
carpet pos,0
pc,0
Time (ms),CH1 Auto-Correlation
1.0,0.02492285892367363
2.0,0.0227956585586071
3.0,0.020871562883257866
4.0,0.01920890063047409
5.0,0.017731167376041412
6.0,0.01642238348722458
7.0,0.015222543850541115
8.0,0.014154858887195587
9.0,0.013188819400966167
10.0,0.012326853349804878
11.0,0.011599350720643997
12.0,0.010950661264359951
13.0,0.010371602140367031
14.0,0.00984497182071209
15.0,0.009329955093562603
16.0,0.008819571696221828
18.0,0.00804883986711502
20.0,0.007370324805378914
22.0,0.006770206615328789
24.0,0.0062816874124109745
26.0,0.005782409105449915
28.0,0.005403522402048111
30.0,0.005239841528236866
32.0,0.005038679111748934
36.0,0.004357107449322939
40.0,0.003932591527700424
44.0,0.003732467768713832
48.0,0.0035643628798425198
52.0,0.0033213666174560785
56.0,0.0028878997545689344
60.0,0.002603912726044655
64.0,0.0024172840639948845
72.0,0.0023953993804752827
80.0,0.002285847906023264
88.0,0.0020388890989124775
96.0,0.0014517453964799643
104.0,0.0015140979085117579
112.0,0.0011541510466486216
120.0,0.0004450137203093618
128.0,-0.00022774901299271733
144.0,-0.0003492537362035364
160.0,0.00028247456066310406
176.0,0.0006414925446733832
192.0,0.0005299370968714356
208.0,0.0001920180511660874
224.0,-4.3452375393826514e-05
240.0,-0.000285994348814711
256.0,0.0002552944060880691
288.0,0.0005216824938543141
320.0,0.0008907390292733908
352.0,0.0005717068561352789
384.0,8.170349610736594e-05
416.0,1.7912370822159573e-05
448.0,-0.00019151598098687828
480.0,0.0003814385854639113
512.0,-0.00020115591178182513
576.0,-0.001354010310024023
640.0,-0.00019280756532680243
704.0,0.0011064355494454503
768.0,0.00037674795021303
832.0,-0.0005216801655478776
896.0,-0.0006449209759011865
960.0,-0.0005408399156294763
1024.0,0.0002838326327037066
1152.0,-6.195799505803734e-05
1280.0,-0.0004775342531502247
1408.0,-0.0002502911083865911
1536.0,0.00013644380669575185
1664.0,-0.0005858071963302791
1792.0,-0.0004084873653482646
1920.0,3.415610990487039e-05
2048.0,-0.00014790819841437042
2304.0,0.0004647819441743195
2560.0,0.0001795962598407641
2816.0,0.00017691375978756696
3072.0,0.00044329153024591506
3328.0,0.0008710570400580764
3584.0,-0.0002618952712509781
3840.0,-0.00019642719416879117
4096.0,0.0011327812680974603
4608.0,-0.00046122079947963357
5120.0,0.0005027374718338251
5632.0,-0.0012897723354399204
6144.0,0.0004025303351227194
6656.0,-0.00010931557335425168
7168.0,-0.0004946069093421102
7680.0,0.00035310108796693385
8192.0,0.0004280394350644201
end
