version,3.0
numOfCh,1
type,point
parent_name,19e3e_1dot0-1dot0
ch_type,1_1
kcount,1
numberNandB,1
brightnessNandB,1
carpet pos,0
pc,0
Time (ms),CH1 Auto-Correlation
1.0,0.02635830268263817
2.0,0.02425280027091503
3.0,0.022459620609879494
4.0,0.02085910737514496
5.0,0.019406206905841827
6.0,0.018168983981013298
7.0,0.017084505409002304
8.0,0.0161374993622303
9.0,0.015303490683436394
10.0,0.014521167613565922
11.0,0.013758990913629532
12.0,0.013099565170705318
13.0,0.012514903210103512
14.0,0.011953066103160381
15.0,0.011408531107008457
16.0,0.010947377420961857
18.0,0.01007876731455326
20.0,0.00931528676301241
22.0,0.008740422315895557
24.0,0.008207924664020538
26.0,0.007673274260014296
28.0,0.007146129384636879
30.0,0.006751081440597773
32.0,0.006433775648474693
36.0,0.005826777778565884
40.0,0.0054497551172971725
44.0,0.005031165666878223
48.0,0.004575303290039301
52.0,0.004085551481693983
56.0,0.0036062337458133698
60.0,0.0031454849522560835
64.0,0.002884573768824339
72.0,0.0022356463596224785
80.0,0.0013965173857286572
88.0,0.0011200448498129845
96.0,0.0018870836356654763
104.0,0.001995123689994216
112.0,0.0017373082228004932
120.0,0.0012830435298383236
128.0,0.0007678544498048723
144.0,0.0007841850747354329
160.0,0.0009053855901584029
176.0,0.001164486980997026
192.0,0.0014751128619536757
208.0,0.0009231400326825678
224.0,0.0004937686026096344
240.0,0.001204305561259389
256.0,0.0008312796708196402
288.0,-0.00013361728633753955
320.0,-0.00011971031926805153
352.0,-0.00020420385408215225
384.0,0.001170670730061829
416.0,0.0009655895410105586
448.0,0.0007358299335464835
480.0,0.00011157152766827494
512.0,-4.273655576980673e-05
576.0,0.0004534709732979536
640.0,-0.0002769067359622568
704.0,0.0006241247174330056
768.0,0.001121578854508698
832.0,0.0023246770724654198
896.0,0.001203429652377963
960.0,0.0007531336159445345
1024.0,0.00022490012634079903
1152.0,-0.0009389537735842168
1280.0,0.00019267189782112837
1408.0,0.0002703167265281081
1536.0,0.001346770441159606
1664.0,0.0026145728770643473
1792.0,0.0015340604586526752
1920.0,8.634416735731065e-05
2048.0,0.0006936909630894661
2304.0,0.00020245928317308426
2560.0,0.00035071957972832024
2816.0,2.375504891460878e-06
3072.0,0.000625693122856319
3328.0,0.00013057093019597232
3584.0,-0.00011513447680044919
3840.0,-0.00011787771654780954
4096.0,-0.0011435167398303747
4608.0,-0.0002883592387661338
5120.0,-0.0004711501533165574
5632.0,-0.0012196996249258518
6144.0,-0.0011357036419212818
6656.0,-0.0005164403119124472
7168.0,-0.0014855453046038747
7680.0,-0.001509596360847354
8192.0,-0.00011398245260352269
end
