version,3.0
numOfCh,1
type,point
parent_name,19e3e_1dot0-1dot0
ch_type,1_1
kcount,1
numberNandB,1
brightnessNandB,1
carpet pos,0
pc,0
Time (ms),CH1 Auto-Correlation
1.0,0.028935274109244347
2.0,0.026783309876918793
3.0,0.024996072053909302
4.0,0.02344764769077301
5.0,0.02207392081618309
6.0,0.020851140841841698
7.0,0.019734619185328484
8.0,0.0187902320176363
9.0,0.01798134855926037
10.0,0.01729828119277954
11.0,0.016695141792297363
12.0,0.01621374860405922
13.0,0.01574040949344635
14.0,0.01530789490789175
15.0,0.014862986281514168
16.0,0.014473944902420044
18.0,0.01374158263206482
20.0,0.01299524400383234
22.0,0.012337599880993366
24.0,0.011831571348011494
26.0,0.011394456028938293
28.0,0.010995953343808651
30.0,0.010648460127413273
32.0,0.010356682352721691
36.0,0.009975052438676357
40.0,0.009499425068497658
44.0,0.009150845929980278
48.0,0.008682966232299805
52.0,0.008067143149673939
56.0,0.007508713752031326
60.0,0.00723615474998951
64.0,0.00681259436532855
72.0,0.005959758535027504
80.0,0.005735235288739204
88.0,0.005475247744470835
96.0,0.005136895924806595
104.0,0.0045577543787658215
112.0,0.003834084141999483
120.0,0.0026724229101091623
128.0,0.002082142047584057
144.0,0.0019525052048265934
160.0,0.001845691935159266
176.0,0.0015351705951616168
192.0,0.0013784122420474887
208.0,0.0005529019981622696
224.0,-0.00017876342462841421
240.0,-0.0008044833084568381
256.0,-0.0006701365928165615
288.0,-0.00017518739332444966
320.0,0.0002965085150208324
352.0,0.0015530264936387539
384.0,0.0013867707457393408
416.0,0.0015822143759578466
448.0,0.0017900854581966996
480.0,0.0018312901956960559
512.0,0.0017848414136096835
576.0,0.0007362546166405082
640.0,0.00046485644998028874
704.0,-0.0009298472432419658
768.0,-0.0024283849634230137
832.0,-0.002106988336890936
896.0,-0.002029948867857456
960.0,-0.0012278239009901881
1024.0,-0.000474022061098367
1152.0,-0.0007821863982826471
1280.0,-0.0013387110084295273
1408.0,-0.00199022120796144
1536.0,0.000498623528983444
1664.0,0.00018708780407905579
1792.0,-0.0010242200223729014
1920.0,-0.0010951152071356773
2048.0,-0.0017075508367270231
2304.0,0.0007592798210680485
2560.0,0.00011796752369264141
2816.0,-0.00023219376453198493
3072.0,-0.001111769350245595
3328.0,-0.000303196778986603
3584.0,-0.00028542624204419553
3840.0,0.002133220201358199
4096.0,0.0018206709064543247
4608.0,0.0006526364013552666
5120.0,-0.0008696263539604843
5632.0,-0.001516549033112824
6144.0,0.0004565715789794922
6656.0,-0.0005817530327476561
7168.0,-0.0005971318460069597
7680.0,0.0004109031578991562
8192.0,0.00044544681441038847
end
