version,3.0
numOfCh,1
type,point
parent_name,19e3e_1dot0-1dot0
ch_type,1_1
kcount,1
numberNandB,1
brightnessNandB,1
carpet pos,0
pc,0
Time (ms),CH1 Auto-Correlation
1.0,0.027875985950231552
2.0,0.025662656873464584
3.0,0.02378942258656025
4.0,0.02210894785821438
5.0,0.02059008926153183
6.0,0.01932598277926445
7.0,0.018229352310299873
8.0,0.017208242788910866
9.0,0.016340848058462143
10.0,0.015572081319987774
11.0,0.01487782597541809
12.0,0.014333232305943966
13.0,0.01374699454754591
14.0,0.013229922391474247
15.0,0.01272577978670597
16.0,0.012214774265885353
18.0,0.011346638202667236
20.0,0.01044186856597662
22.0,0.00963323563337326
24.0,0.00886466633528471
26.0,0.008154365234076977
28.0,0.007603885140269995
30.0,0.007081659976392984
32.0,0.0066957660019397736
36.0,0.006201225332915783
40.0,0.005784447304904461
44.0,0.005574202165007591
48.0,0.005383006762713194
52.0,0.005079339724034071
56.0,0.0048761870712041855
60.0,0.004502428695559502
64.0,0.004255905747413635
72.0,0.003551823552697897
80.0,0.0025989848654717207
88.0,0.001792119350284338
96.0,0.0013425127835944295
104.0,0.0016369257355108857
112.0,0.002327339956536889
120.0,0.002512648468837142
128.0,0.002310651820152998
144.0,0.0015796646475791931
160.0,0.0010467880638316274
176.0,0.0012794311624020338
192.0,0.0008813040913082659
208.0,0.0009158956236205995
224.0,0.0007713766535744071
240.0,0.00013983860844746232
256.0,-0.000291791366180405
288.0,0.00012538061127997935
320.0,0.00027698668418452144
352.0,0.0007179672829806805
384.0,0.00025489513063803315
416.0,0.0007088788552209735
448.0,0.00047417148016393185
480.0,0.0011107336031273007
512.0,0.001089500612579286
576.0,-0.00022569196880795062
640.0,-0.00016294309170916677
704.0,-0.000499113230034709
768.0,0.0006696866475977004
832.0,-7.539171929238364e-05
896.0,-0.0003929480444639921
960.0,0.0004155875649303198
1024.0,0.0001745354529703036
1152.0,0.0005096773384138942
1280.0,-7.335226837312803e-05
1408.0,-0.001389902550727129
1536.0,-0.0008072250057011843
1664.0,-0.0007225653971545398
1792.0,-7.164345879573375e-05
1920.0,-0.0003138857427984476
2048.0,0.00146529171615839
2304.0,-0.000494152947794646
2560.0,-0.0003309646272100508
2816.0,-0.0012127321679145098
3072.0,-0.0002775859029497951
3328.0,0.00042169896187260747
3584.0,-1.2402950233081356e-05
3840.0,0.001005268655717373
4096.0,0.0009363348362967372
4608.0,-0.0005707885138690472
5120.0,-0.0010980709921568632
5632.0,-0.00042436589137651026
6144.0,0.0007073427550494671
6656.0,-0.00044662028085440397
7168.0,-0.0006596656166948378
7680.0,-0.0004410740511957556
8192.0,0.0015427053440362215
end
