version,3.0
numOfCh,1
type,point
parent_name,19e3e_1dot0-1dot0
ch_type,1_1
kcount,1
numberNandB,1
brightnessNandB,1
carpet pos,0
pc,0
Time (ms),CH1 Auto-Correlation
1.0,0.0303407721221447
2.0,0.02822558954358101
3.0,0.026422899216413498
4.0,0.02486603520810604
5.0,0.023532874882221222
6.0,0.022285325452685356
7.0,0.02125033736228943
8.0,0.02038874477148056
9.0,0.019519414752721786
10.0,0.018702242523431778
11.0,0.017968999221920967
12.0,0.017293453216552734
13.0,0.01673765480518341
14.0,0.01620040461421013
15.0,0.015688614919781685
16.0,0.01520343404263258
18.0,0.014261155389249325
20.0,0.013341543264687061
22.0,0.012487085536122322
24.0,0.011695336550474167
26.0,0.010999820195138454
28.0,0.010320745408535004
30.0,0.009593818336725235
32.0,0.008921712636947632
36.0,0.008155676536262035
40.0,0.0075253029353916645
44.0,0.007050757296383381
48.0,0.006787451449781656
52.0,0.006339112762361765
56.0,0.005993009079247713
60.0,0.005690303631126881
64.0,0.00522599508985877
72.0,0.004506323020905256
80.0,0.004316351376473904
88.0,0.003822200233116746
96.0,0.0036656800657510757
104.0,0.003505073022097349
112.0,0.003188973991200328
120.0,0.0027830672916024923
128.0,0.002899110084399581
144.0,0.002070066286250949
160.0,0.0006178662879392505
176.0,1.905757926579099e-05
192.0,-6.974139978410676e-05
208.0,-0.0005722889909520745
224.0,-0.0002422688266960904
240.0,0.00018583422934170812
256.0,-0.0006630669813603163
288.0,-0.0009433099767193198
320.0,-0.0005004628328606486
352.0,0.0004867112438660115
384.0,0.00029043189715594053
416.0,0.0008661484462209046
448.0,0.0013180566020309925
480.0,-0.0001070837679435499
512.0,-0.0006900403532199562
576.0,-0.001614855253137648
640.0,-0.0028873137198388577
704.0,-0.002166228834539652
768.0,-0.0025712288916110992
832.0,-0.0017377467593178153
896.0,-0.00276306108571589
960.0,-0.0016712929354980588
1024.0,-0.0018262485973536968
1152.0,0.0016707367030903697
1280.0,0.0010354953119531274
1408.0,2.8609227342712984e-07
1536.0,0.0002968472836073488
1664.0,-0.0002054243814200163
1792.0,-0.0015679546631872654
1920.0,-0.0021115902345627546
2048.0,-0.0004180787655059248
2304.0,0.0015680089127272367
2560.0,0.0010310953948646784
2816.0,0.0016234548529610038
3072.0,-0.0018395972438156605
3328.0,-0.0025090279523283243
3584.0,0.0007153702899813652
3840.0,0.0005731873097829521
4096.0,0.0021365005522966385
4608.0,-0.0005241693579591811
5120.0,0.00019814477127511054
5632.0,-0.0012537880102172494
6144.0,0.00021848530741408467
6656.0,0.0011870026355609298
7168.0,-0.0020873132161796093
7680.0,-0.00014958290557842702
8192.0,0.0014076598454266787
end
