version,3.0
numOfCh,1
type,point
parent_name,19e3e_1dot0-1dot0
ch_type,1_1
kcount,1
numberNandB,1
brightnessNandB,1
carpet pos,0
pc,0
Time (ms),CH1 Auto-Correlation
1.0,0.026304593309760094
2.0,0.02420026622712612
3.0,0.022388001903891563
4.0,0.020751619711518288
5.0,0.019315205514431
6.0,0.018030021339654922
7.0,0.016844218596816063
8.0,0.015788299962878227
9.0,0.014830484986305237
10.0,0.014029220677912235
11.0,0.013357517309486866
12.0,0.012765760533511639
13.0,0.01217912882566452
14.0,0.01165927667170763
15.0,0.011155334301292896
16.0,0.010704770684242249
18.0,0.009842495433986187
20.0,0.00909870583564043
22.0,0.008446862921118736
24.0,0.007923614233732224
26.0,0.007320928853005171
28.0,0.006752945948392153
30.0,0.006240717135369778
32.0,0.005885133054107428
36.0,0.005071637686342001
40.0,0.004528122954070568
44.0,0.004234406165778637
48.0,0.004258592613041401
52.0,0.004382030107080936
56.0,0.004326719790697098
60.0,0.003831884590908885
64.0,0.0033287082333117723
72.0,0.0027916820254176855
80.0,0.002555991755798459
88.0,0.001810460933484137
96.0,0.0011426894925534725
104.0,0.0011142645962536335
112.0,0.0013809471856802702
120.0,0.0017584521556273103
128.0,0.001977982698008418
144.0,0.0023133244831115007
160.0,0.0019590267911553383
176.0,0.0021385971922427416
192.0,0.001871543936431408
208.0,0.0019867054652422667
224.0,0.002373175695538521
240.0,0.0019757631234824657
256.0,0.0014078731182962656
288.0,0.0016693692887201905
320.0,0.001725323498249054
352.0,0.0013207441661506891
384.0,0.00016444874927401543
416.0,-0.00014098724932409823
448.0,-0.00048579569556750357
480.0,-0.0009960030438378453
512.0,-0.0009412285289727151
576.0,-4.0330614865524694e-05
640.0,0.0013631719630211592
704.0,-0.00020301122276578099
768.0,-0.0008993576630018651
832.0,-0.0006753411726094782
896.0,-0.00047302458551712334
960.0,-9.119591413764283e-05
1024.0,-0.00011087509483331814
1152.0,-0.0011250912211835384
1280.0,-0.0014689324889332056
1408.0,-0.0011074536014348269
1536.0,-0.0010354092810302973
1664.0,4.6552519052056596e-05
1792.0,0.0002030138421105221
1920.0,0.0001846404920797795
2048.0,0.0007556843920610845
2304.0,0.0008322950452566147
2560.0,0.0009857660625129938
2816.0,0.0012301360256969929
3072.0,0.0013361311284825206
3328.0,0.00046659682993777096
3584.0,-0.0003985448565799743
3840.0,-0.0005590096116065979
4096.0,-0.0012139721075072885
4608.0,-0.0003879040013998747
5120.0,0.00036571925738826394
5632.0,0.0003067950310651213
6144.0,-0.000537167361471802
6656.0,-0.0005669633392244577
7168.0,-0.0005667878431268036
7680.0,-0.00034307388705201447
8192.0,0.00022896629525348544
end
