version,3.0
numOfCh,1
type,point
parent_name,19e3e_1dot0-1dot0
ch_type,1_1
kcount,1
numberNandB,1
brightnessNandB,1
carpet pos,0
pc,0
Time (ms),CH1 Auto-Correlation
1.0,0.026582403108477592
2.0,0.024473577737808228
3.0,0.022649124264717102
4.0,0.021115431562066078
5.0,0.019797662273049355
6.0,0.01860165037214756
7.0,0.017541587352752686
8.0,0.016616184264421463
9.0,0.015786347910761833
10.0,0.015024641528725624
11.0,0.014301128685474396
12.0,0.013631321489810944
13.0,0.013068262487649918
14.0,0.012524179182946682
15.0,0.01200137473642826
16.0,0.01155013032257557
18.0,0.010748451575636864
20.0,0.009962205775082111
22.0,0.009217617101967335
24.0,0.008486093021929264
26.0,0.007795082405209541
28.0,0.007221709005534649
30.0,0.006726978812366724
32.0,0.006351996213197708
36.0,0.005779789295047522
40.0,0.005360833369195461
44.0,0.005080152302980423
48.0,0.004942149855196476
52.0,0.004498777445405722
56.0,0.0040500410832464695
60.0,0.0038754993584007025
64.0,0.003841871628537774
72.0,0.004003298468887806
80.0,0.0038977907970547676
88.0,0.0036044945009052753
96.0,0.003132218960672617
104.0,0.002660173224285245
112.0,0.0023798360489308834
120.0,0.0018936024280264974
128.0,0.0013968123821541667
144.0,0.0009649532148614526
160.0,0.0009216823964379728
176.0,0.0009287954308092594
192.0,0.0008388757705688477
208.0,-3.468247814453207e-05
224.0,-0.00095513672567904
240.0,-0.0012233196757733822
256.0,-0.0015553971752524376
288.0,-0.000881385407410562
320.0,-0.00033592432737350464
352.0,-0.0007939045899547637
384.0,-0.0004177671216893941
416.0,-6.961932376725599e-05
448.0,0.00017744256183505058
480.0,0.0005045405123382807
512.0,-0.0004676114476751536
576.0,0.000734106230083853
640.0,0.0005772283766418695
704.0,0.00014224668848328292
768.0,0.0006871841615065932
832.0,-0.0006932156975381076
896.0,-0.001169618801213801
960.0,-0.0013478875625878572
1024.0,-0.001126097864471376
1152.0,7.706393080297858e-05
1280.0,-0.0006259679212234914
1408.0,-4.527476994553581e-05
1536.0,-0.0002119702403433621
1664.0,-0.000445055979071185
1792.0,-0.0012487233616411686
1920.0,-0.001869825180619955
2048.0,-0.0015942174941301346
2304.0,0.0007260393467731774
2560.0,-0.0009916661074385047
2816.0,0.0003796541423071176
3072.0,0.0003663285751827061
3328.0,0.0005899113020859659
3584.0,0.000236232066527009
3840.0,0.0008782128570601344
4096.0,-0.00024690685677342117
4608.0,-0.0006915079429745674
5120.0,-0.00029424429521895945
5632.0,0.0004966803244315088
6144.0,-0.0008093640208244324
6656.0,0.0014531085034832358
7168.0,0.0008868467411957681
7680.0,-0.0013136006891727448
8192.0,0.0006448557251133025
end
