version,3.0
numOfCh,1
type,point
parent_name,19e3e_1dot0-1dot0
ch_type,1_1
kcount,1
numberNandB,1
brightnessNandB,1
carpet pos,0
pc,0
Time (ms),CH1 Auto-Correlation
1.0,0.026371896266937256
2.0,0.024186251685023308
3.0,0.022335045039653778
4.0,0.020728861913084984
5.0,0.01938849687576294
6.0,0.018214333802461624
7.0,0.01719493232667446
8.0,0.01632150076329708
9.0,0.015469926409423351
10.0,0.014748255722224712
11.0,0.014033625833690166
12.0,0.013412955217063427
13.0,0.012876462191343307
14.0,0.012372712604701519
15.0,0.011937418952584267
16.0,0.011469649150967598
18.0,0.010602906346321106
20.0,0.009976954199373722
22.0,0.009426758624613285
24.0,0.008989074267446995
26.0,0.008499028161168098
28.0,0.008057828061282635
30.0,0.00770408334210515
32.0,0.007272664923220873
36.0,0.006370652467012405
40.0,0.006053013261407614
44.0,0.005714979954063892
48.0,0.005384495016187429
52.0,0.004821110516786575
56.0,0.004186619538813829
60.0,0.0035303786862641573
64.0,0.0030279853381216526
72.0,0.0023367609828710556
80.0,0.0023831112775951624
88.0,0.002745102858170867
96.0,0.0021610127296298742
104.0,0.0015556876314803958
112.0,0.001505579799413681
120.0,0.001969998935237527
128.0,0.0017578155966475606
144.0,0.0015531418612226844
160.0,0.0015530880773440003
176.0,0.002027744660153985
192.0,0.001926755765452981
208.0,0.0021777311339974403
224.0,0.001916768029332161
240.0,0.0013277287362143397
256.0,0.0008760593482293189
288.0,0.001388375647366047
320.0,0.001206008717417717
352.0,0.0007948511047288775
384.0,0.0006458497955463827
416.0,0.0003087277291342616
448.0,-0.0013174660271033645
480.0,-0.001043969765305519
512.0,-0.00034300985862500966
576.0,-0.0005470604519359767
640.0,7.390345126623288e-05
704.0,0.0007695959066040814
768.0,0.00047210155753418803
832.0,0.0004611793265212327
896.0,0.00021608377574011683
960.0,-0.0006197762559168041
1024.0,-0.0004765187040902674
1152.0,-0.0005003161495551467
1280.0,-0.0006524064228869975
1408.0,3.905611447407864e-05
1536.0,0.00012903807510156184
1664.0,-0.0007259297417476773
1792.0,-0.0020536703523248434
1920.0,-0.001450262265279889
2048.0,-0.0012805293081328273
2304.0,-0.0006083676125854254
2560.0,-0.0011227262439206243
2816.0,0.0001950959995156154
3072.0,0.0019002656918019056
3328.0,-0.0006155780865810812
3584.0,-0.00015381445700768381
3840.0,0.00014980997366365045
4096.0,-0.00046496791765093803
4608.0,0.00013881271297577769
5120.0,-0.00022596513736061752
5632.0,7.542988169007003e-05
6144.0,0.0007325195474550128
6656.0,-0.000717907038051635
7168.0,-0.0004998689400963485
7680.0,-0.000969143002294004
8192.0,-0.0013398653827607632
end
