version,3.0
numOfCh,1
type,point
parent_name,19e3e_1dot0-1dot0
ch_type,1_1
kcount,1
numberNandB,1
brightnessNandB,1
carpet pos,0
pc,0
Time (ms),CH1 Auto-Correlation
1.0,0.03031785786151886
2.0,0.028120338916778564
3.0,0.026238495483994484
4.0,0.024596400558948517
5.0,0.023158876225352287
6.0,0.021852057427167892
7.0,0.020679408684372902
8.0,0.019667474552989006
9.0,0.01877514086663723
10.0,0.017953017726540565
11.0,0.017139362171292305
12.0,0.016350002959370613
13.0,0.0156729556620121
14.0,0.015024111606180668
15.0,0.01441940851509571
16.0,0.013830490410327911
18.0,0.012877988629043102
20.0,0.012058055028319359
22.0,0.011273529380559921
24.0,0.010645688511431217
26.0,0.010092664510011673
28.0,0.009583422914147377
30.0,0.009158842265605927
32.0,0.008689381182193756
36.0,0.007895813323557377
40.0,0.007196943275630474
44.0,0.006692023016512394
48.0,0.006657518912106752
52.0,0.006638219114392996
56.0,0.006383698433637619
60.0,0.006315229460597038
64.0,0.00581696443259716
72.0,0.005096178036183119
80.0,0.004837391432374716
88.0,0.004271672107279301
96.0,0.0032015058677643538
104.0,0.002521701157093048
112.0,0.002361740916967392
120.0,0.0022741472348570824
128.0,0.002087782835587859
144.0,0.0019937772303819656
160.0,0.001571736647747457
176.0,0.001550316228531301
192.0,0.0014888871228322387
208.0,0.0013454678701236844
224.0,0.00043966900557279587
240.0,-0.00011996272951364517
256.0,-0.00048157296259887516
288.0,-0.00040900721796788275
320.0,-0.00023400849022436887
352.0,0.0009008522611111403
384.0,0.0005179247818887234
416.0,0.0004522898234426975
448.0,-0.00030965867335908115
480.0,-0.0006962099578231573
512.0,-0.0007509365095756948
576.0,-0.0015861315187066793
640.0,-0.0014492193004116416
704.0,-0.0011114977532997727
768.0,-0.0009759991662576795
832.0,-0.001260233111679554
896.0,-0.0015034127281978726
960.0,-0.0018199424957856536
1024.0,-0.0010357425780966878
1152.0,0.0014236443676054478
1280.0,0.0011647711507976055
1408.0,-0.00020177362603135407
1536.0,0.0008848189609125257
1664.0,0.00045237684389576316
1792.0,-0.0007438954198732972
1920.0,-0.0010846558725461364
2048.0,-0.001669090474024415
2304.0,0.0006888967473059893
2560.0,0.0006175037124194205
2816.0,-0.0001238833792740479
3072.0,-6.903294433868723e-06
3328.0,-0.0003794609219767153
3584.0,0.0011167577467858791
3840.0,0.0018831286579370499
4096.0,-0.00023927802976686507
4608.0,0.0004725834878627211
5120.0,-0.00044679827988147736
5632.0,0.0007360021118074656
6144.0,-0.0010291192447766662
6656.0,-0.0006364877335727215
7168.0,-0.0004043402150273323
7680.0,-1.2936083294334821e-05
8192.0,-0.001373326638713479
end
