version,3.0
numOfCh,1
type,point
parent_name,19e3e_1dot0-1dot0
ch_type,1_1
kcount,1
numberNandB,1
brightnessNandB,1
carpet pos,0
pc,0
Time (ms),CH1 Auto-Correlation
1.0,0.0276609119027853
2.0,0.0254508163779974
3.0,0.023517949506640434
4.0,0.021841159090399742
5.0,0.020353151485323906
6.0,0.0190484207123518
7.0,0.017928777262568474
8.0,0.0169114600867033
9.0,0.01596039906144142
10.0,0.01516522467136383
11.0,0.01441793143749237
12.0,0.013651475310325623
13.0,0.013006778433918953
14.0,0.012378554791212082
15.0,0.011861281469464302
16.0,0.011282328516244888
18.0,0.010228781029582024
20.0,0.009471215307712555
22.0,0.008712965063750744
24.0,0.007932142354547977
26.0,0.007215557154268026
28.0,0.0067556737922132015
30.0,0.006410596892237663
32.0,0.006140002980828285
36.0,0.0054270620457828045
40.0,0.004835315514355898
44.0,0.0042578051798045635
48.0,0.0037128846161067486
52.0,0.0033537009730935097
56.0,0.0029121623374521732
60.0,0.0024013451766222715
64.0,0.0021947184577584267
72.0,0.0019783820025622845
80.0,0.001191360759548843
88.0,0.0009560890612192452
96.0,0.0009784047724679112
104.0,0.0012064441107213497
112.0,0.0014564433367922902
120.0,0.0013709062477573752
128.0,0.0009905904298648238
144.0,0.0018431544303894043
160.0,0.002031757030636072
176.0,0.0013746004551649094
192.0,0.0006678532809019089
208.0,-0.00042723334627225995
224.0,-5.584728114627069e-06
240.0,0.0004589570453390479
256.0,4.737275503430283e-06
288.0,-5.11475263920147e-05
320.0,0.0005853468901477754
352.0,0.0006386044551618397
384.0,-0.00013273059448692948
416.0,-0.0005458940868265927
448.0,-0.0013308088527992368
480.0,-0.0020973600912839174
512.0,-0.001379014807753265
576.0,-0.0006246441043913364
640.0,-0.0011164231691509485
704.0,-0.0003882136079482734
768.0,-0.0007672738865949214
832.0,-0.0009727794677019119
896.0,-0.0002332604635739699
960.0,-0.0006029990618117154
1024.0,-0.0004871428245678544
1152.0,0.00032413084409199655
1280.0,-0.0004856350424233824
1408.0,0.0002072505303658545
1536.0,0.0003142493078485131
1664.0,0.00041498805512674153
1792.0,0.0004224784788675606
1920.0,0.00022414013801608235
2048.0,-0.0008724681101739407
2304.0,-0.0001488076086388901
2560.0,-0.0012770210159942508
2816.0,-0.00017352141730953008
3072.0,0.0002489637699909508
3328.0,-0.0008660848252475262
3584.0,0.00028988084523007274
3840.0,0.0008468487649224699
4096.0,9.862564911600202e-05
4608.0,-0.0009093057014979422
5120.0,-9.016686817631125e-05
5632.0,0.0010140364756807685
6144.0,-0.0002557834086474031
6656.0,-0.0003128101525362581
7168.0,0.00046587036922574043
7680.0,-0.0001895149180199951
8192.0,-3.728831870830618e-05
end
