version,3.0
numOfCh,1
type,point
parent_name,19e3e_1dot0-1dot0
ch_type,1_1
kcount,1
numberNandB,1
brightnessNandB,1
carpet pos,0
pc,0
Time (ms),CH1 Auto-Correlation
1.0,0.026444362476468086
2.0,0.02418331615626812
3.0,0.022255433723330498
4.0,0.020610567182302475
5.0,0.019209114834666252
6.0,0.01804208755493164
7.0,0.01698203571140766
8.0,0.01600901409983635
9.0,0.015113762579858303
10.0,0.014295724220573902
11.0,0.013594461604952812
12.0,0.012928351759910583
13.0,0.012300911359488964
14.0,0.011709405109286308
15.0,0.011163432151079178
16.0,0.01072015706449747
18.0,0.009978149086236954
20.0,0.009289351291954517
22.0,0.008721893653273582
24.0,0.008273093961179256
26.0,0.007787092588841915
28.0,0.007383082993328571
30.0,0.007142080459743738
32.0,0.006928436923772097
36.0,0.006674668285995722
40.0,0.006064238026738167
44.0,0.00540036428719759
48.0,0.004748499020934105
52.0,0.004143068566918373
56.0,0.003936524968594313
60.0,0.003826121101155877
64.0,0.0037104289513081312
72.0,0.003759838407859206
80.0,0.0034881695173680782
88.0,0.0026334754657000303
96.0,0.002249267650768161
104.0,0.00242468505166471
112.0,0.0022631376050412655
120.0,0.0018506778869777918
128.0,0.0011411349987611175
144.0,0.0006574673461727798
160.0,-0.00014744584041181952
176.0,-0.00019787416385952383
192.0,-0.0001758407597662881
208.0,-0.00010851646948140115
224.0,5.8838730183197185e-05
240.0,-0.00014712045958731323
256.0,-0.0005360834184102714
288.0,-0.0010534650646150112
320.0,-0.0002014278870774433
352.0,-0.0007504450622946024
384.0,-0.0013946647522971034
416.0,-0.00027314567705616355
448.0,4.8767738917376846e-05
480.0,-0.00034123138175345957
512.0,-0.0008537141839042306
576.0,-7.01908502378501e-05
640.0,0.00019850926764775068
704.0,0.00017152038344647735
768.0,0.0010644806316122413
832.0,0.0007428961689583957
896.0,0.0007463816436938941
960.0,0.0004887410905212164
1024.0,3.531350375851616e-05
1152.0,-0.0014118788531050086
1280.0,-0.001727298367768526
1408.0,0.0001657867105677724
1536.0,-0.0004798283916898072
1664.0,-0.0009286182466894388
1792.0,-0.0005011061439290643
1920.0,0.0009000342688523233
2048.0,0.00028321330319158733
2304.0,0.00011217640712857246
2560.0,0.0003336129884701222
2816.0,-0.0002085678424919024
3072.0,-0.00113467569462955
3328.0,0.0009952823165804148
3584.0,-0.0004974693874828517
3840.0,-0.00025171382003463805
4096.0,0.00041377198067493737
4608.0,-0.0009462243760935962
5120.0,0.00016787067579571158
5632.0,-1.4526508493872825e-05
6144.0,-0.00013753421080764383
6656.0,0.0002140278957085684
7168.0,-0.001167007372714579
7680.0,-0.00021822228154633194
8192.0,0.001584878540597856
end
