version,3.0
numOfCh,1
type,point
parent_name,19e3e_1dot0-1dot0
ch_type,1_1
kcount,1
numberNandB,1
brightnessNandB,1
carpet pos,0
pc,0
Time (ms),CH1 Auto-Correlation
1.0,0.026891639456152916
2.0,0.02460799738764763
3.0,0.022718550637364388
4.0,0.02106376923620701
5.0,0.01959908939898014
6.0,0.0182765144854784
7.0,0.017106298357248306
8.0,0.016091592609882355
9.0,0.015221006236970425
10.0,0.014415065757930279
11.0,0.013644752092659473
12.0,0.01290491595864296
13.0,0.012216320261359215
14.0,0.011605093255639076
15.0,0.011104672215878963
16.0,0.010669657960534096
18.0,0.009868337772786617
20.0,0.00918530486524105
22.0,0.008588657714426517
24.0,0.008068453520536423
26.0,0.0075582098215818405
28.0,0.007052011787891388
30.0,0.00673004100099206
32.0,0.006453467532992363
36.0,0.005778593942523003
40.0,0.005139668006449938
44.0,0.0047699566930532455
48.0,0.004495787434279919
52.0,0.004206536337733269
56.0,0.003914692904800177
60.0,0.0033817109651863575
64.0,0.0030135042034089565
72.0,0.002094477880746126
80.0,0.0016685818554833531
88.0,0.0016434484859928489
96.0,0.0020120865665376186
104.0,0.001906455378048122
112.0,0.0010273850057274103
120.0,0.0010309764184057713
128.0,0.00125213828869164
144.0,0.0009683767566457391
160.0,0.0005443993723019958
176.0,-0.00039802436367608607
192.0,-0.0013853274285793304
208.0,-0.0015314132906496525
224.0,-0.0007034876034595072
240.0,-0.0008706172811798751
256.0,-0.0011857332428917289
288.0,-0.001709961798042059
320.0,-0.002203363925218582
352.0,-0.0015116246649995446
384.0,-0.0008487151353619993
416.0,-0.0011587046319618821
448.0,-0.0004172956105321646
480.0,0.0005740594351664186
512.0,0.0005496563389897346
576.0,0.0005781143554486334
640.0,-0.0008947714231908321
704.0,-0.0007731601363047957
768.0,-0.0009074353147298098
832.0,-0.0003712498873937875
896.0,-0.0005968681653030217
960.0,0.0006616949685849249
1024.0,-0.0010152702452614903
1152.0,0.0006145830266177654
1280.0,0.0015467008342966437
1408.0,0.00056625617435202
1536.0,0.000485188327729702
1664.0,-0.0004592819605022669
1792.0,-0.0007230431074276567
1920.0,-0.0008617366547696292
2048.0,0.0005658669979311526
2304.0,-0.0006073136464692652
2560.0,-2.9485987397492863e-05
2816.0,0.0008639813750050962
3072.0,-0.0006465817568823695
3328.0,0.0006492643151432276
3584.0,-0.0011020225938409567
3840.0,-0.001536748488433659
4096.0,0.00017310837574768811
4608.0,4.178000381216407e-05
5120.0,-0.0005432283505797386
5632.0,0.0001733700482873246
6144.0,-0.0006708836299367249
6656.0,0.00013504401431418955
7168.0,0.0002830196754075587
7680.0,0.00023772529675625265
8192.0,-0.0002847959694918245
end
