version,3.0
numOfCh,1
type,point
parent_name,19e3e_1dot0-1dot0
ch_type,1_1
kcount,1
numberNandB,1
brightnessNandB,1
carpet pos,0
pc,0
Time (ms),CH1 Auto-Correlation
1.0,0.026706930249929428
2.0,0.02442147769033909
3.0,0.022533085197210312
4.0,0.02089652605354786
5.0,0.019474787637591362
6.0,0.018276531249284744
7.0,0.017231399193406105
8.0,0.016277918592095375
9.0,0.015353744849562645
10.0,0.014491990208625793
11.0,0.013705977238714695
12.0,0.0130224684253335
13.0,0.012404204346239567
14.0,0.011880273930728436
15.0,0.011452734470367432
16.0,0.010990590788424015
18.0,0.010271185077726841
20.0,0.009595527313649654
22.0,0.009016532450914383
24.0,0.00844678282737732
26.0,0.007987460121512413
28.0,0.007578228134661913
30.0,0.0071047162637114525
32.0,0.006608207244426012
36.0,0.005958941299468279
40.0,0.0053241741843521595
44.0,0.004610077477991581
48.0,0.003972202073782682
52.0,0.003203626489266753
56.0,0.002615060657262802
60.0,0.002388478722423315
64.0,0.002350877271965146
72.0,0.002670803340151906
80.0,0.002980115357786417
88.0,0.0028165446128696203
96.0,0.0018406488234177232
104.0,0.000622095016296953
112.0,0.0001681238500168547
120.0,0.0004856504965573549
128.0,0.0004091134178452194
144.0,0.00021039460261818022
160.0,0.0008996760006994009
176.0,0.0009139638277702034
192.0,0.0004916074103675783
208.0,0.0010828652884811163
224.0,0.0014661363093182445
240.0,0.001500937738455832
256.0,0.0013713890220969915
288.0,0.0013167900033295155
320.0,0.0005060519324615598
352.0,-0.00044583220733329654
384.0,-0.0007439298206008971
416.0,-0.00037390782381407917
448.0,-0.0008429878507740796
480.0,0.00016546480765100569
512.0,0.001112283207476139
576.0,0.00041934987530112267
640.0,0.00020233394752722234
704.0,0.0005873353220522404
768.0,0.0003062491596210748
832.0,0.00010361469321651384
896.0,-0.0005382680683396757
960.0,-0.0004884004592895508
1024.0,0.00018067263590637594
1152.0,0.0008672580006532371
1280.0,-0.0002356549957767129
1408.0,-0.0005956777022220194
1536.0,-0.0005995008978061378
1664.0,-0.00033688294934108853
1792.0,0.0003178167680744082
1920.0,0.000139029260026291
2048.0,0.00014632790407631546
2304.0,0.0006853776285424829
2560.0,0.0006535552092827857
2816.0,4.72708088636864e-05
3072.0,0.000523645430803299
3328.0,-0.00046231705346144736
3584.0,-0.0001264435995835811
3840.0,-0.0012522067409008741
4096.0,-0.000951096008066088
4608.0,-0.0002880750398617238
5120.0,-0.00042409467278048396
5632.0,0.00021843753347638994
6144.0,-0.0006809969781897962
6656.0,8.536654058843851e-05
7168.0,-0.0016102975932881236
7680.0,-0.00039416170329786837
8192.0,6.381059392879251e-06
end
