version,3.0
numOfCh,1
type,point
parent_name,19e3e_1dot0-1dot0
ch_type,1_1
kcount,1
numberNandB,1
brightnessNandB,1
carpet pos,0
pc,0
Time (ms),CH1 Auto-Correlation
1.0,0.027534397318959236
2.0,0.025392187759280205
3.0,0.023606492206454277
4.0,0.022068677470088005
5.0,0.020731011405587196
6.0,0.01955740712583065
7.0,0.018502455204725266
8.0,0.017591174691915512
9.0,0.01677059382200241
10.0,0.015948805958032608
11.0,0.015169268473982811
12.0,0.014446042478084564
13.0,0.013747157528996468
14.0,0.013163602910935879
15.0,0.01265807542949915
16.0,0.01218614261597395
18.0,0.011128460057079792
20.0,0.010200908407568932
22.0,0.009455148130655289
24.0,0.008920026943087578
26.0,0.008606541901826859
28.0,0.00814195815473795
30.0,0.007605765946209431
32.0,0.007191231474280357
36.0,0.006444233935326338
40.0,0.005810997914522886
44.0,0.0052812183275818825
48.0,0.004712918773293495
52.0,0.004199789837002754
56.0,0.0038950678426772356
60.0,0.0035294867120683193
64.0,0.0030943334568291903
72.0,0.0027329414151608944
80.0,0.0023048105649650097
88.0,0.001896461471915245
96.0,0.0018818456446751952
104.0,0.0019474425353109837
112.0,0.0020607232581824064
120.0,0.0021936355624347925
128.0,0.001880581141449511
144.0,0.0015280559891834855
160.0,0.0008786279940977693
176.0,0.0007377522415481508
192.0,0.0004113652103114873
208.0,0.0005757251055911183
224.0,0.00016842647164594382
240.0,0.0006582384812645614
256.0,0.0009044453036040068
288.0,0.0004900378989987075
320.0,0.0006039291038177907
352.0,-3.471108720987104e-05
384.0,-0.0012292064493522048
416.0,-0.0013802392641082406
448.0,-0.0009486753260716796
480.0,-0.0002448507584631443
512.0,-0.0010142481187358499
576.0,-0.0018755776109173894
640.0,-0.001749487011693418
704.0,0.0002550175122451037
768.0,0.0007479747873730958
832.0,0.00014972657663747668
896.0,0.0015382119454443455
960.0,0.0009056119597516954
1024.0,-0.00010632767953211442
1152.0,-9.132875857176259e-05
1280.0,-3.0393135602935217e-05
1408.0,-1.9362605598871596e-05
1536.0,-3.917689900845289e-05
1664.0,-0.0009640649077482522
1792.0,0.0005506042507477105
1920.0,0.000596569967456162
2048.0,0.000452938285889104
2304.0,0.0004412127018440515
2560.0,-0.0011752505088225007
2816.0,-0.0011363367084413767
3072.0,0.0007194087374955416
3328.0,0.0005913822678849101
3584.0,-0.00035032257437705994
3840.0,-4.8173387767747045e-05
4096.0,0.0002538373228162527
4608.0,-0.00027584334020502865
5120.0,-0.0012548001250252128
5632.0,-0.001113126170821488
6144.0,0.00025034224381670356
6656.0,0.00037880538729950786
7168.0,0.0002617467544041574
7680.0,0.0006984934443607926
8192.0,0.0010586042189970613
end
