version,3.0
numOfCh,1
type,point
parent_name,19e3e_1dot0-1dot0
ch_type,1_1
kcount,1
numberNandB,1
brightnessNandB,1
carpet pos,0
pc,0
Time (ms),CH1 Auto-Correlation
1.0,0.028264448046684265
2.0,0.026166176423430443
3.0,0.0243975967168808
4.0,0.022935783490538597
5.0,0.02161291427910328
6.0,0.02041284181177616
7.0,0.01935230940580368
8.0,0.018369266763329506
9.0,0.017422564327716827
10.0,0.01660372130572796
11.0,0.015883294865489006
12.0,0.01518305018544197
13.0,0.014489001594483852
14.0,0.013864012435078621
15.0,0.013226856477558613
16.0,0.012652391567826271
18.0,0.011570117436349392
20.0,0.010525204241275787
22.0,0.009615873917937279
24.0,0.008775533176958561
26.0,0.008050555363297462
28.0,0.007456864230334759
30.0,0.0069627780467271805
32.0,0.006606837268918753
36.0,0.005970155354589224
40.0,0.005424759816378355
44.0,0.004968307912349701
48.0,0.004498915281146765
52.0,0.003918354399502277
56.0,0.003488158108666539
60.0,0.0033011394552886486
64.0,0.002962112193927169
72.0,0.0021179174073040485
80.0,0.0015287776477634907
88.0,0.0012186324456706643
96.0,0.001161846681497991
104.0,0.0014773060102015734
112.0,0.0016035579610615969
120.0,0.001501319813542068
128.0,0.0016170223243534565
144.0,0.001331907114945352
160.0,0.0010704128071665764
176.0,0.0004878481267951429
192.0,0.00028874125564470887
208.0,-0.0004920156789012253
224.0,-0.0008968086913228035
240.0,-0.000720398616977036
256.0,-4.3252206523902714e-05
288.0,1.1104596524091903e-05
320.0,-0.0012369550531730056
352.0,-0.001920804032124579
384.0,-0.0018690713914111257
416.0,-0.001667291158810258
448.0,-0.00038962732651270926
480.0,-0.0008607350173406303
512.0,-5.308803520165384e-05
576.0,0.0014272374100983143
640.0,8.307144889840856e-05
704.0,-0.0006193073932081461
768.0,0.001032432192005217
832.0,-0.00043047231156378984
896.0,-0.000663686718326062
960.0,-0.0006567737436853349
1024.0,-0.0002698827302083373
1152.0,-0.0007100075599737465
1280.0,-0.0005797786870971322
1408.0,0.001056111534126103
1536.0,0.0013968382263556123
1664.0,0.0002307636896148324
1792.0,-0.0009505926282145083
1920.0,-0.0015141299227252603
2048.0,-0.00045619913726113737
2304.0,0.00020263031183276325
2560.0,-0.0007589104352518916
2816.0,4.771444946527481e-05
3072.0,0.00032741398899815977
3328.0,-0.0002588615461718291
3584.0,0.00020396291802171618
3840.0,-0.0008527213940396905
4096.0,-0.0011766678653657436
4608.0,-0.00021757320791948587
5120.0,8.12834405223839e-05
5632.0,-4.708308188128285e-05
6144.0,-0.0006935732089914382
6656.0,0.0009298885124735534
7168.0,-0.00010428696259623393
7680.0,0.000906981120351702
8192.0,0.0008054431527853012
end
