version,3.0
numOfCh,1
type,point
parent_name,19e3e_1dot0-1dot0
ch_type,1_1
kcount,1
numberNandB,1
brightnessNandB,1
carpet pos,0
pc,0
Time (ms),CH1 Auto-Correlation
1.0,0.026642465963959694
2.0,0.024445047602057457
3.0,0.022519545629620552
4.0,0.020806191489100456
5.0,0.019279567524790764
6.0,0.017982851713895798
7.0,0.01683059334754944
8.0,0.015755806118249893
9.0,0.014818101190030575
10.0,0.01399949099868536
11.0,0.013237306848168373
12.0,0.01251758262515068
13.0,0.011850307695567608
14.0,0.011218860745429993
15.0,0.010606253519654274
16.0,0.010093056596815586
18.0,0.009265798144042492
20.0,0.00851061288267374
22.0,0.0078059094958007336
24.0,0.007179310079663992
26.0,0.006662013940513134
28.0,0.006305045913904905
30.0,0.0059636058285832405
32.0,0.005598398856818676
36.0,0.00509612588211894
40.0,0.004759608302265406
44.0,0.00431212130934
48.0,0.003901397343724966
52.0,0.003546091029420495
56.0,0.0032347070518881083
60.0,0.0031059440225362778
64.0,0.003100563306361437
72.0,0.0029001471120864153
80.0,0.002210131613537669
88.0,0.0018611883278936148
96.0,0.0013543474487960339
104.0,0.0012175283627584577
112.0,0.0014796449104323983
120.0,0.0016261499840766191
128.0,0.0014277891023084521
144.0,0.0017200089059770107
160.0,0.001226148335263133
176.0,0.0010635931976139545
192.0,0.00168492435477674
208.0,0.002145153935998678
224.0,0.002281301887705922
240.0,0.002143014222383499
256.0,0.0014459388330578804
288.0,0.00144520855974406
320.0,0.0001998612133320421
352.0,4.008371979580261e-05
384.0,8.430511661572382e-05
416.0,0.00010680001287255436
448.0,0.00046890671364963055
480.0,9.656378097133711e-05
512.0,-0.0004117438802495599
576.0,-0.00046349235344678164
640.0,-0.0006573445280082524
704.0,0.00037394289392977953
768.0,0.000541933171916753
832.0,-0.0001472124276915565
896.0,-0.00011827483103843406
960.0,0.0003150741395074874
1024.0,0.00022628501756116748
1152.0,-0.00034234116901643574
1280.0,-0.0001565120037412271
1408.0,0.0002780865179374814
1536.0,0.0010014419676735997
1664.0,0.00010224935249425471
1792.0,-9.738302469486371e-05
1920.0,-0.0005185415502637625
2048.0,-0.0001551988098071888
2304.0,0.001051439205184579
2560.0,0.0014904640847817063
2816.0,0.0016804566839709878
3072.0,0.0012371159391477704
3328.0,-0.0006980967009440064
3584.0,-0.001026790589094162
3840.0,-0.0012857362162321806
4096.0,-0.000846348237246275
4608.0,-1.0066634786198847e-05
5120.0,0.0005911802873015404
5632.0,8.882837573764846e-05
6144.0,-0.00038121582474559546
6656.0,-0.0009330501779913902
7168.0,-0.0004493278102017939
7680.0,-0.0001306354970438406
8192.0,-0.00020540025434456766
end
