version,3.0
numOfCh,1
type,point
parent_name,19e3e_1dot0-1dot0
ch_type,1_1
kcount,1
numberNandB,1
brightnessNandB,1
carpet pos,0
pc,0
Time (ms),CH1 Auto-Correlation
1.0,0.026549359783530235
2.0,0.024356642737984657
3.0,0.02251751907169819
4.0,0.020979538559913635
5.0,0.01961117796599865
6.0,0.01842649094760418
7.0,0.017366234213113785
8.0,0.016396621242165565
9.0,0.015574850142002106
10.0,0.014711803756654263
11.0,0.01392720453441143
12.0,0.013215064071118832
13.0,0.012561367824673653
14.0,0.012001888826489449
15.0,0.011506558395922184
16.0,0.010960313491523266
18.0,0.009958908893167973
20.0,0.009092902764678001
22.0,0.00843696016818285
24.0,0.007757728453725576
26.0,0.007093277294188738
28.0,0.006580677814781666
30.0,0.0062178634107112885
32.0,0.00593099370598793
36.0,0.005314170382916927
40.0,0.00463752169162035
44.0,0.00413626991212368
48.0,0.003807943547144532
52.0,0.0032971063628792763
56.0,0.0029450170695781708
60.0,0.002618405967950821
64.0,0.002220079069957137
72.0,0.0017381933284923434
80.0,0.001363452523946762
88.0,0.001167444745078683
96.0,0.0014434597687795758
104.0,0.002164907054975629
112.0,0.0019944068044424057
120.0,0.0018408166943117976
128.0,0.0014369889395311475
144.0,0.0012691076844930649
160.0,0.0007023472571745515
176.0,0.0005419515073299408
192.0,0.0010293053928762674
208.0,0.0010553330648690462
224.0,-4.7582423576386645e-05
240.0,-0.0006127369706518948
256.0,-0.0013146954588592052
288.0,-0.0015772664919495583
320.0,-0.0008674024720676243
352.0,0.00010953516175504774
384.0,-0.0006733787013217807
416.0,-0.0012857652036473155
448.0,-0.0012670018477365375
480.0,-0.00037426434573717415
512.0,-0.0008208841318264604
576.0,-0.0004960715305060148
640.0,0.0009324129787273705
704.0,0.00024772254982963204
768.0,0.00019510768470354378
832.0,0.0004168539308011532
896.0,-0.00011643872130662203
960.0,-0.0011621020967140794
1024.0,0.000951628026086837
1152.0,-0.0005975239910185337
1280.0,6.6203429014422e-05
1408.0,0.0005803246749565005
1536.0,-0.0001594057830516249
1664.0,0.0002861226093955338
1792.0,0.0008554311352781951
1920.0,-0.0001669894263613969
2048.0,-0.0008681697072461247
2304.0,-0.000560804212000221
2560.0,-0.0007080657524056733
2816.0,8.132108632707968e-05
3072.0,2.3267835786100477e-05
3328.0,0.0005823425017297268
3584.0,-0.0003695901541505009
3840.0,-0.0019139181822538376
4096.0,0.0008397491765208542
4608.0,-0.00022309811902232468
5120.0,-0.000302052911138162
5632.0,-0.0001020729832816869
6144.0,0.0005751107237301767
6656.0,-0.0005296308663673699
7168.0,-0.00031964617664925754
7680.0,0.0009993338026106358
8192.0,0.00022918704780749977
end
