version,3.0
numOfCh,1
type,point
parent_name,19e3e_1dot0-1dot0
ch_type,1_1
kcount,1
numberNandB,1
brightnessNandB,1
carpet pos,0
pc,0
Time (ms),CH1 Auto-Correlation
1.0,0.029736651107668877
2.0,0.0274125374853611
3.0,0.025424547493457794
4.0,0.023724736645817757
5.0,0.022268304601311684
6.0,0.02103414572775364
7.0,0.019875796511769295
8.0,0.01876066066324711
9.0,0.017731113359332085
10.0,0.01683650352060795
11.0,0.01600685715675354
12.0,0.015206766314804554
13.0,0.014528019353747368
14.0,0.013905270956456661
15.0,0.013330057263374329
16.0,0.012815521098673344
18.0,0.011928899213671684
20.0,0.011171790771186352
22.0,0.010577866807579994
24.0,0.010063158348202705
26.0,0.009557116776704788
28.0,0.009115124121308327
30.0,0.008637391030788422
32.0,0.00829754676669836
36.0,0.007972519844770432
40.0,0.007745524402707815
44.0,0.007391095161437988
48.0,0.006656517740339041
52.0,0.006003446877002716
56.0,0.0055076200515031815
60.0,0.0050096334889531136
64.0,0.004590050783008337
72.0,0.0036119965370744467
80.0,0.00257463869638741
88.0,0.0022396796848624945
96.0,0.002172627253457904
104.0,0.002292060758918524
112.0,0.002127366606146097
120.0,0.0021667461842298508
128.0,0.0018962782341986895
144.0,0.0015698735369369388
160.0,0.0017453567124903202
176.0,0.001814060378819704
192.0,0.002299768617376685
208.0,0.002235610270872712
224.0,0.0014458214864134789
240.0,0.0011850278824567795
256.0,0.0010083317756652832
288.0,0.0011893819319084287
320.0,0.0006100396276451647
352.0,-0.0004970004665665329
384.0,-0.0007678064866922796
416.0,-0.0012676336336880922
448.0,-0.0017288881354033947
480.0,-0.0011059632524847984
512.0,1.2692667041847017e-05
576.0,0.0007647454040125012
640.0,7.075189205352217e-05
704.0,-0.0012267184210941195
768.0,-0.0009564745705574751
832.0,-1.4433127944357693e-05
896.0,-0.00010796170681715012
960.0,0.00018680427456274629
1024.0,6.428844790207222e-05
1152.0,-0.0011104854056611657
1280.0,0.00015195949526969343
1408.0,3.0467232136288658e-05
1536.0,-2.9069638912915252e-05
1664.0,-0.0018911705119535327
1792.0,-0.000836579070892185
1920.0,-0.0011768715921789408
2048.0,0.0011815029429271817
2304.0,0.001838568365201354
2560.0,-0.000838206906337291
2816.0,-0.0018700873479247093
3072.0,-0.002001633634790778
3328.0,-0.0006707502761855721
3584.0,0.0002667990338522941
3840.0,-0.0014443208929151297
4096.0,-8.816552508505993e-06
4608.0,0.001640069647692144
5120.0,-0.0002280358603456989
5632.0,0.0005654024425894022
6144.0,-0.0002877447404898703
6656.0,-1.754555523802992e-05
7168.0,-0.001502617378719151
7680.0,-0.00032917718635872006
8192.0,-0.0003984322538599372
end
