version,3.0
numOfCh,1
type,point
parent_name,19e3e_1dot0-1dot0
ch_type,1_1
kcount,1
numberNandB,1
brightnessNandB,1
carpet pos,0
pc,0
Time (ms),CH1 Auto-Correlation
1.0,0.02863072231411934
2.0,0.026427198201417923
3.0,0.024535559117794037
4.0,0.022878136485815048
5.0,0.021407153457403183
6.0,0.02011551521718502
7.0,0.019025035202503204
8.0,0.018060317263007164
9.0,0.017122801393270493
10.0,0.016278868541121483
11.0,0.01555086113512516
12.0,0.014907492324709892
13.0,0.014322512783110142
14.0,0.013761280104517937
15.0,0.013209127821028233
16.0,0.012667185626924038
18.0,0.01161307841539383
20.0,0.010681572370231152
22.0,0.009946580044925213
24.0,0.009355909191071987
26.0,0.008886096067726612
28.0,0.008557107299566269
30.0,0.008304952643811703
32.0,0.008077827282249928
36.0,0.007443149574100971
40.0,0.006903775967657566
44.0,0.006403353996574879
48.0,0.005817353259772062
52.0,0.005342375487089157
56.0,0.004939618054777384
60.0,0.004507817327976227
64.0,0.004329931456595659
72.0,0.003996108192950487
80.0,0.003375233616679907
88.0,0.002675233641639352
96.0,0.002091751666739583
104.0,0.0018843543948605657
112.0,0.0017205500043928623
120.0,0.0019154278561472893
128.0,0.00141459284350276
144.0,6.188159750308841e-05
160.0,-0.00045985807082615793
176.0,-0.0002889468159992248
192.0,-0.0008054755162447691
208.0,-0.0006242153467610478
224.0,1.0678696526156273e-05
240.0,1.2932988283864688e-05
256.0,-0.0006015587132424116
288.0,0.0005009189480915666
320.0,0.0010273967636749148
352.0,0.0015690719010308385
384.0,0.0020222060848027468
416.0,0.0019182538380846381
448.0,0.0015472800005227327
480.0,0.0006947856163606048
512.0,-0.00030007821624167264
576.0,-6.525299249915406e-05
640.0,0.0006656178156845272
704.0,0.0009149346733465791
768.0,0.00034287836751900613
832.0,0.0004763747565448284
896.0,-0.0001618617243366316
960.0,-0.00019891836564056575
1024.0,-0.001767488312907517
1152.0,-0.002005304442718625
1280.0,0.0002598431601654738
1408.0,-0.00015906599583104253
1536.0,-0.0005594977992586792
1664.0,8.969251211965457e-05
1792.0,-0.00026553301722742617
1920.0,0.00033632261329330504
2048.0,0.0007855591247789562
2304.0,-6.917679274920374e-05
2560.0,0.000495551445055753
2816.0,0.0011826760601252317
3072.0,-0.0004113588947802782
3328.0,-0.00020175130339339375
3584.0,-0.0005106294411234558
3840.0,-0.0009397896938025951
4096.0,-0.0009151148260571063
4608.0,1.5702076780144125e-05
5120.0,-0.0005526607274077833
5632.0,-9.70366527326405e-05
6144.0,-2.792088343994692e-05
6656.0,-0.0009018429554998875
7168.0,-0.0018133592093363404
7680.0,-0.0010435882722958922
8192.0,0.0008770670974627137
end
