version,3.0
numOfCh,1
type,point
parent_name,19e3e_0dot08-0dot01
ch_type,1_1
kcount,1
numberNandB,1
brightnessNandB,1
carpet pos,0
pc,0
Time (ms),CH1 Auto-Correlation
1.0,0.03155527263879776
2.0,0.03127213194966316
3.0,0.030988214537501335
4.0,0.03070550598204136
5.0,0.03042362444102764
6.0,0.030143115669488907
7.0,0.02986585535109043
8.0,0.02959836646914482
9.0,0.029329396784305573
10.0,0.029061591252684593
11.0,0.02879868634045124
12.0,0.028536785393953323
13.0,0.028280604630708694
14.0,0.028030984103679657
15.0,0.027785615995526314
16.0,0.027547143399715424
18.0,0.02707543782889843
20.0,0.026607509702444077
22.0,0.0261532012373209
24.0,0.02571527101099491
26.0,0.02530626393854618
28.0,0.024919630959630013
30.0,0.024540144950151443
32.0,0.02417856827378273
36.0,0.023471975699067116
40.0,0.022774875164031982
44.0,0.022113118320703506
48.0,0.02151385322213173
52.0,0.020998135209083557
56.0,0.02056288719177246
60.0,0.020214002579450607
64.0,0.019955065101385117
72.0,0.01953188143670559
80.0,0.019103966653347015
88.0,0.018661336973309517
96.0,0.01816672645509243
104.0,0.01773722469806671
112.0,0.017348382622003555
120.0,0.016898637637495995
128.0,0.01646585762500763
144.0,0.015563980676233768
160.0,0.01477828249335289
176.0,0.013926620595157146
192.0,0.012883260846138
208.0,0.012156725861132145
224.0,0.011527204886078835
240.0,0.010968918912112713
256.0,0.010486343875527382
288.0,0.009489268064498901
320.0,0.009174630045890808
352.0,0.008927258662879467
384.0,0.008503211662173271
416.0,0.008406063541769981
448.0,0.008100461214780807
480.0,0.007327791769057512
512.0,0.0070407697930932045
576.0,0.007071851287037134
640.0,0.006856443360447884
704.0,0.00631995964795351
768.0,0.006969274487346411
832.0,0.0069802021607756615
896.0,0.006579067092388868
960.0,0.006183079909533262
1024.0,0.005184536334127188
1152.0,0.0021946050692349672
1280.0,-0.0012082173489034176
1408.0,-0.00024971720995381474
1536.0,-0.00040767621248960495
1664.0,-0.0011885404819622636
1792.0,0.000890078314114362
1920.0,0.003058320377022028
2048.0,0.0018853959627449512
2304.0,-0.003273666137829423
2560.0,-0.0021591067779809237
2816.0,-0.0014819484204053879
3072.0,-0.0009069729712791741
3328.0,-0.004971064627170563
3584.0,-0.0006345640867948532
3840.0,0.0007436176529154181
4096.0,-0.003481850028038025
4608.0,-0.00015808689931873232
5120.0,-0.0009686346747912467
5632.0,-0.0009045703336596489
6144.0,-0.0037776706740260124
6656.0,-0.0044905683025717735
7168.0,-0.00799106527119875
7680.0,-0.006731218192726374
8192.0,-0.004136719740927219
end
