version,3.0
numOfCh,1
type,point
parent_name,19e3e_0dot08-0dot01
ch_type,1_1
kcount,1
numberNandB,1
brightnessNandB,1
carpet pos,0
pc,0
Time (ms),CH1 Auto-Correlation
1.0,0.2814142405986786
2.0,0.2807355523109436
3.0,0.2800948917865753
4.0,0.27944138646125793
5.0,0.2788156270980835
6.0,0.27818843722343445
7.0,0.27756598591804504
8.0,0.2769564986228943
9.0,0.2763535976409912
10.0,0.2757633626461029
11.0,0.2751902937889099
12.0,0.27464309334754944
13.0,0.2741129398345947
14.0,0.27355843782424927
15.0,0.27303826808929443
16.0,0.2725445330142975
18.0,0.27157729864120483
20.0,0.27060920000076294
22.0,0.26968878507614136
24.0,0.2687305212020874
26.0,0.2678022086620331
28.0,0.26687052845954895
30.0,0.2659773826599121
32.0,0.2650800943374634
36.0,0.26335370540618896
40.0,0.26164188981056213
44.0,0.2598709464073181
48.0,0.2580174207687378
52.0,0.2563452124595642
56.0,0.2547089457511902
60.0,0.2530820369720459
64.0,0.2516283690929413
72.0,0.24896878004074097
80.0,0.24618037045001984
88.0,0.24348966777324677
96.0,0.2404257208108902
104.0,0.23734614253044128
112.0,0.2345106452703476
120.0,0.2317863404750824
128.0,0.2288532257080078
144.0,0.2233598679304123
160.0,0.21726591885089874
176.0,0.21110305190086365
192.0,0.20581220090389252
208.0,0.2011297345161438
224.0,0.19677641987800598
240.0,0.19260188937187195
256.0,0.1878189742565155
288.0,0.17652902007102966
320.0,0.16573302447795868
352.0,0.1548556536436081
384.0,0.14342667162418365
416.0,0.13300342857837677
448.0,0.12542837858200073
480.0,0.1169678196310997
512.0,0.10765676945447922
576.0,0.1006196141242981
640.0,0.09975607693195343
704.0,0.10028435289859772
768.0,0.09922060370445251
832.0,0.1038692444562912
896.0,0.11101718246936798
960.0,0.11551348865032196
1024.0,0.11077284812927246
1152.0,0.10491467267274857
1280.0,0.09931933134794235
1408.0,0.088448166847229
1536.0,0.08123766630887985
1664.0,0.0744292289018631
1792.0,0.05040514096617699
1920.0,0.03404318913817406
2048.0,0.019420847296714783
2304.0,-0.0159479770809412
2560.0,-0.006897836923599243
2816.0,-0.018750114366412163
3072.0,-0.050596266984939575
3328.0,-0.06663519144058228
3584.0,-0.08868050575256348
3840.0,-0.13563570380210876
4096.0,-0.16179147362709045
4608.0,-0.14151285588741302
5120.0,-0.13867062330245972
5632.0,-0.15289199352264404
6144.0,-0.0895133763551712
6656.0,-0.0023086625151336193
7168.0,-0.004081697203218937
7680.0,0.019714076071977615
8192.0,0.01748615875840187
end
