version,3.0
numOfCh,1
type,point
parent_name,19e3e_0dot08-0dot01
ch_type,1_1
kcount,1
numberNandB,1
brightnessNandB,1
carpet pos,0
pc,0
Time (ms),CH1 Auto-Correlation
1.0,0.045336753129959106
2.0,0.045058149844408035
3.0,0.04479360207915306
4.0,0.04453286901116371
5.0,0.04427238181233406
6.0,0.04401705786585808
7.0,0.043763332068920135
8.0,0.04350979998707771
9.0,0.04324626550078392
10.0,0.04298289492726326
11.0,0.042717479169368744
12.0,0.04245443642139435
13.0,0.04219053313136101
14.0,0.041921067982912064
15.0,0.04165579378604889
16.0,0.04139160364866257
18.0,0.04086628556251526
20.0,0.040353186428546906
22.0,0.0398520864546299
24.0,0.03935905918478966
26.0,0.038866523653268814
28.0,0.03838181868195534
30.0,0.03790736943483353
32.0,0.03745075687766075
36.0,0.03654627129435539
40.0,0.03563990816473961
44.0,0.03474780172109604
48.0,0.033923111855983734
52.0,0.03309987112879753
56.0,0.03228682652115822
60.0,0.03150355443358421
64.0,0.030769720673561096
72.0,0.02937714010477066
80.0,0.02809715084731579
88.0,0.026899093762040138
96.0,0.025804614648222923
104.0,0.02480403333902359
112.0,0.023776615038514137
120.0,0.02275385707616806
128.0,0.021781297400593758
144.0,0.019909944385290146
160.0,0.018009120598435402
176.0,0.01650017499923706
192.0,0.015158151276409626
208.0,0.01380594726651907
224.0,0.012508352287113667
240.0,0.01149391382932663
256.0,0.010807623155415058
288.0,0.01016201265156269
320.0,0.009330587461590767
352.0,0.009166552685201168
384.0,0.009372662752866745
416.0,0.010046375915408134
448.0,0.011093415319919586
480.0,0.011831083334982395
512.0,0.011217623949050903
576.0,0.009794213809072971
640.0,0.008233592845499516
704.0,0.0058515239506959915
768.0,0.005024792160838842
832.0,0.004589689429849386
896.0,0.003521258942782879
960.0,0.0028476594015955925
1024.0,0.0034447908401489258
1152.0,0.004324592184275389
1280.0,0.004738277290016413
1408.0,0.0033259603660553694
1536.0,0.0016561247175559402
1664.0,0.0007664248696528375
1792.0,0.0003083871561102569
1920.0,-0.00293074082583189
2048.0,-0.0055196648463606834
2304.0,-0.006718367803841829
2560.0,-0.00994847435504198
2816.0,-0.0071554891765117645
3072.0,-0.007000791374593973
3328.0,-0.009074373170733452
3584.0,-0.0086006298661232
3840.0,-0.0049767931923270226
4096.0,-0.0030455179512500763
4608.0,-0.0014826186234131455
5120.0,-0.0029515663627535105
5632.0,0.001005747588351369
6144.0,0.0037901238538324833
6656.0,0.0016497481847181916
7168.0,0.0046834638342261314
7680.0,0.01073811948299408
8192.0,0.008833423256874084
end
