version,3.0
numOfCh,1
type,point
parent_name,19e3e_0dot08-0dot01
ch_type,1_1
kcount,1
numberNandB,1
brightnessNandB,1
carpet pos,0
pc,0
Time (ms),CH1 Auto-Correlation
1.0,0.04857860505580902
2.0,0.048248860985040665
3.0,0.04792986065149307
4.0,0.04761670157313347
5.0,0.047315970063209534
6.0,0.04700794070959091
7.0,0.0467170812189579
8.0,0.04643494635820389
9.0,0.04616547375917435
10.0,0.04590093716979027
11.0,0.045636046677827835
12.0,0.04539397358894348
13.0,0.045162249356508255
14.0,0.04493177682161331
15.0,0.04470119997859001
16.0,0.04447944089770317
18.0,0.04401945322751999
20.0,0.04355392977595329
22.0,0.04311808571219444
24.0,0.04270048066973686
26.0,0.04232548549771309
28.0,0.041963912546634674
30.0,0.04160824418067932
32.0,0.04126492887735367
36.0,0.04057617112994194
40.0,0.039970315992832184
44.0,0.039422910660505295
48.0,0.03882871940732002
52.0,0.03815064579248428
56.0,0.037538930773735046
60.0,0.03698473423719406
64.0,0.03645780682563782
72.0,0.03541812300682068
80.0,0.034278277307748795
88.0,0.03326292708516121
96.0,0.03247513249516487
104.0,0.03171183168888092
112.0,0.030949614942073822
120.0,0.030207345262169838
128.0,0.02942034974694252
144.0,0.02801702171564102
160.0,0.026753077283501625
176.0,0.02582588978111744
192.0,0.024866562336683273
208.0,0.02352616935968399
224.0,0.02233404479920864
240.0,0.021617669612169266
256.0,0.021040039137005806
288.0,0.01857271045446396
320.0,0.016702530905604362
352.0,0.015375902876257896
384.0,0.014193971641361713
416.0,0.013041858561336994
448.0,0.012062453664839268
480.0,0.011080767028033733
512.0,0.01076499279588461
576.0,0.009316139854490757
640.0,0.008912703953683376
704.0,0.008775515481829643
768.0,0.008789445273578167
832.0,0.00880204513669014
896.0,0.00927069690078497
960.0,0.009325174614787102
1024.0,0.009160894900560379
1152.0,0.00853813998401165
1280.0,0.009277045726776123
1408.0,0.006538786459714174
1536.0,0.0015365589642897248
1664.0,-0.0008756496827118099
1792.0,0.0017618947895243764
1920.0,0.006013938691467047
2048.0,0.0057997750118374825
2304.0,-0.004546647891402245
2560.0,-0.007812777534127235
2816.0,0.0013384423218667507
3072.0,0.0033212765119969845
3328.0,-0.0013328548520803452
3584.0,-0.01163632795214653
3840.0,-0.011395282112061977
4096.0,-0.010771061293780804
4608.0,-0.010356827639043331
5120.0,-0.01347429770976305
5632.0,-0.02307613380253315
6144.0,-0.013100659474730492
6656.0,-0.014928963035345078
7168.0,-0.02176729589700699
7680.0,0.006687035318464041
8192.0,0.014278857968747616
end
