version,3.0
numOfCh,1
type,point
parent_name,19e3e_0dot08-0dot01
ch_type,1_1
kcount,1
numberNandB,1
brightnessNandB,1
carpet pos,0
pc,0
Time (ms),CH1 Auto-Correlation
1.0,0.03205255791544914
2.0,0.03175010532140732
3.0,0.03146502003073692
4.0,0.03118431754410267
5.0,0.03090629354119301
6.0,0.030626410618424416
7.0,0.03034380078315735
8.0,0.030061868950724602
9.0,0.02978096529841423
10.0,0.029509665444493294
11.0,0.029243258759379387
12.0,0.028978150337934494
13.0,0.02871071919798851
14.0,0.028449462726712227
15.0,0.028195032849907875
16.0,0.027945639565587044
18.0,0.0274722371250391
20.0,0.02701728418469429
22.0,0.026584051549434662
24.0,0.02616708353161812
26.0,0.025763243436813354
28.0,0.02536572888493538
30.0,0.024982353672385216
32.0,0.02462047152221203
36.0,0.023930536583065987
40.0,0.023271923884749413
44.0,0.022642113268375397
48.0,0.02203543670475483
52.0,0.02144770324230194
56.0,0.020864684134721756
60.0,0.02030348591506481
64.0,0.01979273185133934
72.0,0.018852360546588898
80.0,0.017941990867257118
88.0,0.0170582365244627
96.0,0.01618047244846821
104.0,0.015380884520709515
112.0,0.014731704257428646
120.0,0.014197234995663166
128.0,0.01368224248290062
144.0,0.012427489273250103
160.0,0.011346869170665741
176.0,0.010543638840317726
192.0,0.009644814766943455
208.0,0.008627096191048622
224.0,0.007872731424868107
240.0,0.007461001630872488
256.0,0.007285936735570431
288.0,0.006949431262910366
320.0,0.007119991350919008
352.0,0.007174629718065262
384.0,0.006895855534821749
416.0,0.007264613173902035
448.0,0.007277779746800661
480.0,0.007017027121037245
512.0,0.007306385785341263
576.0,0.006444527767598629
640.0,0.005681999959051609
704.0,0.004748391453176737
768.0,0.0036839311942458153
832.0,0.003498620353639126
896.0,0.0025258150417357683
960.0,0.001115636550821364
1024.0,0.0011012936010956764
1152.0,-0.00047212731442414224
1280.0,-0.0009511164971627295
1408.0,1.8867149265133776e-05
1536.0,0.00010519359784666449
1664.0,0.0002607929927762598
1792.0,-0.0034329253248870373
1920.0,-0.005264529958367348
2048.0,-0.0058357068337500095
2304.0,-0.004735271912068129
2560.0,-0.004686162807047367
2816.0,-0.004808097146451473
3072.0,-0.0002473483909852803
3328.0,-0.0008206777274608612
3584.0,0.0021528054494410753
3840.0,0.004326350521296263
4096.0,0.005176050588488579
4608.0,0.0018301508389413357
5120.0,0.0011084554716944695
5632.0,0.0012987041845917702
6144.0,-0.002239539287984371
6656.0,0.0003830233763437718
7168.0,0.0011556457029655576
7680.0,-0.004036053083837032
8192.0,-0.0032685252372175455
end
