version,3.0
numOfCh,1
type,point
parent_name,19e3e_0dot08-0dot01
ch_type,1_1
kcount,1
numberNandB,1
brightnessNandB,1
carpet pos,0
pc,0
Time (ms),CH1 Auto-Correlation
1.0,0.035828299820423126
2.0,0.03554513677954674
3.0,0.03527146205306053
4.0,0.035003066062927246
5.0,0.03474447876214981
6.0,0.034498460590839386
7.0,0.03425513580441475
8.0,0.03401937335729599
9.0,0.03377685323357582
10.0,0.03354208916425705
11.0,0.03331362083554268
12.0,0.03308293968439102
13.0,0.03285646438598633
14.0,0.032632675021886826
15.0,0.03240951523184776
16.0,0.03218454867601395
18.0,0.031749069690704346
20.0,0.0313471183180809
22.0,0.030967924743890762
24.0,0.03060092404484749
26.0,0.03024965710937977
28.0,0.029890943318605423
30.0,0.02955339476466179
32.0,0.029202528297901154
36.0,0.028510022908449173
40.0,0.027855215594172478
44.0,0.027263201773166656
48.0,0.026690201833844185
52.0,0.026113251224160194
56.0,0.025553740561008453
60.0,0.02501824125647545
64.0,0.024549413472414017
72.0,0.023708052933216095
80.0,0.02284427173435688
88.0,0.022064320743083954
96.0,0.0213252454996109
104.0,0.02072201669216156
112.0,0.020184505730867386
120.0,0.01969783753156662
128.0,0.019215703010559082
144.0,0.01835569366812706
160.0,0.017556922510266304
176.0,0.01666562259197235
192.0,0.015855679288506508
208.0,0.014999276958405972
224.0,0.014160824008286
240.0,0.013514863327145576
256.0,0.013087582774460316
288.0,0.011889826506376266
320.0,0.010623661801218987
352.0,0.009646950289607048
384.0,0.009416601620614529
416.0,0.0092353830114007
448.0,0.008699418045580387
480.0,0.00830101314932108
512.0,0.008309506811201572
576.0,0.008727767504751682
640.0,0.008828740566968918
704.0,0.009213510900735855
768.0,0.009416152723133564
832.0,0.00954025611281395
896.0,0.009871433489024639
960.0,0.009507167153060436
1024.0,0.007117125671356916
1152.0,0.004511374048888683
1280.0,0.0027662343345582485
1408.0,0.003632904728874564
1536.0,0.006813751067966223
1664.0,0.006985597312450409
1792.0,0.005210962612181902
1920.0,0.0033304065000265837
2048.0,0.0025546690449118614
2304.0,0.001407472649589181
2560.0,0.0010422258637845516
2816.0,-7.908951374702156e-05
3072.0,0.0016761083388701081
3328.0,-0.000600504397880286
3584.0,-0.002562745474278927
3840.0,-4.496786277741194e-05
4096.0,-0.0013317540287971497
4608.0,-0.0016622828552499413
5120.0,0.0016019034665077925
5632.0,0.0027340727392584085
6144.0,-0.0005110159981995821
6656.0,-0.0033363965339958668
7168.0,-0.002528632525354624
7680.0,-0.005285784136503935
8192.0,-0.005268848035484552
end
