version,3.0
numOfCh,1
type,point
parent_name,19e3e_0dot08-0dot01
ch_type,1_1
kcount,1
numberNandB,1
brightnessNandB,1
carpet pos,0
pc,0
Time (ms),CH1 Auto-Correlation
1.0,0.02946428582072258
2.0,0.029200268909335136
3.0,0.02893349714577198
4.0,0.028670886531472206
5.0,0.028405949473381042
6.0,0.028148921206593513
7.0,0.0278956089168787
8.0,0.027649180963635445
9.0,0.027406875044107437
10.0,0.027159709483385086
11.0,0.026917336508631706
12.0,0.026673417538404465
13.0,0.02643190324306488
14.0,0.026194684207439423
15.0,0.025952376425266266
16.0,0.025722987949848175
18.0,0.02524779550731182
20.0,0.0247813668102026
22.0,0.024329660460352898
24.0,0.02389719896018505
26.0,0.023485729470849037
28.0,0.02308923564851284
30.0,0.022716175764799118
32.0,0.02234646864235401
36.0,0.02158675342798233
40.0,0.02084548957645893
44.0,0.020132601261138916
48.0,0.01949162594974041
52.0,0.01887441612780094
56.0,0.018245581537485123
60.0,0.01761564239859581
64.0,0.017013024538755417
72.0,0.015943938866257668
80.0,0.014947962947189808
88.0,0.014093257486820221
96.0,0.013317801989614964
104.0,0.012569732964038849
112.0,0.011890591122210026
120.0,0.011261136271059513
128.0,0.010666352696716785
144.0,0.009694783948361874
160.0,0.009071482345461845
176.0,0.008672581985592842
192.0,0.008575215004384518
208.0,0.008568806573748589
224.0,0.008412386290729046
240.0,0.008429762907326221
256.0,0.008448964916169643
288.0,0.008069835603237152
320.0,0.0076329330913722515
352.0,0.006998244673013687
384.0,0.006165251601487398
416.0,0.005480775609612465
448.0,0.005512210074812174
480.0,0.006097487639635801
512.0,0.006371491122990847
576.0,0.0065302723087370396
640.0,0.007546646986156702
704.0,0.008364211767911911
768.0,0.007139114197343588
832.0,0.006538171321153641
896.0,0.005905853118747473
960.0,0.005684439558535814
1024.0,0.005549390334635973
1152.0,0.003534728894010186
1280.0,0.002120676450431347
1408.0,0.0019772020168602467
1536.0,0.0019359068246558309
1664.0,0.0018178881146013737
1792.0,0.0012089618248865008
1920.0,0.0015334569616243243
2048.0,0.0020153282675892115
2304.0,-0.00041247409535571933
2560.0,0.0017991800559684634
2816.0,0.0031821024604141712
3072.0,0.004186239093542099
3328.0,0.0037337697576731443
3584.0,0.00036629862734116614
3840.0,0.0003075897693634033
4096.0,0.002031712792813778
4608.0,-0.00015617042663507164
5120.0,-0.0018413797952234745
5632.0,-0.0007942598313093185
6144.0,-0.0027910678181797266
6656.0,-0.005352536682039499
7168.0,-0.006419248878955841
7680.0,-0.004159566480666399
8192.0,-0.004370253998786211
end
