version,3.0
numOfCh,1
type,point
parent_name,19e3e_0dot08-0dot01
ch_type,1_1
kcount,1
numberNandB,1
brightnessNandB,1
carpet pos,0
pc,0
Time (ms),CH1 Auto-Correlation
1.0,0.03356316685676575
2.0,0.03328637778759003
3.0,0.03301047906279564
4.0,0.03274029865860939
5.0,0.032475508749485016
6.0,0.03221210837364197
7.0,0.03195667639374733
8.0,0.03170769661664963
9.0,0.03146497532725334
10.0,0.03122529573738575
11.0,0.03098808415234089
12.0,0.03075558878481388
13.0,0.030532512813806534
14.0,0.03030574508011341
15.0,0.030080163851380348
16.0,0.029858293011784554
18.0,0.029395846650004387
20.0,0.028936227783560753
22.0,0.028475314378738403
24.0,0.02801678329706192
26.0,0.027575090527534485
28.0,0.027144761756062508
30.0,0.026732049882411957
32.0,0.026332849636673927
36.0,0.02562100999057293
40.0,0.024957111105322838
44.0,0.024306045845150948
48.0,0.0236816368997097
52.0,0.02309580333530903
56.0,0.022526292130351067
60.0,0.021947307512164116
64.0,0.021402975544333458
72.0,0.020355062559247017
80.0,0.01942363940179348
88.0,0.018705230206251144
96.0,0.018048720434308052
104.0,0.01755118928849697
112.0,0.01706419698894024
120.0,0.01659323461353779
128.0,0.016228675842285156
144.0,0.015616548247635365
160.0,0.01487698219716549
176.0,0.013953317888081074
192.0,0.01296454481780529
208.0,0.012181148864328861
224.0,0.011652202345430851
240.0,0.011302907951176167
256.0,0.010981078259646893
288.0,0.010921668261289597
320.0,0.010911848396062851
352.0,0.011064426973462105
384.0,0.011292019858956337
416.0,0.010970236733555794
448.0,0.011001324281096458
480.0,0.011186720803380013
512.0,0.010838691145181656
576.0,0.008831393904983997
640.0,0.008211043663322926
704.0,0.0080493725836277
768.0,0.008664115332067013
832.0,0.007882473058998585
896.0,0.007377922534942627
960.0,0.00660479161888361
1024.0,0.00586323207244277
1152.0,0.0064618238247931
1280.0,0.008308402262628078
1408.0,0.005766005255281925
1536.0,0.005031698849052191
1664.0,0.004579644184559584
1792.0,0.003086513141170144
1920.0,0.001042453688569367
2048.0,0.0020531238988041878
2304.0,0.0001518894569016993
2560.0,0.0013806172646582127
2816.0,0.0043038479052484035
3072.0,0.0031260710675269365
3328.0,-0.0005558508564718068
3584.0,-0.001209985464811325
3840.0,-0.002334670163691044
4096.0,-0.0018415116937831044
4608.0,-0.002105746418237686
5120.0,-0.0036465893499553204
5632.0,-0.003738945350050926
6144.0,-0.009293166920542717
6656.0,-0.009087520651519299
7168.0,-0.012399507686495781
7680.0,-0.007785969413816929
8192.0,-0.005312387365847826
end
