version,3.0
numOfCh,1
type,point
parent_name,19e3e_0dot08-0dot01
ch_type,1_1
kcount,1
numberNandB,1
brightnessNandB,1
carpet pos,0
pc,0
Time (ms),CH1 Auto-Correlation
1.0,0.03601834177970886
2.0,0.03570283576846123
3.0,0.03538556396961212
4.0,0.03506374731659889
5.0,0.03475430980324745
6.0,0.03444310277700424
7.0,0.03413581848144531
8.0,0.03383738547563553
9.0,0.03354507312178612
10.0,0.03324463590979576
11.0,0.03294070065021515
12.0,0.03264239430427551
13.0,0.032344572246074677
14.0,0.0320432186126709
15.0,0.03174949437379837
16.0,0.03146258741617203
18.0,0.03090670146048069
20.0,0.03037220798432827
22.0,0.029818907380104065
24.0,0.029255855828523636
26.0,0.02871587872505188
28.0,0.02820073626935482
30.0,0.027716539800167084
32.0,0.027248652651906013
36.0,0.026298165321350098
40.0,0.0254342220723629
44.0,0.0245661661028862
48.0,0.023729821667075157
52.0,0.02293722704052925
56.0,0.0222255177795887
60.0,0.021567316725850105
64.0,0.020918209105730057
72.0,0.019664231687784195
80.0,0.01855250634253025
88.0,0.017468372359871864
96.0,0.016565823927521706
104.0,0.015866681933403015
112.0,0.015197636559605598
120.0,0.014656989835202694
128.0,0.014174588955938816
144.0,0.013416137546300888
160.0,0.012951650656759739
176.0,0.012425837107002735
192.0,0.011740444228053093
208.0,0.010744409635663033
224.0,0.009572439827024937
240.0,0.008203710429370403
256.0,0.00706205889582634
288.0,0.005829809699207544
320.0,0.0047573973424732685
352.0,0.0041220709681510925
384.0,0.003528689034283161
416.0,0.003181376261636615
448.0,0.0029613585211336613
480.0,0.002922776388004422
512.0,0.0029389599803835154
576.0,0.0029372158460319042
640.0,0.00460160942748189
704.0,0.004132607951760292
768.0,0.0030993663240224123
832.0,0.004559729713946581
896.0,0.0047696661204099655
960.0,0.00452559906989336
1024.0,0.005282773170620203
1152.0,0.0027737990021705627
1280.0,-0.0008458707015961409
1408.0,-0.0031745480373501778
1536.0,-0.0018663578666746616
1664.0,0.00036060926504433155
1792.0,0.0026471237652003765
1920.0,0.0014451879542320967
2048.0,0.0009168600663542747
2304.0,0.0013977412600070238
2560.0,0.002259665634483099
2816.0,-0.0009393345098942518
3072.0,-0.0029186259489506483
3328.0,-0.005503950174897909
3584.0,-0.004556106869131327
3840.0,-0.0033513708040118217
4096.0,-0.0057298894971609116
4608.0,-0.00612432137131691
5120.0,-0.006315333768725395
5632.0,-0.001151202479377389
6144.0,-0.0008767119143158197
6656.0,0.00386342266574502
7168.0,-0.002436394337564707
7680.0,0.003318534232676029
8192.0,3.187114998581819e-05
end
