version,3.0
numOfCh,1
type,point
parent_name,19e3e_0dot08-0dot01
ch_type,1_1
kcount,1
numberNandB,1
brightnessNandB,1
carpet pos,0
pc,0
Time (ms),CH1 Auto-Correlation
1.0,0.04210692271590233
2.0,0.0418231375515461
3.0,0.04154175892472267
4.0,0.04126003384590149
5.0,0.04098282381892204
6.0,0.04071079567074776
7.0,0.040439341217279434
8.0,0.04017701372504234
9.0,0.039914101362228394
10.0,0.03965022414922714
11.0,0.03939826041460037
12.0,0.03915339335799217
13.0,0.038908883929252625
14.0,0.038666632026433945
15.0,0.038420941680669785
16.0,0.03817957639694214
18.0,0.03767376020550728
20.0,0.03717602416872978
22.0,0.0366952158510685
24.0,0.03621635586023331
26.0,0.035745684057474136
28.0,0.035293035209178925
30.0,0.034849293529987335
32.0,0.034408289939165115
36.0,0.03351844847202301
40.0,0.032689083367586136
44.0,0.03188926354050636
48.0,0.031078491359949112
52.0,0.030281497165560722
56.0,0.029510339722037315
60.0,0.028735028579831123
64.0,0.02797582373023033
72.0,0.02659514918923378
80.0,0.02544846385717392
88.0,0.024415675550699234
96.0,0.023441234603524208
104.0,0.02262023463845253
112.0,0.02202305570244789
120.0,0.021601418033242226
128.0,0.021238286048173904
144.0,0.020298032090067863
160.0,0.01941506564617157
176.0,0.018698344007134438
192.0,0.017865335568785667
208.0,0.017010556533932686
224.0,0.016217904165387154
240.0,0.015580754727125168
256.0,0.01510054524987936
288.0,0.014162037521600723
320.0,0.013331406749784946
352.0,0.012749536894261837
384.0,0.012787168845534325
416.0,0.013406511396169662
448.0,0.013890412636101246
480.0,0.01407013088464737
512.0,0.014193899929523468
576.0,0.013519552536308765
640.0,0.012059783563017845
704.0,0.010973474942147732
768.0,0.010723293758928776
832.0,0.011331535875797272
896.0,0.012238850817084312
960.0,0.011125613003969193
1024.0,0.009947347454726696
1152.0,0.008068818598985672
1280.0,0.0075203003361821175
1408.0,0.008552812039852142
1536.0,0.007564245257526636
1664.0,0.00398017093539238
1792.0,0.0042975228279829025
1920.0,0.0036230823025107384
2048.0,0.0012355924118310213
2304.0,0.0061841378919780254
2560.0,0.0029376980382949114
2816.0,0.0012351470068097115
3072.0,0.0007035663002170622
3328.0,-0.0034283252898603678
3584.0,-0.0048314835876226425
3840.0,-0.0015069663058966398
4096.0,-0.004342886619269848
4608.0,-0.008493977598845959
5120.0,-0.009259514510631561
5632.0,-0.010568708181381226
6144.0,-0.007004899904131889
6656.0,-0.005188099108636379
7168.0,-0.006275922991335392
7680.0,-0.006620383821427822
8192.0,-0.005198671016842127
end
