version,3.0
numOfCh,1
type,point
parent_name,19e3e_0dot08-0dot01
ch_type,1_1
kcount,1
numberNandB,1
brightnessNandB,1
carpet pos,0
pc,0
Time (ms),CH1 Auto-Correlation
1.0,0.02836071327328682
2.0,0.02811269834637642
3.0,0.027866952121257782
4.0,0.027626408264040947
5.0,0.027391942217946053
6.0,0.027161162346601486
7.0,0.026936180889606476
8.0,0.026721637696027756
9.0,0.026510223746299744
10.0,0.026304077357053757
11.0,0.02610383927822113
12.0,0.025903871282935143
13.0,0.025711622089147568
14.0,0.025518544018268585
15.0,0.025329122319817543
16.0,0.025141222402453423
18.0,0.024766726419329643
20.0,0.024394158273935318
22.0,0.024024885147809982
24.0,0.02367306314408779
26.0,0.023328417912125587
28.0,0.023000404238700867
30.0,0.022682849317789078
32.0,0.02236918918788433
36.0,0.021809840574860573
40.0,0.0213212501257658
44.0,0.020886683836579323
48.0,0.020462479442358017
52.0,0.020061319693922997
56.0,0.019645577296614647
60.0,0.019233161583542824
64.0,0.01884741336107254
72.0,0.018025152385234833
80.0,0.017120271921157837
88.0,0.01622689887881279
96.0,0.015439779497683048
104.0,0.014723517000675201
112.0,0.013995247893035412
120.0,0.013252772390842438
128.0,0.012483906000852585
144.0,0.01121156569570303
160.0,0.010082404129207134
176.0,0.009086846373975277
192.0,0.008225537836551666
208.0,0.007571296766400337
224.0,0.00698291277512908
240.0,0.006461062002927065
256.0,0.006043453700840473
288.0,0.004331564996391535
320.0,0.0029228832572698593
352.0,0.002415606053546071
384.0,0.0020375142339617014
416.0,0.0017781660426408052
448.0,0.0012269243597984314
480.0,0.0006041612359695137
512.0,0.0004298129351809621
576.0,0.0008246768265962601
640.0,0.002096438780426979
704.0,0.0032705022022128105
768.0,0.00362604483962059
832.0,0.004302266985177994
896.0,0.00540901068598032
960.0,0.004430001601576805
1024.0,0.00194999435916543
1152.0,-0.0025399476289749146
1280.0,-0.004485465120524168
1408.0,-0.006092883180826902
1536.0,-0.006639349739998579
1664.0,-0.005471793469041586
1792.0,-0.003437755163758993
1920.0,-0.002989360596984625
2048.0,-0.0038547797594219446
2304.0,-0.002701931167393923
2560.0,-0.000754912500269711
2816.0,0.00035769343958236277
3072.0,0.001088178949430585
3328.0,-0.0008286092197522521
3584.0,0.00020802808285225183
3840.0,1.8975088096340187e-05
4096.0,-0.00027993711410090327
4608.0,-0.0024365452118217945
5120.0,-0.001908575650304556
5632.0,0.0030109065119177103
6144.0,0.004618410486727953
6656.0,0.003088505007326603
7168.0,-0.0010576656786724925
7680.0,-0.006615271791815758
8192.0,-0.006107966415584087
end
