version,3.0
numOfCh,1
type,point
parent_name,19e3e_0dot08-0dot01
ch_type,1_1
kcount,1
numberNandB,1
brightnessNandB,1
carpet pos,0
pc,0
Time (ms),CH1 Auto-Correlation
1.0,0.03627872094511986
2.0,0.03595273569226265
3.0,0.035633720457553864
4.0,0.035330966114997864
5.0,0.03505075350403786
6.0,0.03477093204855919
7.0,0.034503914415836334
8.0,0.0342523530125618
9.0,0.03400828689336777
10.0,0.033767879009246826
11.0,0.03352491185069084
12.0,0.033283598721027374
13.0,0.03305300325155258
14.0,0.03283558785915375
15.0,0.032608114182949066
16.0,0.032402120530605316
18.0,0.03199185058474541
20.0,0.031582556664943695
22.0,0.031108397990465164
24.0,0.030618174001574516
26.0,0.030104249715805054
28.0,0.029663048684597015
30.0,0.029261533170938492
32.0,0.02887876331806183
36.0,0.028175901621580124
40.0,0.027549078688025475
44.0,0.02678757905960083
48.0,0.026053039357066154
52.0,0.025484738871455193
56.0,0.0249008946120739
60.0,0.024319417774677277
64.0,0.023708291351795197
72.0,0.022659266367554665
80.0,0.02175949513912201
88.0,0.020833268761634827
96.0,0.019971538335084915
104.0,0.01924515888094902
112.0,0.01860813796520233
120.0,0.017931560054421425
128.0,0.017223436385393143
144.0,0.015732303261756897
160.0,0.014479739591479301
176.0,0.013300098478794098
192.0,0.012111815623939037
208.0,0.011222478933632374
224.0,0.01052057184278965
240.0,0.009960854426026344
256.0,0.009442908689379692
288.0,0.008341620676219463
320.0,0.007616814691573381
352.0,0.00684251356869936
384.0,0.006257481407374144
416.0,0.006032221484929323
448.0,0.0056693837977945805
480.0,0.005274943541735411
512.0,0.005020946264266968
576.0,0.004319135565310717
640.0,0.003484173212200403
704.0,0.0009114263230003417
768.0,0.0005384359392337501
832.0,5.474173667607829e-05
896.0,-0.00012160645565018058
960.0,-0.0006687318091280758
1024.0,-0.0009320738026872277
1152.0,-0.0028223576955497265
1280.0,-0.005466198083013296
1408.0,-0.004608348943293095
1536.0,-0.003719458356499672
1664.0,-0.003811261849477887
1792.0,-0.006048503797501326
1920.0,-0.002330839866772294
2048.0,-0.001666335272602737
2304.0,0.0009576072916388512
2560.0,0.003955775871872902
2816.0,0.006462172605097294
3072.0,0.0058850510977208614
3328.0,0.003194217337295413
3584.0,0.0026306023355573416
3840.0,0.002293983241543174
4096.0,0.0029748554807156324
4608.0,-0.005498133599758148
5120.0,-0.0122297378256917
5632.0,-0.009435310959815979
6144.0,-0.0011756981257349253
6656.0,0.006378942634910345
7168.0,0.005124470219016075
7680.0,-0.010002962313592434
8192.0,-0.009732531383633614
end
