version,3.0
numOfCh,1
type,point
parent_name,19e3e_0dot08-0dot01
ch_type,1_1
kcount,1
numberNandB,1
brightnessNandB,1
carpet pos,0
pc,0
Time (ms),CH1 Auto-Correlation
1.0,0.053870923817157745
2.0,0.053520943969488144
3.0,0.053175248205661774
4.0,0.052848272025585175
5.0,0.0525236576795578
6.0,0.0522179901599884
7.0,0.05192062631249428
8.0,0.05161678418517113
9.0,0.05130710452795029
10.0,0.05099767819046974
11.0,0.0507095567882061
12.0,0.050431638956069946
13.0,0.05015622451901436
14.0,0.049875110387802124
15.0,0.04960078001022339
16.0,0.04932307079434395
18.0,0.048800989985466
20.0,0.048321306705474854
22.0,0.04784197360277176
24.0,0.04736250638961792
26.0,0.04687771201133728
28.0,0.046367205679416656
30.0,0.04586181417107582
32.0,0.04536306485533714
36.0,0.044312212616205215
40.0,0.043307892978191376
44.0,0.04240185022354126
48.0,0.04158226028084755
52.0,0.040781229734420776
56.0,0.03997119888663292
60.0,0.03919615596532822
64.0,0.0384509451687336
72.0,0.03715042024850845
80.0,0.03609519824385643
88.0,0.03500501438975334
96.0,0.03393824025988579
104.0,0.03303355351090431
112.0,0.03241414204239845
120.0,0.031677838414907455
128.0,0.03108670748770237
144.0,0.03033922240138054
160.0,0.029887717217206955
176.0,0.030024390667676926
192.0,0.0301140695810318
208.0,0.030149640515446663
224.0,0.030140619724988937
240.0,0.02985408902168274
256.0,0.029287749901413918
288.0,0.026562361046671867
320.0,0.02422032319009304
352.0,0.023069338873028755
384.0,0.02155863679945469
416.0,0.02032565139234066
448.0,0.018550632521510124
480.0,0.01606234908103943
512.0,0.012413067743182182
576.0,0.00705142505466938
640.0,0.0049015674740076065
704.0,0.0034271094482392073
768.0,0.001265217550098896
832.0,-0.0022684282157570124
896.0,-0.003979168366640806
960.0,-0.006397952325642109
1024.0,-0.008249484933912754
1152.0,-0.005333149340003729
1280.0,-0.008717059157788754
1408.0,-0.01075868122279644
1536.0,-0.0069498540833592415
1664.0,-0.005877599120140076
1792.0,-0.004828477744013071
1920.0,-0.0018691442674025893
2048.0,-0.00016594531189184636
2304.0,-0.0008989546913653612
2560.0,-0.005732269492000341
2816.0,-0.010714263655245304
3072.0,-0.008423596620559692
3328.0,-0.0032515879720449448
3584.0,0.006800180766731501
3840.0,0.013666625134646893
4096.0,0.017067106440663338
4608.0,0.002734866924583912
5120.0,-0.019120818004012108
5632.0,-0.016303908079862595
6144.0,-0.010693742893636227
6656.0,-0.00546501437202096
7168.0,-0.004099194426089525
7680.0,-0.0025710032787173986
8192.0,0.013753185048699379
end
