version,3.0
numOfCh,1
type,point
parent_name,19e3e_0dot08-0dot01
ch_type,1_1
kcount,1
numberNandB,1
brightnessNandB,1
carpet pos,0
pc,0
Time (ms),CH1 Auto-Correlation
1.0,0.03757205978035927
2.0,0.03729206696152687
3.0,0.037015046924352646
4.0,0.0367407388985157
5.0,0.0364665687084198
6.0,0.036190375685691833
7.0,0.0359170101583004
8.0,0.03564639762043953
9.0,0.035377636551856995
10.0,0.035107389092445374
11.0,0.034837234765291214
12.0,0.03456738591194153
13.0,0.03430139645934105
14.0,0.03403066471219063
15.0,0.03376959636807442
16.0,0.033508189022541046
18.0,0.03301365301012993
20.0,0.03251739218831062
22.0,0.03202131763100624
24.0,0.03154032677412033
26.0,0.031075915321707726
28.0,0.030642451718449593
30.0,0.03021554835140705
32.0,0.029779138043522835
36.0,0.028926299884915352
40.0,0.028134925290942192
44.0,0.02738780900835991
48.0,0.026688329875469208
52.0,0.026052435860037804
56.0,0.025434061884880066
60.0,0.024844733998179436
64.0,0.024239692836999893
72.0,0.023084796965122223
80.0,0.021980173885822296
88.0,0.020778633654117584
96.0,0.019681505858898163
104.0,0.01877254992723465
112.0,0.018089639022946358
120.0,0.017454491928219795
128.0,0.016835717484354973
144.0,0.015567895025014877
160.0,0.014425763860344887
176.0,0.013141273520886898
192.0,0.012058621272444725
208.0,0.011031736619770527
224.0,0.009779601357877254
240.0,0.008681234903633595
256.0,0.00791185349225998
288.0,0.006165558006614447
320.0,0.004331206437200308
352.0,0.0032246464397758245
384.0,0.0026056519709527493
416.0,0.0023201806470751762
448.0,0.0022296186070889235
480.0,0.001994707155972719
512.0,0.0011303145438432693
576.0,0.0014288482489064336
640.0,0.0005505261942744255
704.0,0.0005747131654061377
768.0,0.0012599137844517827
832.0,5.397657514549792e-05
896.0,0.0007305418839678168
960.0,0.002611782168969512
1024.0,0.0021475537214428186
1152.0,0.001793979899957776
1280.0,0.0027042075525969267
1408.0,-0.0014255762798711658
1536.0,-0.0038868109695613384
1664.0,-0.004729168955236673
1792.0,-0.003759876824915409
1920.0,-0.00017572042997926474
2048.0,0.003558239433914423
2304.0,-0.0013293485390022397
2560.0,-0.0006469234940595925
2816.0,0.0016146155539900064
3072.0,0.004370176233351231
3328.0,0.0029018502682447433
3584.0,0.00047381335753016174
3840.0,0.003799786791205406
4096.0,0.0033709313720464706
4608.0,0.0022121057845652103
5120.0,-0.00014309641846921295
5632.0,-0.0029586851596832275
6144.0,-0.003500460647046566
6656.0,-0.005455526988953352
7168.0,-0.004734087269753218
7680.0,-0.0005780347855761647
8192.0,0.0012754537165164948
end
