version,3.0
numOfCh,1
type,point
parent_name,19e3e_0dot08-0dot01
ch_type,1_1
kcount,1
numberNandB,1
brightnessNandB,1
carpet pos,0
pc,0
Time (ms),CH1 Auto-Correlation
1.0,0.03228818252682686
2.0,0.03198862820863724
3.0,0.03169665485620499
4.0,0.03141280636191368
5.0,0.03113551065325737
6.0,0.03086087293922901
7.0,0.03058749996125698
8.0,0.030308328568935394
9.0,0.030027663335204124
10.0,0.029752960428595543
11.0,0.029487473890185356
12.0,0.02923678047955036
13.0,0.02899138629436493
14.0,0.028757933527231216
15.0,0.02852795273065567
16.0,0.028299789875745773
18.0,0.027854591608047485
20.0,0.027416249737143517
22.0,0.026998331770300865
24.0,0.02658567950129509
26.0,0.02617129310965538
28.0,0.025781191885471344
30.0,0.025390975177288055
32.0,0.024991437792778015
36.0,0.02418622188270092
40.0,0.02342844195663929
44.0,0.022708967328071594
48.0,0.022036703303456306
52.0,0.021425416693091393
56.0,0.020892420783638954
60.0,0.020401453599333763
64.0,0.019948773086071014
72.0,0.01902587339282036
80.0,0.018171772360801697
88.0,0.017466707155108452
96.0,0.01682785339653492
104.0,0.016234934329986572
112.0,0.015610795468091965
120.0,0.01512892171740532
128.0,0.014715160243213177
144.0,0.014258977957069874
160.0,0.014117687940597534
176.0,0.013696190901100636
192.0,0.012860589660704136
208.0,0.011733194813132286
224.0,0.010398289188742638
240.0,0.009348757565021515
256.0,0.008758661337196827
288.0,0.007775889243930578
320.0,0.006636458449065685
352.0,0.006063985172659159
384.0,0.0056715249083936214
416.0,0.004824886564165354
448.0,0.004708854015916586
480.0,0.004468154162168503
512.0,0.0041275606490671635
576.0,0.0021350057795643806
640.0,0.0008518639951944351
704.0,0.0003344933793414384
768.0,-0.000799420231487602
832.0,-0.00059636210789904
896.0,-0.00023713109840173274
960.0,7.811245268385392e-06
1024.0,0.0017131654312834144
1152.0,0.0038022659718990326
1280.0,0.002538984874263406
1408.0,0.0008685995708219707
1536.0,-0.0008218001457862556
1664.0,-0.0030585015192627907
1792.0,-0.006234766915440559
1920.0,-0.0060702161863446236
2048.0,-0.0043007973581552505
2304.0,-0.0033756783232092857
2560.0,-0.0036562576424330473
2816.0,-0.004391273483633995
3072.0,-0.0034260472748428583
3328.0,0.0018871274078264832
3584.0,0.0011555392993614078
3840.0,-0.003428211435675621
4096.0,-0.0026692929677665234
4608.0,0.0021038707345724106
5120.0,0.002193195279687643
5632.0,0.0018294163746759295
6144.0,-0.005631929729133844
6656.0,-0.0034157701302319765
7168.0,-0.004614545032382011
7680.0,0.00014000211376696825
8192.0,0.002687172731384635
end
