version,3.0
numOfCh,1
type,point
parent_name,19e3e_0dot08-0dot01
ch_type,1_1
kcount,1
numberNandB,1
brightnessNandB,1
carpet pos,0
pc,0
Time (ms),CH1 Auto-Correlation
1.0,0.035879947245121
2.0,0.035534732043743134
3.0,0.03520107641816139
4.0,0.0348801389336586
5.0,0.03457199037075043
6.0,0.03426625207066536
7.0,0.03395905718207359
8.0,0.03364922106266022
9.0,0.03334604576230049
10.0,0.033058468252420425
11.0,0.03277375176548958
12.0,0.0324849896132946
13.0,0.032195400446653366
14.0,0.03190244734287262
15.0,0.0316002331674099
16.0,0.03130951523780823
18.0,0.030738692730665207
20.0,0.03019442781805992
22.0,0.029654230922460556
24.0,0.029121017083525658
26.0,0.02859342098236084
28.0,0.028067946434020996
30.0,0.027568059042096138
32.0,0.02708572708070278
36.0,0.026123501360416412
40.0,0.02523758076131344
44.0,0.02443256787955761
48.0,0.023694230243563652
52.0,0.022932253777980804
56.0,0.0221832524985075
60.0,0.021434465423226357
64.0,0.020720064640045166
72.0,0.019354822114109993
80.0,0.01795821823179722
88.0,0.01646738499403
96.0,0.014940332621335983
104.0,0.013573230244219303
112.0,0.012300760485231876
120.0,0.011189141310751438
128.0,0.010255292989313602
144.0,0.008516942150890827
160.0,0.006297326181083918
176.0,0.00446512084454298
192.0,0.0032642274163663387
208.0,0.0024472963996231556
224.0,0.002050025388598442
240.0,0.0018879326526075602
256.0,0.0015247078845277429
288.0,0.0006653167074546218
320.0,-0.0001908001722767949
352.0,-0.0012992632109671831
384.0,-0.0012686983682215214
416.0,-0.0012854109518229961
448.0,-0.0017200079746544361
480.0,-0.0013736255932599306
512.0,-0.0008155816467478871
576.0,0.0009007733315229416
640.0,0.001024824334308505
704.0,0.002390627982094884
768.0,0.0036239800974726677
832.0,0.002032865071669221
896.0,0.000935438962187618
960.0,1.3384840713115409e-05
1024.0,-0.0005197286373004317
1152.0,-0.002288114046677947
1280.0,-0.002008906565606594
1408.0,-0.004738730378448963
1536.0,-0.008226745761930943
1664.0,-0.0056793768890202045
1792.0,0.0010462694335728884
1920.0,0.0008030940080061555
2048.0,0.002220769878476858
2304.0,-0.005519278347492218
2560.0,-0.004433067515492439
2816.0,0.0018999495077878237
3072.0,0.00041518427315168083
3328.0,0.0011028108419850469
3584.0,0.0011403500102460384
3840.0,0.003570989239960909
4096.0,0.0016969111748039722
4608.0,-0.004211318213492632
5120.0,-0.0005843556136824191
5632.0,0.000399665703298524
6144.0,-0.003561429213732481
6656.0,-0.0018926296615973115
7168.0,0.0008830421138554811
7680.0,-0.00023992011847440153
8192.0,0.0024286634288728237
end
