version,3.0
numOfCh,1
type,point
parent_name,19e3e_0dot08-0dot01
ch_type,1_1
kcount,1
numberNandB,1
brightnessNandB,1
carpet pos,0
pc,0
Time (ms),CH1 Auto-Correlation
1.0,0.03950897604227066
2.0,0.03922517970204353
3.0,0.03893667086958885
4.0,0.03865428268909454
5.0,0.03837539255619049
6.0,0.03809741884469986
7.0,0.03783143311738968
8.0,0.03755992278456688
9.0,0.037299711257219315
10.0,0.03704283758997917
11.0,0.03678382188081741
12.0,0.03652321919798851
13.0,0.03628084436058998
14.0,0.03603797405958176
15.0,0.03578914329409599
16.0,0.0355486124753952
18.0,0.035086650401353836
20.0,0.0346507728099823
22.0,0.0342191644012928
24.0,0.033780477941036224
26.0,0.033339887857437134
28.0,0.03289124742150307
30.0,0.03244446590542793
32.0,0.03200722485780716
36.0,0.031178265810012817
40.0,0.03037431091070175
44.0,0.029580192640423775
48.0,0.028841404244303703
52.0,0.028161250054836273
56.0,0.027511490508913994
60.0,0.0269316453486681
64.0,0.026414796710014343
72.0,0.025445863604545593
80.0,0.024531925097107887
88.0,0.023714348673820496
96.0,0.02298910729587078
104.0,0.02233927883207798
112.0,0.021706828847527504
120.0,0.0210798978805542
128.0,0.020504180341959
144.0,0.0195942185819149
160.0,0.018567662686109543
176.0,0.01743304170668125
192.0,0.016460943967103958
208.0,0.015402574092149734
224.0,0.014511520974338055
240.0,0.013757371343672276
256.0,0.01313143689185381
288.0,0.012606187723577023
320.0,0.012116246856749058
352.0,0.0112471217289567
384.0,0.010379933752119541
416.0,0.009591059759259224
448.0,0.008572561666369438
480.0,0.007751838304102421
512.0,0.0073827230371534824
576.0,0.009202335961163044
640.0,0.010279606096446514
704.0,0.010719699785113335
768.0,0.010770938359200954
832.0,0.009527447633445263
896.0,0.009413616731762886
960.0,0.008717861957848072
1024.0,0.007803729269653559
1152.0,0.007367299869656563
1280.0,0.00795639306306839
1408.0,0.00399619759991765
1536.0,0.0033538450952619314
1664.0,0.0042939861305058
1792.0,0.0027787452563643456
1920.0,0.004316129256039858
2048.0,0.004115617834031582
2304.0,0.002455509267747402
2560.0,0.0010824099881574512
2816.0,-0.0003369363257661462
3072.0,-0.0004140102828387171
3328.0,-0.0018489968497306108
3584.0,-0.004476576577872038
3840.0,-0.005511770024895668
4096.0,-0.005437986925244331
4608.0,-0.007130752317607403
5120.0,-0.007596500683575869
5632.0,-0.0018610054394230247
6144.0,-0.0026053397450596094
6656.0,-0.0021689985878765583
7168.0,-0.0082496153190732
7680.0,-0.009933826513588428
8192.0,-0.009406805038452148
end
