version,3.0
numOfCh,1
type,point
parent_name,19e3e_0dot08-0dot01
ch_type,1_1
kcount,1
numberNandB,1
brightnessNandB,1
carpet pos,0
pc,0
Time (ms),CH1 Auto-Correlation
1.0,0.03130517527461052
2.0,0.031054889783263206
3.0,0.030800819396972656
4.0,0.030545951798558235
5.0,0.03029240295290947
6.0,0.03004154935479164
7.0,0.029790345579385757
8.0,0.02954748086631298
9.0,0.02931641787290573
10.0,0.029088061302900314
11.0,0.028867213055491447
12.0,0.02864999510347843
13.0,0.02843460440635681
14.0,0.028225494548678398
15.0,0.028024684637784958
16.0,0.027830081060528755
18.0,0.027430783957242966
20.0,0.027037855237722397
22.0,0.026648031547665596
24.0,0.026252035051584244
26.0,0.02585548907518387
28.0,0.02546003833413124
30.0,0.02507765218615532
32.0,0.02469581551849842
36.0,0.023962480947375298
40.0,0.0232864860445261
44.0,0.022654520347714424
48.0,0.022029642015695572
52.0,0.021409189328551292
56.0,0.02084268443286419
60.0,0.02031567320227623
64.0,0.019856849685311317
72.0,0.019030971452593803
80.0,0.018223226070404053
88.0,0.017473360523581505
96.0,0.01676405966281891
104.0,0.016018982976675034
112.0,0.01538740936666727
120.0,0.014828749932348728
128.0,0.014278382994234562
144.0,0.013368475250899792
160.0,0.012825570069253445
176.0,0.012767202220857143
192.0,0.012561163865029812
208.0,0.01219046302139759
224.0,0.0115648303180933
240.0,0.011227184906601906
256.0,0.010795620270073414
288.0,0.010103444568812847
320.0,0.009713779203593731
352.0,0.009305243380367756
384.0,0.00941549800336361
416.0,0.009550918824970722
448.0,0.009654288180172443
480.0,0.009038624353706837
512.0,0.008658242411911488
576.0,0.00773913087323308
640.0,0.0061730253510177135
704.0,0.005209038034081459
768.0,0.005748069379478693
832.0,0.0063058845698833466
896.0,0.007649111561477184
960.0,0.008765020407736301
1024.0,0.007908497005701065
1152.0,0.007318808697164059
1280.0,0.0048454334028065205
1408.0,0.005248861853033304
1536.0,0.006715134251862764
1664.0,0.006643964443355799
1792.0,0.0071975900791585445
1920.0,0.00666815647855401
2048.0,0.008156134746968746
2304.0,0.0062461793422698975
2560.0,0.005010256078094244
2816.0,0.002402292797341943
3072.0,0.003042952623218298
3328.0,0.003682031063362956
3584.0,0.004373674280941486
3840.0,0.0021392074413597584
4096.0,0.0010804011253640056
4608.0,0.00028595642652362585
5120.0,0.0005616078851744533
5632.0,-0.001495866454206407
6144.0,-0.003575349925085902
6656.0,-0.009610593318939209
7168.0,-0.008536621928215027
7680.0,-0.008573719300329685
8192.0,-0.01012809481471777
end
