version,3.0
numOfCh,1
type,point
parent_name,19e3e_0dot08-0dot01
ch_type,1_1
kcount,1
numberNandB,1
brightnessNandB,1
carpet pos,0
pc,0
Time (ms),CH1 Auto-Correlation
1.0,0.0317147932946682
2.0,0.031425487250089645
3.0,0.031134318560361862
4.0,0.03083706647157669
5.0,0.030543873086571693
6.0,0.030257316306233406
7.0,0.02997807413339615
8.0,0.029702426865696907
9.0,0.029432019218802452
10.0,0.029161840677261353
11.0,0.02889387682080269
12.0,0.028632961213588715
13.0,0.028370067477226257
14.0,0.028119005262851715
15.0,0.027865421026945114
16.0,0.027620697394013405
18.0,0.027119886130094528
20.0,0.02662876434624195
22.0,0.02614525705575943
24.0,0.025664089247584343
26.0,0.0251939557492733
28.0,0.02473769523203373
30.0,0.024291198700666428
32.0,0.02385580725967884
36.0,0.023024583235383034
40.0,0.02223983220756054
44.0,0.02149995043873787
48.0,0.02086590602993965
52.0,0.020299993455410004
56.0,0.019792813807725906
60.0,0.01928090676665306
64.0,0.018761521205306053
72.0,0.01771051436662674
80.0,0.01661580801010132
88.0,0.015559395775198936
96.0,0.014657133258879185
104.0,0.013918057084083557
112.0,0.013297800906002522
120.0,0.012729951180517673
128.0,0.012227850034832954
144.0,0.011161359958350658
160.0,0.009945964440703392
176.0,0.008938753046095371
192.0,0.008061391301453114
208.0,0.007655753754079342
224.0,0.0073402998968958855
240.0,0.006843912415206432
256.0,0.006351322401314974
288.0,0.005477446131408215
320.0,0.004696391988545656
352.0,0.004066374618560076
384.0,0.0034099856857210398
416.0,0.002777252346277237
448.0,0.002151232212781906
480.0,0.0015251426957547665
512.0,0.0011729736579582095
576.0,-0.0007399384048767388
640.0,-0.001532630412839353
704.0,-0.0015681975055485964
768.0,-0.0010315671097487211
832.0,-0.00045156790292821825
896.0,-0.0008365713874809444
960.0,-0.002711355220526457
1024.0,-0.00410966482013464
1152.0,-0.004213472828269005
1280.0,-0.0036623331252485514
1408.0,-0.002233652165159583
1536.0,-8.45562171889469e-05
1664.0,0.0002055113873211667
1792.0,0.0030154972337186337
1920.0,0.0016131822485476732
2048.0,0.000275605998467654
2304.0,0.0006271948223002255
2560.0,0.00134559057187289
2816.0,0.00028632121393457055
3072.0,-0.0015791163314133883
3328.0,0.0006620262865908444
3584.0,-0.0022356072440743446
3840.0,-0.004942117724567652
4096.0,-0.0038372166454792023
4608.0,-0.0005347986589185894
5120.0,0.003259219229221344
5632.0,0.002864465583115816
6144.0,-0.004271303303539753
6656.0,-0.00809995923191309
7168.0,-0.003132294164970517
7680.0,1.8120297681889497e-05
8192.0,-0.00010677441605366766
end
