version,3.0
numOfCh,1
type,point
parent_name,19e3e_0dot08-0dot01
ch_type,1_1
kcount,1
numberNandB,1
brightnessNandB,1
carpet pos,0
pc,0
Time (ms),CH1 Auto-Correlation
1.0,0.02581966295838356
2.0,0.025560706853866577
3.0,0.02530205249786377
4.0,0.025042327120900154
5.0,0.02478373982012272
6.0,0.024533215910196304
7.0,0.024280594661831856
8.0,0.024029482156038284
9.0,0.023781370371580124
10.0,0.02353697456419468
11.0,0.02329433336853981
12.0,0.023058000952005386
13.0,0.022826768457889557
14.0,0.022601567208766937
15.0,0.02238069288432598
16.0,0.022162003442645073
18.0,0.02172216773033142
20.0,0.02129599265754223
22.0,0.020881863310933113
24.0,0.020474214106798172
26.0,0.020078839734196663
28.0,0.019697239622473717
30.0,0.019328812137246132
32.0,0.01897483505308628
36.0,0.018269451335072517
40.0,0.017609352245926857
44.0,0.01700652576982975
48.0,0.0164481233805418
52.0,0.015909111127257347
56.0,0.01539130974560976
60.0,0.014894054271280766
64.0,0.014413008466362953
72.0,0.013466301374137402
80.0,0.012649886310100555
88.0,0.01179521344602108
96.0,0.010973935015499592
104.0,0.01023953314870596
112.0,0.009586636908352375
120.0,0.009146352298557758
128.0,0.008856277912855148
144.0,0.008249822072684765
160.0,0.007674120832234621
176.0,0.006968584377318621
192.0,0.006413821130990982
208.0,0.006194706074893475
224.0,0.005762491375207901
240.0,0.005224125925451517
256.0,0.004710751585662365
288.0,0.004200000315904617
320.0,0.003727356204763055
352.0,0.003441397799178958
384.0,0.0026567643508315086
416.0,0.0015345507999882102
448.0,0.0010253695072606206
480.0,0.0011897692456841469
512.0,0.001041327603161335
576.0,0.0006945772911421955
640.0,-0.001149312243796885
704.0,-0.0022806960623711348
768.0,-0.002879607956856489
832.0,-0.00275845592841506
896.0,-0.0030365486163645983
960.0,-0.0023144211154431105
1024.0,-0.00212463503703475
1152.0,-0.0016938253538683057
1280.0,-0.0012672648299485445
1408.0,0.0012562143383547664
1536.0,0.0010751588270068169
1664.0,0.0013683764263987541
1792.0,0.0007917113252915442
1920.0,0.001683744601905346
2048.0,0.00022270485351327807
2304.0,0.0013072313740849495
2560.0,0.0003765396832022816
2816.0,-0.0009015636751428246
3072.0,-0.0011079289251938462
3328.0,-0.0003428218187764287
3584.0,-0.0019404635531827807
3840.0,-0.00208748085424304
4096.0,0.0007246789755299687
4608.0,0.002245628973469138
5120.0,6.191513239173219e-05
5632.0,-0.00023930349561851472
6144.0,3.407459007576108e-05
6656.0,0.0003408977936487645
7168.0,-0.002187469508498907
7680.0,6.877013947814703e-05
8192.0,-0.002949752612039447
end
