version,3.0
numOfCh,1
type,point
parent_name,19e3e_0dot08-0dot01
ch_type,1_1
kcount,1
numberNandB,1
brightnessNandB,1
carpet pos,0
pc,0
Time (ms),CH1 Auto-Correlation
1.0,0.03157539665699005
2.0,0.03129129484295845
3.0,0.03101303055882454
4.0,0.030727971345186234
5.0,0.03044629469513893
6.0,0.030162354931235313
7.0,0.029881900176405907
8.0,0.029607707634568214
9.0,0.029330240562558174
10.0,0.02905373089015484
11.0,0.028778597712516785
12.0,0.028502672910690308
13.0,0.028238046914339066
14.0,0.02797536365687847
15.0,0.02772103250026703
16.0,0.027466926723718643
18.0,0.026974627748131752
20.0,0.02648855745792389
22.0,0.026013169437646866
24.0,0.025558333843946457
26.0,0.02509976364672184
28.0,0.024647274985909462
30.0,0.024212626740336418
32.0,0.02378479391336441
36.0,0.022977525368332863
40.0,0.022225189954042435
44.0,0.021470800042152405
48.0,0.02074437402188778
52.0,0.020080506801605225
56.0,0.019426807761192322
60.0,0.018784165382385254
64.0,0.01818561740219593
72.0,0.017046598717570305
80.0,0.01599276252090931
88.0,0.015061797574162483
96.0,0.014221184886991978
104.0,0.013499156571924686
112.0,0.012831602245569229
120.0,0.012193707749247551
128.0,0.011588230729103088
144.0,0.010679631493985653
160.0,0.010039363987743855
176.0,0.009586182422935963
192.0,0.009240548126399517
208.0,0.008925638161599636
224.0,0.00860339030623436
240.0,0.008346755057573318
256.0,0.00810394249856472
288.0,0.0070996955037117004
320.0,0.006235787644982338
352.0,0.006276585627347231
384.0,0.00570007273927331
416.0,0.00471014017239213
448.0,0.004141302313655615
480.0,0.003654375672340393
512.0,0.0033510071225464344
576.0,0.003551261033862829
640.0,0.0027651393320411444
704.0,0.0004900226485915482
768.0,-0.0006465817568823695
832.0,-0.0010718143312260509
896.0,-0.0016918783076107502
960.0,-0.0015877456171438098
1024.0,-0.0025504736695438623
1152.0,-0.0027400334365665913
1280.0,-0.004190936218947172
1408.0,-0.005478765349835157
1536.0,-0.005322132259607315
1664.0,-0.004682585131376982
1792.0,-0.003542453981935978
1920.0,-0.0027654627338051796
2048.0,-0.0008539524278603494
2304.0,0.0012120093451812863
2560.0,0.00043473392724990845
2816.0,0.0014793744776397943
3072.0,0.004551485646516085
3328.0,0.005812554154545069
3584.0,0.00831342302262783
3840.0,0.006918964441865683
4096.0,0.0031338923145085573
4608.0,-0.005125943571329117
5120.0,-0.007926255464553833
5632.0,-0.0027305043768137693
6144.0,0.0046908240765333176
6656.0,0.0037448545917868614
7168.0,0.001957619795575738
7680.0,0.00045348613639362156
8192.0,-0.004485764540731907
end
