version,3.0
numOfCh,1
type,point
parent_name,19e3e_0dot08-0dot01
ch_type,1_1
kcount,1
numberNandB,1
brightnessNandB,1
carpet pos,0
pc,0
Time (ms),CH1 Auto-Correlation
1.0,0.07250313460826874
2.0,0.07215727120637894
3.0,0.07181578129529953
4.0,0.07148388773202896
5.0,0.07115371525287628
6.0,0.07081075757741928
7.0,0.07049321383237839
8.0,0.07013366371393204
9.0,0.0697941854596138
10.0,0.06946511566638947
11.0,0.06913862377405167
12.0,0.06881659477949142
13.0,0.06848103553056717
14.0,0.06815414875745773
15.0,0.06782941520214081
16.0,0.06751823425292969
18.0,0.06690476089715958
20.0,0.06630884110927582
22.0,0.06570474803447723
24.0,0.06511904299259186
26.0,0.06451132893562317
28.0,0.06388583034276962
30.0,0.06323441118001938
32.0,0.0625256821513176
36.0,0.06110203638672829
40.0,0.05970476567745209
44.0,0.058372437953948975
48.0,0.05707243084907532
52.0,0.05571628734469414
56.0,0.05425409600138664
60.0,0.052826397120952606
64.0,0.051461298018693924
72.0,0.04910120740532875
80.0,0.04697442799806595
88.0,0.04483918100595474
96.0,0.04284460470080376
104.0,0.04088888317346573
112.0,0.039265334606170654
120.0,0.03791719302535057
128.0,0.03658408671617508
144.0,0.03438646346330643
160.0,0.0327281653881073
176.0,0.03155788034200668
192.0,0.03100457601249218
208.0,0.030925773084163666
224.0,0.030672911554574966
240.0,0.030100258067250252
256.0,0.02882610261440277
288.0,0.026160424575209618
320.0,0.0230554211884737
352.0,0.019451461732387543
384.0,0.015029054135084152
416.0,0.011036491021513939
448.0,0.007801666855812073
480.0,0.005214426666498184
512.0,0.0034004931803792715
576.0,0.00025154283503070474
640.0,-0.0026643271557986736
704.0,-0.004907915368676186
768.0,-0.0031513329595327377
832.0,-0.0011351918801665306
896.0,0.0007928513223305345
960.0,0.005848376080393791
1024.0,0.012362543493509293
1152.0,0.015955472365021706
1280.0,0.024705233052372932
1408.0,0.027055205777287483
1536.0,0.021437596529722214
1664.0,0.014148571528494358
1792.0,0.010521003045141697
1920.0,0.004427132196724415
2048.0,-0.0024088139180094004
2304.0,-0.00636187894269824
2560.0,0.0002519886184018105
2816.0,0.011601680889725685
3072.0,0.013682070188224316
3328.0,0.006570450495928526
3584.0,-0.0028483120258897543
3840.0,-0.01493318285793066
4096.0,-0.011478920467197895
4608.0,0.01012003980576992
5120.0,-0.01207548938691616
5632.0,-0.010439934208989143
6144.0,-0.007514281664043665
6656.0,-0.027115000411868095
7168.0,-0.017122842371463776
7680.0,-0.008635447360575199
8192.0,-0.028172165155410767
end
