version,3.0
numOfCh,1
type,point
parent_name,19e3e_0dot08-0dot01
ch_type,1_1
kcount,1
numberNandB,1
brightnessNandB,1
carpet pos,0
pc,0
Time (ms),CH1 Auto-Correlation
1.0,0.04227575659751892
2.0,0.04193713515996933
3.0,0.04160056635737419
4.0,0.04128439724445343
5.0,0.040966663509607315
6.0,0.04065829515457153
7.0,0.04036140814423561
8.0,0.040070705115795135
9.0,0.03980341553688049
10.0,0.039533182978630066
11.0,0.03926824405789375
12.0,0.03900161758065224
13.0,0.03873171657323837
14.0,0.03846846520900726
15.0,0.03822481259703636
16.0,0.037981752306222916
18.0,0.037443939596414566
20.0,0.03696317598223686
22.0,0.03649251163005829
24.0,0.036033131182193756
26.0,0.03560790792107582
28.0,0.03519602119922638
30.0,0.03479686751961708
32.0,0.03442725911736488
36.0,0.03372007608413696
40.0,0.03310325741767883
44.0,0.03251930698752403
48.0,0.031996291130781174
52.0,0.03152382746338844
56.0,0.03108648769557476
60.0,0.030657315626740456
64.0,0.030245259404182434
72.0,0.02930109016597271
80.0,0.028591176494956017
88.0,0.027960756793618202
96.0,0.027374040335416794
104.0,0.026844697073101997
112.0,0.02625909633934498
120.0,0.02565060928463936
128.0,0.02492339536547661
144.0,0.023464413359761238
160.0,0.022482041269540787
176.0,0.021839125081896782
192.0,0.021042238920927048
208.0,0.019850164651870728
224.0,0.018623027950525284
240.0,0.017452422529459
256.0,0.016213467344641685
288.0,0.01354683842509985
320.0,0.011462191119790077
352.0,0.01007914636284113
384.0,0.009151259437203407
416.0,0.008186189457774162
448.0,0.00722317211329937
480.0,0.005958902649581432
512.0,0.004287991207093
576.0,0.0010897914180532098
640.0,-0.0011423116084188223
704.0,-0.0008170564542524517
768.0,0.0005831708549521863
832.0,0.0014564935117959976
896.0,0.003107717027887702
960.0,0.004206336103379726
1024.0,0.004229612648487091
1152.0,0.004918261896818876
1280.0,0.00480251619592309
1408.0,0.002584551926702261
1536.0,0.0004814756102859974
1664.0,-0.0025561624206602573
1792.0,-0.006183702033013105
1920.0,-0.007572563365101814
2048.0,-0.008751044981181622
2304.0,-0.0069129932671785355
2560.0,-7.34904533601366e-05
2816.0,0.0003828733752015978
3072.0,-0.002881821012124419
3328.0,-0.00371832144446671
3584.0,-0.0015786841977387667
3840.0,0.0035500756930559874
4096.0,0.005479883868247271
4608.0,-0.004414009395986795
5120.0,0.00944009143859148
5632.0,0.0033935331739485264
6144.0,-0.006417475175112486
6656.0,0.0005131899961270392
7168.0,-0.0066790590062737465
7680.0,-0.00949119683355093
8192.0,-0.008560949005186558
end
