version,3.0
numOfCh,1
type,point
parent_name,19e3e_0dot08-0dot01
ch_type,1_1
kcount,1
numberNandB,1
brightnessNandB,1
carpet pos,0
pc,0
Time (ms),CH1 Auto-Correlation
1.0,0.04131974279880524
2.0,0.04103913903236389
3.0,0.04076436907052994
4.0,0.04049290716648102
5.0,0.04023018851876259
6.0,0.039969153702259064
7.0,0.03970542922616005
8.0,0.03944096714258194
9.0,0.03917740285396576
10.0,0.038917478173971176
11.0,0.03865847736597061
12.0,0.03840446099638939
13.0,0.03815890848636627
14.0,0.03792310878634453
15.0,0.037684958428144455
16.0,0.03744408115744591
18.0,0.03696940839290619
20.0,0.036481212824583054
22.0,0.035992782562971115
24.0,0.03550562262535095
26.0,0.03502097353339195
28.0,0.034538187086582184
30.0,0.03407059237360954
32.0,0.03362473100423813
36.0,0.03272831439971924
40.0,0.03187037259340286
44.0,0.03107542172074318
48.0,0.030331145972013474
52.0,0.029624106362462044
56.0,0.02894156612455845
60.0,0.02828943356871605
64.0,0.027684412896633148
72.0,0.026503626257181168
80.0,0.025343898683786392
88.0,0.024179784581065178
96.0,0.023150688037276268
104.0,0.02223009429872036
112.0,0.02138296142220497
120.0,0.020633181557059288
128.0,0.020055176690220833
144.0,0.019099295139312744
160.0,0.01811043545603752
176.0,0.017135106027126312
192.0,0.016332289204001427
208.0,0.015595884062349796
224.0,0.014909298159182072
240.0,0.014205322600901127
256.0,0.01351038459688425
288.0,0.012037334032356739
320.0,0.010336136445403099
352.0,0.009349653497338295
384.0,0.009143768809735775
416.0,0.009352966211736202
448.0,0.009737640619277954
480.0,0.010538504458963871
512.0,0.011148293502628803
576.0,0.009020163677632809
640.0,0.008291814476251602
704.0,0.008843153715133667
768.0,0.00860014371573925
832.0,0.006401751656085253
896.0,0.005826706066727638
960.0,0.006202626042068005
1024.0,0.006849917583167553
1152.0,0.0057836235500872135
1280.0,0.002795920940116048
1408.0,0.0008733093272894621
1536.0,-0.001004956429824233
1664.0,-0.0033758191857486963
1792.0,-0.004473651293665171
1920.0,-0.0037517172750085592
2048.0,-0.0026617299299687147
2304.0,-0.003963535651564598
2560.0,-0.006328854709863663
2816.0,-0.003118322929367423
3072.0,4.735102993436158e-05
3328.0,0.0007362485048361123
3584.0,-0.0030600870959460735
3840.0,0.0018792834598571062
4096.0,-0.0003926737990695983
4608.0,-0.009539700113236904
5120.0,-0.01036918442696333
5632.0,-0.010239738039672375
6144.0,-0.005245451349765062
6656.0,-0.0009215929894708097
7168.0,0.001340476213954389
7680.0,0.0024420826230198145
8192.0,-0.002156204544007778
end
