version,3.0
numOfCh,1
type,point
parent_name,19e3e_0dot08-0dot01
ch_type,1_1
kcount,1
numberNandB,1
brightnessNandB,1
carpet pos,0
pc,0
Time (ms),CH1 Auto-Correlation
1.0,0.03356832265853882
2.0,0.03330661356449127
3.0,0.033059261739254
4.0,0.032811395823955536
5.0,0.0325598381459713
6.0,0.03230646997690201
7.0,0.03205632418394089
8.0,0.03181827440857887
9.0,0.03158196434378624
10.0,0.031343866139650345
11.0,0.031102634966373444
12.0,0.030864764004945755
13.0,0.030627721920609474
14.0,0.030400456860661507
15.0,0.030179275199770927
16.0,0.029959559440612793
18.0,0.029540544375777245
20.0,0.029144473373889923
22.0,0.028763428330421448
24.0,0.028394481167197227
26.0,0.02806486375629902
28.0,0.027748901396989822
30.0,0.02744354121387005
32.0,0.027132948860526085
36.0,0.026523888111114502
40.0,0.025966549292206764
44.0,0.0254433024674654
48.0,0.024944709613919258
52.0,0.024450574070215225
56.0,0.023951392620801926
60.0,0.02346181683242321
64.0,0.023002255707979202
72.0,0.022199030965566635
80.0,0.021437592804431915
88.0,0.020696043968200684
96.0,0.019962264224886894
104.0,0.019153421744704247
112.0,0.01846223883330822
120.0,0.01789471134543419
128.0,0.0173280518501997
144.0,0.01630278304219246
160.0,0.015220082364976406
176.0,0.014215703122317791
192.0,0.013126562349498272
208.0,0.012238623574376106
224.0,0.01157114002853632
240.0,0.010967076756060123
256.0,0.010541727766394615
288.0,0.010224631987512112
320.0,0.009519186802208424
352.0,0.009035415016114712
384.0,0.008239727467298508
416.0,0.007365704048424959
448.0,0.00650832150131464
480.0,0.005683517549186945
512.0,0.005220573861151934
576.0,0.004070871509611607
640.0,0.0013737442204728723
704.0,-0.001428517047315836
768.0,-0.0025901373010128736
832.0,-0.003492953022941947
896.0,-0.004216364119201899
960.0,-0.005042436067014933
1024.0,-0.006018348038196564
1152.0,-0.008203387260437012
1280.0,-0.007339064963161945
1408.0,-0.003425520844757557
1536.0,-9.335569484392181e-05
1664.0,0.0014873063191771507
1792.0,0.003033130895346403
1920.0,0.0034585334360599518
2048.0,0.0020789415575563908
2304.0,-0.0028951854910701513
2560.0,-0.00488622859120369
2816.0,-0.008111918345093727
3072.0,-0.006867240648716688
3328.0,-0.004883215297013521
3584.0,-0.00057764578377828
3840.0,0.000291465810732916
4096.0,0.003317904891446233
4608.0,0.006002310663461685
5120.0,0.001324045704677701
5632.0,-0.006486954167485237
6144.0,-0.0013758139684796333
6656.0,0.0015773694030940533
7168.0,-0.007000575307756662
7680.0,-0.007690954953432083
8192.0,0.01045710314065218
end
