version,3.0
numOfCh,1
type,point
parent_name,19e3e_0dot08-0dot01
ch_type,1_1
kcount,1
numberNandB,1
brightnessNandB,1
carpet pos,0
pc,0
Time (ms),CH1 Auto-Correlation
1.0,0.10426352173089981
2.0,0.10338779538869858
3.0,0.10251729190349579
4.0,0.10165250301361084
5.0,0.10080420225858688
6.0,0.09995132684707642
7.0,0.0995119959115982
8.0,0.0990540087223053
9.0,0.0986393615603447
10.0,0.09821285307407379
11.0,0.09777416288852692
12.0,0.09733787178993225
13.0,0.09691285341978073
14.0,0.09652672708034515
15.0,0.09611625224351883
16.0,0.09570042043924332
18.0,0.09494263678789139
20.0,0.09426550567150116
22.0,0.09359736740589142
24.0,0.09293928742408752
26.0,0.09228931367397308
28.0,0.09162479639053345
30.0,0.09098410606384277
32.0,0.0903717502951622
36.0,0.08934016525745392
40.0,0.08844653517007828
44.0,0.08760719001293182
48.0,0.08675183355808258
52.0,0.08583985269069672
56.0,0.08476532995700836
60.0,0.08373827487230301
64.0,0.0829072892665863
72.0,0.08106880635023117
80.0,0.079124316573143
88.0,0.07704080641269684
96.0,0.07497256249189377
104.0,0.07352191209793091
112.0,0.07240590453147888
120.0,0.07185449451208115
128.0,0.07129890471696854
144.0,0.0700327530503273
160.0,0.06980744749307632
176.0,0.06924780458211899
192.0,0.06910944730043411
208.0,0.06861327588558197
224.0,0.06682849675416946
240.0,0.06540067493915558
256.0,0.06294935941696167
288.0,0.058873455971479416
320.0,0.054312922060489655
352.0,0.05037747696042061
384.0,0.04831669107079506
416.0,0.04685283452272415
448.0,0.045397695153951645
480.0,0.042866893112659454
512.0,0.038336046040058136
576.0,0.03269866108894348
640.0,0.028652705252170563
704.0,0.024577321484684944
768.0,0.019860098138451576
832.0,0.016602706164121628
896.0,0.014915774576365948
960.0,0.012839834205806255
1024.0,0.012098532170057297
1152.0,0.010493570007383823
1280.0,0.0016883952775970101
1408.0,-0.0020533918868750334
1536.0,-0.0036297766491770744
1664.0,-0.004316933918744326
1792.0,-0.004196781199425459
1920.0,0.0008506008889526129
2048.0,0.008751548826694489
2304.0,0.013471405953168869
2560.0,0.00298256310634315
2816.0,0.0020054655615240335
3072.0,-0.005879976321011782
3328.0,-0.010283807292580605
3584.0,-0.017911309376358986
3840.0,-0.02113337814807892
4096.0,-0.014626073651015759
4608.0,-0.006926696747541428
5120.0,-0.016231611371040344
5632.0,-0.02921752631664276
6144.0,-0.04399873688817024
6656.0,-0.021331261843442917
7168.0,0.006096580531448126
7680.0,-0.006811348721385002
8192.0,-0.04029576852917671
end
