version,3.0
numOfCh,1
type,point
parent_name,19e3e_0dot08-0dot01
ch_type,1_1
kcount,1
numberNandB,1
brightnessNandB,1
carpet pos,0
pc,0
Time (ms),CH1 Auto-Correlation
1.0,0.033567264676094055
2.0,0.0332782082259655
3.0,0.03299090638756752
4.0,0.03270327299833298
5.0,0.03243622928857803
6.0,0.032172735780477524
7.0,0.03190704807639122
8.0,0.031645383685827255
9.0,0.031396664679050446
10.0,0.031154531985521317
11.0,0.030933326110243797
12.0,0.03071579337120056
13.0,0.03049354813992977
14.0,0.030287781730294228
15.0,0.030078817158937454
16.0,0.029874581843614578
18.0,0.029466766864061356
20.0,0.02909594029188156
22.0,0.028736090287566185
24.0,0.0283716581761837
26.0,0.02800234593451023
28.0,0.027648795396089554
30.0,0.02730570361018181
32.0,0.026964999735355377
36.0,0.026324154809117317
40.0,0.025692930445075035
44.0,0.025049427524209023
48.0,0.024406418204307556
52.0,0.02379685267806053
56.0,0.02322106994688511
60.0,0.022659430280327797
64.0,0.022096240893006325
72.0,0.021054375916719437
80.0,0.020004363730549812
88.0,0.01903887279331684
96.0,0.01814746856689453
104.0,0.017236361280083656
112.0,0.016328521072864532
120.0,0.015433426946401596
128.0,0.014474685303866863
144.0,0.012994544580578804
160.0,0.01177749503403902
176.0,0.010503706522285938
192.0,0.009466227144002914
208.0,0.008488439954817295
224.0,0.007664528675377369
240.0,0.00703416857868433
256.0,0.006581077817827463
288.0,0.005531078204512596
320.0,0.00490762572735548
352.0,0.004570339806377888
384.0,0.004230045713484287
416.0,0.003298852825537324
448.0,0.002890900708734989
480.0,0.0029310041572898626
512.0,0.0026449428405612707
576.0,0.0012434705859050155
640.0,0.0010480498895049095
704.0,0.00138786097522825
768.0,0.001311340369284153
832.0,0.0010385659988969564
896.0,0.0019346203189343214
960.0,0.0019462298369035125
1024.0,0.0012369464384391904
1152.0,-0.0009745066054165363
1280.0,-0.0014053186168894172
1408.0,-0.002178400056436658
1536.0,-0.0032091017346829176
1664.0,-0.0034032445400953293
1792.0,-0.001444149063900113
1920.0,-0.0017384508391842246
2048.0,-0.002175587462261319
2304.0,0.000808221404440701
2560.0,-0.0007681790157221258
2816.0,0.0009369252948090434
3072.0,0.0005650489474646747
3328.0,-0.0014114059740677476
3584.0,0.00014859414659440517
3840.0,0.0032757711596786976
4096.0,-0.0033885312732309103
4608.0,-0.0020130514167249203
5120.0,0.0038739442825317383
5632.0,0.0014119752449914813
6144.0,-0.00027389475144445896
6656.0,-0.0025395676493644714
7168.0,-0.005275427829474211
7680.0,-0.0011000605300068855
8192.0,-0.002082154154777527
end
