version,3.0
numOfCh,1
type,point
parent_name,19e3e_0dot08-0dot01
ch_type,1_1
kcount,1
numberNandB,1
brightnessNandB,1
carpet pos,0
pc,0
Time (ms),CH1 Auto-Correlation
1.0,0.1100589781999588
2.0,0.10861052572727203
3.0,0.10713329911231995
4.0,0.10565842688083649
5.0,0.10426708310842514
6.0,0.10293187201023102
7.0,0.10152498632669449
8.0,0.10007523745298386
9.0,0.0986490249633789
10.0,0.09739062935113907
11.0,0.0960816964507103
12.0,0.09553636610507965
13.0,0.09496230632066727
14.0,0.09443174302577972
15.0,0.09392419457435608
16.0,0.09342769533395767
18.0,0.09248793125152588
20.0,0.09151037037372589
22.0,0.09070425480604172
24.0,0.08995016664266586
26.0,0.08914843946695328
28.0,0.08825181424617767
30.0,0.08722657710313797
32.0,0.08603935688734055
36.0,0.08351553231477737
40.0,0.08068876713514328
44.0,0.07794017344713211
48.0,0.07532854378223419
52.0,0.07275430858135223
56.0,0.07064371556043625
60.0,0.06895121186971664
64.0,0.06706500053405762
72.0,0.06306082755327225
80.0,0.05857276916503906
88.0,0.0546761229634285
96.0,0.05130612477660179
104.0,0.04810584709048271
112.0,0.04569244757294655
120.0,0.04403385519981384
128.0,0.04243016988039017
144.0,0.041043564677238464
160.0,0.03973021358251572
176.0,0.038260918110609055
192.0,0.03640945255756378
208.0,0.03396008908748627
224.0,0.03126344829797745
240.0,0.02934575267136097
256.0,0.027775192633271217
288.0,0.025563541799783707
320.0,0.024994879961013794
352.0,0.0263865627348423
384.0,0.027288049459457397
416.0,0.02828563004732132
448.0,0.02951759472489357
480.0,0.029155220836400986
512.0,0.02872948721051216
576.0,0.02412036806344986
640.0,0.020441114902496338
704.0,0.023379597812891006
768.0,0.021634424105286598
832.0,0.021168449893593788
896.0,0.02788408100605011
960.0,0.031116308644413948
1024.0,0.03059525415301323
1152.0,0.027283256873488426
1280.0,0.024957118555903435
1408.0,0.025993067771196365
1536.0,0.018987983465194702
1664.0,0.01579611375927925
1792.0,0.01532193273305893
1920.0,0.012601647526025772
2048.0,0.005894084926694632
2304.0,-0.01267069112509489
2560.0,0.0007631293847225606
2816.0,0.008281571790575981
3072.0,-0.0025163644459098577
3328.0,-0.018426619470119476
3584.0,-0.023179611191153526
3840.0,-0.023469289764761925
4096.0,-0.024654582142829895
4608.0,-0.028471799567341805
5120.0,-0.03776220232248306
5632.0,-0.0290568508207798
6144.0,-0.02803904563188553
6656.0,-0.02081688493490219
7168.0,-0.020083799958229065
7680.0,-0.0003729121817741543
8192.0,0.005182034336030483
end
