version,3.0
numOfCh,1
type,point
parent_name,dirty_10dot0-1dot0
ch_type,1_1
kcount,1
numberNandB,1
brightnessNandB,1
carpet pos,0
pc,0
Time (ms),CH1 Auto-Correlation
1.0,0.06842366605997086
2.0,0.059545110911130905
3.0,0.053202804177999496
4.0,0.04780155047774315
5.0,0.0436774305999279
6.0,0.04058099538087845
7.0,0.03801179677248001
8.0,0.03551197797060013
9.0,0.033460646867752075
10.0,0.03212166205048561
11.0,0.030470499768853188
12.0,0.029111763462424278
13.0,0.02815633825957775
14.0,0.02668994665145874
15.0,0.025715092197060585
16.0,0.02574237994849682
18.0,0.024723613634705544
20.0,0.02378939464688301
22.0,0.02273545414209366
24.0,0.021733535453677177
26.0,0.021024640649557114
28.0,0.02088065817952156
30.0,0.02151571772992611
32.0,0.022600701078772545
36.0,0.022350363433361053
40.0,0.020481672137975693
44.0,0.01853068917989731
48.0,0.01665569096803665
52.0,0.014474675059318542
56.0,0.012176377698779106
60.0,0.010969650000333786
64.0,0.01189393550157547
72.0,0.01141691766679287
80.0,0.012271753512322903
88.0,0.011275768280029297
96.0,0.008934034034609795
104.0,0.008074738085269928
112.0,0.00834131520241499
120.0,0.00869396235793829
128.0,0.008192800916731358
144.0,0.005649764556437731
160.0,0.004079263191670179
176.0,0.0028737294487655163
192.0,0.001726700458675623
208.0,0.0025464531499892473
224.0,0.002284325659275055
240.0,0.004876324906945229
256.0,0.005844345316290855
288.0,0.007871479727327824
320.0,0.007974221371114254
352.0,0.01065090112388134
384.0,0.009876498021185398
416.0,0.008182119578123093
448.0,0.004911137744784355
480.0,0.002920800121501088
512.0,0.002436972688883543
576.0,-0.0007240467239171267
640.0,-0.00042065393063239753
704.0,0.00011690185056068003
768.0,-0.00014034703781362623
832.0,-0.0004788630467373878
896.0,-0.0012672599405050278
960.0,-0.00212168600410223
1024.0,-0.002383750630542636
1152.0,-0.002511062193661928
1280.0,-0.0012139198370277882
1408.0,-0.0018965546041727066
1536.0,-0.0012742559192702174
1664.0,0.00039106394979171455
1792.0,0.002001597313210368
1920.0,-0.00010222975834039971
2048.0,-6.0358514019753784e-05
2304.0,-0.002625715686008334
2560.0,-0.0009844490559771657
2816.0,-0.0024684742093086243
3072.0,-0.0026634405367076397
3328.0,-0.0004587532894220203
3584.0,-0.0018920287257060409
3840.0,-0.0004764254263136536
4096.0,0.000290346157271415
4608.0,3.471830495982431e-05
5120.0,-0.0008355277823284268
5632.0,-0.0016738164704293013
6144.0,-0.0011301720514893532
6656.0,0.0009079518495127559
7168.0,0.0017221674788743258
7680.0,0.0019942272920161486
8192.0,-0.0003760682884603739
9216.0,-0.0023867031559348106
10240.0,-0.0016678519314154983
11264.0,0.0006251764134503901
12288.0,0.0009608325199224055
13312.0,0.0009747654548846185
14336.0,0.0005376635235734284
end
