version,3.0
numOfCh,1
type,point
parent_name,dirty_10dot0-1dot0
ch_type,1_1
kcount,1
numberNandB,1
brightnessNandB,1
carpet pos,0
pc,0
Time (ms),CH1 Auto-Correlation
1.0,0.221571683883667
2.0,0.2021927535533905
3.0,0.1873650699853897
4.0,0.17585894465446472
5.0,0.16394181549549103
6.0,0.15361742675304413
7.0,0.14360466599464417
8.0,0.13539820909500122
9.0,0.12828733026981354
10.0,0.12175998836755753
11.0,0.11516061425209045
12.0,0.10787855088710785
13.0,0.10386385768651962
14.0,0.09995649009943008
15.0,0.09644760191440582
16.0,0.09248248487710953
18.0,0.08465002477169037
20.0,0.07924901694059372
22.0,0.07323314249515533
24.0,0.06815991550683975
26.0,0.06384914368391037
28.0,0.06033970043063164
30.0,0.055030204355716705
32.0,0.050461385399103165
36.0,0.04574323818087578
40.0,0.03697619587182999
44.0,0.031484052538871765
48.0,0.027955124154686928
52.0,0.022622205317020416
56.0,0.01894407346844673
60.0,0.01738317869603634
64.0,0.016072189435362816
72.0,0.015029177069664001
80.0,0.014514711685478687
88.0,0.014296198263764381
96.0,0.013089579530060291
104.0,0.008918499574065208
112.0,0.009009224362671375
120.0,0.010334315709769726
128.0,0.0125676728785038
144.0,0.014201189391314983
160.0,0.014172261580824852
176.0,0.00882868655025959
192.0,0.005903251003473997
208.0,0.008196789771318436
224.0,0.01380307599902153
240.0,0.010533045046031475
256.0,0.005401708651334047
288.0,-0.0029570888727903366
320.0,-0.00569861801341176
352.0,-0.008791627362370491
384.0,0.006003587041050196
416.0,0.00015121162869036198
448.0,0.001400967943482101
480.0,-0.004951874725520611
512.0,-0.0038208342157304287
576.0,-0.0004728218773379922
640.0,-0.0014077083906158805
704.0,-0.0016524303937330842
768.0,-0.002878739032894373
832.0,-0.0017548587638884783
896.0,-0.00813417136669159
960.0,-0.010908151976764202
1024.0,-0.009911117143929005
1152.0,0.004137102048844099
1280.0,-0.0023139435797929764
1408.0,-0.0020637814886868
1536.0,-0.0020116684027016163
1664.0,-0.005830078851431608
1792.0,0.00844191387295723
1920.0,0.007774224504828453
2048.0,-0.0015588359674438834
2304.0,-0.005465420428663492
2560.0,0.0013256727252155542
2816.0,0.0025122107472270727
3072.0,-0.0005053090862929821
3328.0,0.00044187362072989345
3584.0,-0.0016305370954796672
3840.0,-0.0021271812729537487
4096.0,-0.0046703023836016655
4608.0,0.004222666844725609
5120.0,-0.004606007132679224
5632.0,-0.005994490347802639
6144.0,0.0035918359644711018
6656.0,0.006520471069961786
7168.0,-0.008581114001572132
7680.0,-8.731293928576633e-05
8192.0,-0.0029622807633131742
9216.0,0.004143788479268551
10240.0,-0.003367857076227665
11264.0,0.009083363227546215
12288.0,8.681169856572524e-05
13312.0,-0.010469527915120125
14336.0,-0.002515890169888735
end
