version,3.0
numOfCh,1
type,point
parent_name,dirty_10dot0-1dot0
ch_type,1_1
kcount,1
numberNandB,1
brightnessNandB,1
carpet pos,0
pc,0
Time (ms),CH1 Auto-Correlation
1.0,0.05790812522172928
2.0,0.05071195960044861
3.0,0.045621197670698166
4.0,0.04184220731258392
5.0,0.03905239701271057
6.0,0.0364983007311821
7.0,0.034202124923467636
8.0,0.03189301863312721
9.0,0.029728958383202553
10.0,0.028125040233135223
11.0,0.026701636612415314
12.0,0.02498289756476879
13.0,0.023577407002449036
14.0,0.022094978019595146
15.0,0.020592916756868362
16.0,0.019539102911949158
18.0,0.018528563901782036
20.0,0.017321469262242317
22.0,0.015641486272215843
24.0,0.01437480840831995
26.0,0.013268256559967995
28.0,0.01171068474650383
30.0,0.010652482509613037
32.0,0.010234312154352665
36.0,0.008472821675240993
40.0,0.0070777940563857555
44.0,0.005292920395731926
48.0,0.0031900769099593163
52.0,0.0013580737868323922
56.0,0.0006095748394727707
60.0,0.0009160345653072
64.0,0.0009445873438380659
72.0,0.0028114942833781242
80.0,0.0040277764201164246
88.0,0.003834750736132264
96.0,0.004504478070884943
104.0,0.006044586654752493
112.0,0.009092709980905056
120.0,0.010902613401412964
128.0,0.010374571196734905
144.0,0.006367979571223259
160.0,0.004497218411415815
176.0,0.004059953149408102
192.0,0.0038360056933015585
208.0,0.004051707219332457
224.0,0.0008838841458782554
240.0,-0.000745608878787607
256.0,-0.0017817092593759298
288.0,-0.0010858643800020218
320.0,-0.002192460233345628
352.0,-0.0013099221978336573
384.0,-0.0021827523596584797
416.0,-0.001529369386844337
448.0,-0.0020283986814320087
480.0,-0.0005056647933088243
512.0,-0.00028595703770406544
576.0,-0.00041018094634637237
640.0,0.000541639921721071
704.0,-0.0009394928929395974
768.0,-0.00038044352550059557
832.0,-0.0009425872121937573
896.0,-0.0007143022958189249
960.0,9.049841901287436e-05
1024.0,-0.000707894389051944
1152.0,-0.0008986406028270721
1280.0,-0.00034652039175853133
1408.0,-0.00034882439649663866
1536.0,-0.0005345017416402698
1664.0,-0.0006578563479706645
1792.0,0.0015230646822601557
1920.0,0.00226878491230309
2048.0,0.002019497100263834
2304.0,-0.00023191602667793632
2560.0,-0.0012295182095840573
2816.0,-0.0011683253105729818
3072.0,-0.0014810310676693916
3328.0,-0.000851496821269393
3584.0,0.00013209485041443259
3840.0,0.0008593422244302928
4096.0,0.000636198150459677
4608.0,-0.0006120006437413394
5120.0,-0.001127146533690393
5632.0,0.00019316004181746393
6144.0,0.0011917226947844028
6656.0,0.00021992171241436154
7168.0,-0.0006806019810028374
7680.0,-7.73374704294838e-05
8192.0,0.0003363026480656117
9216.0,0.0007339892908930779
10240.0,-0.0011681197211146355
11264.0,-0.0013835442950949073
12288.0,-0.0018436952959746122
13312.0,0.002907654270529747
14336.0,-0.0010071280412375927
end
