version,3.0
numOfCh,1
type,point
parent_name,dirty_10dot0-1dot0
ch_type,1_1
kcount,1
numberNandB,1
brightnessNandB,1
carpet pos,0
pc,0
Time (ms),CH1 Auto-Correlation
1.0,0.12876102328300476
2.0,0.11539983749389648
3.0,0.10632936656475067
4.0,0.09756168723106384
5.0,0.09028694778680801
6.0,0.0848965048789978
7.0,0.07968176156282425
8.0,0.0750284194946289
9.0,0.07266194373369217
10.0,0.07059220224618912
11.0,0.06829976290464401
12.0,0.0653572678565979
13.0,0.06228169798851013
14.0,0.059243179857730865
15.0,0.05576694384217262
16.0,0.052091289311647415
18.0,0.047086045145988464
20.0,0.042850129306316376
22.0,0.040381480008363724
24.0,0.03823433443903923
26.0,0.03551061451435089
28.0,0.03258301317691803
30.0,0.030557096004486084
32.0,0.029941614717245102
36.0,0.028450721874833107
40.0,0.023620909079909325
44.0,0.021874908357858658
48.0,0.021798960864543915
52.0,0.018881583586335182
56.0,0.017645927146077156
60.0,0.015776153653860092
64.0,0.011797506362199783
72.0,0.006255342159420252
80.0,0.004825770854949951
88.0,0.004406221676617861
96.0,0.004750919993966818
104.0,0.002582514425739646
112.0,0.0019167307764291763
120.0,0.0007902068900875747
128.0,0.00015567539958283305
144.0,0.0021990062668919563
160.0,0.002471121260896325
176.0,0.0006454697577282786
192.0,5.433563273982145e-05
208.0,0.003839575918391347
224.0,0.006880361586809158
240.0,0.002972855232656002
256.0,0.00126048328820616
288.0,-0.0005488028400577605
320.0,0.0015081241726875305
352.0,0.001615319517441094
384.0,0.0005250105168670416
416.0,0.001027756603434682
448.0,0.00011989136692136526
480.0,-0.00034111537388525903
512.0,-0.00082292256411165
576.0,-0.0026135994121432304
640.0,0.001562615972943604
704.0,0.002194199012592435
768.0,-0.0011957267997786403
832.0,-0.00028937807655893266
896.0,-0.0020498784724622965
960.0,-0.0060066175647079945
1024.0,-0.004999582190066576
1152.0,-0.0018647718243300915
1280.0,-0.0005474358913488686
1408.0,0.0020158032421022654
1536.0,0.002978769363835454
1664.0,-0.0005094609223306179
1792.0,-0.0010509826242923737
1920.0,-0.0019641630351543427
2048.0,0.0015679624630138278
2304.0,0.0036953126545995474
2560.0,0.0008787227561697364
2816.0,0.0008618665160611272
3072.0,-0.001841073390096426
3328.0,-0.0013607086148113012
3584.0,-0.001834625843912363
3840.0,-0.002859873231500387
4096.0,5.6657048844499514e-05
4608.0,-0.00035343909985385835
5120.0,-0.00034060393227264285
5632.0,0.0011849948205053806
6144.0,-0.002712653484195471
6656.0,-0.0015541301108896732
7168.0,-0.0006043050088919699
7680.0,-0.0035977016668766737
8192.0,0.000573190045543015
9216.0,-0.0016703242436051369
10240.0,-0.0036087040789425373
11264.0,-0.0015493669779971242
12288.0,0.0041302903555333614
13312.0,0.0022317918483167887
14336.0,0.004680198151618242
end
