version,3.0
numOfCh,1
type,point
parent_name,dirty_10dot0-1dot0
ch_type,1_1
kcount,1
numberNandB,1
brightnessNandB,1
carpet pos,0
pc,0
Time (ms),CH1 Auto-Correlation
1.0,0.07579514384269714
2.0,0.06724024564027786
3.0,0.06157486513257027
4.0,0.05662158876657486
5.0,0.05222591757774353
6.0,0.04804687201976776
7.0,0.0440949909389019
8.0,0.04067125916481018
9.0,0.03724154457449913
10.0,0.03427654877305031
11.0,0.031522203236818314
12.0,0.028897246345877647
13.0,0.026560362428426743
14.0,0.024576794356107712
15.0,0.023514453321695328
16.0,0.02280413545668125
18.0,0.020957889035344124
20.0,0.020194359123706818
22.0,0.019452424719929695
24.0,0.01879122294485569
26.0,0.018966257572174072
28.0,0.01962297409772873
30.0,0.020573122426867485
32.0,0.020557722076773643
36.0,0.018668560311198235
40.0,0.014605463482439518
44.0,0.009810954332351685
48.0,0.007144867442548275
52.0,0.005908031016588211
56.0,0.006716572679579258
60.0,0.007822860032320023
64.0,0.008107918314635754
72.0,0.007041760720312595
80.0,0.006882433779537678
88.0,0.008097278885543346
96.0,0.007735995575785637
104.0,0.007518906146287918
112.0,0.006902805995196104
120.0,0.00622539734467864
128.0,0.0027978280559182167
144.0,-0.0015996828442439437
160.0,-0.001357648172415793
176.0,-0.002229501260444522
192.0,-0.0010374493431299925
208.0,-0.0009258127538487315
224.0,0.0012753289192914963
240.0,-0.0006506826030090451
256.0,-0.0021724419202655554
288.0,-0.0011853048345074058
320.0,0.00028830376686528325
352.0,0.0014031237224116921
384.0,0.000376165728084743
416.0,-0.0006108048837631941
448.0,-0.0009144991054199636
480.0,-0.002521432703360915
512.0,-0.001679242355749011
576.0,-0.0030026233289390802
640.0,-0.002763766795396805
704.0,-8.74383476912044e-05
768.0,0.0026911585591733456
832.0,0.0007893616566434503
896.0,0.0022009152453392744
960.0,-0.0006717525538988411
1024.0,-0.0017581323627382517
1152.0,-0.001117507228627801
1280.0,-0.001875437912531197
1408.0,0.0007443311042152345
1536.0,0.0023112313356250525
1664.0,0.001622390584088862
1792.0,0.0005868047592230141
1920.0,-0.000624937005341053
2048.0,-0.0005372183513827622
2304.0,-0.0009358279639855027
2560.0,0.0010519216302782297
2816.0,-0.0012855434324592352
3072.0,-0.0024134309496730566
3328.0,-0.0009191554272547364
3584.0,-0.0009837597608566284
3840.0,8.568410703446716e-05
4096.0,0.0012467848137021065
4608.0,0.0008063666755333543
5120.0,-0.0013158851070329547
5632.0,-0.0006188452825881541
6144.0,0.000188086400157772
6656.0,0.0006439369753934443
7168.0,-0.001981200184673071
7680.0,-0.0011361913057044148
8192.0,0.001462534535676241
9216.0,-0.0011528113391250372
10240.0,-0.0001850653934525326
11264.0,-0.0016203303821384907
12288.0,0.0017003669636324048
13312.0,-0.0020896182395517826
14336.0,0.0032707606442272663
end
