version,3.0
numOfCh,1
type,point
parent_name,dirty_10dot0-1dot0
ch_type,1_1
kcount,1
numberNandB,1
brightnessNandB,1
carpet pos,0
pc,0
Time (ms),CH1 Auto-Correlation
1.0,0.15191203355789185
2.0,0.13498814404010773
3.0,0.12221339344978333
4.0,0.11106550693511963
5.0,0.10181868821382523
6.0,0.09352200478315353
7.0,0.08599737286567688
8.0,0.07933425903320312
9.0,0.07340434193611145
10.0,0.06787136942148209
11.0,0.06359457969665527
12.0,0.059638939797878265
13.0,0.05663711577653885
14.0,0.05444295331835747
15.0,0.0515127070248127
16.0,0.04899115860462189
18.0,0.045896682888269424
20.0,0.04106064885854721
22.0,0.03646158054471016
24.0,0.03209236264228821
26.0,0.02802598662674427
28.0,0.025634193792939186
30.0,0.024606559425592422
32.0,0.024051766842603683
36.0,0.023390619084239006
40.0,0.022817159071564674
44.0,0.021108373999595642
48.0,0.020833678543567657
52.0,0.019608665257692337
56.0,0.01944109983742237
60.0,0.019012829288840294
64.0,0.019544826820492744
72.0,0.018717097118496895
80.0,0.014669219963252544
88.0,0.011033113114535809
96.0,0.01010779570788145
104.0,0.012570173479616642
112.0,0.013785860501229763
120.0,0.013073021546006203
128.0,0.013817268423736095
144.0,0.013789932243525982
160.0,0.00869407132267952
176.0,0.008884314447641373
192.0,0.006492272485047579
208.0,0.01055132132023573
224.0,0.012874661013484001
240.0,0.0075850836001336575
256.0,0.00496504595503211
288.0,0.004399954807013273
320.0,-0.0022298244293779135
352.0,-0.0031028937082737684
384.0,-0.001482688239775598
416.0,-0.00031455408316105604
448.0,-0.0045279343612492085
480.0,-0.004023755434900522
512.0,-0.0025682151317596436
576.0,0.005289863795042038
640.0,0.009107634425163269
704.0,0.002236840780824423
768.0,0.0010333404643461108
832.0,0.0029464312829077244
896.0,0.004383123014122248
960.0,-0.0028257272206246853
1024.0,-0.0016640870599076152
1152.0,-0.00549350818619132
1280.0,-0.0015839791158214211
1408.0,-0.00014718977035954595
1536.0,-4.681939026340842e-05
1664.0,-0.006471232045441866
1792.0,-0.008982935920357704
1920.0,-0.00613999692723155
2048.0,-0.0014424279797822237
2304.0,-0.004214336164295673
2560.0,-0.0023569189943373203
2816.0,-0.004241966176778078
3072.0,-0.0023788283579051495
3328.0,-0.0004950848524458706
3584.0,-0.0018752259202301502
3840.0,-0.004257637076079845
4096.0,-0.0027772574685513973
4608.0,0.0011500297114253044
5120.0,0.0019402781035751104
5632.0,0.0070481435395777225
6144.0,0.007947788573801517
6656.0,0.0041251820512115955
7168.0,-0.007491841446608305
7680.0,-0.006408237386494875
8192.0,-0.003972082864493132
9216.0,-1.792832881619688e-05
10240.0,0.0008715879521332681
11264.0,0.0030924335587769747
12288.0,0.0006744303391315043
13312.0,-0.004304441623389721
14336.0,-0.0008353444864042103
end
