version,3.0
numOfCh,1
type,point
parent_name,dirty_10dot0-1dot0
ch_type,1_1
kcount,1
numberNandB,1
brightnessNandB,1
carpet pos,0
pc,0
Time (ms),CH1 Auto-Correlation
1.0,0.16140104830265045
2.0,0.14475975930690765
3.0,0.13251566886901855
4.0,0.12176994979381561
5.0,0.11239080131053925
6.0,0.10422489792108536
7.0,0.09807819128036499
8.0,0.09209641069173813
9.0,0.08669006079435349
10.0,0.08170980960130692
11.0,0.0757608637213707
12.0,0.07105570286512375
13.0,0.06766223162412643
14.0,0.06432424485683441
15.0,0.06153477728366852
16.0,0.05990387126803398
18.0,0.056078385561704636
20.0,0.05156400054693222
22.0,0.04697312414646149
24.0,0.04201021045446396
26.0,0.038281284272670746
28.0,0.03549175336956978
30.0,0.033255673944950104
32.0,0.03205491229891777
36.0,0.030862370505928993
40.0,0.02663213387131691
44.0,0.026352552697062492
48.0,0.028698572888970375
52.0,0.030651532113552094
56.0,0.03077533468604088
60.0,0.02779241092503071
64.0,0.0225507989525795
72.0,0.020137932151556015
80.0,0.01819388009607792
88.0,0.016191471368074417
96.0,0.013754261657595634
104.0,0.010685195215046406
112.0,0.014853447675704956
120.0,0.019315196201205254
128.0,0.02168702334165573
144.0,0.02407093159854412
160.0,0.018795408308506012
176.0,0.014896496199071407
192.0,0.01939360797405243
208.0,0.018987804651260376
224.0,0.016730906441807747
240.0,0.010394321754574776
256.0,0.007507932838052511
288.0,-0.0026343446224927902
320.0,0.0003359150141477585
352.0,0.002811965998262167
384.0,0.009162248112261295
416.0,0.008765737526118755
448.0,0.001967698335647583
480.0,0.001274622860364616
512.0,-0.0036035203374922276
576.0,-0.0027131845708936453
640.0,-0.0014893485931679606
704.0,-0.0031759885605424643
768.0,-0.0019965260289609432
832.0,-0.0010296807158738375
896.0,-0.0004430035478435457
960.0,-3.867342820740305e-05
1024.0,-0.0025294034276157618
1152.0,0.002392348600551486
1280.0,4.843615442950977e-06
1408.0,-7.249947884702124e-06
1536.0,-0.0010344224283471704
1664.0,0.00029612984508275986
1792.0,-0.003836468094959855
1920.0,-0.004432491958141327
2048.0,0.00012124938803026453
2304.0,0.003201074665412307
2560.0,0.007681280840188265
2816.0,0.005170388147234917
3072.0,-0.003857985371723771
3328.0,-0.005778572056442499
3584.0,0.0004105226253159344
3840.0,0.001719942083582282
4096.0,-0.0023258712608367205
4608.0,0.00019444037752691656
5120.0,-7.017118332441896e-05
5632.0,-0.0038339635357260704
6144.0,-0.00690642511472106
6656.0,-0.00515263294801116
7168.0,-0.0019771161023527384
7680.0,-0.0033838811796158552
8192.0,0.0012670289725065231
9216.0,-0.00434526614844799
10240.0,-0.010021014139056206
11264.0,0.007743643131107092
12288.0,0.0011288763489574194
13312.0,0.007779969368129969
14336.0,0.005408836528658867
end
