version,3.0
numOfCh,1
type,point
parent_name,dirty_10dot0-1dot0
ch_type,1_1
kcount,1
numberNandB,1
brightnessNandB,1
carpet pos,0
pc,0
Time (ms),CH1 Auto-Correlation
1.0,0.10960941761732101
2.0,0.10022848844528198
3.0,0.09287907183170319
4.0,0.08672477304935455
5.0,0.08130370080471039
6.0,0.07687153667211533
7.0,0.07248254120349884
8.0,0.06826965510845184
9.0,0.06501804292201996
10.0,0.06220041215419769
11.0,0.05893892049789429
12.0,0.05647534877061844
13.0,0.05338326096534729
14.0,0.05088495835661888
15.0,0.04844182729721069
16.0,0.04684349149465561
18.0,0.044227320700883865
20.0,0.04260721430182457
22.0,0.04141436517238617
24.0,0.039856038987636566
26.0,0.037825144827365875
28.0,0.03554430603981018
30.0,0.03348998725414276
32.0,0.031229358166456223
36.0,0.02857600525021553
40.0,0.02567903697490692
44.0,0.0233615655452013
48.0,0.022870086133480072
52.0,0.02143731899559498
56.0,0.02057473175227642
60.0,0.020861690863966942
64.0,0.020776983350515366
72.0,0.01759817637503147
80.0,0.014122736640274525
88.0,0.0115177221596241
96.0,0.007980716414749622
104.0,0.004478349816054106
112.0,0.0013319310965016484
120.0,0.00010681739513529465
128.0,0.001149635761976242
144.0,-0.000499844434671104
160.0,-0.0010593542829155922
176.0,-0.0021328043658286333
192.0,-0.0011023672996088862
208.0,-0.002508490812033415
224.0,-0.0028740016277879477
240.0,-0.004678190685808659
256.0,-0.005025574006140232
288.0,-0.004902338609099388
320.0,-0.004874275531619787
352.0,-0.00031984696397557855
384.0,-0.001816644100472331
416.0,0.0011847320711240172
448.0,0.0018849479965865612
480.0,0.00020125883747823536
512.0,0.0041356137953698635
576.0,0.008907272480428219
640.0,0.005031520035117865
704.0,-0.001929844031110406
768.0,-0.0022989660501480103
832.0,-0.0029588942416012287
896.0,-0.003443425754085183
960.0,-0.004213838372379541
1024.0,-0.0031511166598647833
1152.0,-0.002351681934669614
1280.0,-0.0023043924011290073
1408.0,-0.0029310770332813263
1536.0,0.0011408827267587185
1664.0,-0.00014090164040680975
1792.0,-0.003558029653504491
1920.0,-0.0035072772298008204
2048.0,-0.0014025619020685554
2304.0,0.003119054716080427
2560.0,-0.0010432021226733923
2816.0,-0.000994997564703226
3072.0,-0.0003682212845887989
3328.0,-0.002938114106655121
3584.0,0.0035804258659482002
3840.0,5.8788420574273914e-05
4096.0,0.00038959571975283325
4608.0,-0.0010383104672655463
5120.0,-0.001205630716867745
5632.0,-0.0008001295500434935
6144.0,-0.0010138150537386537
6656.0,0.0009214890887960792
7168.0,0.0007495522731915116
7680.0,0.00015507350326515734
8192.0,-0.00020056632638443261
9216.0,-0.001821198151446879
10240.0,-0.00038197427056729794
11264.0,0.000874185177963227
12288.0,0.0016194905620068312
13312.0,-0.00010758508142316714
14336.0,0.0007302759331651032
end
