version,3.0
numOfCh,1
type,point
parent_name,dirty_10dot0-1dot0
ch_type,1_1
kcount,1
numberNandB,1
brightnessNandB,1
carpet pos,0
pc,0
Time (ms),CH1 Auto-Correlation
1.0,0.23140446841716766
2.0,0.2140839397907257
3.0,0.2001158893108368
4.0,0.18595381081104279
5.0,0.1751966029405594
6.0,0.16504895687103271
7.0,0.15584975481033325
8.0,0.14721862971782684
9.0,0.1385665386915207
10.0,0.13064275681972504
11.0,0.12469524890184402
12.0,0.11893479526042938
13.0,0.1137911006808281
14.0,0.10969468206167221
15.0,0.1052943617105484
16.0,0.10077496618032455
18.0,0.09323088079690933
20.0,0.08705571293830872
22.0,0.0827169194817543
24.0,0.07785903662443161
26.0,0.07402613759040833
28.0,0.07112205028533936
30.0,0.06978542357683182
32.0,0.07108216732740402
36.0,0.06964114308357239
40.0,0.06411876529455185
44.0,0.0587947778403759
48.0,0.0554962195456028
52.0,0.05697883293032646
56.0,0.05908085033297539
60.0,0.0617678128182888
64.0,0.06106792390346527
72.0,0.052882175892591476
80.0,0.04563116654753685
88.0,0.04453768953680992
96.0,0.05333760753273964
104.0,0.05356218293309212
112.0,0.04879031330347061
120.0,0.04314885661005974
128.0,0.03211306035518646
144.0,0.026440730318427086
160.0,0.019494887441396713
176.0,0.017290767282247543
192.0,0.011797425337135792
208.0,0.013236799277365208
224.0,0.004368210211396217
240.0,-0.002264412585645914
256.0,-0.009165782481431961
288.0,-0.007712314836680889
320.0,-0.007110410835593939
352.0,-0.0029046288691461086
384.0,0.00201016734354198
416.0,0.0016633851919323206
448.0,-0.0015114166308194399
480.0,-0.004030150361359119
512.0,-0.005722546484321356
576.0,-0.008763391524553299
640.0,-0.011602455750107765
704.0,-0.007479395717382431
768.0,-0.010381636209785938
832.0,-0.009231170639395714
896.0,-0.0010459820041432977
960.0,0.002808949677273631
1024.0,0.015240001492202282
1152.0,0.009718627668917179
1280.0,-0.0008822867530398071
1408.0,-0.00875390786677599
1536.0,-0.007461631204932928
1664.0,-0.004682921804487705
1792.0,-0.008198101073503494
1920.0,-0.012306778691709042
2048.0,-0.008236672729253769
2304.0,-0.0017830380238592625
2560.0,-0.008900943212211132
2816.0,0.0019750806968659163
3072.0,-0.00857054628431797
3328.0,0.0014920543180778623
3584.0,-0.0028699017129838467
3840.0,-0.0024922057054936886
4096.0,-0.0010591493919491768
4608.0,-0.0004216953238938004
5120.0,0.0025865475181490183
5632.0,0.010533816181123257
6144.0,0.00274267396889627
6656.0,-0.007444664835929871
7168.0,-0.003704593051224947
7680.0,-0.007826123386621475
8192.0,-0.001986164366826415
9216.0,-0.0013677278766408563
10240.0,0.006310952827334404
11264.0,0.020577197894454002
12288.0,-0.017812153324484825
13312.0,-0.00763732148334384
14336.0,0.00987191591411829
end
