version,3.0
numOfCh,1
type,point
parent_name,dirty_10dot0-1dot0
ch_type,1_1
kcount,1
numberNandB,1
brightnessNandB,1
carpet pos,0
pc,0
Time (ms),CH1 Auto-Correlation
1.0,0.0552048496901989
2.0,0.048033181577920914
3.0,0.04345019906759262
4.0,0.03967490792274475
5.0,0.03671673312783241
6.0,0.03425808995962143
7.0,0.031791526824235916
8.0,0.02990247681736946
9.0,0.027823351323604584
10.0,0.02587890438735485
11.0,0.024032002314925194
12.0,0.022428181022405624
13.0,0.020957035943865776
14.0,0.01954478584229946
15.0,0.0183276254683733
16.0,0.017325541004538536
18.0,0.015097948722541332
20.0,0.013491776771843433
22.0,0.011893654242157936
24.0,0.01044061966240406
26.0,0.009253566153347492
28.0,0.009032826870679855
30.0,0.00813719816505909
32.0,0.0070809186436235905
36.0,0.005288618616759777
40.0,0.004433027934283018
44.0,0.004216605331748724
48.0,0.0037227629218250513
52.0,0.003419266315177083
56.0,0.0036625524517148733
60.0,0.004462983924895525
64.0,0.005185392219573259
72.0,0.0054930406622588634
80.0,0.004590967204421759
88.0,0.0036815672647207975
96.0,0.0028135254979133606
104.0,0.0025974109303206205
112.0,0.003402410075068474
120.0,0.0025508184917271137
128.0,0.0017018687212839723
144.0,0.00040599756175652146
160.0,0.0005488389288075268
176.0,0.0004885586677119136
192.0,0.0015438657719641924
208.0,7.089882274158299e-05
224.0,-0.0018767269793897867
240.0,-0.002190980827435851
256.0,-0.0018316591158509254
288.0,-0.0012010544305667281
320.0,-0.0007667539175599813
352.0,0.0007140481611713767
384.0,-0.0007612844929099083
416.0,0.002144923433661461
448.0,0.003641292452812195
480.0,0.0012894435785710812
512.0,-0.00032661366276443005
576.0,-0.001032582251355052
640.0,9.112384759646375e-06
704.0,-0.00011182688467670232
768.0,0.0011553926160559058
832.0,0.0021204492077231407
896.0,0.002630913397297263
960.0,0.0009041348821483552
1024.0,0.0005864551640115678
1152.0,0.0015934769762679935
1280.0,-0.0003142433415632695
1408.0,-8.053900819504634e-05
1536.0,-0.0003105669456999749
1664.0,-0.0007241602288559079
1792.0,0.00047777759027667344
1920.0,0.003436872037127614
2048.0,0.0027478935662657022
2304.0,0.0012176668969914317
2560.0,0.0002686093212105334
2816.0,6.398637924576178e-05
3072.0,0.0008019282249733806
3328.0,0.0005859764642082155
3584.0,0.0001492619194323197
3840.0,-0.0003022469172719866
4096.0,0.0005917760427109897
4608.0,-0.0004321103624533862
5120.0,-6.731567555107176e-05
5632.0,-0.0009218885679729283
6144.0,-0.00047780483146198094
6656.0,-0.0010147388093173504
7168.0,-0.0007636157097294927
7680.0,-0.0007892343564890325
8192.0,-0.0004591084725689143
9216.0,-0.0013418372254818678
10240.0,-0.0007965877884998918
11264.0,-0.0017906799912452698
12288.0,-0.00022070373233873397
13312.0,-0.00116359640378505
14336.0,-0.0007782989996485412
end
