version,3.0
numOfCh,1
type,point
parent_name,dirty_10dot0-1dot0
ch_type,1_1
kcount,1
numberNandB,1
brightnessNandB,1
carpet pos,0
pc,0
Time (ms),CH1 Auto-Correlation
1.0,0.05241520702838898
2.0,0.04503113776445389
3.0,0.04044242203235626
4.0,0.037095747888088226
5.0,0.03484061360359192
6.0,0.03282200172543526
7.0,0.03086674027144909
8.0,0.029332879930734634
9.0,0.027855800464749336
10.0,0.02700137533247471
11.0,0.02643047645688057
12.0,0.025717278942465782
13.0,0.024837838485836983
14.0,0.024235457181930542
15.0,0.023405151441693306
16.0,0.022103458642959595
18.0,0.02015620283782482
20.0,0.01834956742823124
22.0,0.01686110533773899
24.0,0.01570848561823368
26.0,0.014473644085228443
28.0,0.013036775402724743
30.0,0.011950893327593803
32.0,0.011263448745012283
36.0,0.009837828576564789
40.0,0.008927379734814167
44.0,0.009132130071520805
48.0,0.00910115335136652
52.0,0.008552939631044865
56.0,0.007990170270204544
60.0,0.008715609088540077
64.0,0.009376409463584423
72.0,0.010569022968411446
80.0,0.0095332320779562
88.0,0.008716830983757973
96.0,0.0065123154781758785
104.0,0.0059727830812335014
112.0,0.003883630968630314
120.0,0.004640355706214905
128.0,0.005848042666912079
144.0,0.00817155186086893
160.0,0.008101805113255978
176.0,0.006441604811698198
192.0,0.006206701509654522
208.0,0.007483235094696283
224.0,0.008265683427453041
240.0,0.007393735460937023
256.0,0.006868042517453432
288.0,0.005673132371157408
320.0,0.006605700124055147
352.0,0.004782326985150576
384.0,0.0028107042890042067
416.0,-8.60209547681734e-05
448.0,0.0023952515330165625
480.0,-6.126012158347294e-05
512.0,-0.0009865241590887308
576.0,0.0017636575503274798
640.0,6.056396523490548e-05
704.0,-0.001654532621614635
768.0,-0.0018826794112101197
832.0,-0.0021164303179830313
896.0,-0.0020070259924978018
960.0,-0.0023312249686568975
1024.0,-0.002260246779769659
1152.0,-0.0026359991170465946
1280.0,-0.001452952274121344
1408.0,-0.0006099888705648482
1536.0,-0.0005796175682917237
1664.0,0.0005660070455633104
1792.0,-2.364483952987939e-05
1920.0,-0.0005328544066287577
2048.0,-0.0004470263374969363
2304.0,0.0006438679411076009
2560.0,-0.001612361054867506
2816.0,-0.0001351396640529856
3072.0,0.00031616076012142
3328.0,3.5933484468841925e-05
3584.0,-0.0007762868772260845
3840.0,-0.0014530201442539692
4096.0,-0.0017486218130216002
4608.0,0.002822993788868189
5120.0,-0.00015168935351539403
5632.0,-0.0016304855234920979
6144.0,-0.0012274716282263398
6656.0,0.0001691618817858398
7168.0,0.0005109113990329206
7680.0,0.004729488864541054
8192.0,0.00037487639929167926
9216.0,-0.0013981551164761186
10240.0,-0.00022876136063132435
11264.0,-0.0018143258057534695
12288.0,-0.0009805472800508142
13312.0,-0.004544287454336882
14336.0,0.0006097949808463454
end
