version,3.0
numOfCh,1
type,point
parent_name,dirty_10dot0-1dot0
ch_type,1_1
kcount,1
numberNandB,1
brightnessNandB,1
carpet pos,0
pc,0
Time (ms),CH1 Auto-Correlation
1.0,0.15698139369487762
2.0,0.14311663806438446
3.0,0.13228780031204224
4.0,0.12292999774217606
5.0,0.11350909620523453
6.0,0.1060299500823021
7.0,0.09885156899690628
8.0,0.09222119301557541
9.0,0.08710905909538269
10.0,0.08266022056341171
11.0,0.07925985008478165
12.0,0.07507572323083878
13.0,0.07136616855859756
14.0,0.06853214651346207
15.0,0.06617666035890579
16.0,0.06407586485147476
18.0,0.06118320673704147
20.0,0.058151260018348694
22.0,0.055013734847307205
24.0,0.05298279598355293
26.0,0.05062195286154747
28.0,0.04742031544446945
30.0,0.04402528330683708
32.0,0.04038968309760094
36.0,0.032824136316776276
40.0,0.02854333259165287
44.0,0.024922288954257965
48.0,0.022205084562301636
52.0,0.019813936203718185
56.0,0.016741007566452026
60.0,0.013333868235349655
64.0,0.010281713679432869
72.0,0.010414406657218933
80.0,0.014015340246260166
88.0,0.012820478528738022
96.0,0.0089575769379735
104.0,0.006243966054171324
112.0,0.004292581230401993
120.0,0.003048268146812916
128.0,-0.0024389822501689196
144.0,-0.005990281701087952
160.0,-0.004073127638548613
176.0,-0.00170405104290694
192.0,-0.003684783121570945
208.0,-0.004558079410344362
224.0,-0.004037295002490282
240.0,-0.0004879319458268583
256.0,0.0007193751516751945
288.0,0.007306726183742285
320.0,0.009700987488031387
352.0,0.01018137950450182
384.0,0.0063018882647156715
416.0,-0.002827167045325041
448.0,-0.008464658632874489
480.0,-0.007539190351963043
512.0,-0.004254504572600126
576.0,-0.00410094391554594
640.0,-0.0030757307540625334
704.0,-0.002654295414686203
768.0,-0.0011477116495370865
832.0,-0.0012847775360569358
896.0,0.0028951275162398815
960.0,0.0029786478262394667
1024.0,-0.002070466987788677
1152.0,-0.0061841849237680435
1280.0,-0.000909066351596266
1408.0,-0.0034020880702883005
1536.0,-0.0019346285844221711
1664.0,-0.0015484491595998406
1792.0,-0.005150418262928724
1920.0,-0.0021535635460168123
2048.0,-0.005635617766529322
2304.0,0.0019410895183682442
2560.0,-0.0017998568946495652
2816.0,0.0013935354072600603
3072.0,0.005281384103000164
3328.0,0.00020261753525119275
3584.0,-0.005663066171109676
3840.0,-0.000871310185175389
4096.0,0.0012714816257357597
4608.0,-0.00270993378944695
5120.0,0.00737156393006444
5632.0,-0.0008118892437778413
6144.0,-0.0020734164863824844
6656.0,-0.0033687162213027477
7168.0,-0.002899126848205924
7680.0,-0.0030950522050261497
8192.0,0.010945304296910763
9216.0,-0.001604757853783667
10240.0,-0.0014215493574738503
11264.0,-0.0005849465960636735
12288.0,-0.0006758944364264607
13312.0,0.003183032851666212
14336.0,0.0006198323098942637
end
