version,3.0
numOfCh,1
type,point
parent_name,dirty_10dot0-1dot0
ch_type,1_1
kcount,1
numberNandB,1
brightnessNandB,1
carpet pos,0
pc,0
Time (ms),CH1 Auto-Correlation
1.0,0.1909905970096588
2.0,0.17337007820606232
3.0,0.16215717792510986
4.0,0.15309028327465057
5.0,0.14616286754608154
6.0,0.1401004046201706
7.0,0.13150352239608765
8.0,0.12338876724243164
9.0,0.11773746460676193
10.0,0.11322230845689774
11.0,0.10939569771289825
12.0,0.10501018911600113
13.0,0.10032506287097931
14.0,0.09571895003318787
15.0,0.09272163361310959
16.0,0.09057265520095825
18.0,0.08566480875015259
20.0,0.08201450109481812
22.0,0.07816962152719498
24.0,0.07312098890542984
26.0,0.069026879966259
28.0,0.0660848319530487
30.0,0.06294520944356918
32.0,0.06140513718128204
36.0,0.05705352872610092
40.0,0.05071410909295082
44.0,0.04748658835887909
48.0,0.04399103298783302
52.0,0.03892527148127556
56.0,0.03886114060878754
60.0,0.04059620574116707
64.0,0.0401291623711586
72.0,0.037188880145549774
80.0,0.034792765974998474
88.0,0.033766008913517
96.0,0.034693825989961624
104.0,0.03399663046002388
112.0,0.029683873057365417
120.0,0.027405044063925743
128.0,0.02807140164077282
144.0,0.022717326879501343
160.0,0.01656579226255417
176.0,0.007158225867897272
192.0,0.005473059136420488
208.0,0.002958739409223199
224.0,0.002849028678610921
240.0,0.0038616079837083817
256.0,0.006133581977337599
288.0,0.00045831361785531044
320.0,0.0050112963654100895
352.0,0.0018068032804876566
384.0,-0.0005002220859751105
416.0,-0.0023992005735635757
448.0,-0.0005371057195588946
480.0,-0.006617647595703602
512.0,-0.008601304143667221
576.0,-0.0050121513195335865
640.0,-0.008780473843216896
704.0,-0.008592933416366577
768.0,-0.008250724524259567
832.0,-0.00426237378269434
896.0,-0.0012816673843190074
960.0,0.00646144850179553
1024.0,0.006207417696714401
1152.0,0.0013412515399977565
1280.0,0.0013901095371693373
1408.0,0.008935566060245037
1536.0,-0.0016600869130343199
1664.0,-0.005904819816350937
1792.0,-0.007911968976259232
1920.0,-0.01016179658472538
2048.0,-0.009357196278870106
2304.0,-0.001939736888743937
2560.0,-0.005327234510332346
2816.0,-0.003289570100605488
3072.0,0.0009882752783596516
3328.0,0.0038826074451208115
3584.0,-0.0024014085065573454
3840.0,-0.0005599920405074954
4096.0,-0.0010657405946403742
4608.0,0.0007666370365768671
5120.0,0.00699386652559042
5632.0,-0.0065275742672383785
6144.0,-0.007229046430438757
6656.0,0.00038887769915163517
7168.0,-0.003864952363073826
7680.0,0.0001801000180421397
8192.0,0.021771904081106186
9216.0,0.00098103703930974
10240.0,-0.0029623820446431637
11264.0,-0.005337859503924847
12288.0,-0.006163500249385834
13312.0,0.0005503750289790332
14336.0,0.00018575483409222215
end
