version,3.0
numOfCh,1
type,point
parent_name,dirty_10dot0-1dot0
ch_type,1_1
kcount,1
numberNandB,1
brightnessNandB,1
carpet pos,0
pc,0
Time (ms),CH1 Auto-Correlation
1.0,0.108481764793396
2.0,0.09601937979459763
3.0,0.08644704520702362
4.0,0.07893256098031998
5.0,0.07270358502864838
6.0,0.0672086551785469
7.0,0.0627957433462143
8.0,0.05923900008201599
9.0,0.055876780301332474
10.0,0.05275029316544533
11.0,0.05030962824821472
12.0,0.04882428050041199
13.0,0.04702150076627731
14.0,0.04619401693344116
15.0,0.0448591522872448
16.0,0.04319315776228905
18.0,0.04038199037313461
20.0,0.038750071078538895
22.0,0.03728559613227844
24.0,0.03378494083881378
26.0,0.030292490497231483
28.0,0.02728099375963211
30.0,0.025356803089380264
32.0,0.024105792865157127
36.0,0.024308158084750175
40.0,0.02396131306886673
44.0,0.024290241301059723
48.0,0.02416081167757511
52.0,0.025944476947188377
56.0,0.026846157386898994
60.0,0.0269881933927536
64.0,0.02724629081785679
72.0,0.022248342633247375
80.0,0.01688971556723118
88.0,0.011889559216797352
96.0,0.00884328968822956
104.0,0.006459284108132124
112.0,0.0061494107358157635
120.0,0.006807406432926655
128.0,0.00685148173943162
144.0,0.007788860704749823
160.0,0.007137050852179527
176.0,0.003075319342315197
192.0,0.00184590183198452
208.0,0.003378136781975627
224.0,0.0007102418458089232
240.0,-0.0025073126889765263
256.0,-0.0035562189295887947
288.0,-0.0030505324248224497
320.0,-0.0024042418226599693
352.0,-0.0023032098542898893
384.0,-0.0029042456299066544
416.0,-0.0015964045887812972
448.0,-0.0012099441373720765
480.0,0.00033757108030840755
512.0,0.001915204687975347
576.0,-0.002406597603112459
640.0,-0.002541647292673588
704.0,-0.002618073718622327
768.0,-0.0029383401852101088
832.0,-0.004595587495714426
896.0,-0.004797851666808128
960.0,-0.001926919911056757
1024.0,-0.0012271467130631208
1152.0,-0.001125602750107646
1280.0,-0.002578295301645994
1408.0,-0.0043656774796545506
1536.0,-0.003517575329169631
1664.0,-6.137620948720723e-05
1792.0,-0.003065521363168955
1920.0,0.003964208532124758
2048.0,0.0057932063937187195
2304.0,-0.00044675215031020343
2560.0,-0.0022969585843384266
2816.0,-0.0017375582829117775
3072.0,-0.005056523252278566
3328.0,-0.004550605546683073
3584.0,0.0028940148185938597
3840.0,-0.0002657980367075652
4096.0,0.007264585234224796
4608.0,0.0025532550644129515
5120.0,0.001986311748623848
5632.0,-0.0015732207102701068
6144.0,-0.0011310052359476686
6656.0,-0.002457034308463335
7168.0,-0.002000973792746663
7680.0,0.0013411745894700289
8192.0,-0.0028091976419091225
9216.0,0.007098071277141571
10240.0,-0.004244882147759199
11264.0,0.0014196047559380531
12288.0,-0.004698787350207567
13312.0,0.0020101212430745363
14336.0,0.004551826510578394
end
