version,3.0
numOfCh,1
type,point
parent_name,dirty_10dot0-1dot0
ch_type,1_1
kcount,1
numberNandB,1
brightnessNandB,1
carpet pos,0
pc,0
Time (ms),CH1 Auto-Correlation
1.0,0.05294742435216904
2.0,0.04583689197897911
3.0,0.04094677045941353
4.0,0.037143368273973465
5.0,0.0335334911942482
6.0,0.030693097040057182
7.0,0.027967147529125214
8.0,0.0263527799397707
9.0,0.02465073950588703
10.0,0.023371802642941475
11.0,0.022810280323028564
12.0,0.021825114265084267
13.0,0.020782433450222015
14.0,0.019780248403549194
15.0,0.018664881587028503
16.0,0.017879286780953407
18.0,0.01544584333896637
20.0,0.013414354994893074
22.0,0.011786278337240219
24.0,0.00999080017209053
26.0,0.008941411040723324
28.0,0.008536783047020435
30.0,0.007324408274143934
32.0,0.006371515337377787
36.0,0.005157045088708401
40.0,0.004931335337460041
44.0,0.004350390750914812
48.0,0.004304753616452217
52.0,0.003061427967622876
56.0,0.0019023034255951643
60.0,0.001993574434891343
64.0,0.001981920562684536
72.0,0.002192876534536481
80.0,0.0029568499885499477
88.0,0.002504701493307948
96.0,0.0026010291185230017
104.0,0.0010185068240389228
112.0,-0.00019963254453614354
120.0,-0.00019819155568256974
128.0,0.0004625332076102495
144.0,0.0005705530638806522
160.0,0.00019401359895709902
176.0,0.0007958567002788186
192.0,5.9444406360853463e-05
208.0,-0.0005837742937728763
224.0,-0.0002450984320603311
240.0,0.00014529669715557247
256.0,0.0017767837271094322
288.0,0.001837917952798307
320.0,0.0020556810777634382
352.0,0.000639252713881433
384.0,-0.0016873725689947605
416.0,-0.001269244821742177
448.0,-0.0006912476383149624
480.0,0.001249236986041069
512.0,0.0025156785268336535
576.0,0.001487464178353548
640.0,-0.0002536820829845965
704.0,-0.0014661579625681043
768.0,-0.0012045338517054915
832.0,-0.0001414647704223171
896.0,-0.000981987570412457
960.0,-0.0014927914598956704
1024.0,-4.9537593440618366e-05
1152.0,-0.0005133940139785409
1280.0,-0.0007196333026513457
1408.0,-0.0015745862619951367
1536.0,-0.0008005438721738756
1664.0,-0.0002741270000115037
1792.0,-0.0013724684249609709
1920.0,-0.002815315732732415
2048.0,-0.001202668296173215
2304.0,-0.00020132557256147265
2560.0,-0.0011438316432759166
2816.0,0.0002444603596813977
3072.0,0.00034196762135252357
3328.0,0.0001753357209963724
3584.0,0.0009494907571934164
3840.0,0.0031300524715334177
4096.0,0.00021862625726498663
4608.0,-0.0004964534309692681
5120.0,0.00015698999050073326
5632.0,0.00035623216535896063
6144.0,-0.0012336584040895104
6656.0,-0.00012198785407235846
7168.0,-0.0005097354296594858
7680.0,-0.0001840853365138173
8192.0,-7.287552762136329e-06
9216.0,0.0005535883828997612
10240.0,-0.00035731634125113487
11264.0,-0.00045529354247264564
12288.0,0.00038031433359719813
13312.0,-2.1902947992202826e-05
14336.0,0.0003318946110084653
end
