version,3.0
numOfCh,1
type,point
parent_name,dirty_10dot0-1dot0
ch_type,1_1
kcount,1
numberNandB,1
brightnessNandB,1
carpet pos,0
pc,0
Time (ms),CH1 Auto-Correlation
1.0,0.10574650019407272
2.0,0.09504271298646927
3.0,0.08711101114749908
4.0,0.08025471121072769
5.0,0.07511534541845322
6.0,0.07034193724393845
7.0,0.06692330539226532
8.0,0.0650237649679184
9.0,0.06382180005311966
10.0,0.06269846856594086
11.0,0.06142382696270943
12.0,0.06039079278707504
13.0,0.059519629925489426
14.0,0.0578732006251812
15.0,0.05643829330801964
16.0,0.05497969686985016
18.0,0.05130124092102051
20.0,0.04792632907629013
22.0,0.044653572142124176
24.0,0.04242391511797905
26.0,0.04110948368906975
28.0,0.03910182788968086
30.0,0.03630121424794197
32.0,0.03407842293381691
36.0,0.030268695205450058
40.0,0.028657253831624985
44.0,0.026387766003608704
48.0,0.024166498333215714
52.0,0.02215461991727352
56.0,0.0201023668050766
60.0,0.017342068254947662
64.0,0.01612163707613945
72.0,0.014890422113239765
80.0,0.015908347442746162
88.0,0.015518572181463242
96.0,0.01446451898664236
104.0,0.012977585196495056
112.0,0.01300558727234602
120.0,0.014437018893659115
128.0,0.01593605801463127
144.0,0.01359567977488041
160.0,0.007198881357908249
176.0,0.0020318583119660616
192.0,0.001415365724824369
208.0,0.001530296285636723
224.0,0.0025898029562085867
240.0,0.0054802196100354195
256.0,0.008332375437021255
288.0,0.006427324842661619
320.0,-9.105735807679594e-05
352.0,9.324867278337479e-05
384.0,0.004881954286247492
416.0,0.0012242591474205256
448.0,-0.0018678844207897782
480.0,-0.0037931844126433134
512.0,-0.002284758258610964
576.0,-0.0022402917966246605
640.0,-0.0038744895718991756
704.0,-0.0033631084952503443
768.0,-0.0032855302561074495
832.0,-0.003539344063028693
896.0,-0.0026515501085668802
960.0,-0.0029370796401053667
1024.0,-0.003904689336195588
1152.0,-0.004117445554584265
1280.0,-0.004132895730435848
1408.0,-0.005862242542207241
1536.0,-0.005405948497354984
1664.0,-0.004496192559599876
1792.0,-0.0015861111460253596
1920.0,0.001488851965405047
2048.0,0.004435453098267317
2304.0,0.010039032436907291
2560.0,-0.0018241222715005279
2816.0,-0.0029588842298835516
3072.0,0.0015336365904659033
3328.0,-0.0019505760865285993
3584.0,-0.006031556520611048
3840.0,-0.004601810593158007
4096.0,0.001312927925027907
4608.0,-0.00028423452749848366
5120.0,-0.0010070537682622671
5632.0,-0.0007407536031678319
6144.0,-0.0025852543767541647
6656.0,-0.0004870069387834519
7168.0,0.00038248879718594253
7680.0,0.002197067718952894
8192.0,-0.003489155787974596
9216.0,0.0015346788568422198
10240.0,-0.003132302314043045
11264.0,0.0011955947848036885
12288.0,0.0010190692264586687
13312.0,-0.0001738143910188228
14336.0,0.0029166992753744125
end
