version,3.0
numOfCh,1
type,point
parent_name,dirty_10dot0-1dot0
ch_type,1_1
kcount,1
numberNandB,1
brightnessNandB,1
carpet pos,0
pc,0
Time (ms),CH1 Auto-Correlation
1.0,0.216349795460701
2.0,0.19600774347782135
3.0,0.1808529496192932
4.0,0.16768674552440643
5.0,0.15672308206558228
6.0,0.14713850617408752
7.0,0.1375647634267807
8.0,0.1308707594871521
9.0,0.12431512027978897
10.0,0.11717263609170914
11.0,0.11141736060380936
12.0,0.10548921674489975
13.0,0.09946782141923904
14.0,0.0939088687300682
15.0,0.08767919987440109
16.0,0.08298319578170776
18.0,0.07469826191663742
20.0,0.06909669190645218
22.0,0.0656946450471878
24.0,0.06410784274339676
26.0,0.06327050179243088
28.0,0.060522038489580154
30.0,0.05542682483792305
32.0,0.050291407853364944
36.0,0.04449008032679558
40.0,0.04123319312930107
44.0,0.036419421434402466
48.0,0.03419686108827591
52.0,0.02993158809840679
56.0,0.025983823463320732
60.0,0.0214033592492342
64.0,0.01863335631787777
72.0,0.021889328956604004
80.0,0.027115188539028168
88.0,0.023475999012589455
96.0,0.020951690152287483
104.0,0.023134570568799973
112.0,0.0242927223443985
120.0,0.02644484117627144
128.0,0.028073949739336967
144.0,0.024035433307290077
160.0,0.023542778566479683
176.0,0.00842317659407854
192.0,0.005905710160732269
208.0,0.009188559837639332
224.0,0.014268770813941956
240.0,0.023014230653643608
256.0,0.025847239419817924
288.0,0.01572292298078537
320.0,0.013266077265143394
352.0,0.007525061722844839
384.0,0.009797058999538422
416.0,0.008508475497364998
448.0,0.002427967032417655
480.0,0.006354968529194593
512.0,0.00215906067751348
576.0,0.0012217976618558168
640.0,0.0015874386299401522
704.0,-0.0033283557277172804
768.0,-0.002874269848689437
832.0,-0.006093907635658979
896.0,0.0006693509058095515
960.0,-0.0026572674978524446
1024.0,-0.00855614896863699
1152.0,-0.009444111958146095
1280.0,-0.008758080191910267
1408.0,-0.007056714501231909
1536.0,-0.007547952700406313
1664.0,-0.005934199783951044
1792.0,-0.004458933603018522
1920.0,-0.0031655586790293455
2048.0,-0.004847023636102676
2304.0,-0.005065343342721462
2560.0,-0.0015948527725413442
2816.0,-0.0013044390361756086
3072.0,0.008391456678509712
3328.0,0.009337419643998146
3584.0,0.001481809071265161
3840.0,-0.0004427828826010227
4096.0,-0.0017699860036373138
4608.0,-0.0027897502295672894
5120.0,-0.009270353242754936
5632.0,-0.004553414415568113
6144.0,-0.001547346473671496
6656.0,-0.00745401019230485
7168.0,-0.004774576518684626
7680.0,0.013794724829494953
8192.0,0.01647048443555832
9216.0,-0.0012006971519440413
10240.0,-0.001482152147218585
11264.0,0.0070282332599163055
12288.0,-0.0037625180557370186
13312.0,0.004524782299995422
14336.0,-0.009703156538307667
end
