version,3.0
numOfCh,1
type,point
parent_name,dirty_10dot0-1dot0
ch_type,1_1
kcount,1
numberNandB,1
brightnessNandB,1
carpet pos,0
pc,0
Time (ms),CH1 Auto-Correlation
1.0,0.08039485663175583
2.0,0.07109197229146957
3.0,0.06374741345643997
4.0,0.057989612221717834
5.0,0.05343012511730194
6.0,0.04888623207807541
7.0,0.0447123721241951
8.0,0.041287098079919815
9.0,0.03800146281719208
10.0,0.03494344279170036
11.0,0.03249303251504898
12.0,0.03093363530933857
13.0,0.029293151572346687
14.0,0.02844097465276718
15.0,0.02758755534887314
16.0,0.026459531858563423
18.0,0.024537600576877594
20.0,0.022527538239955902
22.0,0.02102518267929554
24.0,0.019062424078583717
26.0,0.017042385414242744
28.0,0.016241010278463364
30.0,0.014906549826264381
32.0,0.013668794184923172
36.0,0.011672377586364746
40.0,0.010741972364485264
44.0,0.010248898528516293
48.0,0.00804098043590784
52.0,0.006433981470763683
56.0,0.005903964396566153
60.0,0.00487486133351922
64.0,0.003623792203143239
72.0,0.002049934584647417
80.0,0.002329186536371708
88.0,0.0023832968436181545
96.0,0.001603572629392147
104.0,0.0021010376513004303
112.0,0.0019586547277867794
120.0,0.0017784434603527188
128.0,0.0015284264227375388
144.0,-0.0016948460834100842
160.0,-0.0011975307716056705
176.0,-0.0015108403749763966
192.0,-0.001714422251097858
208.0,-0.0006532147526741028
224.0,-0.00011713913409039378
240.0,-0.0012183630606159568
256.0,-0.0007803324842825532
288.0,-0.00023604031594004482
320.0,-1.8717300918069668e-05
352.0,-0.0013058144832029939
384.0,-0.0011837813071906567
416.0,-0.0013972712913528085
448.0,-0.0009341473923996091
480.0,-0.002668118802830577
512.0,-0.0026706024073064327
576.0,-0.0021052751690149307
640.0,-0.0006749496096745133
704.0,-0.001504360232502222
768.0,0.0019846027716994286
832.0,0.0006300157401710749
896.0,0.001223752973601222
960.0,0.0014368633273988962
1024.0,0.0031644769478589296
1152.0,-0.0013676122762262821
1280.0,-0.002039877464994788
1408.0,-0.0016421099426224828
1536.0,-0.0024157247971743345
1664.0,-0.0009410682250745595
1792.0,0.00038447955739684403
1920.0,-0.0007185085560195148
2048.0,0.0019348612986505032
2304.0,0.0011229153024032712
2560.0,0.0003285262209828943
2816.0,0.0020500514656305313
3072.0,0.0013878830941393971
3328.0,0.0005029624444432557
3584.0,-0.0004462165234144777
3840.0,-0.0011647397186607122
4096.0,-0.0005617864080704749
4608.0,-0.0011745932279154658
5120.0,0.0014934972859919071
5632.0,-0.00023641348525416106
6144.0,0.0019245326984673738
6656.0,-0.002035955199971795
7168.0,-0.0012431894429028034
7680.0,0.0007996702333912253
8192.0,7.15328351361677e-05
9216.0,-0.0013570990413427353
10240.0,-0.00018487505440134555
11264.0,0.00026617321418598294
12288.0,-0.0015493473038077354
13312.0,0.0010982799576595426
14336.0,-0.0009650641586631536
end
