version,3.0
numOfCh,1
type,point
parent_name,dirty_10dot0-1dot0
ch_type,1_1
kcount,1
numberNandB,1
brightnessNandB,1
carpet pos,0
pc,0
Time (ms),CH1 Auto-Correlation
1.0,0.08034485578536987
2.0,0.07172875106334686
3.0,0.06505972892045975
4.0,0.059638701379299164
5.0,0.05444406718015671
6.0,0.04990289732813835
7.0,0.04609750583767891
8.0,0.042782701551914215
9.0,0.03983904421329498
10.0,0.03823293372988701
11.0,0.03602265939116478
12.0,0.03429669514298439
13.0,0.03317070007324219
14.0,0.032324593514204025
15.0,0.031463708728551865
16.0,0.030611252412199974
18.0,0.029198572039604187
20.0,0.027211571112275124
22.0,0.025115899741649628
24.0,0.023055115714669228
26.0,0.021329933777451515
28.0,0.019561462104320526
30.0,0.018154112622141838
32.0,0.017320293933153152
36.0,0.017055736854672432
40.0,0.015533044934272766
44.0,0.013761410489678383
48.0,0.013097289018332958
52.0,0.012400079518556595
56.0,0.010802775621414185
60.0,0.009296301752328873
64.0,0.008582646027207375
72.0,0.00903237797319889
80.0,0.008793478831648827
88.0,0.00947061087936163
96.0,0.010597080923616886
104.0,0.009587755426764488
112.0,0.007169656455516815
120.0,0.0067749484442174435
128.0,0.005990227218717337
144.0,0.005079991649836302
160.0,0.004046524874866009
176.0,0.0035537502262741327
192.0,0.0028143604286015034
208.0,0.001556718023493886
224.0,0.0034017248544842005
240.0,0.007332524284720421
256.0,0.01004402618855238
288.0,0.007781527005136013
320.0,0.00414500804618001
352.0,0.00427562091499567
384.0,0.004547655116766691
416.0,0.0023634859826415777
448.0,0.002864926354959607
480.0,0.004941106773912907
512.0,0.001435672165825963
576.0,0.003000830765813589
640.0,0.0007932476582936943
704.0,-0.0008582216687500477
768.0,-0.001835344359278679
832.0,-0.0027152951806783676
896.0,-0.002011715667322278
960.0,0.002265714108943939
1024.0,-0.00036855213693343103
1152.0,-0.003057712223380804
1280.0,-0.0019476390443742275
1408.0,-0.0011145788012072444
1536.0,0.00036773926694877446
1664.0,-0.0020573269575834274
1792.0,-0.0015788114396855235
1920.0,-0.002678248332813382
2048.0,-0.0036397064104676247
2304.0,-0.0034467997029423714
2560.0,-0.0013394361594691873
2816.0,5.8677600463852286e-05
3072.0,0.0007768085924908519
3328.0,0.00018524238839745522
3584.0,-0.0007974963518790901
3840.0,0.00048736148164607584
4096.0,-0.0037423439789563417
4608.0,-0.002505720593035221
5120.0,0.004065684042870998
5632.0,0.000979210832156241
6144.0,0.0030323821119964123
6656.0,0.0031766104511916637
7168.0,-0.003468811046332121
7680.0,-0.003990106284618378
8192.0,-0.0026386186946183443
9216.0,0.0010763260070234537
10240.0,-0.0001575610804138705
11264.0,-0.0009591031121090055
12288.0,0.0011084183352068067
13312.0,-0.001181596308015287
14336.0,-0.0012166242813691497
end
