version,3.0
numOfCh,1
type,point
parent_name,dirty_10dot0-1dot0
ch_type,1_1
kcount,1
numberNandB,1
brightnessNandB,1
carpet pos,0
pc,0
Time (ms),CH1 Auto-Correlation
1.0,0.1515551507472992
2.0,0.13620804250240326
3.0,0.12364950776100159
4.0,0.1131959855556488
5.0,0.10469137132167816
6.0,0.09772607684135437
7.0,0.09138179570436478
8.0,0.08691669255495071
9.0,0.08417848497629166
10.0,0.08222956210374832
11.0,0.08036234974861145
12.0,0.07758163660764694
13.0,0.07464459538459778
14.0,0.07146551460027695
15.0,0.06780093163251877
16.0,0.06472311913967133
18.0,0.0568588562309742
20.0,0.048628129065036774
22.0,0.04368377476930618
24.0,0.04056185856461525
26.0,0.037541862577199936
28.0,0.033588409423828125
30.0,0.029718315228819847
32.0,0.02606864646077156
36.0,0.023797065019607544
40.0,0.018896320834755898
44.0,0.014401249587535858
48.0,0.013862558640539646
52.0,0.012435744516551495
56.0,0.012110641226172447
60.0,0.01416796911507845
64.0,0.015996892005205154
72.0,0.012198707088828087
80.0,0.008139160461723804
88.0,0.006271387450397015
96.0,0.005553902592509985
104.0,0.007383666001260281
112.0,0.008063441142439842
120.0,0.009085910394787788
128.0,0.008126746863126755
144.0,0.005438150372356176
160.0,0.006121820770204067
176.0,0.007510858122259378
192.0,0.00799739733338356
208.0,0.002412557601928711
224.0,-0.0015450960490852594
240.0,-0.0031479611061513424
256.0,-0.004602604079991579
288.0,-0.0022392873652279377
320.0,-0.003970978781580925
352.0,-0.0009334654314443469
384.0,-0.0008449871675111353
416.0,0.003955145366489887
448.0,-0.0018623345531523228
480.0,-0.0026753325946629047
512.0,0.008068472146987915
576.0,0.005935599561780691
640.0,-0.002430484862998128
704.0,-0.0019015221623703837
768.0,-0.00163143256213516
832.0,-0.0026342952623963356
896.0,-0.002275746548548341
960.0,-0.0006169622065499425
1024.0,-0.00046014299732632935
1152.0,0.004049217794090509
1280.0,0.005011444911360741
1408.0,-0.0014238355215638876
1536.0,-0.002768452512100339
1664.0,0.0015012682415544987
1792.0,0.0035406332463026047
1920.0,-0.005984139628708363
2048.0,-0.004279693588614464
2304.0,-0.004131003748625517
2560.0,-0.00286414404399693
2816.0,-0.002434983616694808
3072.0,-0.006913675460964441
3328.0,-0.006854689680039883
3584.0,0.0025963936932384968
3840.0,-0.0014262403128668666
4096.0,0.006936568766832352
4608.0,0.00033030356280505657
5120.0,0.0010274621890857816
5632.0,0.0035186761524528265
6144.0,0.002373589901253581
6656.0,-0.0009503697510808706
7168.0,-0.003916330169886351
7680.0,-0.00249761575832963
8192.0,0.0005322540528140962
9216.0,-0.001976609695702791
10240.0,0.0003389484481886029
11264.0,-0.0009798910468816757
12288.0,0.006525349337607622
13312.0,0.0013499779161065817
14336.0,0.00013407052028924227
end
