version,3.0
numOfCh,1
type,point
parent_name,dirty_10dot0-1dot0
ch_type,1_1
kcount,1
numberNandB,1
brightnessNandB,1
carpet pos,0
pc,0
Time (ms),CH1 Auto-Correlation
1.0,0.10647239536046982
2.0,0.09516208618879318
3.0,0.08782795816659927
4.0,0.08174590766429901
5.0,0.07640794664621353
6.0,0.07186655700206757
7.0,0.06834886223077774
8.0,0.0648222267627716
9.0,0.06136055663228035
10.0,0.05767092481255531
11.0,0.05431196093559265
12.0,0.05171515792608261
13.0,0.04993792995810509
14.0,0.04892759025096893
15.0,0.0475933775305748
16.0,0.04605330154299736
18.0,0.043039921671152115
20.0,0.0389091782271862
22.0,0.03634905442595482
24.0,0.034193672239780426
26.0,0.03301007300615311
28.0,0.031183278188109398
30.0,0.02864214964210987
32.0,0.026517760008573532
36.0,0.023356780409812927
40.0,0.020104561001062393
44.0,0.020431283861398697
48.0,0.01920470781624317
52.0,0.018923377618193626
56.0,0.017353950068354607
60.0,0.015152009204030037
64.0,0.013871128670871258
72.0,0.012067845091223717
80.0,0.012362959794700146
88.0,0.013036508113145828
96.0,0.012586996890604496
104.0,0.012126200832426548
112.0,0.011102939024567604
120.0,0.009228934533894062
128.0,0.009494999423623085
144.0,0.005470894742757082
160.0,0.006298920139670372
176.0,0.007255639880895615
192.0,0.010743031278252602
208.0,0.009429185651242733
224.0,0.0074648791924119
240.0,0.007998999208211899
256.0,0.004800340160727501
288.0,0.005426416173577309
320.0,0.004002179019153118
352.0,0.0007741246372461319
384.0,-0.001623240765184164
416.0,-0.0019440128235146403
448.0,-0.0013124584220349789
480.0,-0.0017387834377586842
512.0,-0.002588197821751237
576.0,-0.0009706997079774737
640.0,0.0002279989857925102
704.0,-0.0005934684886597097
768.0,-0.0017131735803559422
832.0,-0.0020796703174710274
896.0,-0.0021343601401895285
960.0,0.00037974215229041874
1024.0,0.00010369307710789144
1152.0,0.0007078967173583806
1280.0,0.0001396004663547501
1408.0,0.003965117037296295
1536.0,-0.003086208598688245
1664.0,-0.0017964182188734412
1792.0,0.0010308818891644478
1920.0,0.003032152773812413
2048.0,0.0003632369334809482
2304.0,-0.001891657942906022
2560.0,-0.0036433665081858635
2816.0,-0.004780764225870371
3072.0,-0.0031034762505441904
3328.0,0.0003294525668025017
3584.0,-0.0006632214644923806
3840.0,-0.004103959072381258
4096.0,-0.003954273648560047
4608.0,-0.002852632896974683
5120.0,7.76736851548776e-05
5632.0,0.002487622667104006
6144.0,-0.0004908121773041785
6656.0,0.004874249454587698
7168.0,0.006169741973280907
7680.0,-0.00156796770170331
8192.0,-0.0030864630825817585
9216.0,-0.002137358533218503
10240.0,-0.0012399906991049647
11264.0,-0.0015210416167974472
12288.0,0.004623608198016882
13312.0,0.0002266593073727563
14336.0,-0.006911820732057095
end
