version,3.0
numOfCh,1
type,point
parent_name,dirty_10dot0-1dot0
ch_type,1_1
kcount,1
numberNandB,1
brightnessNandB,1
carpet pos,0
pc,0
Time (ms),CH1 Auto-Correlation
1.0,0.12912042438983917
2.0,0.11472275108098984
3.0,0.10478860139846802
4.0,0.09715266525745392
5.0,0.08953400701284409
6.0,0.08301304280757904
7.0,0.07775180786848068
8.0,0.07190747559070587
9.0,0.0673709437251091
10.0,0.06431712955236435
11.0,0.06122463196516037
12.0,0.05792052298784256
13.0,0.05534152314066887
14.0,0.053210776299238205
15.0,0.0517805851995945
16.0,0.050122153013944626
18.0,0.045782219618558884
20.0,0.04246300086379051
22.0,0.03809903562068939
24.0,0.03504741191864014
26.0,0.031274255365133286
28.0,0.027599241584539413
30.0,0.02525954879820347
32.0,0.022690828889608383
36.0,0.018906794488430023
40.0,0.014274241402745247
44.0,0.010691066272556782
48.0,0.006977949291467667
52.0,0.004493222571909428
56.0,0.002865948947146535
60.0,0.0020724451169371605
64.0,0.000862963730469346
72.0,0.0007987268618308008
80.0,0.001919811125844717
88.0,0.001377149485051632
96.0,0.0023011916782706976
104.0,0.0045383395627141
112.0,0.00550746638327837
120.0,0.005015889182686806
128.0,0.004386015702039003
144.0,0.00406369986012578
160.0,0.004145064856857061
176.0,0.0030352941248565912
192.0,0.0042673260904848576
208.0,0.003983370494097471
224.0,0.004618197213858366
240.0,0.0023284289054572582
256.0,0.0003848788619507104
288.0,-0.0017251429380849004
320.0,0.00019077649631071836
352.0,0.003951412625610828
384.0,0.0005354103050194681
416.0,-0.0038846577517688274
448.0,-0.0038093060720711946
480.0,-0.0035684476606547832
512.0,-0.004328018520027399
576.0,-0.0018682260997593403
640.0,0.0032349524553865194
704.0,-0.0003599054180085659
768.0,0.011496412567794323
832.0,0.004563129041343927
896.0,0.0020577642135322094
960.0,0.001325373537838459
1024.0,-2.8136229957453907e-05
1152.0,-0.0004425423685461283
1280.0,-0.003065700177103281
1408.0,-0.0012023638701066375
1536.0,0.002381356665864587
1664.0,0.0002907063171733171
1792.0,0.0013401602627709508
1920.0,0.001256482326425612
2048.0,-0.002195078646764159
2304.0,-8.168756903614849e-05
2560.0,-0.0005775506142526865
2816.0,-0.0014718003803864121
3072.0,0.00010954024037346244
3328.0,-0.0008812090964056551
3584.0,-0.0005256513832136989
3840.0,0.0025733159855008125
4096.0,0.000804983894340694
4608.0,0.00040135715971700847
5120.0,-0.002038421807810664
5632.0,-0.0006715559866279364
6144.0,0.0011725729564204812
6656.0,0.0008623792673461139
7168.0,-0.0007162986439652741
7680.0,-0.00041915971087291837
8192.0,0.0003226998960599303
9216.0,-0.0003298998053651303
10240.0,0.0027974345721304417
11264.0,-0.003774173790588975
12288.0,-0.005819119978696108
13312.0,0.0007284084567800164
14336.0,0.0011135837994515896
end
