version,3.0
numOfCh,1
type,point
parent_name,dirty_10dot0-1dot0
ch_type,1_1
kcount,1
numberNandB,1
brightnessNandB,1
carpet pos,0
pc,0
Time (ms),CH1 Auto-Correlation
1.0,0.12707285583019257
2.0,0.11462707072496414
3.0,0.10588888078927994
4.0,0.09850577265024185
5.0,0.09203695505857468
6.0,0.08543528616428375
7.0,0.07936849445104599
8.0,0.07403317093849182
9.0,0.06986705958843231
10.0,0.06553994864225388
11.0,0.061008695513010025
12.0,0.05737415701150894
13.0,0.053747083991765976
14.0,0.051029451191425323
15.0,0.04881363734602928
16.0,0.04681474715471268
18.0,0.04529065638780594
20.0,0.04286427050828934
22.0,0.040211811661720276
24.0,0.037962816655635834
26.0,0.03532467409968376
28.0,0.03268614783883095
30.0,0.030697282403707504
32.0,0.026867153123021126
36.0,0.018785515800118446
40.0,0.014117389917373657
44.0,0.011280283331871033
48.0,0.009460007771849632
52.0,0.00843831803649664
56.0,0.008785625919699669
60.0,0.00909623596817255
64.0,0.00921485386788845
72.0,0.00625320989638567
80.0,0.009552940726280212
88.0,0.010682780295610428
96.0,0.010144633240997791
104.0,0.011764554306864738
112.0,0.013447911478579044
120.0,0.012910124845802784
128.0,0.01245773397386074
144.0,0.007648992817848921
160.0,0.005727061070501804
176.0,0.001925174263305962
192.0,0.002107062377035618
208.0,0.0029311582911759615
224.0,0.005701039452105761
240.0,0.007910476066172123
256.0,0.0017346343956887722
288.0,-0.0019779365975409746
320.0,-0.0003609583363868296
352.0,-0.00047448163968510926
384.0,0.004940805956721306
416.0,0.004713515751063824
448.0,0.005094321444630623
480.0,0.01255358848720789
512.0,0.011932853609323502
576.0,0.010302521288394928
640.0,0.00665663368999958
704.0,0.009687164798378944
768.0,0.0051097022369503975
832.0,-0.0023851904552429914
896.0,-0.0010256710229441524
960.0,-0.0007462306530214846
1024.0,-0.0008392222225666046
1152.0,0.0007533555035479367
1280.0,-0.0006949974340386689
1408.0,-0.003353335428982973
1536.0,-0.0037621366791427135
1664.0,-0.0034373230300843716
1792.0,0.0007741511799395084
1920.0,-0.0020995899103581905
2048.0,-0.004849169868975878
2304.0,-0.001011007814668119
2560.0,-0.0016473191790282726
2816.0,0.00020320019393693656
3072.0,-0.0016985019901767373
3328.0,-0.002742375712841749
3584.0,0.003957390319555998
3840.0,-0.0049879588186740875
4096.0,0.003278682939708233
4608.0,0.0001786021894076839
5120.0,-0.0018384481081739068
5632.0,-0.0010090239811688662
6144.0,0.0012070570373907685
6656.0,0.0012199747143313289
7168.0,-0.0023028936702758074
7680.0,-0.005990361794829369
8192.0,-0.0050366646610200405
9216.0,0.0007340913289226592
10240.0,0.009992868639528751
11264.0,-0.0040266383439302444
12288.0,-0.0031829229556024075
13312.0,-0.006834902800619602
14336.0,-0.0023934415075927973
end
