version,3.0
numOfCh,1
type,point
parent_name,dirty_10dot0-1dot0
ch_type,1_1
kcount,1
numberNandB,1
brightnessNandB,1
carpet pos,0
pc,0
Time (ms),CH1 Auto-Correlation
1.0,0.11449597030878067
2.0,0.10194131731987
3.0,0.09187920391559601
4.0,0.08333782106637955
5.0,0.0757431760430336
6.0,0.06801737844944
7.0,0.0619395449757576
8.0,0.05599607899785042
9.0,0.05140732228755951
10.0,0.0471486859023571
11.0,0.04289333149790764
12.0,0.0397268682718277
13.0,0.036714453250169754
14.0,0.03450890630483627
15.0,0.03228387236595154
16.0,0.030813561752438545
18.0,0.029626116156578064
20.0,0.027707012370228767
22.0,0.02566828764975071
24.0,0.023796677589416504
26.0,0.02213168516755104
28.0,0.021787481382489204
30.0,0.02159808576107025
32.0,0.022103741765022278
36.0,0.023549316450953484
40.0,0.023050228133797646
44.0,0.022885644808411598
48.0,0.01906006783246994
52.0,0.01381397433578968
56.0,0.010387567803263664
60.0,0.007823108695447445
64.0,0.005115779582411051
72.0,0.004608348477631807
80.0,0.005957370158284903
88.0,0.005894281901419163
96.0,0.00912308320403099
104.0,0.006913413759320974
112.0,0.006481610704213381
120.0,0.009681149385869503
128.0,0.01138971745967865
144.0,0.007677007000893354
160.0,0.007577782962471247
176.0,0.009251747280359268
192.0,0.0034785494208335876
208.0,0.004453996196389198
224.0,0.004974935669451952
240.0,0.00409674784168601
256.0,0.004094741772860289
288.0,0.00035234380629844964
320.0,-0.002010610420256853
352.0,0.0013282477157190442
384.0,0.00579860107973218
416.0,0.005881890654563904
448.0,0.006494917441159487
480.0,0.009476272389292717
512.0,0.00833323784172535
576.0,0.0034486609511077404
640.0,0.004742174409329891
704.0,-0.001553202630020678
768.0,0.0029452594462782145
832.0,0.004300217144191265
896.0,0.0015382892452180386
960.0,0.0012714338954538107
1024.0,0.00203093234449625
1152.0,0.002430254127830267
1280.0,-0.0012685403926298022
1408.0,-0.002537716180086136
1536.0,0.00042359528015367687
1664.0,0.0004866973031312227
1792.0,0.0011431758757680655
1920.0,-0.0020953859202563763
2048.0,-0.003279120894148946
2304.0,-0.0006356788799166679
2560.0,-0.001797984936274588
2816.0,-0.0019637655932456255
3072.0,-0.0018216394819319248
3328.0,0.0010518027702346444
3584.0,0.0012373867211863399
3840.0,0.0015409766929224133
4096.0,0.0017565705347806215
4608.0,0.0013790195807814598
5120.0,-0.00010368282528361306
5632.0,-0.0012369771720841527
6144.0,-0.0022847126238048077
6656.0,-0.0032573428470641375
7168.0,-0.0039127664640545845
7680.0,-0.004360225982964039
8192.0,-0.0023948291782289743
9216.0,-0.0006363594438880682
10240.0,-0.0011785714887082577
11264.0,-0.0037107900716364384
12288.0,-0.005105606280267239
13312.0,0.0010294258827343583
14336.0,0.011785508133471012
end
