version,3.0
numOfCh,1
type,point
parent_name,dirty_10dot0-1dot0
ch_type,1_1
kcount,1
numberNandB,1
brightnessNandB,1
carpet pos,0
pc,0
Time (ms),CH1 Auto-Correlation
1.0,0.11203207820653915
2.0,0.1000254824757576
3.0,0.09093018621206284
4.0,0.08433960378170013
5.0,0.07820960134267807
6.0,0.07158676534891129
7.0,0.06500039249658585
8.0,0.05893908068537712
9.0,0.054607465863227844
10.0,0.05044775456190109
11.0,0.04719645902514458
12.0,0.04329340532422066
13.0,0.04032760113477707
14.0,0.03788356855511665
15.0,0.036264028400182724
16.0,0.03472989425063133
18.0,0.033077821135520935
20.0,0.03332066908478737
22.0,0.03292277827858925
24.0,0.03247036039829254
26.0,0.030583735555410385
28.0,0.02793060801923275
30.0,0.02660321444272995
32.0,0.024543646723031998
36.0,0.022934548556804657
40.0,0.023821048438549042
44.0,0.024935631081461906
48.0,0.024861343204975128
52.0,0.023520156741142273
56.0,0.02187846228480339
60.0,0.02190583385527134
64.0,0.02085157297551632
72.0,0.018381906673312187
80.0,0.016286462545394897
88.0,0.017064709216356277
96.0,0.016965748742222786
104.0,0.01870429702103138
112.0,0.01431160606443882
120.0,0.010281330905854702
128.0,0.01452128030359745
144.0,0.012073555029928684
160.0,0.006909613963216543
176.0,0.006774485111236572
192.0,0.006469649262726307
208.0,0.006650118622928858
224.0,0.007760916370898485
240.0,0.0018405696609988809
256.0,0.005065984092652798
288.0,0.004223405383527279
320.0,5.758464249083772e-05
352.0,-0.00106310925912112
384.0,-0.00021215765445958823
416.0,0.0023226477205753326
448.0,0.004271840211004019
480.0,0.0038824565708637238
512.0,0.0009389401529915631
576.0,-0.0011252188123762608
640.0,-0.0012239486677572131
704.0,-0.0004703426384367049
768.0,0.0008706063381396234
832.0,-0.0001369487727060914
896.0,3.7930098187644035e-05
960.0,0.0006599624757654965
1024.0,0.00020942691480740905
1152.0,-0.0013964750105515122
1280.0,-0.0019166951533406973
1408.0,-0.0027812086045742035
1536.0,-0.0036474906373769045
1664.0,-0.0018787477165460587
1792.0,-0.002454041503369808
1920.0,-0.004787481855601072
2048.0,-0.0049998341128230095
2304.0,-0.0024946716148406267
2560.0,-7.930141146061942e-05
2816.0,0.0029889962170273066
3072.0,0.0052271499298512936
3328.0,0.0046205525286495686
3584.0,0.0040780226700007915
3840.0,0.0016949670389294624
4096.0,-0.0015977444127202034
4608.0,-0.002215059706941247
5120.0,-0.0019189192680642009
5632.0,-0.0025732701178640127
6144.0,-0.0015586434165015817
6656.0,0.0009017240954563022
7168.0,0.001768020330928266
7680.0,-1.4457376892096363e-05
8192.0,-0.002474687760695815
9216.0,-0.002567217918112874
10240.0,0.00152678694576025
11264.0,0.0010579486843198538
12288.0,-0.0033719786442816257
13312.0,-0.002241474576294422
14336.0,0.0013194800121709704
end
