version,3.0
numOfCh,1
type,point
parent_name,4-cuts
ch_type,1_1
kcount,1
numberNandB,1
brightnessNandB,1
carpet pos,0
pc,0
Time (ms),CH1 Auto-Correlation
1.0,0.059021323919296265
2.0,0.05780807137489319
3.0,0.05660882964730263
4.0,0.05545788258314133
5.0,0.05436485633254051
6.0,0.05330732837319374
7.0,0.0523035004734993
8.0,0.051355913281440735
9.0,0.05046538636088371
10.0,0.04958929121494293
11.0,0.04872721806168556
12.0,0.047885507345199585
13.0,0.047065943479537964
14.0,0.04626138135790825
15.0,0.04547128453850746
16.0,0.04471467435359955
18.0,0.043335773050785065
20.0,0.041952796280384064
22.0,0.04057637229561806
24.0,0.03922054544091225
26.0,0.03798229992389679
28.0,0.03680874779820442
30.0,0.03567364066839218
32.0,0.03458372503519058
36.0,0.03249403461813927
40.0,0.030601421371102333
44.0,0.028864417225122452
48.0,0.027332881465554237
52.0,0.02585260570049286
56.0,0.0243879035115242
60.0,0.023031584918498993
64.0,0.02179783396422863
72.0,0.019287120550870895
80.0,0.017269128933548927
88.0,0.015585650689899921
96.0,0.014278787188231945
104.0,0.013361698016524315
112.0,0.012533263303339481
120.0,0.011430361308157444
128.0,0.009919922798871994
144.0,0.007580254692584276
160.0,0.00702800415456295
176.0,0.00688394159078598
192.0,0.007152310106903315
208.0,0.007667236961424351
224.0,0.00700984476134181
240.0,0.0063638039864599705
256.0,0.006754699163138866
288.0,0.006132955197244883
320.0,0.0024354930501431227
352.0,-0.0005368377896957099
384.0,-0.0013229575706645846
416.0,-0.0002030871546594426
448.0,-0.0007949336431920528
480.0,-0.002388123655691743
512.0,-0.0044872695580124855
576.0,-0.0035983999259769917
640.0,-0.0017428419087082148
704.0,-0.002315846737474203
768.0,-0.005231763701885939
832.0,-0.004840645007789135
896.0,-0.0006281495443545282
960.0,-0.0026576626114547253
1024.0,-0.002553857397288084
1152.0,0.0013023547362536192
1280.0,-0.00010439734614919871
1408.0,0.0030293387826532125
1536.0,0.004307442810386419
1664.0,0.0036674379371106625
1792.0,-0.0001198829704662785
1920.0,-0.0014065487775951624
2048.0,-0.004880725406110287
2304.0,-0.0036470205523073673
2560.0,-0.006264545023441315
2816.0,-0.0022815889678895473
3072.0,0.0010147823486477137
3328.0,0.001995326252654195
3584.0,0.002026214497163892
3840.0,0.0019863334018737078
4096.0,0.0030763139948248863
4608.0,-0.0017971136840060353
5120.0,-0.00035170745104551315
5632.0,0.0014089766191318631
6144.0,-0.005410123150795698
6656.0,-0.0048990994691848755
7168.0,0.0011589763453230262
7680.0,0.0032581137493252754
8192.0,-0.004838093649595976
9216.0,0.0003813665534835309
10240.0,-0.003201989224180579
11264.0,0.0021616884041577578
12288.0,0.0016973682213574648
13312.0,-0.001806184183806181
14336.0,0.0009912519017234445
end
