version,3.0
numOfCh,1
type,point
parent_name,4-cuts
ch_type,1_1
kcount,1
numberNandB,1
brightnessNandB,1
carpet pos,0
pc,0
Time (ms),CH1 Auto-Correlation
1.0,0.04356776177883148
2.0,0.04293181747198105
3.0,0.04231984168291092
4.0,0.041732702404260635
5.0,0.041166841983795166
6.0,0.040632348507642746
7.0,0.040111325681209564
8.0,0.03961426764726639
9.0,0.039149366319179535
10.0,0.03870251029729843
11.0,0.03826865181326866
12.0,0.03784070163965225
13.0,0.037414226680994034
14.0,0.0370170995593071
15.0,0.036631450057029724
16.0,0.03624332696199417
18.0,0.03553273528814316
20.0,0.03485343977808952
22.0,0.03417409956455231
24.0,0.033525485545396805
26.0,0.032884903252124786
28.0,0.03226424753665924
30.0,0.031624048948287964
32.0,0.030990097671747208
36.0,0.029874330386519432
40.0,0.028919706121087074
44.0,0.02806464210152626
48.0,0.027266446501016617
52.0,0.026523619890213013
56.0,0.025765588507056236
60.0,0.025105470791459084
64.0,0.024410782381892204
72.0,0.023107504472136497
80.0,0.02194138988852501
88.0,0.020986896008253098
96.0,0.02026020549237728
104.0,0.019652754068374634
112.0,0.019011681899428368
120.0,0.018379366025328636
128.0,0.01789184845983982
144.0,0.017167411744594574
160.0,0.016657942906022072
176.0,0.015483790077269077
192.0,0.014554460532963276
208.0,0.014419863931834698
224.0,0.014164549298584461
240.0,0.01362351980060339
256.0,0.013151079416275024
288.0,0.011435691267251968
320.0,0.010090356692671776
352.0,0.00882179755717516
384.0,0.008239754475653172
416.0,0.007165123242884874
448.0,0.005463948007673025
480.0,0.005349037237465382
512.0,0.004012484103441238
576.0,0.0036097229458391666
640.0,0.0029587282333523035
704.0,0.0008910109754651785
768.0,0.00034943147329613566
832.0,-0.001205426175147295
896.0,-0.0011206759372726083
960.0,-0.0019034722354263067
1024.0,-0.0018801757832989097
1152.0,-0.0017021469539031386
1280.0,-0.00346190482378006
1408.0,-0.00417778454720974
1536.0,-0.004779490642249584
1664.0,-0.006025561597198248
1792.0,-0.004114182665944099
1920.0,-0.003878672607243061
2048.0,-0.004580714274197817
2304.0,-0.0001535377377877012
2560.0,0.00011823210661532357
2816.0,0.0004884444642812014
3072.0,0.0005512087373062968
3328.0,-0.004359675571322441
3584.0,-0.0056580472737550735
3840.0,-0.006173298228532076
4096.0,-0.007592405658215284
4608.0,0.0008461602265015244
5120.0,0.004661457613110542
5632.0,0.0026421702932566404
6144.0,-0.0008746032253839076
6656.0,-0.001719204941764474
7168.0,1.3662525816471316e-05
7680.0,0.005162921268492937
8192.0,0.004951487760990858
9216.0,0.0038326317444443703
10240.0,-0.01168198511004448
11264.0,-0.0006587480311281979
12288.0,-0.0011147536570206285
13312.0,0.0024869097396731377
14336.0,0.00887822825461626
end
