version,3.0
numOfCh,1
type,point
parent_name,4-cuts
ch_type,1_1
kcount,1
numberNandB,1
brightnessNandB,1
carpet pos,0
pc,0
Time (ms),CH1 Auto-Correlation
1.0,0.06576140969991684
2.0,0.06459533423185349
3.0,0.06345156580209732
4.0,0.06234316527843475
5.0,0.0612691193819046
6.0,0.060225196182727814
7.0,0.059243444353342056
8.0,0.05832291394472122
9.0,0.05744430050253868
10.0,0.05661912262439728
11.0,0.055817995220422745
12.0,0.05504839867353439
13.0,0.054298050701618195
14.0,0.053556717932224274
15.0,0.05285228416323662
16.0,0.0521472692489624
18.0,0.05073883756995201
20.0,0.04937349632382393
22.0,0.04805494844913483
24.0,0.046868372708559036
26.0,0.0458182692527771
28.0,0.044810373336076736
30.0,0.043861888349056244
32.0,0.04291417449712753
36.0,0.041120026260614395
40.0,0.03951503708958626
44.0,0.03810600936412811
48.0,0.03678601607680321
52.0,0.03551601991057396
56.0,0.03416875749826431
60.0,0.032899513840675354
64.0,0.03176888823509216
72.0,0.029811657965183258
80.0,0.027887534350156784
88.0,0.025880686938762665
96.0,0.024010134860873222
104.0,0.022606782615184784
112.0,0.021591367200016975
120.0,0.020954351872205734
128.0,0.0205139871686697
144.0,0.01954236626625061
160.0,0.018554195761680603
176.0,0.01749599538743496
192.0,0.015582955442368984
208.0,0.014650197699666023
224.0,0.013138046488165855
240.0,0.011693381704390049
256.0,0.01045850571244955
288.0,0.009409447200596333
320.0,0.010114376433193684
352.0,0.0103079192340374
384.0,0.009773725643754005
416.0,0.00856027565896511
448.0,0.007252992130815983
480.0,0.006758351344615221
512.0,0.007879837416112423
576.0,0.00786444079130888
640.0,0.006534055341035128
704.0,0.007140386383980513
768.0,0.00886274129152298
832.0,0.009135689586400986
896.0,0.008660254068672657
960.0,0.006726191379129887
1024.0,0.006177711300551891
1152.0,0.01059776172041893
1280.0,0.006837691180408001
1408.0,0.0037799947895109653
1536.0,0.0005468445015139878
1664.0,0.003065813332796097
1792.0,0.008610915392637253
1920.0,0.008920128457248211
2048.0,0.006375170312821865
2304.0,0.009203092195093632
2560.0,0.0037613939493894577
2816.0,0.003726308699697256
3072.0,0.005280146840959787
3328.0,-0.0016156885540112853
3584.0,0.002743013435974717
3840.0,-0.002126345643773675
4096.0,0.0008301437483169138
4608.0,0.0039003745187073946
5120.0,-0.0018304750556126237
5632.0,-0.004109807778149843
6144.0,-0.002552882768213749
6656.0,-0.00032856472535058856
7168.0,-0.0032701115123927593
7680.0,-0.010321740061044693
8192.0,-0.009900756180286407
9216.0,-0.007683762349188328
10240.0,-0.01332804188132286
11264.0,-0.004363071173429489
12288.0,-0.004204409662634134
13312.0,-0.008823773823678493
14336.0,-0.008292004466056824
end
