version,3.0
numOfCh,1
type,point
parent_name,4-cuts
ch_type,1_1
kcount,1
numberNandB,1
brightnessNandB,1
carpet pos,0
pc,0
Time (ms),CH1 Auto-Correlation
1.0,0.02799345552921295
2.0,0.027443747967481613
3.0,0.026918046176433563
4.0,0.026414843276143074
5.0,0.025927316397428513
6.0,0.02546064928174019
7.0,0.0249999538064003
8.0,0.024560479447245598
9.0,0.0241329837590456
10.0,0.02372586913406849
11.0,0.023321393877267838
12.0,0.022935183718800545
13.0,0.022560633718967438
14.0,0.022200442850589752
15.0,0.02186063677072525
16.0,0.021523695439100266
18.0,0.020884070545434952
20.0,0.020305823534727097
22.0,0.019795740023255348
24.0,0.01935730129480362
26.0,0.018931899219751358
28.0,0.01852288842201233
30.0,0.018118783831596375
32.0,0.01772669330239296
36.0,0.01700219325721264
40.0,0.016338223591446877
44.0,0.015615055337548256
48.0,0.01495444681495428
52.0,0.014362771064043045
56.0,0.013709832914173603
60.0,0.013132071122527122
64.0,0.012655009515583515
72.0,0.011844886466860771
80.0,0.011056787334382534
88.0,0.010271042585372925
96.0,0.009631368331611156
104.0,0.009161645546555519
112.0,0.008677121251821518
120.0,0.008022835478186607
128.0,0.007372485473752022
144.0,0.006727168802171946
160.0,0.006253065075725317
176.0,0.0052731758914887905
192.0,0.004579666070640087
208.0,0.00440853601321578
224.0,0.004093743395060301
240.0,0.0038073724135756493
256.0,0.0031914692372083664
288.0,0.0017362384824082255
320.0,0.0011213738471269608
352.0,0.00038722436875104904
384.0,-0.0001272171939490363
416.0,0.0008055376820266247
448.0,0.0024744984693825245
480.0,0.0035988434683531523
512.0,0.0038456041365861893
576.0,0.003750382922589779
640.0,0.0023189701605588198
704.0,0.0018598281312733889
768.0,0.0018066948978230357
832.0,0.0019835715647786856
896.0,0.001338321017101407
960.0,0.0006376217352226377
1024.0,0.0014677246799692512
1152.0,0.0023513801861554384
1280.0,0.0030007704626768827
1408.0,0.0005816856864839792
1536.0,6.279247463680804e-05
1664.0,-0.0013516955077648163
1792.0,-0.0019833792466670275
1920.0,-0.0018810256151482463
2048.0,-0.0004662604769691825
2304.0,-0.0019805359188467264
2560.0,-0.0033925173338502645
2816.0,-0.005074930842965841
3072.0,-0.004271331708878279
3328.0,-0.002105443039909005
3584.0,-0.003159858752042055
3840.0,-0.002693146001547575
4096.0,-0.002436896786093712
4608.0,-0.0008833721512928605
5120.0,0.000751465791836381
5632.0,0.0019441874464973807
6144.0,0.0021378002129495144
6656.0,0.0012386300368234515
7168.0,0.0013315549585968256
7680.0,-0.0016971203731372952
8192.0,0.0003495252167340368
9216.0,0.0003927156503777951
10240.0,0.0005293042631819844
11264.0,-0.00017793543520383537
12288.0,-0.00017951322661247104
13312.0,-0.0008185622282326221
14336.0,-0.0007446683011949062
end
