version,3.0
numOfCh,1
type,point
parent_name,4-cuts
ch_type,1_1
kcount,1
numberNandB,1
brightnessNandB,1
carpet pos,0
pc,0
Time (ms),CH1 Auto-Correlation
1.0,0.023669516667723656
2.0,0.023269042372703552
3.0,0.022885864600539207
4.0,0.022517772391438484
5.0,0.022159645333886147
6.0,0.021823817864060402
7.0,0.02150520123541355
8.0,0.021194186061620712
9.0,0.020883608609437943
10.0,0.020580962300300598
11.0,0.020290827378630638
12.0,0.02000037580728531
13.0,0.019715450704097748
14.0,0.019430899992585182
15.0,0.019150709733366966
16.0,0.01886775903403759
18.0,0.01830187253654003
20.0,0.017772896215319633
22.0,0.017283953726291656
24.0,0.01683684065937996
26.0,0.0164203979074955
28.0,0.0160164013504982
30.0,0.015619661659002304
32.0,0.015228739008307457
36.0,0.014539151452481747
40.0,0.013883501291275024
44.0,0.013233378529548645
48.0,0.012638392858207226
52.0,0.012113633565604687
56.0,0.011623282916843891
60.0,0.011140293441712856
64.0,0.010742039419710636
72.0,0.009894182905554771
80.0,0.009117696434259415
88.0,0.008444364182651043
96.0,0.007822660729289055
104.0,0.0072432649321854115
112.0,0.006750746164470911
120.0,0.006346601992845535
128.0,0.00598917668685317
144.0,0.005380332004278898
160.0,0.0050657326355576515
176.0,0.004900283645838499
192.0,0.0047903964295983315
208.0,0.004579620435833931
224.0,0.004562211688607931
240.0,0.004258067347109318
256.0,0.003976013511419296
288.0,0.003799681318923831
320.0,0.00336024584248662
352.0,0.0025034574791789055
384.0,0.0019147142302244902
416.0,0.0011838509235531092
448.0,0.00021307911083567888
480.0,-0.0005576730472967029
512.0,-0.0007525814580731094
576.0,-0.0008553447551093996
640.0,-0.0017054358031600714
704.0,-0.0017177542904391885
768.0,-0.0008459615637548268
832.0,-0.0011175129329785705
896.0,-0.0003006804909091443
960.0,-0.00023875891929492354
1024.0,-0.0006743995472788811
1152.0,-0.001199563848786056
1280.0,-0.0018913111416622996
1408.0,-0.0014837674098089337
1536.0,-0.0020924925338476896
1664.0,-0.0028564385138452053
1792.0,-0.0018592234700918198
1920.0,-0.0022667560260742903
2048.0,-0.001673754071816802
2304.0,-0.000376794021576643
2560.0,0.003302315017208457
2816.0,3.110806574113667e-05
3072.0,-0.000599225633777678
3328.0,0.001845091232098639
3584.0,0.00251010456122458
3840.0,0.0008963316795416176
4096.0,-0.0015950341476127505
4608.0,-0.0015951546374708414
5120.0,0.000854062323924154
5632.0,-0.0004919201601296663
6144.0,-3.90619425161276e-06
6656.0,-0.0022512981668114662
7168.0,0.0005139523418620229
7680.0,0.0010829581879079342
8192.0,-0.001326264231465757
9216.0,-0.0010237206006422639
10240.0,-0.00012791302287951112
11264.0,0.001521615544334054
12288.0,0.0005366837722249329
13312.0,-0.002057530451565981
14336.0,0.0008444917621091008
end
