version,3.0
numOfCh,1
type,point
parent_name,4-cuts
ch_type,1_1
kcount,1
numberNandB,1
brightnessNandB,1
carpet pos,0
pc,0
Time (ms),CH1 Auto-Correlation
1.0,0.03221822902560234
2.0,0.031648002564907074
3.0,0.031090648844838142
4.0,0.030547775328159332
5.0,0.03002159669995308
6.0,0.02952512539923191
7.0,0.02904750406742096
8.0,0.02857194095849991
9.0,0.02809329330921173
10.0,0.02762605994939804
11.0,0.027173904702067375
12.0,0.02673373371362686
13.0,0.026302244514226913
14.0,0.025883937254548073
15.0,0.025477290153503418
16.0,0.025091171264648438
18.0,0.0243376474827528
20.0,0.023620786145329475
22.0,0.022913873195648193
24.0,0.022210314869880676
26.0,0.021550007164478302
28.0,0.020945191383361816
30.0,0.020365634933114052
32.0,0.019775202497839928
36.0,0.018675008788704872
40.0,0.017686598002910614
44.0,0.016714459285140038
48.0,0.01581369712948799
52.0,0.014910784550011158
56.0,0.014034420251846313
60.0,0.01327467616647482
64.0,0.012598186731338501
72.0,0.011560563929378986
80.0,0.010808027349412441
88.0,0.010034844279289246
96.0,0.009340103715658188
104.0,0.008721651509404182
112.0,0.007981019094586372
120.0,0.007478546816855669
128.0,0.007108702789992094
144.0,0.006788696628063917
160.0,0.006471076048910618
176.0,0.006523029413074255
192.0,0.006247286219149828
208.0,0.005748898722231388
224.0,0.005113404709845781
240.0,0.004711807705461979
256.0,0.004409553948789835
288.0,0.004545392002910376
320.0,0.0037999937776476145
352.0,0.0028210824821144342
384.0,0.0014133332297205925
416.0,0.0010949622374027967
448.0,0.0007996984058991075
480.0,9.420848800800741e-05
512.0,3.5795612348010764e-05
576.0,-0.0015097770374268293
640.0,-0.00046059975284151733
704.0,-0.0010695797391235828
768.0,-0.00246937177143991
832.0,-0.0023995242081582546
896.0,-0.0018100246088579297
960.0,-0.0024275011382997036
1024.0,-0.002812578808516264
1152.0,-0.001491065602749586
1280.0,-0.0016180078964680433
1408.0,-0.0009686325211077929
1536.0,-0.00042567827040329576
1664.0,-0.00036597400321625173
1792.0,0.0009230516734533012
1920.0,0.0009056254057213664
2048.0,0.0004934663302265108
2304.0,0.0011952302884310484
2560.0,0.0005001716781407595
2816.0,-0.0011636908166110516
3072.0,-0.0017737222369760275
3328.0,-0.0008553289226256311
3584.0,-0.0017221515299752355
3840.0,-0.001036322908475995
4096.0,0.0007643027929589152
4608.0,-0.0009474856196902692
5120.0,-0.0025174040347337723
5632.0,0.0007037189789116383
6144.0,0.00194091338198632
6656.0,-0.00227161287330091
7168.0,-0.0029053573962301016
7680.0,-0.0008201298187486827
8192.0,0.0020069049205631018
9216.0,-0.0016730783972889185
10240.0,0.0026146036107093096
11264.0,0.0014454678166657686
12288.0,-0.0010741774458438158
13312.0,-0.0007618149393238127
14336.0,0.0012042903108522296
end
