version,3.0
numOfCh,1
type,point
parent_name,4-cuts
ch_type,1_1
kcount,1
numberNandB,1
brightnessNandB,1
carpet pos,0
pc,0
Time (ms),CH1 Auto-Correlation
1.0,0.06263453513383865
2.0,0.061501968652009964
3.0,0.06041412055492401
4.0,0.059359412640333176
5.0,0.058338310569524765
6.0,0.0573517270386219
7.0,0.056385405361652374
8.0,0.05542676895856857
9.0,0.054504748433828354
10.0,0.053610909730196
11.0,0.052731212228536606
12.0,0.05188297852873802
13.0,0.05106475204229355
14.0,0.050250519067049026
15.0,0.049465205520391464
16.0,0.04870641231536865
18.0,0.04719080403447151
20.0,0.04570729285478592
22.0,0.044363752007484436
24.0,0.043121300637722015
26.0,0.0419546440243721
28.0,0.04087212309241295
30.0,0.03985634818673134
32.0,0.03887663036584854
36.0,0.0370892658829689
40.0,0.03546514734625816
44.0,0.033876944333314896
48.0,0.03228092938661575
52.0,0.030640019103884697
56.0,0.029107151553034782
60.0,0.027722269296646118
64.0,0.02650204673409462
72.0,0.024500787258148193
80.0,0.023066718131303787
88.0,0.021762628108263016
96.0,0.020437806844711304
104.0,0.019302422180771828
112.0,0.01800686866044998
120.0,0.016596954315900803
128.0,0.01542913168668747
144.0,0.01243862509727478
160.0,0.010514463298022747
176.0,0.008800972253084183
192.0,0.007017847616225481
208.0,0.006151739973574877
224.0,0.0054372744634747505
240.0,0.005709351971745491
256.0,0.0058132195845246315
288.0,0.004780204501003027
320.0,0.0033458720427006483
352.0,0.0038857734762132168
384.0,0.005651248153299093
416.0,0.005067778285592794
448.0,0.00395110622048378
480.0,0.003392675658687949
512.0,0.002299071056768298
576.0,0.002638135803863406
640.0,0.0014838565839454532
704.0,-0.00026041551609523594
768.0,0.0023919991217553616
832.0,0.003176748054102063
896.0,0.0034425845369696617
960.0,0.002767125843092799
1024.0,-0.0006052355747669935
1152.0,-0.007129340432584286
1280.0,-0.005814972333610058
1408.0,-0.0013499711640179157
1536.0,0.0012832335196435452
1664.0,0.0028360295109450817
1792.0,-0.0018242372898384929
1920.0,-0.0005452436162158847
2048.0,0.0028877395670861006
2304.0,-0.0015871446812525392
2560.0,0.001427682931534946
2816.0,-0.00675599928945303
3072.0,0.001968412660062313
3328.0,-0.0011114465305581689
3584.0,-0.0030051565263420343
3840.0,-0.004979821387678385
4096.0,0.0037792976945638657
4608.0,-0.0074065327644348145
5120.0,-0.0022439209278672934
5632.0,0.002784094540402293
6144.0,-0.005109650548547506
6656.0,-0.0067538488656282425
7168.0,0.0036248411051928997
7680.0,-0.0014494858914986253
8192.0,0.006001878064125776
9216.0,0.002232662867754698
10240.0,0.006464577745646238
11264.0,-0.0027034999802708626
12288.0,0.0018913316307589412
13312.0,7.391825056402013e-05
14336.0,-0.013386689126491547
end
