version,3.0
numOfCh,1
type,point
parent_name,4-cuts
ch_type,1_1
kcount,1
numberNandB,1
brightnessNandB,1
carpet pos,0
pc,0
Time (ms),CH1 Auto-Correlation
1.0,0.02235882729291916
2.0,0.02195933274924755
3.0,0.02157670073211193
4.0,0.021199354901909828
5.0,0.020832639187574387
6.0,0.02047940343618393
7.0,0.020137839019298553
8.0,0.01980394311249256
9.0,0.01948445476591587
10.0,0.01916755922138691
11.0,0.018855812028050423
12.0,0.0185491144657135
13.0,0.018255675211548805
14.0,0.01797819510102272
15.0,0.017714086920022964
16.0,0.017455758526921272
18.0,0.016945943236351013
20.0,0.016464632004499435
22.0,0.016007989645004272
24.0,0.015577740035951138
26.0,0.015136726200580597
28.0,0.014713303185999393
30.0,0.014311589300632477
32.0,0.013944122940301895
36.0,0.013300273567438126
40.0,0.012718998827040195
44.0,0.01220798771828413
48.0,0.011683311313390732
52.0,0.011139840818941593
56.0,0.010609176941215992
60.0,0.010125203058123589
64.0,0.009715749882161617
72.0,0.008988544344902039
80.0,0.008213832043111324
88.0,0.0075004007667303085
96.0,0.0069941068068146706
104.0,0.006556896958500147
112.0,0.006174704525619745
120.0,0.005861358251422644
128.0,0.005569002125412226
144.0,0.004978540353477001
160.0,0.004673489369452
176.0,0.004548297729343176
192.0,0.004187961108982563
208.0,0.0036723124794662
224.0,0.003348633414134383
240.0,0.0033199202734977007
256.0,0.0031515758018940687
288.0,0.002507945289835334
320.0,0.0024159082677215338
352.0,0.001715526799671352
384.0,0.0010260833660140634
416.0,0.0005730562843382359
448.0,-0.0004796595894731581
480.0,-0.0012765625724568963
512.0,-0.0014851870946586132
576.0,-0.0014413339085876942
640.0,-0.0015518758445978165
704.0,-0.0012634164886549115
768.0,-0.0005306632374413311
832.0,-0.00011855302000185475
896.0,0.0002719230833463371
960.0,7.119859219528735e-05
1024.0,-0.0008934742654673755
1152.0,-3.626024636105285e-06
1280.0,-7.590126188006252e-05
1408.0,-0.0010511873988434672
1536.0,-0.00023497460642829537
1664.0,-0.00047737511340528727
1792.0,0.0004030272248201072
1920.0,-0.0003121980407740921
2048.0,0.00013761995069216937
2304.0,-0.0008670844254083931
2560.0,-0.0008230026578530669
2816.0,-0.00021247591939754784
3072.0,0.0007700622081756592
3328.0,0.0016373114194720984
3584.0,0.0003555120201781392
3840.0,-0.0012292595347389579
4096.0,-0.0006622443906962872
4608.0,-0.004075790289789438
5120.0,0.0006382845458574593
5632.0,0.00042519738781265914
6144.0,0.0011742572532966733
6656.0,0.0009420708520337939
7168.0,0.0018346135038882494
7680.0,-0.0027169676031917334
8192.0,-0.00017191495862789452
9216.0,3.3990236261161044e-05
10240.0,-0.0002068171597784385
11264.0,-0.0009372068452648818
12288.0,-0.00018029437342192978
13312.0,0.0005037648370489478
14336.0,0.0001304348697885871
end
