version,3.0
numOfCh,1
type,point
parent_name,4-cuts
ch_type,1_1
kcount,1
numberNandB,1
brightnessNandB,1
carpet pos,0
pc,0
Time (ms),CH1 Auto-Correlation
1.0,0.02645001746714115
2.0,0.02606106735765934
3.0,0.0256765428930521
4.0,0.02530916966497898
5.0,0.024951238185167313
6.0,0.02459273487329483
7.0,0.02423575147986412
8.0,0.023881427943706512
9.0,0.023529307916760445
10.0,0.02320125326514244
11.0,0.02288617566227913
12.0,0.022570813074707985
13.0,0.02225777506828308
14.0,0.021956417709589005
15.0,0.0216682106256485
16.0,0.02140047773718834
18.0,0.020885998383164406
20.0,0.02038789540529251
22.0,0.01990855112671852
24.0,0.01943586766719818
26.0,0.018986234441399574
28.0,0.018541596829891205
30.0,0.018130797892808914
32.0,0.01772727631032467
36.0,0.0169932059943676
40.0,0.016332749277353287
44.0,0.015755904838442802
48.0,0.015261649154126644
52.0,0.014799359254539013
56.0,0.01436098013073206
60.0,0.013896236196160316
64.0,0.013451327569782734
72.0,0.012814134359359741
80.0,0.01227584294974804
88.0,0.011831271462142467
96.0,0.011436047032475471
104.0,0.010934446938335896
112.0,0.010475353337824345
120.0,0.009991778060793877
128.0,0.009633134119212627
144.0,0.009252440184354782
160.0,0.008781269192695618
176.0,0.008111085742712021
192.0,0.007575351279228926
208.0,0.007200620137155056
224.0,0.006700538564473391
240.0,0.006194016896188259
256.0,0.005890560802072287
288.0,0.005999899469316006
320.0,0.005997764877974987
352.0,0.005995555780827999
384.0,0.005286648869514465
416.0,0.004265927709639072
448.0,0.004124951083213091
480.0,0.003687462769448757
512.0,0.0035352460108697414
576.0,0.0028662183322012424
640.0,0.002866834867745638
704.0,0.0023115118965506554
768.0,0.003075065091252327
832.0,0.0024849555920809507
896.0,0.002366574015468359
960.0,0.0030406336300075054
1024.0,0.0023962990380823612
1152.0,0.0012769844615831971
1280.0,0.00047727383207529783
1408.0,-0.0005312314024195075
1536.0,-0.0016572345048189163
1664.0,-0.0026570421177893877
1792.0,-0.0025575589388608932
1920.0,-0.0014909699093550444
2048.0,-0.00027806751313619316
2304.0,-0.0013262828579172492
2560.0,-0.002973085967823863
2816.0,-0.002642568899318576
3072.0,-0.001779824960976839
3328.0,-0.0006171769928187132
3584.0,-0.0017218803986907005
3840.0,-0.0006316820508800447
4096.0,0.00171044678427279
4608.0,-0.0008530184277333319
5120.0,-0.0015212398720905185
5632.0,-0.005453876685351133
6144.0,-0.004416474606841803
6656.0,-0.00470822025090456
7168.0,-0.00034293835051357746
7680.0,0.0032577940728515387
8192.0,0.0032908436842262745
9216.0,0.0005868407897651196
10240.0,-0.0021815444342792034
11264.0,0.0025200413074344397
12288.0,0.006878945045173168
13312.0,0.0008404579130001366
14336.0,-0.009368842467665672
end
