version,3.0
numOfCh,1
type,point
parent_name,4-cuts
ch_type,1_1
kcount,1
numberNandB,1
brightnessNandB,1
carpet pos,0
pc,0
Time (ms),CH1 Auto-Correlation
1.0,0.06969569623470306
2.0,0.06842582672834396
3.0,0.06718038767576218
4.0,0.06599084287881851
5.0,0.06484026461839676
6.0,0.06372770667076111
7.0,0.06266064196825027
8.0,0.061648570001125336
9.0,0.06065146252512932
10.0,0.05966852605342865
11.0,0.05869467556476593
12.0,0.05776000767946243
13.0,0.05681542679667473
14.0,0.055924780666828156
15.0,0.05508087947964668
16.0,0.05424807593226433
18.0,0.052639834582805634
20.0,0.05103432014584541
22.0,0.049508221447467804
24.0,0.04801972582936287
26.0,0.04660474509000778
28.0,0.04527372121810913
30.0,0.04400140047073364
32.0,0.042785629630088806
36.0,0.04044247791171074
40.0,0.03847071900963783
44.0,0.03681296482682228
48.0,0.035428110510110855
52.0,0.034191031008958817
56.0,0.03302963450551033
60.0,0.031906891614198685
64.0,0.030759084969758987
72.0,0.028679974377155304
80.0,0.02710125409066677
88.0,0.025890544056892395
96.0,0.024931585416197777
104.0,0.023784911260008812
112.0,0.022439884021878242
120.0,0.02130969986319542
128.0,0.01990087330341339
144.0,0.016470501199364662
160.0,0.013744497671723366
176.0,0.01163952425122261
192.0,0.009647482074797153
208.0,0.007161746732890606
224.0,0.005056172143667936
240.0,0.0033144026529043913
256.0,0.002305007306858897
288.0,0.0028960341587662697
320.0,0.0041443295776844025
352.0,0.0034096734598279
384.0,0.0013523970264941454
416.0,-0.0004631892661564052
448.0,-0.0012042232556268573
480.0,-0.0014078215463086963
512.0,-0.0030238155741244555
576.0,-0.004149708431214094
640.0,-0.0028822084423154593
704.0,7.193357305368409e-05
768.0,0.0018732721218839288
832.0,-0.00021963160543236881
896.0,-6.645800021942705e-05
960.0,-0.0002446384751237929
1024.0,0.0033459188416600227
1152.0,0.007406368386000395
1280.0,0.002698639640584588
1408.0,0.002059750258922577
1536.0,0.0011908698361366987
1664.0,-0.004410973284393549
1792.0,0.0020451187156140804
1920.0,0.0045782397501170635
2048.0,0.0018855853704735637
2304.0,0.0038433317095041275
2560.0,-0.0012967628426849842
2816.0,0.001013454981148243
3072.0,-0.00836611445993185
3328.0,-0.004993579350411892
3584.0,-0.0061464435420930386
3840.0,-0.0009410488419234753
4096.0,-0.001135673257522285
4608.0,-0.009666615165770054
5120.0,-0.006260127294808626
5632.0,-0.007724572904407978
6144.0,0.0021450789645314217
6656.0,-0.003858113195747137
7168.0,0.0047617340460419655
7680.0,-0.0018084838520735502
8192.0,0.005096743814647198
9216.0,0.007592193316668272
10240.0,0.0021529679652303457
11264.0,0.003791038878262043
12288.0,-0.0042712795548141
13312.0,-0.002547667594626546
14336.0,-0.016046930104494095
end
