version,3.0
numOfCh,1
type,point
parent_name,4-cuts
ch_type,1_1
kcount,1
numberNandB,1
brightnessNandB,1
carpet pos,0
pc,0
Time (ms),CH1 Auto-Correlation
1.0,0.028563586995005608
2.0,0.027999982237815857
3.0,0.027463365346193314
4.0,0.026946192607283592
5.0,0.026430489495396614
6.0,0.025944413617253304
7.0,0.02546418085694313
8.0,0.025009794160723686
9.0,0.024575641378760338
10.0,0.02415810339152813
11.0,0.023764261975884438
12.0,0.023381391540169716
13.0,0.023007366806268692
14.0,0.0226341113448143
15.0,0.022275451570749283
16.0,0.021926892921328545
18.0,0.02123497612774372
20.0,0.020571991801261902
22.0,0.019929686561226845
24.0,0.0193558931350708
26.0,0.01879848726093769
28.0,0.018260378390550613
30.0,0.01775166392326355
32.0,0.01725352369248867
36.0,0.016299866139888763
40.0,0.015361664816737175
44.0,0.014473450370132923
48.0,0.013711859472095966
52.0,0.013130269944667816
56.0,0.012724506668746471
60.0,0.012389196082949638
64.0,0.012088727205991745
72.0,0.011620675213634968
80.0,0.011184819974005222
88.0,0.010722754523158073
96.0,0.010323158465325832
104.0,0.009897429496049881
112.0,0.009401043877005577
120.0,0.008847069926559925
128.0,0.008387461304664612
144.0,0.007790964562445879
160.0,0.007591621484607458
176.0,0.007477033417671919
192.0,0.007366098463535309
208.0,0.007226202171295881
224.0,0.006831791717559099
240.0,0.006110625807195902
256.0,0.00570774357765913
288.0,0.004921488929539919
320.0,0.003932322841137648
352.0,0.0031482302583754063
384.0,0.0030724648386240005
416.0,0.003180586500093341
448.0,0.0031463427003473043
480.0,0.003029958810657263
512.0,0.0031636336352676153
576.0,0.0014618124114349484
640.0,4.431006800587056e-06
704.0,-0.0004999983357265592
768.0,-0.0014180908910930157
832.0,-0.0012761402176693082
896.0,-0.0015001425053924322
960.0,-0.0013522981898859143
1024.0,-0.0014765261439606547
1152.0,-0.0029040074441581964
1280.0,-0.001809945097193122
1408.0,-0.0010193107882514596
1536.0,-0.00135976227466017
1664.0,-0.000606394896749407
1792.0,0.0001597648806637153
1920.0,-0.0008334290469065309
2048.0,-0.0009872851660475135
2304.0,0.0013001780025660992
2560.0,0.001961376518011093
2816.0,0.0004280493885744363
3072.0,-0.0002946884196717292
3328.0,-0.00012444687308743596
3584.0,0.0021473534870892763
3840.0,0.0034401032608002424
4096.0,0.004853974562138319
4608.0,-0.0014662669273093343
5120.0,-0.005718050990253687
5632.0,-0.0030997549183666706
6144.0,0.0014792978763580322
6656.0,0.0001461552019463852
7168.0,-0.000764497322961688
7680.0,-0.0013897393364459276
8192.0,-0.002973959781229496
9216.0,-0.0012609950499609113
10240.0,0.0028267567977309227
11264.0,-0.002652416005730629
12288.0,-0.0017214615363627672
13312.0,0.001860382966697216
14336.0,0.003372397506609559
end
