version,3.0
numOfCh,1
type,point
parent_name,4-cuts
ch_type,1_1
kcount,1
numberNandB,1
brightnessNandB,1
carpet pos,0
pc,0
Time (ms),CH1 Auto-Correlation
1.0,0.031257886439561844
2.0,0.03067598305642605
3.0,0.030125262215733528
4.0,0.029577555134892464
5.0,0.029042672365903854
6.0,0.028538629412651062
7.0,0.028041526675224304
8.0,0.027555100619792938
9.0,0.02709631808102131
10.0,0.026654573157429695
11.0,0.026250585913658142
12.0,0.02585061453282833
13.0,0.02547192946076393
14.0,0.025093546137213707
15.0,0.02473396249115467
16.0,0.024374056607484818
18.0,0.023670965805649757
20.0,0.023014668375253677
22.0,0.022409239783883095
24.0,0.021845100447535515
26.0,0.02131810411810875
28.0,0.020845044404268265
30.0,0.020383480936288834
32.0,0.0199277363717556
36.0,0.01908784918487072
40.0,0.01829308457672596
44.0,0.017514336854219437
48.0,0.01672370173037052
52.0,0.015962593257427216
56.0,0.015161233022809029
60.0,0.014352014288306236
64.0,0.013632775284349918
72.0,0.012440228834748268
80.0,0.011355990543961525
88.0,0.010313676670193672
96.0,0.009475357830524445
104.0,0.008839218877255917
112.0,0.008319739252328873
120.0,0.007734686601907015
128.0,0.007170640863478184
144.0,0.006178641226142645
160.0,0.00537010096013546
176.0,0.00444318912923336
192.0,0.00396151514723897
208.0,0.0031570838764309883
224.0,0.0025124456733465195
240.0,0.0024414430372416973
256.0,0.002297405619174242
288.0,0.0018942225724458694
320.0,0.001347032724879682
352.0,-0.00010330678924219683
384.0,-0.0018847509054467082
416.0,-0.0030046398751437664
448.0,-0.003434604499489069
480.0,-0.003158477833494544
512.0,-0.0024280815850943327
576.0,-0.002268851036205888
640.0,-0.001539209857583046
704.0,-0.0009178705513477325
768.0,-0.0007714889361523092
832.0,-4.658678517444059e-05
896.0,0.00043986679520457983
960.0,0.000890858587808907
1024.0,0.001093715545721352
1152.0,0.0021506790071725845
1280.0,0.0034452227409929037
1408.0,0.0030196872539818287
1536.0,0.0020771226845681667
1664.0,-0.0006930874078534544
1792.0,-0.0019974743481725454
1920.0,-0.0002328125265194103
2048.0,-0.00026625412283465266
2304.0,0.0008221687166951597
2560.0,-0.003914717584848404
2816.0,-0.0020945474971085787
3072.0,0.0004362478503026068
3328.0,0.0034385703038424253
3584.0,0.0025887859519571066
3840.0,-0.0024002010468393564
4096.0,-0.005275431554764509
4608.0,0.0006508412770926952
5120.0,-0.0014916895888745785
5632.0,-0.0030899601988494396
6144.0,-0.0007682522991672158
6656.0,-0.0013360681477934122
7168.0,-0.0026088799349963665
7680.0,-1.9831892132060602e-05
8192.0,0.0012139638420194387
9216.0,-0.0007199335377663374
10240.0,0.0007448799442499876
11264.0,0.0024469089694321156
12288.0,0.0012135294964537024
13312.0,-0.0028220696840435266
14336.0,-0.0004536517371889204
end
