version,3.0
numOfCh,1
type,point
parent_name,4-cuts
ch_type,1_1
kcount,1
numberNandB,1
brightnessNandB,1
carpet pos,0
pc,0
Time (ms),CH1 Auto-Correlation
1.0,0.06484587490558624
2.0,0.06362546235322952
3.0,0.06243189796805382
4.0,0.06130285933613777
5.0,0.06023590639233589
6.0,0.05920691415667534
7.0,0.05824301764369011
8.0,0.05726240947842598
9.0,0.05632929503917694
10.0,0.05547244846820831
11.0,0.05465669929981232
12.0,0.053900547325611115
13.0,0.053152553737163544
14.0,0.05240531638264656
15.0,0.05167165398597717
16.0,0.05092739686369896
18.0,0.04955830052495003
20.0,0.04827477037906647
22.0,0.0470476858317852
24.0,0.045883532613515854
26.0,0.04478123411536217
28.0,0.043733131140470505
30.0,0.04278123006224632
32.0,0.041863612830638885
36.0,0.040170710533857346
40.0,0.03840946406126022
44.0,0.036759886890649796
48.0,0.03553769737482071
52.0,0.03445462882518768
56.0,0.033358968794345856
60.0,0.03222649544477463
64.0,0.03117801621556282
72.0,0.02917957864701748
80.0,0.02760542742908001
88.0,0.02655753120779991
96.0,0.025375474244356155
104.0,0.024714617058634758
112.0,0.024144964292645454
120.0,0.023542111739516258
128.0,0.02286839857697487
144.0,0.021283628419041634
160.0,0.01891149766743183
176.0,0.016034772619605064
192.0,0.01409200020134449
208.0,0.013127199374139309
224.0,0.012445817701518536
240.0,0.012000118382275105
256.0,0.012174318544566631
288.0,0.012163206934928894
320.0,0.011248298920691013
352.0,0.011168108321726322
384.0,0.011165212839841843
416.0,0.009785519912838936
448.0,0.007276793941855431
480.0,0.0054102190770208836
512.0,0.003866371465846896
576.0,0.002033330500125885
640.0,0.0010165323037654161
704.0,0.0023189436178654432
768.0,0.0018383183050900698
832.0,0.0018698839703574777
896.0,0.00329118175432086
960.0,0.004222608637064695
1024.0,0.002815385814756155
1152.0,0.0023359572514891624
1280.0,0.0006807019235566258
1408.0,0.0008591303485445678
1536.0,0.00035844629746861756
1664.0,0.0007004656945355237
1792.0,0.0014962777495384216
1920.0,0.0022913054563105106
2048.0,0.00428361538797617
2304.0,0.001280121156014502
2560.0,-0.004613377153873444
2816.0,-0.006879710592329502
3072.0,-0.0016616529319435358
3328.0,-0.004919772502034903
3584.0,-0.00783567689359188
3840.0,-0.004666125401854515
4096.0,-0.0033824536949396133
4608.0,0.0008220380987040699
5120.0,-0.0019516259199008346
5632.0,-0.0029364717192947865
6144.0,-0.00458427844569087
6656.0,0.002751368097960949
7168.0,-0.001545109087601304
7680.0,0.0015876451507210732
8192.0,-0.008392986841499805
9216.0,-0.006552036385983229
10240.0,-0.0027435338124632835
11264.0,0.005719966720789671
12288.0,0.009878400713205338
13312.0,-4.617305239662528e-05
14336.0,-0.00038617211976088583
end
