version,3.0
numOfCh,1
type,point
parent_name,4-cuts
ch_type,1_1
kcount,1
numberNandB,1
brightnessNandB,1
carpet pos,0
pc,0
Time (ms),CH1 Auto-Correlation
1.0,0.024341007694602013
2.0,0.023751167580485344
3.0,0.02317296713590622
4.0,0.022609632462263107
5.0,0.022083410993218422
6.0,0.02157597243785858
7.0,0.02109484188258648
8.0,0.020646216347813606
9.0,0.020205464214086533
10.0,0.019774116575717926
11.0,0.019339067861437798
12.0,0.018918408080935478
13.0,0.018493546172976494
14.0,0.018076343461871147
15.0,0.017663676291704178
16.0,0.017239829525351524
18.0,0.01644807867705822
20.0,0.01572916842997074
22.0,0.015071460977196693
24.0,0.01445330586284399
26.0,0.01385287381708622
28.0,0.013330237939953804
30.0,0.012828616425395012
32.0,0.012292047031223774
36.0,0.011186020448803902
40.0,0.010147053748369217
44.0,0.009260136634111404
48.0,0.008524153381586075
52.0,0.00790416169911623
56.0,0.0073388004675507545
60.0,0.006793919485062361
64.0,0.006327852141112089
72.0,0.0055940174497663975
80.0,0.004958885721862316
88.0,0.004271786659955978
96.0,0.0034883618354797363
104.0,0.0029694694094359875
112.0,0.002552469726651907
120.0,0.002243703231215477
128.0,0.0019159350777044892
144.0,0.0017827190458774567
160.0,0.002105127088725567
176.0,0.0021645505912601948
192.0,0.00196458725258708
208.0,0.0017566172173246741
224.0,0.0016511973226442933
240.0,0.0014119558036327362
256.0,0.0014078776584938169
288.0,0.0004883220535703003
320.0,-0.00012756988871842623
352.0,-0.00019945409439969808
384.0,-0.000510237121488899
416.0,-0.0006605677190236747
448.0,-0.0008294332656078041
480.0,-0.0004170225001871586
512.0,0.00024395094078499824
576.0,-0.000303770910250023
640.0,-0.0006860963185317814
704.0,-0.00044431924470700324
768.0,4.2958192352671176e-05
832.0,3.243123137508519e-05
896.0,-0.0007214986253529787
960.0,-0.0008802366792224348
1024.0,0.0006505314377136528
1152.0,0.002268875716254115
1280.0,0.0022194753400981426
1408.0,0.0004962948733009398
1536.0,0.0010956564219668508
1664.0,-0.00019765377510339022
1792.0,0.00044371283729560673
1920.0,6.584215589100495e-05
2048.0,0.00015515692939516157
2304.0,0.0003124169015791267
2560.0,-0.0005736213061027229
2816.0,-0.0012143495259806514
3072.0,-0.0007696075481362641
3328.0,-0.0005693475250154734
3584.0,0.0006014271057210863
3840.0,-0.00025425321655347943
4096.0,-0.0009426455944776535
4608.0,-0.0006690411828458309
5120.0,-0.000409097847295925
5632.0,-0.0002649503876455128
6144.0,0.0010084601817652583
6656.0,0.00013513972226064652
7168.0,-0.0006099267629906535
7680.0,-0.00018918667046818882
8192.0,-0.0003228267596568912
9216.0,-0.0015830114716663957
10240.0,-0.0015911487862467766
11264.0,0.00021547252254094929
12288.0,0.00024494394892826676
13312.0,0.002176552778109908
14336.0,0.0013682292774319649
end
