version,3.0
numOfCh,1
type,point
parent_name,4-cuts
ch_type,1_1
kcount,1
numberNandB,1
brightnessNandB,1
carpet pos,0
pc,0
Time (ms),CH1 Auto-Correlation
1.0,0.04194427281618118
2.0,0.04134363681077957
3.0,0.04075250029563904
4.0,0.04018082469701767
5.0,0.039624352008104324
6.0,0.039093662053346634
7.0,0.03858707472681999
8.0,0.038094766438007355
9.0,0.037612706422805786
10.0,0.03714669123291969
11.0,0.03668476268649101
12.0,0.03623668849468231
13.0,0.03580483794212341
14.0,0.03537788614630699
15.0,0.034960027784109116
16.0,0.034572675824165344
18.0,0.033821750432252884
20.0,0.03311067819595337
22.0,0.032418131828308105
24.0,0.03177730366587639
26.0,0.03114599920809269
28.0,0.03056926280260086
30.0,0.03001304343342781
32.0,0.029432089999318123
36.0,0.028310727328062057
40.0,0.027306443080306053
44.0,0.026383573189377785
48.0,0.02549627795815468
52.0,0.02467465214431286
56.0,0.023916427046060562
60.0,0.02317415550351143
64.0,0.022525595501065254
72.0,0.02119612880051136
80.0,0.020064545795321465
88.0,0.019163670018315315
96.0,0.01827060431241989
104.0,0.017548158764839172
112.0,0.017028016969561577
120.0,0.01635800674557686
128.0,0.015850065276026726
144.0,0.015561790205538273
160.0,0.015467940829694271
176.0,0.014965130016207695
192.0,0.014315132051706314
208.0,0.013927583582699299
224.0,0.013531260192394257
240.0,0.013199720531702042
256.0,0.013435044325888157
288.0,0.013602806255221367
320.0,0.01317137386649847
352.0,0.011402081698179245
384.0,0.009587815962731838
416.0,0.007002193480730057
448.0,0.005584281403571367
480.0,0.004660817328840494
512.0,0.005151126999408007
576.0,0.006022090092301369
640.0,0.00606707576662302
704.0,0.004500714596360922
768.0,0.0026787659153342247
832.0,0.0029360840562731028
896.0,0.002782821888104081
960.0,0.0053641460835933685
1024.0,0.005213817115873098
1152.0,0.004309329204261303
1280.0,0.006852395366877317
1408.0,0.005806941073387861
1536.0,0.0050158146768808365
1664.0,0.003756763879209757
1792.0,-0.0007524308748543262
1920.0,-0.001368034747429192
2048.0,-0.0033162327017635107
2304.0,-0.0016633147606626153
2560.0,0.0006193965091370046
2816.0,0.0033470357302576303
3072.0,-0.0008785664686001837
3328.0,-0.0031669538002461195
3584.0,-0.0039056441746652126
3840.0,-0.0027417107485234737
4096.0,-0.0012827010359615088
4608.0,-0.003655619453638792
5120.0,-0.003925582859665155
5632.0,-0.005808050278574228
6144.0,-0.003476932644844055
6656.0,-0.0010781181044876575
7168.0,0.002403692342340946
7680.0,0.0007193445926532149
8192.0,-0.0012955281417816877
9216.0,-0.002038447419181466
10240.0,-0.0027495939284563065
11264.0,-0.0010359338484704494
12288.0,-0.002593204379081726
13312.0,-0.002393862698227167
14336.0,0.0020004461985081434
end
