version,3.0
numOfCh,1
type,point
parent_name,4-cuts
ch_type,1_1
kcount,1
numberNandB,1
brightnessNandB,1
carpet pos,0
pc,0
Time (ms),CH1 Auto-Correlation
1.0,0.06863905489444733
2.0,0.06745128333568573
3.0,0.06631340831518173
4.0,0.06521108746528625
5.0,0.06413984298706055
6.0,0.06309764087200165
7.0,0.062053922563791275
8.0,0.06105997413396835
9.0,0.06008005514740944
10.0,0.05913526937365532
11.0,0.05817840248346329
12.0,0.057271942496299744
13.0,0.05637461319565773
14.0,0.055492859333753586
15.0,0.05464901030063629
16.0,0.0538557767868042
18.0,0.05233053117990494
20.0,0.050890956073999405
22.0,0.04955228418111801
24.0,0.04829207435250282
26.0,0.047046512365341187
28.0,0.04587167501449585
30.0,0.044716719537973404
32.0,0.04358334839344025
36.0,0.04130963236093521
40.0,0.03920541703701019
44.0,0.03732629865407944
48.0,0.035515666007995605
52.0,0.03391828015446663
56.0,0.032646581530570984
60.0,0.031597089022397995
64.0,0.030628273263573647
72.0,0.02901376597583294
80.0,0.027786731719970703
88.0,0.026739563792943954
96.0,0.025469647720456123
104.0,0.02421756274998188
112.0,0.022829752415418625
120.0,0.021717719733715057
128.0,0.020736820995807648
144.0,0.01918831095099449
160.0,0.017850950360298157
176.0,0.017431650310754776
192.0,0.01685660146176815
208.0,0.01687972992658615
224.0,0.016883045434951782
240.0,0.016596246510744095
256.0,0.01560987625271082
288.0,0.012136089615523815
320.0,0.009262929670512676
352.0,0.008689908310770988
384.0,0.007129752077162266
416.0,0.004835930652916431
448.0,0.003935146611183882
480.0,0.004713540896773338
512.0,0.002896989695727825
576.0,-0.000586209527682513
640.0,0.0003190559218637645
704.0,0.00184015859849751
768.0,0.00031877856235951185
832.0,-0.0007728177006356418
896.0,0.000846081122290343
960.0,0.0010000267066061497
1024.0,-0.003656686283648014
1152.0,-0.0074686771258711815
1280.0,-0.009285367093980312
1408.0,-0.01074100099503994
1536.0,-0.007705349009484053
1664.0,-0.005813707131892443
1792.0,-0.006205510813742876
1920.0,-0.00573098286986351
2048.0,-0.005816735792905092
2304.0,-0.0047523267567157745
2560.0,0.0011682353215292096
2816.0,0.0008035611244849861
3072.0,0.0024477310944348574
3328.0,0.0055516972206532955
3584.0,0.0001576045760884881
3840.0,-0.0036749239079654217
4096.0,0.0017858275678008795
4608.0,-0.0010909453267231584
5120.0,-0.005736480932682753
5632.0,-0.00028921052580699325
6144.0,-0.004595017991960049
6656.0,0.00016376544954255223
7168.0,0.0024148505181074142
7680.0,0.0036925734020769596
8192.0,0.0008015406783670187
9216.0,0.00029873152379877865
10240.0,0.002043998334556818
11264.0,0.007292862981557846
12288.0,-0.009536577388644218
13312.0,-0.003852095687761903
14336.0,0.004039829131215811
end
