version,3.0
numOfCh,1
type,point
parent_name,4-cuts
ch_type,1_1
kcount,1
numberNandB,1
brightnessNandB,1
carpet pos,0
pc,0
Time (ms),CH1 Auto-Correlation
1.0,0.060509733855724335
2.0,0.059316765516996384
3.0,0.05821366235613823
4.0,0.05716085061430931
5.0,0.05612901598215103
6.0,0.05514686554670334
7.0,0.05420820787549019
8.0,0.05330803990364075
9.0,0.05243024230003357
10.0,0.051598019897937775
11.0,0.05079713091254234
12.0,0.05002523586153984
13.0,0.049254175275564194
14.0,0.048499125987291336
15.0,0.04776141792535782
16.0,0.04703089967370033
18.0,0.04568730294704437
20.0,0.04445473477244377
22.0,0.043266087770462036
24.0,0.04214569181203842
26.0,0.041028283536434174
28.0,0.039928093552589417
30.0,0.038835279643535614
32.0,0.037766311317682266
36.0,0.03570595011115074
40.0,0.033789169043302536
44.0,0.032073840498924255
48.0,0.030568759888410568
52.0,0.02927098423242569
56.0,0.02788471058011055
60.0,0.026543959975242615
64.0,0.02524583600461483
72.0,0.023437606170773506
80.0,0.022183125838637352
88.0,0.02087699994444847
96.0,0.01921335607767105
104.0,0.017129026353359222
112.0,0.015096818096935749
120.0,0.01321883499622345
128.0,0.011742525734007359
144.0,0.009091108106076717
160.0,0.006899785716086626
176.0,0.0049923136830329895
192.0,0.002652436960488558
208.0,0.0009305003331974149
224.0,0.0003790479968301952
240.0,0.0003917702997568995
256.0,0.0005134227685630322
288.0,0.002564155962318182
320.0,0.004871507175266743
352.0,0.006455712486058474
384.0,0.007973798550665379
416.0,0.009972878731787205
448.0,0.009401233866810799
480.0,0.007977153174579144
512.0,0.007937685586512089
576.0,0.004342664033174515
640.0,0.00311648054048419
704.0,0.005292425397783518
768.0,0.004191004671156406
832.0,0.004556040745228529
896.0,0.001420284854248166
960.0,-0.0031199343502521515
1024.0,-0.0035872103180736303
1152.0,5.530619455385022e-05
1280.0,0.003935929387807846
1408.0,0.00214134412817657
1536.0,-0.0017892583273351192
1664.0,-0.00012681700172834098
1792.0,-3.5033885069424286e-05
1920.0,-0.0037851573433727026
2048.0,0.0021024520974606276
2304.0,-0.00319381570443511
2560.0,-0.0024454211816191673
2816.0,-0.004032711032778025
3072.0,-0.006940515711903572
3328.0,-0.010477611795067787
3584.0,-0.00683912169188261
3840.0,-0.00486213993281126
4096.0,-0.004161810502409935
4608.0,-0.000433498527854681
5120.0,-0.0020494393538683653
5632.0,-0.001928103854879737
6144.0,0.0032208780758082867
6656.0,0.008267225697636604
7168.0,0.005060391500592232
7680.0,0.0032888741698116064
8192.0,0.004145650193095207
9216.0,-0.0010058390907943249
10240.0,-0.00556946313008666
11264.0,-0.0030528272036463022
12288.0,-0.004481653217226267
13312.0,-0.0012163369683548808
14336.0,0.006020439323037863
end
