version,3.0
numOfCh,1
type,point
parent_name,4-cuts
ch_type,1_1
kcount,1
numberNandB,1
brightnessNandB,1
carpet pos,0
pc,0
Time (ms),CH1 Auto-Correlation
1.0,0.03054964542388916
2.0,0.02997174859046936
3.0,0.02942974679172039
4.0,0.028895411640405655
5.0,0.028373202309012413
6.0,0.027878664433956146
7.0,0.02738061547279358
8.0,0.026888394728302956
9.0,0.026412298902869225
10.0,0.0259444247931242
11.0,0.025494325906038284
12.0,0.025039393454790115
13.0,0.02462291717529297
14.0,0.02422410249710083
15.0,0.023824259638786316
16.0,0.023441944271326065
18.0,0.02276347391307354
20.0,0.022129319608211517
22.0,0.02151654288172722
24.0,0.020946290343999863
26.0,0.02036433108150959
28.0,0.019773492589592934
30.0,0.019192639738321304
32.0,0.018652206286787987
36.0,0.01769447512924671
40.0,0.016807418316602707
44.0,0.01598402112722397
48.0,0.01522357203066349
52.0,0.014538971707224846
56.0,0.013965939171612263
60.0,0.013426193036139011
64.0,0.012913385406136513
72.0,0.012091808021068573
80.0,0.01154087670147419
88.0,0.011022517457604408
96.0,0.010556453838944435
104.0,0.010147497989237309
112.0,0.009675871580839157
120.0,0.009271218441426754
128.0,0.00892834272235632
144.0,0.008333487436175346
160.0,0.007888763211667538
176.0,0.007591296453028917
192.0,0.007391972932964563
208.0,0.006545986980199814
224.0,0.005133693106472492
240.0,0.003778441809117794
256.0,0.0037376778200268745
288.0,0.003254859708249569
320.0,0.002510134596377611
352.0,0.001981339417397976
384.0,0.0015664489474147558
416.0,0.0013969514984637499
448.0,0.001670627505518496
480.0,0.0027209932450205088
512.0,0.0026577829848974943
576.0,0.0033992042299360037
640.0,0.004878748673945665
704.0,0.001774630043655634
768.0,0.0002400317753199488
832.0,-0.0003983601927757263
896.0,-0.0011399158975109458
960.0,-0.0032012630254030228
1024.0,-0.004171521868556738
1152.0,-0.004772349260747433
1280.0,-0.004327451344579458
1408.0,-0.004042329732328653
1536.0,-0.0028240401297807693
1664.0,-0.0016644425923004746
1792.0,-0.0017367707332596183
1920.0,-5.326450991560705e-05
2048.0,-0.0008086308953352273
2304.0,0.00047725511831231415
2560.0,0.0032061783131211996
2816.0,0.0012115818681195378
3072.0,0.00012612438877113163
3328.0,0.0023874954786151648
3584.0,-0.001270043896511197
3840.0,-0.0021135208662599325
4096.0,-0.004780889954417944
4608.0,-0.0037265608552843332
5120.0,-0.000358862045686692
5632.0,0.001850413391366601
6144.0,0.001806145068258047
6656.0,0.000585592002607882
7168.0,-0.0008199497824534774
7680.0,-0.0018234800081700087
8192.0,0.0010476225288584828
9216.0,0.004219974856823683
10240.0,-0.006152094807475805
11264.0,0.0028218822553753853
12288.0,0.000636257987935096
13312.0,-0.004394611343741417
14336.0,0.00023973138013388962
end
