version,3.0
numOfCh,1
type,point
parent_name,4-cuts
ch_type,1_1
kcount,1
numberNandB,1
brightnessNandB,1
carpet pos,0
pc,0
Time (ms),CH1 Auto-Correlation
1.0,0.02762235887348652
2.0,0.02706020511686802
3.0,0.026532266288995743
4.0,0.02601596899330616
5.0,0.025534313172101974
6.0,0.02507343702018261
7.0,0.02462574653327465
8.0,0.024190938100218773
9.0,0.023770274594426155
10.0,0.02335234545171261
11.0,0.022949542850255966
12.0,0.022554563358426094
13.0,0.022169362753629684
14.0,0.021797936409711838
15.0,0.021431097760796547
16.0,0.021044673398137093
18.0,0.02028331533074379
20.0,0.01955445297062397
22.0,0.018895123153924942
24.0,0.018283246085047722
26.0,0.01772836223244667
28.0,0.017206449061632156
30.0,0.016687126830220222
32.0,0.016190756112337112
36.0,0.015333055518567562
40.0,0.014540543779730797
44.0,0.013866065070033073
48.0,0.01325429230928421
52.0,0.012685476802289486
56.0,0.012110772542655468
60.0,0.01161636970937252
64.0,0.011274978518486023
72.0,0.010584229603409767
80.0,0.00982928741723299
88.0,0.009133613668382168
96.0,0.008403107523918152
104.0,0.007757178507745266
112.0,0.007205809932202101
120.0,0.006803620606660843
128.0,0.006501613650470972
144.0,0.005767890252172947
160.0,0.00517317047342658
176.0,0.00478639779612422
192.0,0.0046682883985340595
208.0,0.004906266462057829
224.0,0.0052071972750127316
240.0,0.005133308470249176
256.0,0.004984371829777956
288.0,0.004868172574788332
320.0,0.004289937671273947
352.0,0.003494173986837268
384.0,0.0035307365469634533
416.0,0.0032281973399221897
448.0,0.0023530321195721626
480.0,0.002003517234697938
512.0,0.002030355855822563
576.0,0.0011505456641316414
640.0,0.0010724365711212158
704.0,-0.00048449874157086015
768.0,-0.0017466348363086581
832.0,-0.0016875355504453182
896.0,-0.0011830946896225214
960.0,-0.0010953997261822224
1024.0,-0.00281610619276762
1152.0,-0.003459623549133539
1280.0,-0.0033863536082208157
1408.0,-0.005502420477569103
1536.0,-0.005367225036025047
1664.0,-0.0060994792729616165
1792.0,-0.005339514464139938
1920.0,-0.0029445497784763575
2048.0,-0.0016271620988845825
2304.0,-0.0012384065194055438
2560.0,-0.0001934206229634583
2816.0,0.0007433237042278051
3072.0,0.003008851082995534
3328.0,0.005310423672199249
3584.0,0.003233618102967739
3840.0,0.003713141893967986
4096.0,0.0014403595123440027
4608.0,-0.002004109788686037
5120.0,-0.00598766328766942
5632.0,-0.0029956691432744265
6144.0,0.002275345381349325
6656.0,0.0033098512794822454
7168.0,0.0014350450364872813
7680.0,0.0021337317302823067
8192.0,-0.0012671727454289794
9216.0,-0.002171952510252595
10240.0,0.0014082277193665504
11264.0,0.0005604296457022429
12288.0,-0.0018059862777590752
13312.0,0.0005197483696974814
14336.0,0.0015110375825315714
end
