version,3.0
numOfCh,1
type,point
parent_name,4-cuts
ch_type,1_1
kcount,1
numberNandB,1
brightnessNandB,1
carpet pos,0
pc,0
Time (ms),CH1 Auto-Correlation
1.0,0.032978709787130356
2.0,0.032400261610746384
3.0,0.03182791545987129
4.0,0.0312831811606884
5.0,0.03075198456645012
6.0,0.030245736241340637
7.0,0.029757995158433914
8.0,0.029286004602909088
9.0,0.02882550098001957
10.0,0.028375154361128807
11.0,0.02793038636445999
12.0,0.02750471420586109
13.0,0.02709348127245903
14.0,0.02669920213520527
15.0,0.026315271854400635
16.0,0.025937048718333244
18.0,0.025228604674339294
20.0,0.024583725258708
22.0,0.023987485095858574
24.0,0.023400599136948586
26.0,0.02281493879854679
28.0,0.02225278504192829
30.0,0.02169356495141983
32.0,0.02114224247634411
36.0,0.020108813419938087
40.0,0.01910504139959812
44.0,0.018154297024011612
48.0,0.017264151945710182
52.0,0.016508109867572784
56.0,0.01590915210545063
60.0,0.015352996066212654
64.0,0.014796898700296879
72.0,0.013651925139129162
80.0,0.012665505520999432
88.0,0.011759831570088863
96.0,0.010812201537191868
104.0,0.009937740862369537
112.0,0.009153463877737522
120.0,0.008220010437071323
128.0,0.007232861593365669
144.0,0.005374152213335037
160.0,0.004023252986371517
176.0,0.002586182439699769
192.0,0.0014539319090545177
208.0,0.0006942807231098413
224.0,0.000798822904471308
240.0,0.0010561239905655384
256.0,0.0011437170905992389
288.0,0.0006012330995872617
320.0,0.0007867961539886892
352.0,0.0016359311994165182
384.0,0.00208379328250885
416.0,0.002208695514127612
448.0,0.002074495190754533
480.0,0.0025671347975730896
512.0,0.0036687985993921757
576.0,0.00350945140235126
640.0,0.0035374274011701345
704.0,0.004043345805257559
768.0,0.0017438753275200725
832.0,0.0008313959697261453
896.0,-9.978176967706531e-05
960.0,0.0015287374844774604
1024.0,0.000983741134405136
1152.0,0.0009230138966813684
1280.0,0.0013101717922836542
1408.0,0.0010919964406639338
1536.0,0.0010467151878401637
1664.0,-0.0019002020126208663
1792.0,-0.0003698273212648928
1920.0,0.0008145473548211157
2048.0,-0.00019866159709636122
2304.0,-0.002550707897171378
2560.0,-0.003909421619027853
2816.0,-0.005433005280792713
3072.0,-0.0030761254020035267
3328.0,-0.0035852298606187105
3584.0,-0.0021403341088443995
3840.0,-0.0009168839314952493
4096.0,-0.002924982225522399
4608.0,-9.717247303342447e-05
5120.0,0.0019238474778831005
5632.0,0.002112683840095997
6144.0,0.0021151737309992313
6656.0,0.002570475684478879
7168.0,0.0028864529449492693
7680.0,-1.688016163825523e-05
8192.0,-0.00407376978546381
9216.0,-0.0015125813661143184
10240.0,-0.0005775205790996552
11264.0,-0.0005406772252172232
12288.0,0.0012599598849192262
13312.0,7.182138506323099e-05
14336.0,-0.0032732707913964987
end
