version,3.0
numOfCh,1
type,point
parent_name,4-cuts
ch_type,1_1
kcount,1
numberNandB,1
brightnessNandB,1
carpet pos,0
pc,0
Time (ms),CH1 Auto-Correlation
1.0,0.021105285733938217
2.0,0.020722972229123116
3.0,0.020367465913295746
4.0,0.02000870555639267
5.0,0.019651293754577637
6.0,0.019294293597340584
7.0,0.0189451202750206
8.0,0.01859806850552559
9.0,0.018260600045323372
10.0,0.017936108633875847
11.0,0.01762617565691471
12.0,0.0173274464905262
13.0,0.017039405182003975
14.0,0.016759824007749557
15.0,0.016495009884238243
16.0,0.01624024473130703
18.0,0.01575840823352337
20.0,0.015303032472729683
22.0,0.014876862056553364
24.0,0.014482672326266766
26.0,0.014102197252213955
28.0,0.013761911541223526
30.0,0.013413304463028908
32.0,0.013067548163235188
36.0,0.01239350251853466
40.0,0.0117261353880167
44.0,0.011128614656627178
48.0,0.010588458739221096
52.0,0.010122980922460556
56.0,0.009751583449542522
60.0,0.009450090117752552
64.0,0.009137558750808239
72.0,0.00865731481462717
80.0,0.008312352001667023
88.0,0.007892198860645294
96.0,0.007519211154431105
104.0,0.0072241113521158695
112.0,0.006902820430696011
120.0,0.006608035881072283
128.0,0.006303097121417522
144.0,0.005488081369549036
160.0,0.0050086104311048985
176.0,0.0046033235266804695
192.0,0.004361026920378208
208.0,0.004233528394252062
224.0,0.004201377741992474
240.0,0.00448240339756012
256.0,0.004636525176465511
288.0,0.0038264920003712177
320.0,0.0026196271646767855
352.0,0.00239282357506454
384.0,0.0022169125732034445
416.0,0.0020382339134812355
448.0,0.0014391967561095953
480.0,0.0010183552512899041
512.0,0.0013846897054463625
576.0,0.0004089773865416646
640.0,0.0002584162284620106
704.0,-0.0006834290688857436
768.0,-0.000589480740018189
832.0,-2.055408913292922e-05
896.0,0.00041085915290750563
960.0,0.0007632466149516404
1024.0,0.001050114631652832
1152.0,0.0013544405810534954
1280.0,0.0015522987814620137
1408.0,0.0011605311883613467
1536.0,0.0013006366789340973
1664.0,0.0002455144713167101
1792.0,0.0005389864672906697
1920.0,0.0011819457868114114
2048.0,-0.0001376820437144488
2304.0,-0.0020753529388457537
2560.0,-0.0031749247573316097
2816.0,-0.000604372238740325
3072.0,0.0003633119340520352
3328.0,-0.001212615636177361
3584.0,-0.0029419255442917347
3840.0,-0.004066680558025837
4096.0,-0.0015372580382972956
4608.0,-0.0004093910101801157
5120.0,-0.0014898754889145494
5632.0,0.00021950880181975663
6144.0,0.002713296562433243
6656.0,-0.0004784492193721235
7168.0,0.0009705955162644386
7680.0,0.0015209977282211185
8192.0,-0.0014018274378031492
9216.0,-0.0018838482210412621
10240.0,-0.001987173454836011
11264.0,0.0013901866041123867
12288.0,-0.00012953890836797655
13312.0,0.003601551754400134
14336.0,-0.0010550767183303833
end
