version,3.0
numOfCh,1
type,point
parent_name,4-cuts
ch_type,1_1
kcount,1
numberNandB,1
brightnessNandB,1
carpet pos,0
pc,0
Time (ms),CH1 Auto-Correlation
1.0,0.06596461683511734
2.0,0.06472316384315491
3.0,0.06354684382677078
4.0,0.06237368658185005
5.0,0.06124388799071312
6.0,0.060126855969429016
7.0,0.059069592505693436
8.0,0.05806000530719757
9.0,0.05708581209182739
10.0,0.056138232350349426
11.0,0.05522418022155762
12.0,0.05436401069164276
13.0,0.053525060415267944
14.0,0.05268622189760208
15.0,0.051886770874261856
16.0,0.051141273230314255
18.0,0.049755726009607315
20.0,0.04841677099466324
22.0,0.047168977558612823
24.0,0.04595372825860977
26.0,0.04477884620428085
28.0,0.04361816868185997
30.0,0.04253048077225685
32.0,0.04151173308491707
36.0,0.03962325677275658
40.0,0.037864990532398224
44.0,0.03610068932175636
48.0,0.03453928604722023
52.0,0.03311409801244736
56.0,0.03179788216948509
60.0,0.030477674677968025
64.0,0.029142756015062332
72.0,0.026603398844599724
80.0,0.024270527064800262
88.0,0.022199196740984917
96.0,0.020272474735975266
104.0,0.018781976774334908
112.0,0.017783015966415405
120.0,0.01726469211280346
128.0,0.016500916332006454
144.0,0.014173128642141819
160.0,0.012245162390172482
176.0,0.011019064113497734
192.0,0.010638137347996235
208.0,0.009869580157101154
224.0,0.008482437580823898
240.0,0.007588542997837067
256.0,0.007333762943744659
288.0,0.005004829727113247
320.0,0.0036346917040646076
352.0,0.0016042288625612855
384.0,0.000767017190810293
416.0,0.0012252915184944868
448.0,0.0009486899361945689
480.0,0.0020427796989679337
512.0,0.003973822109401226
576.0,0.0026277375873178244
640.0,0.0018740296363830566
704.0,0.0027903325390070677
768.0,0.004969444125890732
832.0,0.006880938075482845
896.0,0.006357910111546516
960.0,0.005754145793616772
1024.0,0.004071269184350967
1152.0,-0.00030423031421378255
1280.0,-0.005445424467325211
1408.0,-0.005898899864405394
1536.0,-0.007902315817773342
1664.0,-0.004587582778185606
1792.0,-0.00020717186271212995
1920.0,0.004028830211609602
2048.0,-0.002171201864257455
2304.0,-0.010781610384583473
2560.0,-0.003974038641899824
2816.0,0.005145469680428505
3072.0,-0.0021238073240965605
3328.0,-0.0049214670434594154
3584.0,0.0045246826484799385
3840.0,0.00775179686024785
4096.0,0.0023539552930742502
4608.0,7.44147109799087e-05
5120.0,-0.0021248837001621723
5632.0,0.00540059432387352
6144.0,-0.0026611185166984797
6656.0,-0.00403550686314702
7168.0,-0.003972278442233801
7680.0,-0.00030070048524066806
8192.0,-0.0027287621051073074
9216.0,0.004198952112346888
10240.0,-0.000882101827301085
11264.0,-0.01408048253506422
12288.0,-0.008345837704837322
13312.0,0.01297108456492424
14336.0,0.003775486024096608
end
