version,3.0
numOfCh,1
type,point
parent_name,4-cuts
ch_type,1_1
kcount,1
numberNandB,1
brightnessNandB,1
carpet pos,0
pc,0
Time (ms),CH1 Auto-Correlation
1.0,0.0664524957537651
2.0,0.06526845693588257
3.0,0.064133420586586
4.0,0.06303264945745468
5.0,0.06192991882562637
6.0,0.06083613634109497
7.0,0.059799421578645706
8.0,0.05878659710288048
9.0,0.057792291045188904
10.0,0.056803151965141296
11.0,0.05583511292934418
12.0,0.054915525019168854
13.0,0.05404617264866829
14.0,0.053201910108327866
15.0,0.05241451412439346
16.0,0.05164824426174164
18.0,0.050148554146289825
20.0,0.048632197082042694
22.0,0.047205060720443726
24.0,0.04582153260707855
26.0,0.04450935497879982
28.0,0.04331805184483528
30.0,0.042116545140743256
32.0,0.04101186990737915
36.0,0.03886140137910843
40.0,0.03667427599430084
44.0,0.0344662107527256
48.0,0.03231159970164299
52.0,0.030193891376256943
56.0,0.028182080015540123
60.0,0.026387840509414673
64.0,0.024827079847455025
72.0,0.022248202934861183
80.0,0.019849903881549835
88.0,0.017330968752503395
96.0,0.0155401099473238
104.0,0.014018622227013111
112.0,0.013053295202553272
120.0,0.012362944893538952
128.0,0.011752838268876076
144.0,0.01018666010349989
160.0,0.008308863267302513
176.0,0.007533050142228603
192.0,0.006821158342063427
208.0,0.006198422983288765
224.0,0.004983391612768173
240.0,0.0041070301085710526
256.0,0.0033168962690979242
288.0,0.0016608246369287372
320.0,0.0010243505239486694
352.0,0.0013342713937163353
384.0,0.0006195412133820355
416.0,7.566988642793149e-05
448.0,-0.0026155852247029543
480.0,-0.0034036259166896343
512.0,-0.003007981227710843
576.0,-0.0032248767092823982
640.0,-0.00019050018454436213
704.0,0.0012609304394572973
768.0,5.320684522303054e-06
832.0,-0.0026212367229163647
896.0,-0.0045878104865550995
960.0,-0.004635286517441273
1024.0,-0.0011728407116606832
1152.0,-0.002892227377742529
1280.0,0.0030232686549425125
1408.0,0.0025805619079619646
1536.0,-0.0023715144488960505
1664.0,-0.003831336507573724
1792.0,-0.00836225412786007
1920.0,-0.01141245849430561
2048.0,-0.0008038977975957096
2304.0,0.0004989070002920926
2560.0,-0.0005870828172191978
2816.0,-0.0019794367253780365
3072.0,0.0027958392165601254
3328.0,-0.0006592426216229796
3584.0,-0.001039849012158811
3840.0,0.005223046522587538
4096.0,0.00033580081071704626
4608.0,-0.0007132565369829535
5120.0,0.0010272172512486577
5632.0,4.939629070577212e-05
6144.0,-0.0027526419144123793
6656.0,0.00034090352710336447
7168.0,0.00022142047237139195
7680.0,0.0013226305600255728
8192.0,0.0004538062203209847
9216.0,-0.00013043193030171096
10240.0,-0.002943460363894701
11264.0,-0.0018035270040854812
12288.0,0.000860645086504519
13312.0,7.670638296985999e-06
14336.0,-0.0003788379253819585
end
