version,3.0
numOfCh,1
type,point
parent_name,4-cuts
ch_type,1_1
kcount,1
numberNandB,1
brightnessNandB,1
carpet pos,0
pc,0
Time (ms),CH1 Auto-Correlation
1.0,0.06070483848452568
2.0,0.05946146696805954
3.0,0.05824820697307587
4.0,0.05707002058625221
5.0,0.055948883295059204
6.0,0.054881442338228226
7.0,0.053855251520872116
8.0,0.0528651662170887
9.0,0.05186338722705841
10.0,0.050906356424093246
11.0,0.05000903084874153
12.0,0.049085866659879684
13.0,0.048209600150585175
14.0,0.047370392829179764
15.0,0.04656319320201874
16.0,0.04579659923911095
18.0,0.044348545372486115
20.0,0.04293042793869972
22.0,0.04159744083881378
24.0,0.04029682278633118
26.0,0.0391264483332634
28.0,0.038041941821575165
30.0,0.03704334795475006
32.0,0.0360553078353405
36.0,0.03409382700920105
40.0,0.03225739300251007
44.0,0.030567167326807976
48.0,0.029074376448988914
52.0,0.027769604697823524
56.0,0.026556994765996933
60.0,0.025526972487568855
64.0,0.02458905801177025
72.0,0.02304016798734665
80.0,0.021472129970788956
88.0,0.020095866173505783
96.0,0.01858907751739025
104.0,0.017128897830843925
112.0,0.015644637867808342
120.0,0.014007494784891605
128.0,0.012749931775033474
144.0,0.01154245249927044
160.0,0.010309885255992413
176.0,0.008846008218824863
192.0,0.00822492316365242
208.0,0.008112703450024128
224.0,0.00829346850514412
240.0,0.008358343504369259
256.0,0.008117238990962505
288.0,0.0075752935372292995
320.0,0.00666441023349762
352.0,0.0039101578295230865
384.0,0.0025328490883111954
416.0,0.0017931120237335563
448.0,0.0012404958251863718
480.0,0.0027043186128139496
512.0,0.0021751599851995707
576.0,0.0007025028462521732
640.0,0.004853207617998123
704.0,0.007934010587632656
768.0,0.010632641613483429
832.0,0.009385212324559689
896.0,0.00910063274204731
960.0,0.008685752749443054
1024.0,0.004628391470760107
1152.0,-0.0010459271725267172
1280.0,0.00138143973890692
1408.0,-0.0017772992141544819
1536.0,-0.004676397889852524
1664.0,0.004807702731341124
1792.0,0.0022369257640093565
1920.0,0.0022244376596063375
2048.0,0.002525322837755084
2304.0,-0.0024542089086025953
2560.0,0.002109005581587553
2816.0,0.0017272878903895617
3072.0,-8.375915058422834e-05
3328.0,-0.0027281728107482195
3584.0,-0.00400567939504981
3840.0,0.003070283681154251
4096.0,0.001369984820485115
4608.0,-0.004906855057924986
5120.0,-0.000816316984128207
5632.0,-0.008201343938708305
6144.0,-0.007694916799664497
6656.0,-0.007745086215436459
7168.0,-0.006438845302909613
7680.0,-0.0041573443450033665
8192.0,0.0012457151897251606
9216.0,-0.000396140618249774
10240.0,-0.0046275705099105835
11264.0,0.005343983415514231
12288.0,0.002170791383832693
13312.0,0.006396994460374117
14336.0,0.00204461975954473
end
