version,3.0
numOfCh,1
type,point
parent_name,4-cuts
ch_type,1_1
kcount,1
numberNandB,1
brightnessNandB,1
carpet pos,0
pc,0
Time (ms),CH1 Auto-Correlation
1.0,0.03363025188446045
2.0,0.033053234219551086
3.0,0.032491374760866165
4.0,0.03194481506943703
5.0,0.03140658885240555
6.0,0.03087496943771839
7.0,0.030337633565068245
8.0,0.02982233837246895
9.0,0.02932967059314251
10.0,0.028831960633397102
11.0,0.0283473152667284
12.0,0.02787475846707821
13.0,0.02739500254392624
14.0,0.02691403403878212
15.0,0.026452254503965378
16.0,0.025990597903728485
18.0,0.025076808407902718
20.0,0.024247584864497185
22.0,0.023491229861974716
24.0,0.02276550605893135
26.0,0.022073116153478622
28.0,0.02139859087765217
30.0,0.02074638195335865
32.0,0.020127102732658386
36.0,0.018990548327565193
40.0,0.018000300973653793
44.0,0.017135141417384148
48.0,0.016400551423430443
52.0,0.015739746391773224
56.0,0.015130993910133839
60.0,0.0145999351516366
64.0,0.014108642935752869
72.0,0.013208093121647835
80.0,0.0123900780454278
88.0,0.01169488113373518
96.0,0.010867713019251823
104.0,0.010055199265480042
112.0,0.0091734379529953
120.0,0.008347736671566963
128.0,0.007581824436783791
144.0,0.006878617685288191
160.0,0.0069597382098436356
176.0,0.006702702026814222
192.0,0.0059492322616279125
208.0,0.0049293250776827335
224.0,0.00421965541318059
240.0,0.0037652452010661364
256.0,0.0036693972069770098
288.0,0.002339472295716405
320.0,0.001329391379840672
352.0,0.0015427962644025683
384.0,0.0008631858509033918
416.0,0.000219448353163898
448.0,-0.00012926809722557664
480.0,-0.000760622788220644
512.0,-0.0008371429867111146
576.0,-0.0017444425029680133
640.0,-0.0019030780531466007
704.0,-0.0024461173452436924
768.0,-0.0036353766918182373
832.0,-0.0033494913950562477
896.0,-0.002434303518384695
960.0,-0.001465360983274877
1024.0,2.729658490352449e-06
1152.0,0.0038673158269375563
1280.0,0.0023598207626491785
1408.0,0.0014327781973406672
1536.0,0.0031892957631498575
1664.0,0.0027340156957507133
1792.0,0.0019209353486075997
1920.0,-0.0016517216572538018
2048.0,-0.0033571296371519566
2304.0,-0.004161810968071222
2560.0,-0.004002487286925316
2816.0,-0.0007349068764597178
3072.0,0.0013748985948041081
3328.0,9.189482807414606e-05
3584.0,-0.0039968895725905895
3840.0,-0.0010260069975629449
4096.0,0.001049199840053916
4608.0,-0.00039838196244090796
5120.0,-0.00011064956925110891
5632.0,0.00023144161968957633
6144.0,0.0006760219112038612
6656.0,-0.0024979079607874155
7168.0,0.0033234013244509697
7680.0,0.00035065566771663725
8192.0,-0.0007991185993887484
9216.0,-0.0011023504193872213
10240.0,-0.0017442883690819144
11264.0,-0.003007967956364155
12288.0,-0.001477457000873983
13312.0,0.006694743409752846
14336.0,0.004464603029191494
end
