version,3.0
numOfCh,1
type,point
parent_name,4-cuts
ch_type,1_1
kcount,1
numberNandB,1
brightnessNandB,1
carpet pos,0
pc,0
Time (ms),CH1 Auto-Correlation
1.0,0.06953759491443634
2.0,0.06834744662046432
3.0,0.06721042096614838
4.0,0.06609552353620529
5.0,0.0650220736861229
6.0,0.06398437172174454
7.0,0.06299073994159698
8.0,0.06204285845160484
9.0,0.06116492673754692
10.0,0.060298092663288116
11.0,0.059466779232025146
12.0,0.05867429077625275
13.0,0.05795171111822128
14.0,0.05724966153502464
15.0,0.05655628442764282
16.0,0.05590274930000305
18.0,0.0546594075858593
20.0,0.053467702120542526
22.0,0.052255596965551376
24.0,0.05104432255029678
26.0,0.049867600202560425
28.0,0.0486723892390728
30.0,0.04750640317797661
32.0,0.04632144048810005
36.0,0.0440945029258728
40.0,0.042065251618623734
44.0,0.040325064212083817
48.0,0.03884364664554596
52.0,0.03750505670905113
56.0,0.036347609013319016
60.0,0.035234738141298294
64.0,0.03412351757287979
72.0,0.03265048936009407
80.0,0.031424377113580704
88.0,0.030314186587929726
96.0,0.029304685071110725
104.0,0.028166674077510834
112.0,0.02679728902876377
120.0,0.025409655645489693
128.0,0.024406958371400833
144.0,0.023200156167149544
160.0,0.02281876467168331
176.0,0.02241467870771885
192.0,0.022394360974431038
208.0,0.022467920556664467
224.0,0.020609760656952858
240.0,0.01770886406302452
256.0,0.015046798624098301
288.0,0.01232780609279871
320.0,0.010898148640990257
352.0,0.009910877794027328
384.0,0.008717131800949574
416.0,0.008439134806394577
448.0,0.007921785116195679
480.0,0.007877438329160213
512.0,0.007040582597255707
576.0,0.003384003648534417
640.0,0.002193052787333727
704.0,0.0029295883141458035
768.0,0.003358634654432535
832.0,0.005913015455007553
896.0,0.005066568963229656
960.0,0.0017291868571192026
1024.0,-0.00034624271211214364
1152.0,-0.006927783135324717
1280.0,-0.005659033078700304
1408.0,-0.00111279112752527
1536.0,-0.0005990143399685621
1664.0,-0.0033021620474755764
1792.0,-0.0024774435441941023
1920.0,-0.0028120477218180895
2048.0,-0.009142198599874973
2304.0,-0.003575046081095934
2560.0,0.002813108032569289
2816.0,0.008245238102972507
3072.0,0.0077361552976071835
3328.0,0.008157104253768921
3584.0,0.0067496285773813725
3840.0,0.001185265718959272
4096.0,-0.0005101776332594454
4608.0,-0.006365081295371056
5120.0,-0.011762082576751709
5632.0,-0.012966235168278217
6144.0,-0.000600285129621625
6656.0,0.006534363143146038
7168.0,9.791387128643692e-05
7680.0,-0.008170582354068756
8192.0,-0.013329420238733292
9216.0,-0.003677229629829526
10240.0,0.005289650056511164
11264.0,-0.0052128685638308525
12288.0,-0.009582712315022945
13312.0,0.01817629300057888
14336.0,0.016921835020184517
end
