version,3.0
numOfCh,1
type,point
parent_name,4-cuts
ch_type,1_1
kcount,1
numberNandB,1
brightnessNandB,1
carpet pos,0
pc,0
Time (ms),CH1 Auto-Correlation
1.0,0.032349877059459686
2.0,0.03177304565906525
3.0,0.031214701011776924
4.0,0.03068811073899269
5.0,0.03019719012081623
6.0,0.02972107194364071
7.0,0.02927115000784397
8.0,0.02883058600127697
9.0,0.028411027044057846
10.0,0.027989476919174194
11.0,0.027574164792895317
12.0,0.027170296758413315
13.0,0.026757046580314636
14.0,0.026367057114839554
15.0,0.025991536676883698
16.0,0.02561507374048233
18.0,0.024931924417614937
20.0,0.024301128461956978
22.0,0.023727094754576683
24.0,0.02317454107105732
26.0,0.022625641897320747
28.0,0.022085465490818024
30.0,0.02156439609825611
32.0,0.021086279302835464
36.0,0.020192183554172516
40.0,0.019411997869610786
44.0,0.01863224059343338
48.0,0.017879297956824303
52.0,0.017141662538051605
56.0,0.016475429758429527
60.0,0.015920720994472504
64.0,0.01535684335976839
72.0,0.014279883354902267
80.0,0.013278592377901077
88.0,0.0124426931142807
96.0,0.011728177778422832
104.0,0.01116130594164133
112.0,0.010554731823503971
120.0,0.009824983775615692
128.0,0.009276469238102436
144.0,0.008075252175331116
160.0,0.006594594102352858
176.0,0.0050298902206122875
192.0,0.003724026959389448
208.0,0.002811670769006014
224.0,0.002139671938493848
240.0,0.0018049515783786774
256.0,0.0013069265987724066
288.0,0.00034183167736046016
320.0,-0.00030093235545791686
352.0,-0.0006776727386750281
384.0,-0.0013324441388249397
416.0,-0.001274104113690555
448.0,9.789986506802961e-05
480.0,0.0011759200133383274
512.0,0.0011264083441346884
576.0,0.00015986277139745653
640.0,-0.002322524320334196
704.0,-0.00328704877756536
768.0,-0.002519269473850727
832.0,-0.0011985431192442775
896.0,-5.834514740854502e-05
960.0,0.00042646456859074533
1024.0,0.0006774986977688968
1152.0,-0.00141424173489213
1280.0,-0.0017401993973180652
1408.0,-0.00011359711788827553
1536.0,0.0013403224293142557
1664.0,0.0013674129731953144
1792.0,0.0019756294786930084
1920.0,0.0033673641737550497
2048.0,0.0038738958537578583
2304.0,-0.0007198316743597388
2560.0,-0.0016126257833093405
2816.0,-0.0017487716395407915
3072.0,-0.001223788713105023
3328.0,0.00017194646352436393
3584.0,-0.0010641516419127584
3840.0,-0.0019725693855434656
4096.0,-0.001996175153180957
4608.0,0.0003768425958696753
5120.0,-0.000813005433883518
5632.0,-0.001487807952798903
6144.0,0.00174808653537184
6656.0,0.000691936700604856
7168.0,-0.0016180184902623296
7680.0,0.0019137704512104392
8192.0,0.0030101158190518618
9216.0,-0.0003751508193090558
10240.0,0.001543421414680779
11264.0,-0.0007522071246057749
12288.0,-0.0012427823385223746
13312.0,-0.005511651746928692
14336.0,-0.0016071645077317953
end
