version,3.0
numOfCh,1
type,point
parent_name,4-cuts
ch_type,1_1
kcount,1
numberNandB,1
brightnessNandB,1
carpet pos,0
pc,0
Time (ms),CH1 Auto-Correlation
1.0,0.035480987280607224
2.0,0.03487872704863548
3.0,0.03429174795746803
4.0,0.03372497484087944
5.0,0.03318672627210617
6.0,0.032671455293893814
7.0,0.03218892589211464
8.0,0.03170977532863617
9.0,0.031240230426192284
10.0,0.030796704813838005
11.0,0.03038586862385273
12.0,0.029991278424859047
13.0,0.029606131836771965
14.0,0.029249196872115135
15.0,0.028887052088975906
16.0,0.028538135811686516
18.0,0.02787865698337555
20.0,0.027241984382271767
22.0,0.026628589257597923
24.0,0.026007041335105896
26.0,0.025395426899194717
28.0,0.024815557524561882
30.0,0.024267038330435753
32.0,0.023776182904839516
36.0,0.02295297011733055
40.0,0.022255249321460724
44.0,0.021548228338360786
48.0,0.02078358083963394
52.0,0.019983338192105293
56.0,0.019282352179288864
60.0,0.018663065508008003
64.0,0.018135635182261467
72.0,0.017099862918257713
80.0,0.01598186045885086
88.0,0.014740102924406528
96.0,0.013787342235445976
104.0,0.01303915772587061
112.0,0.01241115853190422
120.0,0.011850669048726559
128.0,0.011280544102191925
144.0,0.009985954500734806
160.0,0.00859451200813055
176.0,0.007107392884790897
192.0,0.0059464736841619015
208.0,0.005386747885495424
224.0,0.005249891895800829
240.0,0.005078171845525503
256.0,0.004530734848231077
288.0,0.003030858701094985
320.0,0.003124980488792062
352.0,0.0028596643824130297
384.0,0.0027934417594224215
416.0,0.0020644692704081535
448.0,0.0021759411320090294
480.0,0.0014716662699356675
512.0,0.00037622504169121385
576.0,0.0005741792265325785
640.0,0.002329559065401554
704.0,0.0007674494991078973
768.0,-0.0019182770047336817
832.0,-0.0029877873603254557
896.0,-0.0032159562688320875
960.0,-0.0035755664575845003
1024.0,-0.0038634322118014097
1152.0,-0.003055175766348839
1280.0,-0.0036709511186927557
1408.0,-0.0033461677376180887
1536.0,-0.0010079842759296298
1664.0,0.0004113002505619079
1792.0,0.0017039943486452103
1920.0,-4.814957605958625e-07
2048.0,-0.00126276642549783
2304.0,0.001684312243014574
2560.0,0.0022066328674554825
2816.0,-0.0010578081710264087
3072.0,-0.0063534267246723175
3328.0,-0.00600076001137495
3584.0,-0.002510355319827795
3840.0,-0.000856570084579289
4096.0,0.001170542323961854
4608.0,0.00023351344862021506
5120.0,-0.0010382335167378187
5632.0,-0.005144001916050911
6144.0,0.001785382512025535
6656.0,0.003987466916441917
7168.0,0.0006617431063205004
7680.0,0.002053583739325404
8192.0,-0.0017223624745383859
9216.0,-0.00010371673124609515
10240.0,-0.001090593752451241
11264.0,-0.0002232296537840739
12288.0,-0.0008709892281331122
13312.0,0.0008380172657780349
14336.0,0.0007021219935268164
end
