version,3.0
numOfCh,1
type,point
parent_name,4-cuts
ch_type,1_1
kcount,1
numberNandB,1
brightnessNandB,1
carpet pos,0
pc,0
Time (ms),CH1 Auto-Correlation
1.0,0.0197262205183506
2.0,0.019342809915542603
3.0,0.018976649269461632
4.0,0.018629098311066628
5.0,0.018288936465978622
6.0,0.017950771376490593
7.0,0.017624787986278534
8.0,0.017307551577687263
9.0,0.016995180398225784
10.0,0.016692692413926125
11.0,0.016401542350649834
12.0,0.016121717169880867
13.0,0.01584869809448719
14.0,0.015586799010634422
15.0,0.01533527672290802
16.0,0.015081210061907768
18.0,0.014583917334675789
20.0,0.0141127435490489
22.0,0.01367906853556633
24.0,0.013294297270476818
26.0,0.012940600514411926
28.0,0.012581417337059975
30.0,0.01221446879208088
32.0,0.011846808716654778
36.0,0.011146883480250835
40.0,0.010473072528839111
44.0,0.009906151331961155
48.0,0.009381212294101715
52.0,0.008859213441610336
56.0,0.008345738984644413
60.0,0.007838576100766659
64.0,0.007337861694395542
72.0,0.006366120185703039
80.0,0.0055717043578624725
88.0,0.004919742699712515
96.0,0.004420391749590635
104.0,0.004177136346697807
112.0,0.004097244702279568
120.0,0.004046461544930935
128.0,0.0040176184847950935
144.0,0.00364742917008698
160.0,0.0031140660867094994
176.0,0.0026425395626574755
192.0,0.002393291564658284
208.0,0.0021717632189393044
224.0,0.0016605396522209048
240.0,0.001543306396342814
256.0,0.0013637988595291972
288.0,-4.807727236766368e-05
320.0,-0.0005046597216278315
352.0,-0.00043204877874813974
384.0,-0.00046797291724942625
416.0,-0.00022256260854192078
448.0,-0.0004008446412626654
480.0,-0.0004845287767238915
512.0,-0.0007188639719970524
576.0,-0.0008779915515333414
640.0,-0.0011975960806012154
704.0,-0.001092112623155117
768.0,-0.0008314622100442648
832.0,-0.0010814721463248134
896.0,-0.0013548665447160602
960.0,-0.0008677818696014583
1024.0,-0.00020451241289265454
1152.0,0.0002550986537244171
1280.0,0.0007617246592417359
1408.0,0.0005772936274297535
1536.0,-0.001155458390712738
1664.0,-0.00038897310150787234
1792.0,-0.00028185496921651065
1920.0,0.001084397779777646
2048.0,-0.0001769395312294364
2304.0,0.0009814156219363213
2560.0,0.0004468472907319665
2816.0,0.0003036794369108975
3072.0,0.00032447942066937685
3328.0,-0.0011604055762290955
3584.0,-0.0006551897386088967
3840.0,0.00043497883598320186
4096.0,0.0007793566910549998
4608.0,0.0005995957180857658
5120.0,-0.0006622904329560697
5632.0,-0.00041922047967091203
6144.0,0.000672501337248832
6656.0,-0.000661035068333149
7168.0,-0.0003857415576931089
7680.0,-0.00013836803555022925
8192.0,0.00014806124090682715
9216.0,-0.000313378608552739
10240.0,0.0007342001190409064
11264.0,-0.0002333634765818715
12288.0,-0.0012604567455127835
13312.0,-0.0015436471439898014
14336.0,0.0014546404127031565
end
