version,3.0
numOfCh,1
type,point
parent_name,4-cuts
ch_type,1_1
kcount,1
numberNandB,1
brightnessNandB,1
carpet pos,0
pc,0
Time (ms),CH1 Auto-Correlation
1.0,0.021464891731739044
2.0,0.021073807030916214
3.0,0.0206809900701046
4.0,0.020294051617383957
5.0,0.01992083713412285
6.0,0.019555972889065742
7.0,0.01920907571911812
8.0,0.018866974860429764
9.0,0.018529802560806274
10.0,0.0182080939412117
11.0,0.017892872914671898
12.0,0.01759238727390766
13.0,0.01729818619787693
14.0,0.01700577512383461
15.0,0.016726315021514893
16.0,0.016456082463264465
18.0,0.015944000333547592
20.0,0.015460807830095291
22.0,0.014990855939686298
24.0,0.014561145566403866
26.0,0.014147714711725712
28.0,0.013744928874075413
30.0,0.013349669985473156
32.0,0.012960229068994522
36.0,0.012250527739524841
40.0,0.011642584577202797
44.0,0.011089911684393883
48.0,0.01057595293968916
52.0,0.010114929638803005
56.0,0.009674499742686749
60.0,0.009297436103224754
64.0,0.008931959979236126
72.0,0.008200057782232761
80.0,0.007591763976961374
88.0,0.007050566375255585
96.0,0.00652355095371604
104.0,0.006067984271794558
112.0,0.0056914989836514
120.0,0.005230218172073364
128.0,0.004929066635668278
144.0,0.004510879050940275
160.0,0.004218093119561672
176.0,0.003727046074345708
192.0,0.0033682838547974825
208.0,0.0032158344984054565
224.0,0.002905861707404256
240.0,0.002543607959523797
256.0,0.0019138883799314499
288.0,0.0009337177034467459
320.0,0.0002645998611114919
352.0,-0.0004936342011205852
384.0,-0.0013699253322556615
416.0,-0.0016475903103128076
448.0,-0.0013340774457901716
480.0,-0.0006466664490289986
512.0,0.00042520693386904895
576.0,0.0013139527291059494
640.0,0.0015630620764568448
704.0,0.0008770789718255401
768.0,0.0006560232141055167
832.0,-1.9462369891698472e-05
896.0,-0.00014540385745931417
960.0,0.0005227401852607727
1024.0,0.00022402261674869806
1152.0,0.00014423955872189254
1280.0,0.0005994890234433115
1408.0,0.0002714249421842396
1536.0,0.00013535497419070452
1664.0,-0.0012587547535076737
1792.0,-0.0015993801644071937
1920.0,-0.0018924674950540066
2048.0,-0.0007418509921990335
2304.0,0.0015664641978219151
2560.0,0.0006303384434431791
2816.0,-0.0005177385755814612
3072.0,-3.767583257285878e-05
3328.0,-0.0003851575602311641
3584.0,-0.00017708417726680636
3840.0,-0.0011926766019314528
4096.0,5.133515514899045e-05
4608.0,0.001509909052401781
5120.0,-0.0004029452393297106
5632.0,0.00031504995422437787
6144.0,-0.0012150038965046406
6656.0,-0.0002505458251107484
7168.0,-0.002468901453539729
7680.0,-0.0018915364053100348
8192.0,-0.0005323840887285769
9216.0,-1.502407576481346e-05
10240.0,-0.0013267361791804433
11264.0,-0.002128711435943842
12288.0,-0.0016860823379829526
13312.0,0.00193293287884444
14336.0,0.0037769987247884274
end
