version,3.0
numOfCh,1
type,point
parent_name,4-cuts
ch_type,1_1
kcount,1
numberNandB,1
brightnessNandB,1
carpet pos,0
pc,0
Time (ms),CH1 Auto-Correlation
1.0,0.06709794700145721
2.0,0.0659089982509613
3.0,0.06476211547851562
4.0,0.06364773958921432
5.0,0.06257200986146927
6.0,0.06153309717774391
7.0,0.06049567833542824
8.0,0.059499528259038925
9.0,0.0585395023226738
10.0,0.057607971131801605
11.0,0.056680139154195786
12.0,0.05579441413283348
13.0,0.054970163851976395
14.0,0.05418386682868004
15.0,0.05340547114610672
16.0,0.052629705518484116
18.0,0.05108695849776268
20.0,0.04961838200688362
22.0,0.04824460670351982
24.0,0.04697908088564873
26.0,0.04579358920454979
28.0,0.04463668540120125
30.0,0.04356260970234871
32.0,0.04259125888347626
36.0,0.04079620540142059
40.0,0.039357054978609085
44.0,0.03802700340747833
48.0,0.03668582811951637
52.0,0.03531710430979729
56.0,0.033896271139383316
60.0,0.032632507383823395
64.0,0.031362466514110565
72.0,0.02901677042245865
80.0,0.027158649638295174
88.0,0.02591521479189396
96.0,0.024841515347361565
104.0,0.023836053907871246
112.0,0.02249331772327423
120.0,0.021350683644413948
128.0,0.0209027286618948
144.0,0.020314788445830345
160.0,0.01980433240532875
176.0,0.018818581476807594
192.0,0.01733742281794548
208.0,0.014757378026843071
224.0,0.012828688137233257
240.0,0.011349974200129509
256.0,0.010469476692378521
288.0,0.009893464855849743
320.0,0.009874232113361359
352.0,0.00996115431189537
384.0,0.008831767365336418
416.0,0.009146078489720821
448.0,0.009396878071129322
480.0,0.009093012660741806
512.0,0.009157336317002773
576.0,0.008332604542374611
640.0,0.003212056355550885
704.0,0.0015329753514379263
768.0,0.0012328238226473331
832.0,-0.0005433702026493847
896.0,-0.0025329284835606813
960.0,-0.006932559888809919
1024.0,-0.010284533724188805
1152.0,-0.009068275801837444
1280.0,-0.00704432325437665
1408.0,-0.005931841675192118
1536.0,-0.008432085625827312
1664.0,-0.013428989797830582
1792.0,-0.016473792493343353
1920.0,-0.01666608266532421
2048.0,-0.01115765143185854
2304.0,-0.005545927677303553
2560.0,-0.00016762895393185318
2816.0,0.0070132906548678875
3072.0,0.013481601141393185
3328.0,0.014540950767695904
3584.0,0.014286745339632034
3840.0,0.006827564910054207
4096.0,0.0010181269608438015
4608.0,-0.009056871756911278
5120.0,-0.014244753867387772
5632.0,-0.007417662534862757
6144.0,0.008830786682665348
6656.0,0.011392966844141483
7168.0,0.008576864376664162
7680.0,-0.0008936935337260365
8192.0,-0.017571674659848213
9216.0,0.0003269040898885578
10240.0,0.010979189537465572
11264.0,-0.008743828162550926
12288.0,-0.011163085699081421
13312.0,0.007781905587762594
14336.0,-0.0032344756182283163
end
