version,3.0
numOfCh,1
type,point
parent_name,4-cuts
ch_type,1_1
kcount,1
numberNandB,1
brightnessNandB,1
carpet pos,0
pc,0
Time (ms),CH1 Auto-Correlation
1.0,0.03395485132932663
2.0,0.03336738422513008
3.0,0.03281310573220253
4.0,0.03225965052843094
5.0,0.031731393188238144
6.0,0.03119899146258831
7.0,0.030697258189320564
8.0,0.030214136466383934
9.0,0.029749007895588875
10.0,0.02928379736840725
11.0,0.028820067644119263
12.0,0.028363823890686035
13.0,0.02790440432727337
14.0,0.027448901906609535
15.0,0.026997126638889313
16.0,0.026555553078651428
18.0,0.02574085257947445
20.0,0.025008849799633026
22.0,0.024316763505339622
24.0,0.023669805377721786
26.0,0.02304924838244915
28.0,0.022477662190794945
30.0,0.021935373544692993
32.0,0.021445950493216515
36.0,0.02059885859489441
40.0,0.0197683684527874
44.0,0.018932921811938286
48.0,0.01813116855919361
52.0,0.01730428822338581
56.0,0.016491375863552094
60.0,0.015686949715018272
64.0,0.014907695353031158
72.0,0.013521673157811165
80.0,0.01235193945467472
88.0,0.011436778120696545
96.0,0.010714353062212467
104.0,0.010154944844543934
112.0,0.009776650927960873
120.0,0.00930593628436327
128.0,0.008701755665242672
144.0,0.007792156655341387
160.0,0.0071440511383116245
176.0,0.006291969679296017
192.0,0.005806407425552607
208.0,0.005353853572160006
224.0,0.004868738353252411
240.0,0.004160989075899124
256.0,0.003199103521183133
288.0,0.0010747298365458846
320.0,0.0003564302751328796
352.0,6.575971929123625e-05
384.0,0.00010644178109942004
416.0,-0.0008179077412933111
448.0,-0.0015507411444559693
480.0,-0.0005969100166112185
512.0,0.0006055075791664422
576.0,0.0009590359404683113
640.0,-0.00018486197222955525
704.0,-0.0026066440623253584
768.0,-0.0036534173414111137
832.0,-0.0021829151082783937
896.0,0.00038663146551698446
960.0,0.0007096334593370557
1024.0,0.0010267324978485703
1152.0,0.00017424585530534387
1280.0,-0.0024015309754759073
1408.0,-0.004012552555650473
1536.0,-0.002703336998820305
1664.0,-0.004888372030109167
1792.0,-0.003962895832955837
1920.0,-0.0027370769530534744
2048.0,0.0016847727820277214
2304.0,0.003918059170246124
2560.0,0.0007229832117445767
2816.0,0.0010126159759238362
3072.0,0.0034180462826043367
3328.0,0.0009963583434000611
3584.0,0.00015330853057093918
3840.0,-0.0020604319870471954
4096.0,-0.003128106240183115
4608.0,-0.0039014280773699284
5120.0,2.7411000701249577e-05
5632.0,-0.00039428166928701103
6144.0,0.003154036123305559
6656.0,-0.0018136088037863374
7168.0,-0.0005104343872517347
7680.0,-0.004439175128936768
8192.0,-0.000708035659044981
9216.0,0.0014400654472410679
10240.0,-0.001037281472235918
11264.0,-0.00012829479237552732
12288.0,0.003985926974564791
13312.0,-0.0038686778862029314
14336.0,0.0020988071337342262
end
