version,3.0
numOfCh,1
type,point
parent_name,4-cuts
ch_type,1_1
kcount,1
numberNandB,1
brightnessNandB,1
carpet pos,0
pc,0
Time (ms),CH1 Auto-Correlation
1.0,0.024276113137602806
2.0,0.023700397461652756
3.0,0.023151585832238197
4.0,0.022625170648097992
5.0,0.022109854966402054
6.0,0.021611880511045456
7.0,0.02114117331802845
8.0,0.020697252824902534
9.0,0.020273469388484955
10.0,0.0198496263474226
11.0,0.019435903057456017
12.0,0.019019953906536102
13.0,0.018627101555466652
14.0,0.018251964822411537
15.0,0.01789533719420433
16.0,0.017548713833093643
18.0,0.016942184418439865
20.0,0.01638103649020195
22.0,0.015876227989792824
24.0,0.01540173776447773
26.0,0.014940942637622356
28.0,0.014469060115516186
30.0,0.01397788804024458
32.0,0.0134910698980093
36.0,0.012622548267245293
40.0,0.01188790611922741
44.0,0.011211484670639038
48.0,0.010569637641310692
52.0,0.00997212715446949
56.0,0.009476959705352783
60.0,0.009094509296119213
64.0,0.008764361962676048
72.0,0.008162368088960648
80.0,0.007673884276300669
88.0,0.007195890881121159
96.0,0.006631629075855017
104.0,0.006079086102545261
112.0,0.005449328571557999
120.0,0.004945158958435059
128.0,0.004538627341389656
144.0,0.003934550564736128
160.0,0.003602932207286358
176.0,0.003556483890861273
192.0,0.003597867675125599
208.0,0.003340027527883649
224.0,0.0030448369216173887
240.0,0.002200518734753132
256.0,0.0015764862764626741
288.0,0.0018919414142146707
320.0,0.0017393934540450573
352.0,0.002114815404638648
384.0,0.00236188224516809
416.0,0.0016035609878599644
448.0,0.0015273045282810926
480.0,0.002103738486766815
512.0,0.0018010606290772557
576.0,0.0010655391961336136
640.0,0.000903515552636236
704.0,0.0009417147957719862
768.0,0.0012583596399053931
832.0,0.001403564470820129
896.0,0.0013148776488378644
960.0,0.00010979187209159136
1024.0,-0.0003195290919393301
1152.0,0.00044955365592613816
1280.0,0.0010584017727524042
1408.0,0.0014258800074458122
1536.0,0.000260311207966879
1664.0,0.0008886794676072896
1792.0,0.0008691790862940252
1920.0,-0.00048100968706421554
2048.0,-0.0010190980974584818
2304.0,-0.00035167051828466356
2560.0,0.000167214369866997
2816.0,-0.0010059266351163387
3072.0,-0.0015564329223707318
3328.0,-0.0006926211062818766
3584.0,-0.0012601129710674286
3840.0,-0.0012308914447203279
4096.0,-0.00036172778345644474
4608.0,0.001611800049431622
5120.0,0.0017934305360540748
5632.0,-0.0005068452446721494
6144.0,-0.0014822836965322495
6656.0,-0.0002937134704552591
7168.0,-0.0004903568769805133
7680.0,-0.0016478562029078603
8192.0,-0.003202577121555805
9216.0,-0.0007628961466252804
10240.0,-0.0009405913879163563
11264.0,-0.00027318415232002735
12288.0,0.0004673428484238684
13312.0,-0.0005930936895310879
14336.0,8.480481483275071e-05
end
