version,3.0
numOfCh,1
type,point
parent_name,4-cuts
ch_type,1_1
kcount,1
numberNandB,1
brightnessNandB,1
carpet pos,0
pc,0
Time (ms),CH1 Auto-Correlation
1.0,0.01943531073629856
2.0,0.019034145399928093
3.0,0.018646681681275368
4.0,0.01827981509268284
5.0,0.01792275533080101
6.0,0.017583848908543587
7.0,0.01727204956114292
8.0,0.016963599249720573
9.0,0.01665707677602768
10.0,0.016367297619581223
11.0,0.016088241711258888
12.0,0.01581130549311638
13.0,0.015549269504845142
14.0,0.015293470583856106
15.0,0.015047382563352585
16.0,0.014814313501119614
18.0,0.014372334815561771
20.0,0.013953528366982937
22.0,0.013563472777605057
24.0,0.013201233930885792
26.0,0.012847604230046272
28.0,0.012524244375526905
30.0,0.01221166830509901
32.0,0.011930253356695175
36.0,0.011455385945737362
40.0,0.011057359166443348
44.0,0.010692731477320194
48.0,0.010371077805757523
52.0,0.01011689379811287
56.0,0.009931913577020168
60.0,0.009759005159139633
64.0,0.009566659107804298
72.0,0.009195990860462189
80.0,0.008925296366214752
88.0,0.008601724170148373
96.0,0.008217621594667435
104.0,0.007794313132762909
112.0,0.007446394767612219
120.0,0.007131614722311497
128.0,0.006807682570070028
144.0,0.006196836940944195
160.0,0.005953289568424225
176.0,0.005430334713310003
192.0,0.004838231950998306
208.0,0.004509806167334318
224.0,0.004312548320740461
240.0,0.004055088385939598
256.0,0.003766854526475072
288.0,0.0033437185920774937
320.0,0.002744496800005436
352.0,0.001784030580893159
384.0,0.0011830456787720323
416.0,0.0013579963706433773
448.0,0.0018380063120275736
480.0,0.0018924549221992493
512.0,0.0013918527401983738
576.0,0.0008506185840815306
640.0,0.0010039645712822676
704.0,0.0015401701675727963
768.0,0.0012605094816535711
832.0,0.0003785683657042682
896.0,-0.00021577326697297394
960.0,-0.0005707922391593456
1024.0,-0.001933301449753344
1152.0,-0.0012592748971655965
1280.0,-0.00013971677981317043
1408.0,-8.230630555772223e-06
1536.0,-0.0014344841474667192
1664.0,-0.0025592430029064417
1792.0,-0.0032656551338732243
1920.0,-0.002444137819111347
2048.0,-0.0015154986176639795
2304.0,-0.0011663631303235888
2560.0,-0.0009210178977809846
2816.0,0.00039056906825862825
3072.0,0.00032477243803441525
3328.0,0.0009659272618591785
3584.0,6.446536281146109e-05
3840.0,-0.00021676620235666633
4096.0,-0.0008396068005822599
4608.0,-0.0010397949954494834
5120.0,-0.0019723272416740656
5632.0,-0.003148733638226986
6144.0,-0.00033154035918414593
6656.0,0.0004674093797802925
7168.0,0.0013536798069253564
7680.0,0.0018010693602263927
8192.0,0.002441155258566141
9216.0,-0.00031623782706446946
10240.0,7.165886927396059e-05
11264.0,0.0003469936200417578
12288.0,0.00016968893760349602
13312.0,-0.000770343467593193
14336.0,-0.0013219874817878008
end
