version,3.0
numOfCh,1
type,point
parent_name,4-cuts
ch_type,1_1
kcount,1
numberNandB,1
brightnessNandB,1
carpet pos,0
pc,0
Time (ms),CH1 Auto-Correlation
1.0,0.03492102771997452
2.0,0.03429150581359863
3.0,0.03367878869175911
4.0,0.03307923302054405
5.0,0.03250490128993988
6.0,0.03195127472281456
7.0,0.031416021287441254
8.0,0.030905667692422867
9.0,0.030411140993237495
10.0,0.02994544990360737
11.0,0.029506944119930267
12.0,0.02908250130712986
13.0,0.028699062764644623
14.0,0.028318868950009346
15.0,0.027943821623921394
16.0,0.027587469667196274
18.0,0.02684655226767063
20.0,0.026134826242923737
22.0,0.025438321754336357
24.0,0.02476402372121811
26.0,0.02413628064095974
28.0,0.023553935810923576
30.0,0.022971151396632195
32.0,0.02238829992711544
36.0,0.02127690427005291
40.0,0.02034737914800644
44.0,0.019521933048963547
48.0,0.018845129758119583
52.0,0.018239904195070267
56.0,0.017691632732748985
60.0,0.017223577946424484
64.0,0.01670822873711586
72.0,0.015643958002328873
80.0,0.014725417830049992
88.0,0.013907172717154026
96.0,0.013156713917851448
104.0,0.012342731468379498
112.0,0.011694079264998436
120.0,0.011091585271060467
128.0,0.010736138559877872
144.0,0.009924152866005898
160.0,0.009255903773009777
176.0,0.008831439539790154
192.0,0.008801090531051159
208.0,0.008877447806298733
224.0,0.009134087711572647
240.0,0.009446119889616966
256.0,0.008859892375767231
288.0,0.006807591300457716
320.0,0.005661658011376858
352.0,0.005254707299172878
384.0,0.004103388171643019
416.0,0.0038962189573794603
448.0,0.0035714562982320786
480.0,0.0033226937521249056
512.0,0.0033818017691373825
576.0,0.0014470331370830536
640.0,-0.0012954380363225937
704.0,-0.0028407468926161528
768.0,-0.0020905372221022844
832.0,-0.000452852196758613
896.0,-0.000773812469560653
960.0,0.0005538829136639833
1024.0,0.0022481605410575867
1152.0,0.0014402755768969655
1280.0,0.0013543216045945883
1408.0,0.0005808593705296516
1536.0,0.00042806187411770225
1664.0,-0.0012770338216796517
1792.0,-0.002084731590002775
1920.0,-0.0022704326547682285
2048.0,-0.0030914838425815105
2304.0,-0.0019363724859431386
2560.0,-0.0019543846137821674
2816.0,-0.0024702693335711956
3072.0,-0.0029820729978382587
3328.0,-0.002583323046565056
3584.0,-0.0035312252584844828
3840.0,-0.004471317399293184
4096.0,-0.0020694653503596783
4608.0,0.00017210077203344554
5120.0,0.001123132766224444
5632.0,-7.0168844104046e-06
6144.0,-2.0564853912219405e-05
6656.0,0.0020853884052485228
7168.0,-0.006194030400365591
7680.0,-0.003939166199415922
8192.0,0.0001415476290276274
9216.0,0.0038679358549416065
10240.0,0.0025474049616605043
11264.0,0.00181968801189214
12288.0,-0.0004167793376836926
13312.0,-0.0012394279474392533
14336.0,-0.0015220696805045009
end
