version,3.0
numOfCh,1
type,point
parent_name,4-cuts
ch_type,1_1
kcount,1
numberNandB,1
brightnessNandB,1
carpet pos,0
pc,0
Time (ms),CH1 Auto-Correlation
1.0,0.08720632642507553
2.0,0.08607329428195953
3.0,0.08499671518802643
4.0,0.08393490314483643
5.0,0.08291097730398178
6.0,0.08190465718507767
7.0,0.0809079185128212
8.0,0.07995878159999847
9.0,0.07905171811580658
10.0,0.0781714916229248
11.0,0.07727938145399094
12.0,0.07642555236816406
13.0,0.0755678117275238
14.0,0.07473629713058472
15.0,0.07393977046012878
16.0,0.07315732538700104
18.0,0.07164706289768219
20.0,0.0701780691742897
22.0,0.06877385824918747
24.0,0.06746457517147064
26.0,0.0662178173661232
28.0,0.06506949663162231
30.0,0.06401713192462921
32.0,0.06301042437553406
36.0,0.060980334877967834
40.0,0.05898814648389816
44.0,0.05700264498591423
48.0,0.055028390139341354
52.0,0.053246378898620605
56.0,0.051891621202230453
60.0,0.050906356424093246
64.0,0.05030794441699982
72.0,0.04942542687058449
80.0,0.04818315431475639
88.0,0.04684344306588173
96.0,0.045725513249635696
104.0,0.04459310322999954
112.0,0.04349026829004288
120.0,0.042041607201099396
128.0,0.040223099291324615
144.0,0.037520457059144974
160.0,0.03512709587812424
176.0,0.033557724207639694
192.0,0.033247560262680054
208.0,0.03323584794998169
224.0,0.03184204176068306
240.0,0.02992132492363453
256.0,0.02854926325380802
288.0,0.02839728072285652
320.0,0.028442520648241043
352.0,0.028915150091052055
384.0,0.028148582205176353
416.0,0.0277328509837389
448.0,0.02772906795144081
480.0,0.02760525792837143
512.0,0.02757835015654564
576.0,0.029431013390421867
640.0,0.02761177532374859
704.0,0.02358524315059185
768.0,0.01604449935257435
832.0,0.014335760846734047
896.0,0.014148455113172531
960.0,0.015790628269314766
1024.0,0.014520133845508099
1152.0,0.014238030649721622
1280.0,0.013011186383664608
1408.0,0.010567554272711277
1536.0,0.013151664286851883
1664.0,0.017553187906742096
1792.0,0.015557977370917797
1920.0,0.013376515358686447
2048.0,0.012970620766282082
2304.0,0.008999580517411232
2560.0,0.010776624083518982
2816.0,0.007820847444236279
3072.0,0.0050278715789318085
3328.0,0.0037680636160075665
3584.0,-0.005775829311460257
3840.0,-0.008344658650457859
4096.0,-0.011212639510631561
4608.0,-0.009563608095049858
5120.0,0.0025561884976923466
5632.0,0.005287213250994682
6144.0,-0.0007387322839349508
6656.0,-0.008586575277149677
7168.0,-0.00977883581072092
7680.0,-0.004149441607296467
8192.0,-0.01326444186270237
9216.0,-0.022836944088339806
10240.0,-0.04550078511238098
11264.0,-0.015888594090938568
12288.0,-0.014161862432956696
13312.0,0.007221405394375324
14336.0,0.029628995805978775
end
