version,3.0
numOfCh,1
type,point
parent_name,4-cuts
ch_type,1_1
kcount,1
numberNandB,1
brightnessNandB,1
carpet pos,0
pc,0
Time (ms),CH1 Auto-Correlation
1.0,0.021905338391661644
2.0,0.02148471772670746
3.0,0.02108377404510975
4.0,0.020694900304079056
5.0,0.020324230194091797
6.0,0.01996389962732792
7.0,0.01961778663098812
8.0,0.019281232729554176
9.0,0.018963146954774857
10.0,0.018658334389328957
11.0,0.018373146653175354
12.0,0.018090277910232544
13.0,0.017815276980400085
14.0,0.01754857785999775
15.0,0.01728481613099575
16.0,0.017039775848388672
18.0,0.016588209196925163
20.0,0.016163095831871033
22.0,0.015754299238324165
24.0,0.015369363129138947
26.0,0.014985308982431889
28.0,0.014611082151532173
30.0,0.014266546815633774
32.0,0.01393437385559082
36.0,0.013319621793925762
40.0,0.012757309712469578
44.0,0.01219511404633522
48.0,0.0116981640458107
52.0,0.011171757243573666
56.0,0.01063596922904253
60.0,0.010126424953341484
64.0,0.009652052074670792
72.0,0.008873467333614826
80.0,0.008119461126625538
88.0,0.007488761562854052
96.0,0.006867478135973215
104.0,0.006278363522142172
112.0,0.0057670315727591515
120.0,0.005238212179392576
128.0,0.004749909974634647
144.0,0.0039644851349294186
160.0,0.0036917980760335922
176.0,0.0038915921468287706
192.0,0.003979645203799009
208.0,0.003833223134279251
224.0,0.00368496379815042
240.0,0.0034884538035839796
256.0,0.003331782529130578
288.0,0.0026799787301570177
320.0,0.0017205493059009314
352.0,0.0009247582056559622
384.0,-0.00021782636758871377
416.0,-0.0013868809910491109
448.0,-0.0016097950283437967
480.0,-0.0017252435209229589
512.0,-0.0020941400434821844
576.0,-0.0009623655350878835
640.0,-0.00016044122457969934
704.0,-0.0007230717455968261
768.0,-0.00101237534545362
832.0,-6.12440999248065e-05
896.0,0.0003553984279278666
960.0,0.0006183263612911105
1024.0,-0.0002770363353192806
1152.0,-0.0008517301175743341
1280.0,-0.0002478061942383647
1408.0,-0.0018540865276008844
1536.0,-0.0009077599970623851
1664.0,-0.0010298045817762613
1792.0,0.0015531859826296568
1920.0,0.0016524820821359754
2048.0,0.000972835230641067
2304.0,0.0006055005360394716
2560.0,-0.0008386078989133239
2816.0,-0.0014512601774185896
3072.0,-0.0018667986150830984
3328.0,-0.0029225919861346483
3584.0,-0.0007336155395023525
3840.0,5.332623914000578e-06
4096.0,-0.0007204466965049505
4608.0,0.0019763121381402016
5120.0,-0.0027053498197346926
5632.0,0.0005950276390649378
6144.0,-0.0001542655227240175
6656.0,0.0007636510417796671
7168.0,0.0003943335614167154
7680.0,-0.0010847748490050435
8192.0,0.0032602576538920403
9216.0,0.00034705057623796165
10240.0,-8.239654562203214e-06
11264.0,-0.0023545625153928995
12288.0,-0.0005167079507373273
13312.0,-0.00011497985542519018
14336.0,-0.0007803643820807338
end
