version,3.0
numOfCh,1
type,point
parent_name,4-cuts
ch_type,1_1
kcount,1
numberNandB,1
brightnessNandB,1
carpet pos,0
pc,0
Time (ms),CH1 Auto-Correlation
1.0,0.07004974037408829
2.0,0.06882938742637634
3.0,0.06764195114374161
4.0,0.06653571128845215
5.0,0.06549320369958878
6.0,0.06447508931159973
7.0,0.06348253786563873
8.0,0.06253600120544434
9.0,0.06164814159274101
10.0,0.06079008802771568
11.0,0.05995939299464226
12.0,0.059134550392627716
13.0,0.05835292115807533
14.0,0.057588763535022736
15.0,0.05690527334809303
16.0,0.05625182390213013
18.0,0.05500480905175209
20.0,0.05382344126701355
22.0,0.05267820507287979
24.0,0.05154464766383171
26.0,0.050470031797885895
28.0,0.049441684037446976
30.0,0.048323068767786026
32.0,0.04714749753475189
36.0,0.04500754177570343
40.0,0.04318372160196304
44.0,0.04163017496466637
48.0,0.04018794745206833
52.0,0.038677044212818146
56.0,0.037171002477407455
60.0,0.03576372563838959
64.0,0.034483376890420914
72.0,0.03224411979317665
80.0,0.030181849375367165
88.0,0.028196780011057854
96.0,0.0258176289498806
104.0,0.023601466789841652
112.0,0.022343521937727928
120.0,0.021626656875014305
128.0,0.02038179337978363
144.0,0.017345216125249863
160.0,0.014645309187471867
176.0,0.012789887376129627
192.0,0.010677347891032696
208.0,0.009439876303076744
224.0,0.008917543105781078
240.0,0.008219065144658089
256.0,0.0077088153921067715
288.0,0.008032400161027908
320.0,0.006826502270996571
352.0,0.005351700354367495
384.0,0.005983386654406786
416.0,0.006014371756464243
448.0,0.0031416353303939104
480.0,0.000847135204821825
512.0,0.00019301199063193053
576.0,-0.0010721375001594424
640.0,-0.003987087402492762
704.0,-0.004745204467326403
768.0,-0.006836568005383015
832.0,-0.007631825283169746
896.0,-0.00917708408087492
960.0,-0.010762584395706654
1024.0,-0.010130226612091064
1152.0,-0.0016696517122909427
1280.0,-0.0009208819246850908
1408.0,0.00024172349367290735
1536.0,0.0014775391900911927
1664.0,0.0016648693708702922
1792.0,-0.001528409426100552
1920.0,0.0032006653491407633
2048.0,0.004670523572713137
2304.0,-0.001765202498063445
2560.0,-0.0029738980811089277
2816.0,-0.005738553125411272
3072.0,-0.005397162865847349
3328.0,-0.00029763710335828364
3584.0,-0.00021583384659606963
3840.0,-0.0035814347211271524
4096.0,-0.0023006126284599304
4608.0,-0.002675012918189168
5120.0,0.000684967206325382
5632.0,-0.003707630094140768
6144.0,-0.0009037614800035954
6656.0,0.0061708674766123295
7168.0,0.0006434939568862319
7680.0,-0.0038791520055383444
8192.0,-0.0024297311902046204
9216.0,0.0006904203910380602
10240.0,0.001840744516812265
11264.0,0.0013728335034102201
12288.0,-0.0013001684565097094
13312.0,-0.002303629880771041
14336.0,0.004720205441117287
end
