version,3.0
numOfCh,1
type,point
parent_name,4-cuts
ch_type,1_1
kcount,1
numberNandB,1
brightnessNandB,1
carpet pos,0
pc,0
Time (ms),CH1 Auto-Correlation
1.0,0.062186792492866516
2.0,0.06095593422651291
3.0,0.05974401906132698
4.0,0.05859639495611191
5.0,0.05746842175722122
6.0,0.056410979479551315
7.0,0.05535655468702316
8.0,0.05433196946978569
9.0,0.053333211690187454
10.0,0.052381038665771484
11.0,0.05146315321326256
12.0,0.05056236684322357
13.0,0.049679432064294815
14.0,0.04884319752454758
15.0,0.04802698642015457
16.0,0.04722900316119194
18.0,0.045664336532354355
20.0,0.04413170367479324
22.0,0.04261565953493118
24.0,0.041210323572158813
26.0,0.03989345580339432
28.0,0.038679998368024826
30.0,0.03748089820146561
32.0,0.03630237653851509
36.0,0.034022193402051926
40.0,0.031939104199409485
44.0,0.029988190159201622
48.0,0.028298132121562958
52.0,0.02672642096877098
56.0,0.02535751275718212
60.0,0.02416153997182846
64.0,0.02317415364086628
72.0,0.02182907983660698
80.0,0.020221246406435966
88.0,0.018581578508019447
96.0,0.016848618164658546
104.0,0.01507568359375
112.0,0.013811192475259304
120.0,0.012757213786244392
128.0,0.011753940023481846
144.0,0.009295079857110977
160.0,0.0067307474091649055
176.0,0.005870263557881117
192.0,0.005886674392968416
208.0,0.006384859327226877
224.0,0.0073373266495764256
240.0,0.006644992157816887
256.0,0.005187126342207193
288.0,0.00046458691940642893
320.0,-0.00152637402061373
352.0,-0.0017162851290777326
384.0,-5.662624243996106e-05
416.0,0.0005516723613254726
448.0,0.0010994506301358342
480.0,0.0023293807171285152
512.0,0.0030319150537252426
576.0,0.0024040325079113245
640.0,0.001023683464154601
704.0,-0.0013323568273335695
768.0,-0.001795494114048779
832.0,-0.001632101135328412
896.0,-0.0017406337428838015
960.0,-0.00375917786732316
1024.0,-0.0059333196841180325
1152.0,-0.0007026652456261218
1280.0,-0.00023660190345253795
1408.0,0.002367841312661767
1536.0,-0.0018923949683085084
1664.0,0.002547309035435319
1792.0,0.0035168046597391367
1920.0,0.0013942248187959194
2048.0,0.0013672783970832825
2304.0,-0.002175825648009777
2560.0,0.0006572091951966286
2816.0,-0.003317874623462558
3072.0,-4.039426494273357e-05
3328.0,0.0006056969868950546
3584.0,-0.0007678132387809455
3840.0,-0.009130468592047691
4096.0,-0.0045709130354225636
4608.0,0.002454497618600726
5120.0,-0.0003057209250982851
5632.0,-0.0018617470050230622
6144.0,-0.0020984860602766275
6656.0,-0.002372192917391658
7168.0,-0.0013163277180865407
7680.0,0.002529796212911606
8192.0,0.0011676361318677664
9216.0,0.004886420909315348
10240.0,0.001260761870071292
11264.0,-0.0009230041760019958
12288.0,-0.006596663501113653
13312.0,-0.0015484766336157918
14336.0,-0.007176594343036413
end
