version,3.0
numOfCh,1
type,point
parent_name,4-cuts
ch_type,1_1
kcount,1
numberNandB,1
brightnessNandB,1
carpet pos,0
pc,0
Time (ms),CH1 Auto-Correlation
1.0,0.06770991533994675
2.0,0.0665779858827591
3.0,0.06545528769493103
4.0,0.06438641250133514
5.0,0.0633377879858017
6.0,0.062328457832336426
7.0,0.06135784089565277
8.0,0.06039891019463539
9.0,0.05948790907859802
10.0,0.05858391895890236
11.0,0.05775260552763939
12.0,0.056963659822940826
13.0,0.056229811161756516
14.0,0.05549956485629082
15.0,0.05477314442396164
16.0,0.054060932248830795
18.0,0.05272156000137329
20.0,0.05151341110467911
22.0,0.05035874620079994
24.0,0.0492178276181221
26.0,0.0480799674987793
28.0,0.04701029881834984
30.0,0.04601232334971428
32.0,0.0450461208820343
36.0,0.04326920583844185
40.0,0.04169516637921333
44.0,0.040338121354579926
48.0,0.039013978093862534
52.0,0.03764105960726738
56.0,0.03625181317329407
60.0,0.034951742738485336
64.0,0.03368870168924332
72.0,0.03136260062456131
80.0,0.02895568124949932
88.0,0.02630789577960968
96.0,0.024057546630501747
104.0,0.022489765658974648
112.0,0.021565768867731094
120.0,0.02069820463657379
128.0,0.01998186856508255
144.0,0.01881219819188118
160.0,0.01691299118101597
176.0,0.015122461132705212
192.0,0.013825548812747002
208.0,0.012926389463245869
224.0,0.012260517105460167
240.0,0.011848686262965202
256.0,0.011175772175192833
288.0,0.008944564498960972
320.0,0.00803640391677618
352.0,0.007142337970435619
384.0,0.007942166179418564
416.0,0.008272434584796429
448.0,0.007996546104550362
480.0,0.007209303323179483
512.0,0.006015432998538017
576.0,0.002793635008856654
640.0,-0.0007062984514050186
704.0,-0.001513652503490448
768.0,-0.00014186945918481797
832.0,0.00039323794771917164
896.0,-0.00019072498253080994
960.0,0.0005810798611491919
1024.0,-0.0027660115156322718
1152.0,-0.006773495115339756
1280.0,-0.0058289626613259315
1408.0,-0.0030280917417258024
1536.0,-0.0016670316690579057
1664.0,-0.002420546254143119
1792.0,-0.004425905179232359
1920.0,-0.00479132728651166
2048.0,-0.00614794809371233
2304.0,-0.005412809085100889
2560.0,-0.004313225392252207
2816.0,-0.0035311980172991753
3072.0,0.0017856232589110732
3328.0,0.003921309486031532
3584.0,0.004860192071646452
3840.0,0.006276281084865332
4096.0,0.010167564265429974
4608.0,0.004574391059577465
5120.0,-0.004492987412959337
5632.0,-0.001976781990379095
6144.0,0.0019718999974429607
6656.0,-0.011638479307293892
7168.0,-0.009004178456962109
7680.0,0.003704816335812211
8192.0,-0.0016691670753061771
9216.0,0.0012951957760378718
10240.0,-0.002007179195061326
11264.0,-0.005973959807306528
12288.0,0.004525352735072374
13312.0,-0.004545886535197496
14336.0,0.0018682210939005017
end
