version,3.0
numOfCh,1
type,point
parent_name,4-cuts
ch_type,1_1
kcount,1
numberNandB,1
brightnessNandB,1
carpet pos,0
pc,0
Time (ms),CH1 Auto-Correlation
1.0,0.025452302768826485
2.0,0.02506372705101967
3.0,0.02469720132648945
4.0,0.024352451786398888
5.0,0.024022646248340607
6.0,0.023700516670942307
7.0,0.023397840559482574
8.0,0.023111488670110703
9.0,0.022833598777651787
10.0,0.022567080333828926
11.0,0.02229766733944416
12.0,0.022038163617253304
13.0,0.021782072260975838
14.0,0.02153703384101391
15.0,0.021295683458447456
16.0,0.021062064915895462
18.0,0.02060297504067421
20.0,0.02014808915555477
22.0,0.01970694772899151
24.0,0.019282544031739235
26.0,0.018873414024710655
28.0,0.018470710143446922
30.0,0.0181114599108696
32.0,0.01777547225356102
36.0,0.017187019810080528
40.0,0.016619039699435234
44.0,0.01611289009451866
48.0,0.01571107655763626
52.0,0.015328524634242058
56.0,0.014956164173781872
60.0,0.014574541710317135
64.0,0.014232253655791283
72.0,0.013610447756946087
80.0,0.012991372495889664
88.0,0.012492924928665161
96.0,0.012037210166454315
104.0,0.011590088717639446
112.0,0.011125953868031502
120.0,0.010627158917486668
128.0,0.010150168091058731
144.0,0.009207230992615223
160.0,0.00859355740249157
176.0,0.00830529909580946
192.0,0.007796189747750759
208.0,0.007502891588956118
224.0,0.006981601472944021
240.0,0.006269540637731552
256.0,0.005779215134680271
288.0,0.0057260929606854916
320.0,0.005515869241207838
352.0,0.0055721839889883995
384.0,0.00552747119218111
416.0,0.005576832685619593
448.0,0.005400156136602163
480.0,0.005319806281477213
512.0,0.004953262861818075
576.0,0.0036110864020884037
640.0,0.0024120241869241
704.0,0.0018153060227632523
768.0,0.0016042663482949138
832.0,0.0011402495438233018
896.0,0.0014800900826230645
960.0,0.0006638800259679556
1024.0,-0.0006240752409212291
1152.0,8.691653056303039e-05
1280.0,0.0012387039605528116
1408.0,0.0013235792284831405
1536.0,0.0001058776761055924
1664.0,-0.0004225252487231046
1792.0,0.00019405561033636332
1920.0,3.581361306714825e-05
2048.0,0.00030238990439102054
2304.0,-0.0013913450529798865
2560.0,-0.0005052665947005153
2816.0,-0.00033968270872719586
3072.0,-0.0005493310163728893
3328.0,-0.001795609830878675
3584.0,-0.0016857503214851022
3840.0,-0.003220583312213421
4096.0,-0.0025977378245443106
4608.0,-0.002213326981291175
5120.0,-0.0029371180571615696
5632.0,-0.0016705438029021025
6144.0,0.0023272940889000893
6656.0,0.003646381199359894
7168.0,0.0017830049619078636
7680.0,0.00038740519084967673
8192.0,-0.002473076805472374
9216.0,-0.00162033224478364
10240.0,-0.0028460323810577393
11264.0,-0.0042321099899709225
12288.0,-0.0010271841892972589
13312.0,0.0016760664293542504
14336.0,0.003073174972087145
end
