version,3.0
numOfCh,1
type,point
parent_name,4-cuts
ch_type,1_1
kcount,1
numberNandB,1
brightnessNandB,1
carpet pos,0
pc,0
Time (ms),CH1 Auto-Correlation
1.0,0.019697312265634537
2.0,0.01930518075823784
3.0,0.018922708928585052
4.0,0.01856359653174877
5.0,0.01823052577674389
6.0,0.017915600910782814
7.0,0.017613176256418228
8.0,0.01731741800904274
9.0,0.01702047698199749
10.0,0.016724776476621628
11.0,0.016437700018286705
12.0,0.016148408874869347
13.0,0.015872545540332794
14.0,0.01560492068529129
15.0,0.015338449738919735
16.0,0.015071206726133823
18.0,0.014575780369341373
20.0,0.01410858053714037
22.0,0.013668365776538849
24.0,0.013260274194180965
26.0,0.012897947803139687
28.0,0.012539809569716454
30.0,0.012192747555673122
32.0,0.01185721717774868
36.0,0.011233127675950527
40.0,0.010605140589177608
44.0,0.00995604321360588
48.0,0.009316863492131233
52.0,0.008708593435585499
56.0,0.008142384700477123
60.0,0.0076594967395067215
64.0,0.007245668675750494
72.0,0.0065668863244354725
80.0,0.006016711238771677
88.0,0.005476707126945257
96.0,0.005146213807165623
104.0,0.004871919751167297
112.0,0.004644810687750578
120.0,0.004388273693621159
128.0,0.004048217087984085
144.0,0.0038086827844381332
160.0,0.004105458501726389
176.0,0.004163180477917194
192.0,0.00395167013630271
208.0,0.0034319341648370028
224.0,0.0027355870697647333
240.0,0.0025394437834620476
256.0,0.0023907539434731007
288.0,0.0020064525306224823
320.0,0.001260001678019762
352.0,0.001206601387821138
384.0,0.0014433987671509385
416.0,0.0016252604546025395
448.0,0.0019212983315810561
480.0,0.0017233705148100853
512.0,0.0015205626841634512
576.0,0.0007357193971984088
640.0,0.0004571856989059597
704.0,-0.0005285926745273173
768.0,-0.0020269472151994705
832.0,-0.0009928792715072632
896.0,-0.0015501809539273381
960.0,-0.00215241895057261
1024.0,-0.0010145570849999785
1152.0,0.00026208526105619967
1280.0,-9.388734179083258e-05
1408.0,5.929069811827503e-05
1536.0,-0.0008081013802438974
1664.0,-0.0010885061929002404
1792.0,0.000968869193457067
1920.0,0.001442133798263967
2048.0,0.0009181271889247
2304.0,0.001506895525380969
2560.0,3.32053127749532e-06
2816.0,-0.0022040405310690403
3072.0,-0.0017875226913020015
3328.0,-0.002356664277613163
3584.0,-0.0029964016284793615
3840.0,-0.0015544728375971317
4096.0,-0.000974270689766854
4608.0,0.0007422033231705427
5120.0,-0.0012400945415720344
5632.0,-0.00017984460282605141
6144.0,0.000787664670497179
6656.0,0.00276636378839612
7168.0,0.00012090984819224104
7680.0,-0.0022318782284855843
8192.0,-0.0006220924551598728
9216.0,0.00013688871695194393
10240.0,-0.0012727868743240833
11264.0,0.0018229458946734667
12288.0,-0.0014454253250733018
13312.0,0.00150858866982162
14336.0,-0.0011492129415273666
end
