version,3.0
numOfCh,1
type,point
parent_name,4-cuts
ch_type,1_1
kcount,1
numberNandB,1
brightnessNandB,1
carpet pos,0
pc,0
Time (ms),CH1 Auto-Correlation
1.0,0.022629093378782272
2.0,0.022250458598136902
3.0,0.02187325246632099
4.0,0.021511564031243324
5.0,0.02116641029715538
6.0,0.020839473232626915
7.0,0.020525241270661354
8.0,0.02021312341094017
9.0,0.019907789304852486
10.0,0.019617609679698944
11.0,0.01933024264872074
12.0,0.01904279738664627
13.0,0.018750758841633797
14.0,0.018474292010068893
15.0,0.018208585679531097
16.0,0.017953848466277122
18.0,0.017463255673646927
20.0,0.016978386789560318
22.0,0.01650911755859852
24.0,0.016050077974796295
26.0,0.015585287474095821
28.0,0.015143446624279022
30.0,0.014737337827682495
32.0,0.014343291521072388
36.0,0.013575013726949692
40.0,0.012897077016532421
44.0,0.01229659654200077
48.0,0.011760672554373741
52.0,0.011308528482913971
56.0,0.010921545326709747
60.0,0.010662510991096497
64.0,0.010465428233146667
72.0,0.00995447114109993
80.0,0.00939188152551651
88.0,0.00884116068482399
96.0,0.00828600861132145
104.0,0.007722312584519386
112.0,0.0071218423545360565
120.0,0.006679060403257608
128.0,0.006276546511799097
144.0,0.005775664001703262
160.0,0.0054298327304422855
176.0,0.004884451162070036
192.0,0.00445419130846858
208.0,0.004302816931158304
224.0,0.0041078003123402596
240.0,0.0038691770751029253
256.0,0.0032443355303257704
288.0,0.001977300038561225
320.0,0.0016479764599353075
352.0,0.0016322708688676357
384.0,0.0013698245165869594
416.0,0.0015191436978057027
448.0,0.000938381883315742
480.0,0.001129866810515523
512.0,0.0015398671384900808
576.0,0.0018443333683535457
640.0,0.0011680485913529992
704.0,0.0015937729040160775
768.0,0.002404823200777173
832.0,0.0017024108674377203
896.0,0.00069573795190081
960.0,0.00025801427545957267
1024.0,8.666011854074895e-05
1152.0,0.0006163613288663328
1280.0,0.0012610667617991567
1408.0,0.00158639345318079
1536.0,-0.0006116275326348841
1664.0,-0.002098479773849249
1792.0,-0.00046346502494998276
1920.0,0.0002716812305152416
2048.0,0.0003715803031809628
2304.0,0.0010932324221357703
2560.0,0.0026534032076597214
2816.0,-0.00019714265363290906
3072.0,-0.0004021420900244266
3328.0,0.0004358456935733557
3584.0,-0.0009231902076862752
3840.0,-0.0016757029807195067
4096.0,0.00033793351030908525
4608.0,0.0017501878319308162
5120.0,0.000998190836980939
5632.0,0.0003519717138260603
6144.0,-0.0024086646735668182
6656.0,-0.004340158775448799
7168.0,-0.0011498803505674005
7680.0,-0.001340574468486011
8192.0,-0.002130120061337948
9216.0,-0.0019977670162916183
10240.0,0.0007476165774278343
11264.0,-0.002552865771576762
12288.0,-0.001394109451211989
13312.0,0.003466665977612138
14336.0,0.0008579551358707249
end
