version,3.0
numOfCh,1
type,point
parent_name,4-cuts
ch_type,1_1
kcount,1
numberNandB,1
brightnessNandB,1
carpet pos,0
pc,0
Time (ms),CH1 Auto-Correlation
1.0,0.031952500343322754
2.0,0.031356800347566605
3.0,0.03077692724764347
4.0,0.03023015335202217
5.0,0.029700664803385735
6.0,0.029194718226790428
7.0,0.028711043298244476
8.0,0.028226692229509354
9.0,0.02775396592915058
10.0,0.02728469856083393
11.0,0.026816336438059807
12.0,0.026370014995336533
13.0,0.025947367772459984
14.0,0.025529684498906136
15.0,0.02513064630329609
16.0,0.02475454844534397
18.0,0.024015774950385094
20.0,0.023318810388445854
22.0,0.022668013349175453
24.0,0.022043751552700996
26.0,0.021459084004163742
28.0,0.020919254049658775
30.0,0.020414650440216064
32.0,0.01992763765156269
36.0,0.018994037061929703
40.0,0.018123621121048927
44.0,0.017336290329694748
48.0,0.016618235036730766
52.0,0.015889311209321022
56.0,0.015166697092354298
60.0,0.014459771104156971
64.0,0.013819396495819092
72.0,0.012628219090402126
80.0,0.011556298471987247
88.0,0.010441403836011887
96.0,0.009303063154220581
104.0,0.00835964921861887
112.0,0.007595611736178398
120.0,0.007074693683534861
128.0,0.0065995315089821815
144.0,0.005679146386682987
160.0,0.00504071032628417
176.0,0.004403394181281328
192.0,0.0033598027657717466
208.0,0.002470006002113223
224.0,0.0018160378094762564
240.0,0.0011572063667699695
256.0,0.0007666358142159879
288.0,0.001270008971914649
320.0,0.0024494710378348827
352.0,0.004620152059942484
384.0,0.005669130943715572
416.0,0.005314430221915245
448.0,0.0045213280245661736
480.0,0.0040181539952754974
512.0,0.00381087395362556
576.0,0.002313764300197363
640.0,4.116000491194427e-05
704.0,0.0004362454346846789
768.0,0.00016305706230923533
832.0,0.0003925731871277094
896.0,0.00016712308570276946
960.0,-0.0017640574369579554
1024.0,-0.001278047333471477
1152.0,0.0005665936041623354
1280.0,0.001029333332553506
1408.0,-0.0007674848893657327
1536.0,-0.00101079314481467
1664.0,0.0007663960568606853
1792.0,-0.0007078140624798834
1920.0,-0.0029060072265565395
2048.0,-0.0019463762873783708
2304.0,-0.002517630811780691
2560.0,-0.0015902455197647214
2816.0,-0.00033013441134244204
3072.0,-0.001958305248990655
3328.0,-0.0027123389299958944
3584.0,-0.00244725844822824
3840.0,-0.004326075781136751
4096.0,-0.0002185496996389702
4608.0,-0.0009141017799265683
5120.0,-0.0005832851165905595
5632.0,0.0018544867634773254
6144.0,0.0008928860770538449
6656.0,-0.0010494281305000186
7168.0,9.221131767844781e-05
7680.0,-0.0016719461418688297
8192.0,0.00030997011344879866
9216.0,0.0041192201897501945
10240.0,1.2820034498872701e-05
11264.0,-0.0005024533602409065
12288.0,-0.0056655025109648705
13312.0,-0.005403283983469009
14336.0,0.002147109480574727
end
