version,3.0
numOfCh,1
type,point
parent_name,4-cuts
ch_type,1_1
kcount,1
numberNandB,1
brightnessNandB,1
carpet pos,0
pc,0
Time (ms),CH1 Auto-Correlation
1.0,0.06870845705270767
2.0,0.06754069775342941
3.0,0.06641052663326263
4.0,0.06532767415046692
5.0,0.0642826110124588
6.0,0.06330766528844833
7.0,0.06234639883041382
8.0,0.06138104945421219
9.0,0.06046351417899132
10.0,0.05957719683647156
11.0,0.058711934834718704
12.0,0.05791943892836571
13.0,0.057118114084005356
14.0,0.05630909651517868
15.0,0.05557721108198166
16.0,0.05487193539738655
18.0,0.053438808768987656
20.0,0.05204411596059799
22.0,0.05069877207279205
24.0,0.04939787834882736
26.0,0.04816325753927231
28.0,0.04702074080705643
30.0,0.0459628626704216
32.0,0.04501676559448242
36.0,0.04329405725002289
40.0,0.041763752698898315
44.0,0.04031944274902344
48.0,0.03887972980737686
52.0,0.03754238411784172
56.0,0.036400556564331055
60.0,0.03537582978606224
64.0,0.034518130123615265
72.0,0.03266268968582153
80.0,0.03059258498251438
88.0,0.02872728742659092
96.0,0.026934565976262093
104.0,0.025299135595560074
112.0,0.023897536098957062
120.0,0.022682569921016693
128.0,0.02151625044643879
144.0,0.01962440274655819
160.0,0.017743119969964027
176.0,0.015773775056004524
192.0,0.01524684764444828
208.0,0.014911564998328686
224.0,0.013521131128072739
240.0,0.011558054015040398
256.0,0.010168083012104034
288.0,0.00968568678945303
320.0,0.008443411439657211
352.0,0.008010896854102612
384.0,0.006101937964558601
416.0,0.005975862964987755
448.0,0.006388985551893711
480.0,0.004519382491707802
512.0,0.002514070365577936
576.0,0.006202843971550465
640.0,0.010276916436851025
704.0,0.007728154305368662
768.0,0.004299185238778591
832.0,0.0018083100439980626
896.0,0.001222293241880834
960.0,0.002023704582825303
1024.0,0.004764987155795097
1152.0,0.006436591036617756
1280.0,0.009541495703160763
1408.0,0.006747120525687933
1536.0,0.0016600266098976135
1664.0,0.0007603526464663446
1792.0,0.00045049702748656273
1920.0,0.0007169541204348207
2048.0,0.001703369547612965
2304.0,-0.006330152042210102
2560.0,-0.005409495439380407
2816.0,-0.009404003620147705
3072.0,-0.004756535403430462
3328.0,0.007694957312196493
3584.0,0.007487446069717407
3840.0,0.0018871327629312873
4096.0,-0.007427928503602743
4608.0,-0.00649987580254674
5120.0,-0.003609422128647566
5632.0,-0.010071668773889542
6144.0,-0.01478106714785099
6656.0,-0.0019910763949155807
7168.0,0.003606931073591113
7680.0,0.0005245435168035328
8192.0,0.0037762969732284546
9216.0,0.00018999926396645606
10240.0,-0.0017775573069229722
11264.0,-0.0015753702027723193
12288.0,0.004545269068330526
13312.0,0.001554711489006877
14336.0,-0.0007242276915349066
end
