version,3.0
numOfCh,1
type,point
parent_name,4-cuts
ch_type,1_1
kcount,1
numberNandB,1
brightnessNandB,1
carpet pos,0
pc,0
Time (ms),CH1 Auto-Correlation
1.0,0.029469022527337074
2.0,0.028887424618005753
3.0,0.028327465057373047
4.0,0.027796590700745583
5.0,0.02727460488677025
6.0,0.026760365813970566
7.0,0.02625257708132267
8.0,0.025764519348740578
9.0,0.02531137876212597
10.0,0.02486870437860489
11.0,0.024437250569462776
12.0,0.02401496097445488
13.0,0.023599518463015556
14.0,0.02320166863501072
15.0,0.02281472645699978
16.0,0.02244771271944046
18.0,0.021721819415688515
20.0,0.02103014849126339
22.0,0.020374808460474014
24.0,0.019765213131904602
26.0,0.01919684000313282
28.0,0.018655886873602867
30.0,0.018092259764671326
32.0,0.017546387389302254
36.0,0.01651982218027115
40.0,0.0156053202226758
44.0,0.014715315774083138
48.0,0.013927558436989784
52.0,0.013209194876253605
56.0,0.012623530812561512
60.0,0.012087165378034115
64.0,0.011493799276649952
72.0,0.010397770442068577
80.0,0.009398205205798149
88.0,0.008441322483122349
96.0,0.007915709167718887
104.0,0.007509087212383747
112.0,0.007062902674078941
120.0,0.006822582334280014
128.0,0.0068354131653904915
144.0,0.007327553350478411
160.0,0.007558571174740791
176.0,0.0076100449077785015
192.0,0.007451465819031
208.0,0.007498438935726881
224.0,0.007546649314463139
240.0,0.007613377179950476
256.0,0.00770746823400259
288.0,0.007204733788967133
320.0,0.006392048671841621
352.0,0.005906637758016586
384.0,0.005664934869855642
416.0,0.004579062573611736
448.0,0.0029969278257340193
480.0,0.002240087604150176
512.0,0.0027119896840304136
576.0,0.0030928202904760838
640.0,0.0024119510781019926
704.0,0.0019261969719082117
768.0,0.0021838825196027756
832.0,0.0024687987752258778
896.0,0.0013817192520946264
960.0,-0.00017004995606839657
1024.0,-0.0003249644360039383
1152.0,0.0014642347814515233
1280.0,6.122861668700352e-05
1408.0,0.00011156647087773308
1536.0,-0.0007021120400168002
1664.0,0.00048622407484799623
1792.0,0.0009120203321799636
1920.0,0.0028899218887090683
2048.0,0.0037602968513965607
2304.0,0.002408233005553484
2560.0,0.002114122034981847
2816.0,0.000804420153144747
3072.0,0.0008557913824915886
3328.0,0.0012487823842093349
3584.0,0.00044891383731737733
3840.0,0.0008010087767615914
4096.0,0.002490054816007614
4608.0,0.0010798085713759065
5120.0,0.001019151764921844
5632.0,0.0024872692301869392
6144.0,-0.0027473941445350647
6656.0,-0.0044941953383386135
7168.0,-0.003581341588869691
7680.0,0.0008614265243522823
8192.0,-0.0006465794867835939
9216.0,-0.003885420737788081
10240.0,-0.004035633988678455
11264.0,-0.004018500447273254
12288.0,-0.0027386792935431004
13312.0,0.0005205994821153581
14336.0,-0.007102695759385824
end
