version,3.0
numOfCh,1
type,point
parent_name,4-cuts
ch_type,1_1
kcount,1
numberNandB,1
brightnessNandB,1
carpet pos,0
pc,0
Time (ms),CH1 Auto-Correlation
1.0,0.018454184755682945
2.0,0.018037354573607445
3.0,0.017631765455007553
4.0,0.017252014949917793
5.0,0.01688201166689396
6.0,0.016530033200979233
7.0,0.016197185963392258
8.0,0.015871569514274597
9.0,0.015556911937892437
10.0,0.015253275632858276
11.0,0.014952575787901878
12.0,0.014656776562333107
13.0,0.014356812462210655
14.0,0.014078025706112385
15.0,0.013818148523569107
16.0,0.013556325808167458
18.0,0.013071838766336441
20.0,0.01262875460088253
22.0,0.012202229350805283
24.0,0.011787828989326954
26.0,0.01138900313526392
28.0,0.011004170402884483
30.0,0.010647226125001907
32.0,0.0103162731975317
36.0,0.00971479993313551
40.0,0.009220944717526436
44.0,0.008796729147434235
48.0,0.008437066338956356
52.0,0.008127572014927864
56.0,0.007835791446268559
60.0,0.0075714983977377415
64.0,0.007310750428587198
72.0,0.006760822143405676
80.0,0.006097695324569941
88.0,0.005367102101445198
96.0,0.0047993846237659454
104.0,0.004261475056409836
112.0,0.0037772562354803085
120.0,0.003510817652568221
128.0,0.0033972386736422777
144.0,0.0028484589420259
160.0,0.0021940264850854874
176.0,0.0015629197005182505
192.0,0.001326560159213841
208.0,0.0011098687537014484
224.0,0.0006558728637173772
240.0,0.0006021207664161921
256.0,0.0007180509273894131
288.0,0.0008705717045813799
320.0,0.0011366388062015176
352.0,0.0010251769563183188
384.0,0.0009688819409348071
416.0,0.0010139262303709984
448.0,0.001054658554494381
480.0,0.0011975191300734878
512.0,0.0016170472372323275
576.0,0.0012770480243489146
640.0,0.0002933396608568728
704.0,-0.0005900527467019856
768.0,1.0284615200362168e-05
832.0,0.0008840726804919541
896.0,0.001083391485735774
960.0,0.0010067109251394868
1024.0,0.0006712312460877001
1152.0,0.0006201089709065855
1280.0,0.0005259055178612471
1408.0,0.0013980978401377797
1536.0,0.0007169470773078501
1664.0,0.00014776189345866442
1792.0,-0.0002801399677991867
1920.0,0.0009565567597746849
2048.0,-0.0002872571349143982
2304.0,-0.001383527065627277
2560.0,-0.0015161937335506082
2816.0,-0.0019003466004505754
3072.0,-0.0006325722206383944
3328.0,-0.0004023735236842185
3584.0,-0.00042201526230201125
3840.0,-0.0016503693768754601
4096.0,-0.0016543229576200247
4608.0,-0.00041417774627916515
5120.0,-0.0001453922741347924
5632.0,0.0006929210503585637
6144.0,0.0016565712867304683
6656.0,0.0007170418393798172
7168.0,0.0010082237422466278
7680.0,0.0009810506599023938
8192.0,-8.064684516284615e-05
9216.0,-0.0014053931226953864
10240.0,-0.0020001702941954136
11264.0,-0.0019405554048717022
12288.0,0.0009118950692936778
13312.0,-0.0008575287647545338
14336.0,0.002018372528254986
end
