version,3.0
numOfCh,1
type,point
parent_name,4-cuts
ch_type,1_1
kcount,1
numberNandB,1
brightnessNandB,1
carpet pos,0
pc,0
Time (ms),CH1 Auto-Correlation
1.0,0.036359913647174835
2.0,0.03581792116165161
3.0,0.03530391678214073
4.0,0.03479517996311188
5.0,0.034300435334444046
6.0,0.0338093563914299
7.0,0.03334323689341545
8.0,0.03289114683866501
9.0,0.03245585784316063
10.0,0.03202279284596443
11.0,0.03160209208726883
12.0,0.031180568039417267
13.0,0.03077918104827404
14.0,0.030405625700950623
15.0,0.030044404789805412
16.0,0.029689021408557892
18.0,0.029032699763774872
20.0,0.028396347537636757
22.0,0.027799036353826523
24.0,0.027232928201556206
26.0,0.02668132446706295
28.0,0.026151606813073158
30.0,0.025643546134233475
32.0,0.025182271376252174
36.0,0.02439512312412262
40.0,0.023712731897830963
44.0,0.023097610101103783
48.0,0.0225002933293581
52.0,0.02197626791894436
56.0,0.021429259330034256
60.0,0.02091212011873722
64.0,0.020412078127264977
72.0,0.019291089847683907
80.0,0.01805226504802704
88.0,0.017098618671298027
96.0,0.01645754650235176
104.0,0.01595708169043064
112.0,0.015534761361777782
120.0,0.015107234939932823
128.0,0.014852842316031456
144.0,0.014331387355923653
160.0,0.014124047942459583
176.0,0.013933148235082626
192.0,0.013905255123972893
208.0,0.013543637469410896
224.0,0.012761125341057777
240.0,0.01204189844429493
256.0,0.011434567160904408
288.0,0.010124525986611843
320.0,0.00885855220258236
352.0,0.008175110444426537
384.0,0.00753128482028842
416.0,0.007532179355621338
448.0,0.007725652307271957
480.0,0.007567655760794878
512.0,0.0072561465203762054
576.0,0.006521099247038364
640.0,0.006129954010248184
704.0,0.005225182510912418
768.0,0.004773088730871677
832.0,0.0052126250229775906
896.0,0.005832735914736986
960.0,0.0057424139231443405
1024.0,0.0060600293800234795
1152.0,0.006037527695298195
1280.0,0.0046499562449753284
1408.0,0.0019216766813769937
1536.0,-0.0013352736132219434
1664.0,-0.0016540198121219873
1792.0,-0.002706418512389064
1920.0,-0.004040876869112253
2048.0,-0.004483195953071117
2304.0,-0.0018627388635650277
2560.0,-0.002393296454101801
2816.0,-0.004117236007004976
3072.0,-0.0035363503266125917
3328.0,0.0003708862350322306
3584.0,0.0044097029604017735
3840.0,0.004904774483293295
4096.0,0.00410348828881979
4608.0,0.007374473847448826
5120.0,0.0038673116359859705
5632.0,0.0015223356895148754
6144.0,-0.0008314511505886912
6656.0,-0.004973499570041895
7168.0,-0.006247772369533777
7680.0,-0.007793043274432421
8192.0,-0.002038905629888177
9216.0,0.0005125405732542276
10240.0,-0.0024292049929499626
11264.0,-0.009217808023095131
12288.0,-0.011518379673361778
13312.0,-0.009333056397736073
14336.0,-0.00450837891548872
end
