version,3.0
numOfCh,1
type,point
parent_name,4-cuts
ch_type,1_1
kcount,1
numberNandB,1
brightnessNandB,1
carpet pos,0
pc,0
Time (ms),CH1 Auto-Correlation
1.0,0.020341116935014725
2.0,0.019952209666371346
3.0,0.01957979053258896
4.0,0.01922510750591755
5.0,0.01888871379196644
6.0,0.01856367103755474
7.0,0.018247263506054878
8.0,0.017953310161828995
9.0,0.01766487956047058
10.0,0.017384417355060577
11.0,0.01711242087185383
12.0,0.01685231365263462
13.0,0.016588447615504265
14.0,0.01632992923259735
15.0,0.01608358696103096
16.0,0.015849441289901733
18.0,0.015399018302559853
20.0,0.014986085705459118
22.0,0.014590932987630367
24.0,0.014207059517502785
26.0,0.013845493085682392
28.0,0.013518525287508965
30.0,0.013213560916483402
32.0,0.012897750362753868
36.0,0.012265619821846485
40.0,0.011695700697600842
44.0,0.011155331507325172
48.0,0.010631917975842953
52.0,0.010119195096194744
56.0,0.009630541317164898
60.0,0.009189428761601448
64.0,0.0087893046438694
72.0,0.00799818616360426
80.0,0.007211902178823948
88.0,0.0066612097434699535
96.0,0.006231685634702444
104.0,0.005818438250571489
112.0,0.005424791947007179
120.0,0.005110516212880611
128.0,0.00478902505710721
144.0,0.004220888949930668
160.0,0.00368924206122756
176.0,0.003151203040033579
192.0,0.0029271000530570745
208.0,0.0025559093337506056
224.0,0.0021432891953736544
240.0,0.0016460533952340484
256.0,0.000963236961979419
288.0,-0.0003313853230793029
320.0,-0.0008234918350353837
352.0,-0.0006187112303450704
384.0,-0.00013544372632168233
416.0,0.00018611230188980699
448.0,0.00038014480378478765
480.0,0.0005031120963394642
512.0,0.0009509185911156237
576.0,0.001405303948558867
640.0,0.0008096746751107275
704.0,0.0006281576352193952
768.0,0.0009171331184916198
832.0,0.0012282580137252808
896.0,0.0016221503028646111
960.0,0.0017837983323261142
1024.0,-8.104123116936535e-05
1152.0,-0.0001286333572352305
1280.0,0.0011023198021575809
1408.0,0.0014657614519819617
1536.0,0.0009515546262264252
1664.0,-0.00029669326613657176
1792.0,-0.0012325765565037727
1920.0,-0.0020452365279197693
2048.0,-0.0022250863257795572
2304.0,-0.0005865877028554678
2560.0,0.000366936408681795
2816.0,0.00042413079063408077
3072.0,0.0004226816236041486
3328.0,-0.0004869444528594613
3584.0,0.0005380954244174063
3840.0,0.0033427895978093147
4096.0,0.003252183785662055
4608.0,0.00036869384348392487
5120.0,-0.0006943352636881173
5632.0,-0.0013789731310680509
6144.0,-0.0028639882802963257
6656.0,-0.0015957411378622055
7168.0,-0.0007614359492436051
7680.0,0.00028194664628244936
8192.0,0.0014622393064200878
9216.0,-0.001583753153681755
10240.0,-0.0019397364230826497
11264.0,0.0002998423879034817
12288.0,-0.0003654835745692253
13312.0,-0.0005452767363749444
14336.0,0.00010785683116409928
end
