version,3.0
numOfCh,1
type,point
parent_name,4-cuts
ch_type,1_1
kcount,1
numberNandB,1
brightnessNandB,1
carpet pos,0
pc,0
Time (ms),CH1 Auto-Correlation
1.0,0.03722541779279709
2.0,0.036657288670539856
3.0,0.03609967976808548
4.0,0.03555766120553017
5.0,0.035024773329496384
6.0,0.03449699655175209
7.0,0.033997759222984314
8.0,0.03350957855582237
9.0,0.03303796052932739
10.0,0.03257586061954498
11.0,0.03212540224194527
12.0,0.0316777341067791
13.0,0.0312489103525877
14.0,0.030834194272756577
15.0,0.030453559011220932
16.0,0.030090074986219406
18.0,0.029401758685708046
20.0,0.028739148750901222
22.0,0.028085093945264816
24.0,0.027472568675875664
26.0,0.02688683569431305
28.0,0.026299770921468735
30.0,0.025717848911881447
32.0,0.025149470195174217
36.0,0.02419028803706169
40.0,0.023394420742988586
44.0,0.022658882662653923
48.0,0.02195880375802517
52.0,0.021279608830809593
56.0,0.02069937065243721
60.0,0.02006206288933754
64.0,0.01937921717762947
72.0,0.01795301027595997
80.0,0.016706200316548347
88.0,0.015713710337877274
96.0,0.014888172037899494
104.0,0.014413092285394669
112.0,0.013995660468935966
120.0,0.013420344330370426
128.0,0.012667650356888771
144.0,0.011219006963074207
160.0,0.010397772304713726
176.0,0.00996132381260395
192.0,0.009867875836789608
208.0,0.010019433684647083
224.0,0.010169753804802895
240.0,0.010597706772387028
256.0,0.010558906011283398
288.0,0.010093307122588158
320.0,0.009501485154032707
352.0,0.008160676807165146
384.0,0.00680878572165966
416.0,0.005674156825989485
448.0,0.00504434434697032
480.0,0.00502185570076108
512.0,0.005885061342269182
576.0,0.005680069327354431
640.0,0.004050828982144594
704.0,0.0015413077780976892
768.0,-0.0006768290186300874
832.0,0.0003646576951723546
896.0,0.0023242004681378603
960.0,0.0025474117137491703
1024.0,0.0010605526622384787
1152.0,0.0011856844648718834
1280.0,0.003145282855257392
1408.0,0.0012331318575888872
1536.0,-0.0008062850683927536
1664.0,-0.0013579287333413959
1792.0,-0.0013570962473750114
1920.0,-0.0008352805743925273
2048.0,-0.0029501118697226048
2304.0,-0.0008011180907487869
2560.0,-0.0002403131074970588
2816.0,-0.0006068000220693648
3072.0,0.0001997802610276267
3328.0,0.00200862530618906
3584.0,0.0037943958304822445
3840.0,0.003816267242655158
4096.0,0.0024326934944838285
4608.0,-0.0014410832663998008
5120.0,-0.001170104369521141
5632.0,-0.0005706296651624143
6144.0,-0.0022370696533471346
6656.0,-0.0003434900427237153
7168.0,-0.0025468843523412943
7680.0,-0.0068125114776194096
8192.0,-0.0036686533130705357
9216.0,-0.004031654912978411
10240.0,-0.0033989211078733206
11264.0,-0.00476636178791523
12288.0,0.000475485110655427
13312.0,0.002575842197984457
14336.0,0.006000570021569729
end
