version,3.0
numOfCh,1
type,point
parent_name,4-cuts
ch_type,1_1
kcount,1
numberNandB,1
brightnessNandB,1
carpet pos,0
pc,0
Time (ms),CH1 Auto-Correlation
1.0,0.03061319701373577
2.0,0.03005504608154297
3.0,0.02951289340853691
4.0,0.028981532901525497
5.0,0.028457799926400185
6.0,0.02797054499387741
7.0,0.027504591271281242
8.0,0.027047215029597282
9.0,0.026618825271725655
10.0,0.026206599548459053
11.0,0.025811374187469482
12.0,0.025424784049391747
13.0,0.025037629529833794
14.0,0.024670356884598732
15.0,0.024308232590556145
16.0,0.023961767554283142
18.0,0.023247553035616875
20.0,0.02254488319158554
22.0,0.02189040184020996
24.0,0.021305236965417862
26.0,0.02078530192375183
28.0,0.02031203731894493
30.0,0.019875437021255493
32.0,0.019471347332000732
36.0,0.018667813390493393
40.0,0.017885969951748848
44.0,0.017088990658521652
48.0,0.016280917450785637
52.0,0.015550502575933933
56.0,0.01488763839006424
60.0,0.014293406158685684
64.0,0.013725074008107185
72.0,0.012673651799559593
80.0,0.011819854378700256
88.0,0.011263121850788593
96.0,0.010752535425126553
104.0,0.010275802575051785
112.0,0.009736139327287674
120.0,0.009349282830953598
128.0,0.009101196192204952
144.0,0.008296406827867031
160.0,0.007457978092133999
176.0,0.0072001623921096325
192.0,0.0069931563921272755
208.0,0.006808218080550432
224.0,0.006546505261212587
240.0,0.0064302897080779076
256.0,0.006150347180664539
288.0,0.005263379774987698
320.0,0.005251119378954172
352.0,0.005558164324611425
384.0,0.005255470518022776
416.0,0.004667054861783981
448.0,0.0032077061478048563
480.0,0.00195499649271369
512.0,1.9359020370757207e-05
576.0,0.0007988869911059737
640.0,0.002206765813753009
704.0,0.002067155670374632
768.0,0.0020758905448019505
832.0,0.002695325994864106
896.0,0.002202262869104743
960.0,0.00041144652641378343
1024.0,-0.0004083840176463127
1152.0,-0.0017866813577711582
1280.0,-0.0030492066871374846
1408.0,-0.004416869953274727
1536.0,-0.0025997532065957785
1664.0,-0.0015255918260663748
1792.0,-0.0005475750658661127
1920.0,-0.0010384904453530908
2048.0,-0.0023537243250757456
2304.0,-0.0018349142046645284
2560.0,-0.0007210724288597703
2816.0,0.00015190549311228096
3072.0,0.0004988069413229823
3328.0,0.0019438427407294512
3584.0,0.0028189783915877342
3840.0,0.0009688080754131079
4096.0,-0.004380544647574425
4608.0,-0.003718077437952161
5120.0,-0.00042608159128576517
5632.0,0.0010881441412493587
6144.0,0.001298255636356771
6656.0,-0.00043873093090951443
7168.0,8.761036588111892e-05
7680.0,-0.00027155227144248784
8192.0,-0.001524355378933251
9216.0,0.0004504038079176098
10240.0,-0.000972936162725091
11264.0,-0.005843862891197205
12288.0,-0.0006292987964116037
13312.0,0.006221111863851547
14336.0,-0.0007287493208423257
end
