version,3.0
numOfCh,1
type,point
parent_name,4-cuts
ch_type,1_1
kcount,1
numberNandB,1
brightnessNandB,1
carpet pos,0
pc,0
Time (ms),CH1 Auto-Correlation
1.0,0.019876742735505104
2.0,0.019459133967757225
3.0,0.019063564017415047
4.0,0.018684642389416695
5.0,0.018310030922293663
6.0,0.017954057082533836
7.0,0.017606355249881744
8.0,0.017262959852814674
9.0,0.01693122647702694
10.0,0.01659911498427391
11.0,0.016272922977805138
12.0,0.015960216522216797
13.0,0.015667932108044624
14.0,0.015381946228444576
15.0,0.015108483843505383
16.0,0.014835743233561516
18.0,0.014297129586338997
20.0,0.013772748410701752
22.0,0.013275287114083767
24.0,0.012797382660210133
26.0,0.012339724227786064
28.0,0.011906621977686882
30.0,0.011491679586470127
32.0,0.011103294789791107
36.0,0.010443978011608124
40.0,0.00981774553656578
44.0,0.009249900467693806
48.0,0.008738834410905838
52.0,0.008287775330245495
56.0,0.007912694476544857
60.0,0.007598576135933399
64.0,0.007358503062278032
72.0,0.006852380000054836
80.0,0.006308010313659906
88.0,0.00588243966922164
96.0,0.0055154417641460896
104.0,0.0051195053383708
112.0,0.004849566612392664
120.0,0.0045388974249362946
128.0,0.004162759520113468
144.0,0.003795183729380369
160.0,0.0038520577363669872
176.0,0.003936669323593378
192.0,0.00391865149140358
208.0,0.003696856554597616
224.0,0.003246583975851536
240.0,0.002534381579607725
256.0,0.002044450957328081
288.0,0.0012848329497501254
320.0,0.0011321251513436437
352.0,0.001870048581622541
384.0,0.002578018233180046
416.0,0.0021452822256833315
448.0,0.0013533026212826371
480.0,0.001519600278697908
512.0,0.0015001307474449277
576.0,0.0004633106291294098
640.0,0.0005719276377931237
704.0,0.00025386232300661504
768.0,-0.00013724398741032928
832.0,-0.0009132063132710755
896.0,-0.0018974863924086094
960.0,-0.0014574427623301744
1024.0,-0.0001938167988555506
1152.0,0.00039366583223454654
1280.0,0.000384547165594995
1408.0,0.00039468708564527333
1536.0,-0.00016217914526350796
1664.0,-0.0005454005440697074
1792.0,0.0002898468228522688
1920.0,-0.0005462387343868613
2048.0,-0.0017341371858492494
2304.0,-0.0025085294619202614
2560.0,-0.0023303371854126453
2816.0,-0.002216758206486702
3072.0,-0.0006678066565655172
3328.0,-0.000285949616227299
3584.0,-0.0016126771224662662
3840.0,0.0007141281967051327
4096.0,-0.0004545868141576648
4608.0,0.0007655020453967154
5120.0,-0.00016311672516167164
5632.0,0.0025309717748314142
6144.0,0.0011911456240341067
6656.0,-0.0017062262631952763
7168.0,0.00018588942475616932
7680.0,0.00012668293493334204
8192.0,-0.002230983227491379
9216.0,-0.0007654614746570587
10240.0,0.001596554066054523
11264.0,0.0026773675344884396
12288.0,-0.0010784167097881436
13312.0,-0.0017585260793566704
14336.0,-0.005336370784789324
end
