version,3.0
numOfCh,1
type,point
parent_name,4-cuts
ch_type,1_1
kcount,1
numberNandB,1
brightnessNandB,1
carpet pos,0
pc,0
Time (ms),CH1 Auto-Correlation
1.0,0.05479486659169197
2.0,0.05364709347486496
3.0,0.05254441499710083
4.0,0.05147252231836319
5.0,0.050415314733982086
6.0,0.04939261078834534
7.0,0.04839111492037773
8.0,0.047432828694581985
9.0,0.04647929593920708
10.0,0.04555576294660568
11.0,0.04465784505009651
12.0,0.043797463178634644
13.0,0.04296233132481575
14.0,0.04216000810265541
15.0,0.041342321783304214
16.0,0.04053964093327522
18.0,0.03903668001294136
20.0,0.037575382739305496
22.0,0.03622953221201897
24.0,0.03497741371393204
26.0,0.03375686705112457
28.0,0.03259303420782089
30.0,0.03151565417647362
32.0,0.03051304630935192
36.0,0.02860029600560665
40.0,0.026800714433193207
44.0,0.025250408798456192
48.0,0.0238763689994812
52.0,0.02254444733262062
56.0,0.02129930816590786
60.0,0.020186757668852806
64.0,0.019093411043286324
72.0,0.016929607838392258
80.0,0.015238923951983452
88.0,0.014222867786884308
96.0,0.013726276345551014
104.0,0.013015279546380043
112.0,0.01212241966277361
120.0,0.011527241207659245
128.0,0.010827857069671154
144.0,0.009452336467802525
160.0,0.009028904139995575
176.0,0.007961712777614594
192.0,0.007171741686761379
208.0,0.006015226244926453
224.0,0.0056583695113658905
240.0,0.005069828126579523
256.0,0.004269326571375132
288.0,0.005617004353553057
320.0,0.005964523181319237
352.0,0.006042928900569677
384.0,0.006426695268601179
416.0,0.0061350069008767605
448.0,0.004293678794056177
480.0,0.000794679974205792
512.0,-0.0005999680724926293
576.0,-0.0004947407869622111
640.0,-0.00372703792527318
704.0,-0.006547567900270224
768.0,-0.005634434055536985
832.0,-0.005209516733884811
896.0,-0.0028165318071842194
960.0,-0.0027757789939641953
1024.0,-0.001519791199825704
1152.0,-6.608789408346638e-05
1280.0,-0.000560707994736731
1408.0,0.001931099919602275
1536.0,0.004068643320351839
1664.0,-0.0012423369335010648
1792.0,-0.006351024378091097
1920.0,-0.003921154886484146
2048.0,-0.003535873955115676
2304.0,-0.0013176932698115706
2560.0,-0.0024582792539149523
2816.0,-0.0010003393981605768
3072.0,-0.0019331056391820312
3328.0,0.00021024954912718385
3584.0,0.0031116800382733345
3840.0,0.004414756316691637
4096.0,-0.000940486672334373
4608.0,-0.004967093467712402
5120.0,-0.001978510059416294
5632.0,0.003167052986100316
6144.0,-0.003059854730963707
6656.0,0.00010375129932072014
7168.0,0.003836024319753051
7680.0,-0.0023238949943333864
8192.0,-0.001614693901501596
9216.0,0.004548658616840839
10240.0,0.002004204783588648
11264.0,-0.004900403320789337
12288.0,-0.0024522102903574705
13312.0,0.0011552716605365276
14336.0,-0.0014538131654262543
end
