version,3.0
numOfCh,1
type,point
parent_name,4-cuts
ch_type,1_1
kcount,1
numberNandB,1
brightnessNandB,1
carpet pos,0
pc,0
Time (ms),CH1 Auto-Correlation
1.0,0.031941045075654984
2.0,0.03132065013051033
3.0,0.030710913240909576
4.0,0.030116382986307144
5.0,0.02951074205338955
6.0,0.02893012948334217
7.0,0.028363654389977455
8.0,0.027806760743260384
9.0,0.02725287340581417
10.0,0.026731086894869804
11.0,0.026245025917887688
12.0,0.025768587365746498
13.0,0.025306690484285355
14.0,0.02487664297223091
15.0,0.02444513887166977
16.0,0.024029839783906937
18.0,0.02322787418961525
20.0,0.02244376577436924
22.0,0.02168288081884384
24.0,0.02094683237373829
26.0,0.020271549001336098
28.0,0.019637320190668106
30.0,0.019086521118879318
32.0,0.018611392006278038
36.0,0.017751291394233704
40.0,0.0168661680072546
44.0,0.016041498631238937
48.0,0.015355855226516724
52.0,0.014752370305359364
56.0,0.014235078357160091
60.0,0.013726063072681427
64.0,0.013116934336721897
72.0,0.011901247315108776
80.0,0.0107232965528965
88.0,0.00967188086360693
96.0,0.0085903974249959
104.0,0.007627170532941818
112.0,0.006977157201617956
120.0,0.006349723786115646
128.0,0.005882330238819122
144.0,0.0056305620819330215
160.0,0.005247490480542183
176.0,0.004508311860263348
192.0,0.0036357752978801727
208.0,0.002982177771627903
224.0,0.0025167528074234724
240.0,0.002151757711544633
256.0,0.0017890672897920012
288.0,0.0012486785417422652
320.0,0.0016751247458159924
352.0,0.001981323352083564
384.0,0.0015571746043860912
416.0,0.00111306959297508
448.0,0.0005838940851390362
480.0,-0.00038774716085754335
512.0,-0.0021500741131603718
576.0,-0.0016644319985061884
640.0,-0.0003894009569194168
704.0,0.0007412597769871354
768.0,0.0007910220301710069
832.0,-0.0009836098179221153
896.0,-0.002548518590629101
960.0,-0.0018944278126582503
1024.0,-0.0021843775175511837
1152.0,-0.0029526101425290108
1280.0,-0.0032030586153268814
1408.0,-0.0012472688686102629
1536.0,-0.0019199361559003592
1664.0,0.0013435768196359277
1792.0,0.002314202254638076
1920.0,0.0011712469859048724
2048.0,0.0013269672635942698
2304.0,0.003072008490562439
2560.0,0.0016739991260692477
2816.0,-0.0016655388753861189
3072.0,-0.003940986003726721
3328.0,-0.0023264740593731403
3584.0,-0.0011865610722452402
3840.0,-0.00034751027124002576
4096.0,0.0005494384095072746
4608.0,2.470882100169547e-05
5120.0,0.00013358434080146253
5632.0,-0.002874555066227913
6144.0,-0.0011104773730039597
6656.0,0.0011515846708789468
7168.0,-0.0006377335521392524
7680.0,0.00039661943446844816
8192.0,-0.0037938563618808985
9216.0,0.00065858184825629
10240.0,-0.0014029195299372077
11264.0,0.003689768025651574
12288.0,-0.001106392010115087
13312.0,0.0041443719528615475
14336.0,-0.00581786036491394
end
