version,3.0
numOfCh,1
type,point
parent_name,4-cuts
ch_type,1_1
kcount,1
numberNandB,1
brightnessNandB,1
carpet pos,0
pc,0
Time (ms),CH1 Auto-Correlation
1.0,0.03212285041809082
2.0,0.03157307207584381
3.0,0.03104153834283352
4.0,0.030515912920236588
5.0,0.03000429831445217
6.0,0.029500478878617287
7.0,0.02900957129895687
8.0,0.028541693463921547
9.0,0.0280791986733675
10.0,0.027633080258965492
11.0,0.027222132310271263
12.0,0.026821106672286987
13.0,0.026424098759889603
14.0,0.026033779606223106
15.0,0.02565578930079937
16.0,0.025282083079218864
18.0,0.024570005014538765
20.0,0.023876173421740532
22.0,0.02323480136692524
24.0,0.022647051140666008
26.0,0.022080909460783005
28.0,0.021520521491765976
30.0,0.020973432809114456
32.0,0.020446008071303368
36.0,0.019464226439595222
40.0,0.01859126053750515
44.0,0.017791083082556725
48.0,0.017033014446496964
52.0,0.016279887408018112
56.0,0.01555617991834879
60.0,0.014904038980603218
64.0,0.014252956956624985
72.0,0.013034965842962265
80.0,0.012045527808368206
88.0,0.01115716714411974
96.0,0.010374799370765686
104.0,0.00970512442290783
112.0,0.009104330092668533
120.0,0.008334297686815262
128.0,0.007559445686638355
144.0,0.00620753550902009
160.0,0.0054923165589571
176.0,0.004836925305426121
192.0,0.003927621524780989
208.0,0.0029353415593504906
224.0,0.002418412594124675
240.0,0.001792315044440329
256.0,0.0011868076398968697
288.0,0.0013359764125198126
320.0,0.0013722280273213983
352.0,0.0017289420356974006
384.0,0.001842483296059072
416.0,0.0021779490634799004
448.0,0.0019497728208079934
480.0,0.0011429539881646633
512.0,0.0010195322101935744
576.0,0.000968421867582947
640.0,-0.0004148828738834709
704.0,-0.0023162690922617912
768.0,-0.0024642974603921175
832.0,-0.0016811720561236143
896.0,-0.0009196102037094533
960.0,-0.000677960051689297
1024.0,-0.0010337263811379671
1152.0,-0.002216797322034836
1280.0,-0.005099238827824593
1408.0,-0.0062323883175849915
1536.0,-0.0053605930879712105
1664.0,-0.005950237158685923
1792.0,-0.004572160076349974
1920.0,0.000622965453658253
2048.0,0.0024362164549529552
2304.0,0.0019671304617077112
2560.0,0.0011758699547499418
2816.0,0.001911527244374156
3072.0,0.0030030047055333853
3328.0,0.002216506516560912
3584.0,-0.002166548278182745
3840.0,-0.00420253723859787
4096.0,-0.000913395662792027
4608.0,-0.0005521120619960129
5120.0,0.0019858991727232933
5632.0,0.0016414818819612265
6144.0,6.558854511240497e-05
6656.0,-0.0011986090103164315
7168.0,-0.00099268089979887
7680.0,0.00017149765335489064
8192.0,0.002430614084005356
9216.0,-0.003215437289327383
10240.0,-4.823132621822879e-05
11264.0,0.002809758996590972
12288.0,-0.003620363073423505
13312.0,0.003644242649897933
14336.0,-0.005224593915045261
end
