version,3.0
numOfCh,1
type,point
parent_name,4-cuts
ch_type,1_1
kcount,1
numberNandB,1
brightnessNandB,1
carpet pos,0
pc,0
Time (ms),CH1 Auto-Correlation
1.0,0.021375494077801704
2.0,0.020994555205106735
3.0,0.020622242242097855
4.0,0.02026587538421154
5.0,0.019923755899071693
6.0,0.019601743668317795
7.0,0.019284768030047417
8.0,0.018976427614688873
9.0,0.01866316795349121
10.0,0.018367746844887733
11.0,0.018077857792377472
12.0,0.017802314832806587
13.0,0.01753515563905239
14.0,0.01727559231221676
15.0,0.017024943605065346
16.0,0.01677566207945347
18.0,0.016298480331897736
20.0,0.015858767554163933
22.0,0.015446027740836143
24.0,0.015052750706672668
26.0,0.01466975174844265
28.0,0.014306528493762016
30.0,0.01396567840129137
32.0,0.013643594458699226
36.0,0.013040415942668915
40.0,0.012468154542148113
44.0,0.01194423995912075
48.0,0.01145518384873867
52.0,0.010988680645823479
56.0,0.010564565658569336
60.0,0.010233595035970211
64.0,0.009965316392481327
72.0,0.009525409899652004
80.0,0.009115823544561863
88.0,0.008725380524992943
96.0,0.0083436518907547
104.0,0.008027956821024418
112.0,0.0077935634180903435
120.0,0.007554847281426191
128.0,0.007237579207867384
144.0,0.006599853280931711
160.0,0.005641805473715067
176.0,0.005252351053059101
192.0,0.0049868240021169186
208.0,0.005013824440538883
224.0,0.005246461369097233
240.0,0.005246018525213003
256.0,0.005035960115492344
288.0,0.004311043303459883
320.0,0.003970910329371691
352.0,0.00417005131021142
384.0,0.004167442675679922
416.0,0.003522772341966629
448.0,0.0034175915643572807
480.0,0.00333467498421669
512.0,0.0028435520362108946
576.0,0.003471379866823554
640.0,0.002728551859036088
704.0,0.001965829636901617
768.0,0.0010631090262904763
832.0,0.0007525170221924782
896.0,0.0008030183962546289
960.0,0.0014793896116316319
1024.0,0.00089019606821239
1152.0,-7.462368375854567e-05
1280.0,-0.0009487391798757017
1408.0,-0.001264040358364582
1536.0,-0.0009619435877539217
1664.0,-0.0008463458507321775
1792.0,-0.0003587087558116764
1920.0,-0.0018925709882751107
2048.0,-0.0030193154234439135
2304.0,0.0003223004750907421
2560.0,-0.0002046533627435565
2816.0,-8.430772868450731e-05
3072.0,-0.000686001789290458
3328.0,0.0009043008903972805
3584.0,0.0009461106965318322
3840.0,0.000657788710668683
4096.0,0.0019319062121212482
4608.0,-0.001221988582983613
5120.0,-0.003941206727176905
5632.0,-0.0033588239457458258
6144.0,-0.0013466093223541975
6656.0,0.0005223219050094485
7168.0,-0.0012362099951133132
7680.0,-0.0013076637405902147
8192.0,-0.0007809771923348308
9216.0,0.0003640047216322273
10240.0,0.0006536476430483162
11264.0,0.0017310393741354346
12288.0,0.0005006433930248022
13312.0,-0.00027289189165458083
14336.0,-0.0037585680838674307
end
