version,3.0
numOfCh,1
type,point
parent_name,4-cuts
ch_type,1_1
kcount,1
numberNandB,1
brightnessNandB,1
carpet pos,0
pc,0
Time (ms),CH1 Auto-Correlation
1.0,0.07109848409891129
2.0,0.07000285387039185
3.0,0.06894766539335251
4.0,0.06791388988494873
5.0,0.06690970063209534
6.0,0.06593276560306549
7.0,0.0649881660938263
8.0,0.06409147381782532
9.0,0.06322718411684036
10.0,0.062351346015930176
11.0,0.06151210889220238
12.0,0.060659486800432205
13.0,0.05982367321848869
14.0,0.05904294550418854
15.0,0.05827966332435608
16.0,0.057537809014320374
18.0,0.05611488223075867
20.0,0.05475345999002457
22.0,0.05354103073477745
24.0,0.052445463836193085
26.0,0.051373161375522614
28.0,0.05033811554312706
30.0,0.04934295639395714
32.0,0.048391081392765045
36.0,0.04665135592222214
40.0,0.045179735869169235
44.0,0.04387084022164345
48.0,0.04262475669384003
52.0,0.04147425666451454
56.0,0.04042571410536766
60.0,0.039500169456005096
64.0,0.038522616028785706
72.0,0.03635943681001663
80.0,0.03417094051837921
88.0,0.032490119338035583
96.0,0.031303729861974716
104.0,0.030139265581965446
112.0,0.029235925525426865
120.0,0.02864575944840908
128.0,0.028130680322647095
144.0,0.026027850806713104
160.0,0.024426935240626335
176.0,0.023373570293188095
192.0,0.021936915814876556
208.0,0.020417941734194756
224.0,0.018860232084989548
240.0,0.017612027004361153
256.0,0.017361853271722794
288.0,0.01694219373166561
320.0,0.017031483352184296
352.0,0.01736528053879738
384.0,0.017540238797664642
416.0,0.01789058744907379
448.0,0.019067468121647835
480.0,0.017711423337459564
512.0,0.015542878769338131
576.0,0.012599000707268715
640.0,0.01048088725656271
704.0,0.011619099415838718
768.0,0.008706747554242611
832.0,0.005924009718000889
896.0,0.004179100040346384
960.0,0.00606406107544899
1024.0,0.00803795363754034
1152.0,0.011810180731117725
1280.0,0.008835799060761929
1408.0,0.010167681612074375
1536.0,0.00798615999519825
1664.0,0.005398130975663662
1792.0,0.0017602215521037579
1920.0,-5.008964581065811e-05
2048.0,-0.003009271575137973
2304.0,-0.011338615790009499
2560.0,-0.010890093632042408
2816.0,-0.010264632292091846
3072.0,-0.001676429295912385
3328.0,-0.0059529743157327175
3584.0,-0.008467210456728935
3840.0,-0.012756013311445713
4096.0,-0.00968951266258955
4608.0,-0.0019725565798580647
5120.0,-0.00568723026663065
5632.0,-0.005608575884252787
6144.0,0.002330897841602564
6656.0,0.0035260010045021772
7168.0,0.009724353440105915
7680.0,0.012945086695253849
8192.0,0.013788015581667423
9216.0,0.003735674312338233
10240.0,-0.009594133123755455
11264.0,-0.011779436841607094
12288.0,-0.002417413517832756
13312.0,-0.00825461931526661
14336.0,-0.034956157207489014
end
