version,3.0
numOfCh,1
type,point
parent_name,4-cuts
ch_type,1_1
kcount,1
numberNandB,1
brightnessNandB,1
carpet pos,0
pc,0
Time (ms),CH1 Auto-Correlation
1.0,0.033113230019807816
2.0,0.03254580870270729
3.0,0.031997200101614
4.0,0.03145856410264969
5.0,0.03095070831477642
6.0,0.030465269461274147
7.0,0.029998699203133583
8.0,0.029541537165641785
9.0,0.029101956635713577
10.0,0.02868095226585865
11.0,0.028280261904001236
12.0,0.027889007702469826
13.0,0.027503369376063347
14.0,0.02711944468319416
15.0,0.02674650028347969
16.0,0.026393141597509384
18.0,0.02570122852921486
20.0,0.025093838572502136
22.0,0.02452663518488407
24.0,0.02397596463561058
26.0,0.0234328992664814
28.0,0.022868387401103973
30.0,0.02231902815401554
32.0,0.02179652638733387
36.0,0.020849550142884254
40.0,0.019991915673017502
44.0,0.019229579716920853
48.0,0.018423233181238174
52.0,0.017621194943785667
56.0,0.016877731308341026
60.0,0.01621147431433201
64.0,0.015562167391180992
72.0,0.014292100444436073
80.0,0.013026676140725613
88.0,0.012075508013367653
96.0,0.011250429786741734
104.0,0.010520322248339653
112.0,0.009824613109230995
120.0,0.009228380396962166
128.0,0.008695222437381744
144.0,0.007610494736582041
160.0,0.007006113417446613
176.0,0.00664549833163619
192.0,0.0065875970758497715
208.0,0.006188555620610714
224.0,0.005768397822976112
240.0,0.005661708768457174
256.0,0.0053301784209907055
288.0,0.004531353712081909
320.0,0.003807246219366789
352.0,0.003234978998079896
384.0,0.0027529685758054256
416.0,0.002165813697502017
448.0,0.0018254549941048026
480.0,0.0021425860468298197
512.0,0.0027560400776565075
576.0,0.0030684582889080048
640.0,0.003240440972149372
704.0,0.001083344453945756
768.0,-0.0008245765930041671
832.0,-0.0017356008756905794
896.0,-0.0030267650727182627
960.0,-0.0035325682256370783
1024.0,-0.0028935326263308525
1152.0,-0.002685831394046545
1280.0,-0.0003078980662394315
1408.0,-0.001103182672522962
1536.0,-0.0008106555324047804
1664.0,-0.002415505237877369
1792.0,1.0350644515710883e-05
1920.0,0.0005158897256478667
2048.0,0.0014313507126644254
2304.0,-0.002496300498023629
2560.0,-0.003087450983002782
2816.0,-0.0013817193685099483
3072.0,-0.0016747311456128955
3328.0,-0.0012784497812390327
3584.0,-0.003762653563171625
3840.0,-0.0020538882818073034
4096.0,-0.001913468586280942
4608.0,0.001523354323580861
5120.0,0.00458415225148201
5632.0,0.0019572118762880564
6144.0,-0.0008424757979810238
6656.0,-0.0035493101458996534
7168.0,-0.0013378062285482883
7680.0,-0.0010380445746704936
8192.0,-5.024988786317408e-05
9216.0,0.0011798605555668473
10240.0,0.0028491108678281307
11264.0,-0.002728639869019389
12288.0,-0.004527198150753975
13312.0,0.0010890811681747437
14336.0,0.0010290165664628148
end
