version,3.0
numOfCh,1
type,point
parent_name,4-cuts
ch_type,1_1
kcount,1
numberNandB,1
brightnessNandB,1
carpet pos,0
pc,0
Time (ms),CH1 Auto-Correlation
1.0,0.033042795956134796
2.0,0.032483652234077454
3.0,0.03194653242826462
4.0,0.03143644332885742
5.0,0.030950328335165977
6.0,0.030463669449090958
7.0,0.02998855896294117
8.0,0.0295297559350729
9.0,0.02908647246658802
10.0,0.028648942708969116
11.0,0.028229650110006332
12.0,0.027832292020320892
13.0,0.027457090094685555
14.0,0.027092522010207176
15.0,0.02674654684960842
16.0,0.026429317891597748
18.0,0.02583094872534275
20.0,0.02527400106191635
22.0,0.02473514899611473
24.0,0.0241868756711483
26.0,0.023620642721652985
28.0,0.023051157593727112
30.0,0.02250605821609497
32.0,0.021971993148326874
36.0,0.020967965945601463
40.0,0.02004256099462509
44.0,0.019190752878785133
48.0,0.0184541754424572
52.0,0.01778610795736313
56.0,0.017096947878599167
60.0,0.01640375517308712
64.0,0.01575542986392975
72.0,0.014426414854824543
80.0,0.013284963555634022
88.0,0.01221167016774416
96.0,0.011126365512609482
104.0,0.010030570439994335
112.0,0.009147640317678452
120.0,0.008596261031925678
128.0,0.008242238312959671
144.0,0.007898558862507343
160.0,0.007626475766301155
176.0,0.00736123975366354
192.0,0.007190008647739887
208.0,0.006712680216878653
224.0,0.006087267305701971
240.0,0.005734166596084833
256.0,0.005806637927889824
288.0,0.005842204205691814
320.0,0.005459414329379797
352.0,0.004556022584438324
384.0,0.003140686545521021
416.0,0.0027025965973734856
448.0,0.0030173647683113813
480.0,0.0032412076834589243
512.0,0.0030965197365731
576.0,0.002330477349460125
640.0,0.0007066449616104364
704.0,0.0016543491510674357
768.0,0.002255617408081889
832.0,0.0013182347174733877
896.0,0.00033346156124025583
960.0,-0.00032668019412085414
1024.0,0.0004737298295367509
1152.0,-0.0008516774978488684
1280.0,-0.00035475194454193115
1408.0,0.0017871636664494872
1536.0,0.00016950919234659523
1664.0,-0.0014006966957822442
1792.0,-0.0027833718340843916
1920.0,-0.0037986221723258495
2048.0,-0.0023783037904649973
2304.0,-0.0017181581351906061
2560.0,0.0005391038139350712
2816.0,0.0019076343160122633
3072.0,0.002039623213931918
3328.0,0.0023294046986848116
3584.0,0.0029112205374985933
3840.0,0.0026533580385148525
4096.0,0.003614738117903471
4608.0,0.001794189098291099
5120.0,-0.0018993987469002604
5632.0,0.0007204818539321423
6144.0,-0.001436753896996379
6656.0,-0.0019808646757155657
7168.0,-0.0010522285010665655
7680.0,-0.0009224262903444469
8192.0,0.0033631494734436274
9216.0,-0.002244615228846669
10240.0,-0.009211432188749313
11264.0,0.0022330230567604303
12288.0,0.0027620026376098394
13312.0,-0.012633576057851315
14336.0,-0.011950235813856125
end
