version,3.0
numOfCh,1
type,point
parent_name,4-cuts
ch_type,1_1
kcount,1
numberNandB,1
brightnessNandB,1
carpet pos,0
pc,0
Time (ms),CH1 Auto-Correlation
1.0,0.03430880233645439
2.0,0.033725325018167496
3.0,0.033167000859975815
4.0,0.03264170140028
5.0,0.03211665526032448
6.0,0.03159632906317711
7.0,0.031075671315193176
8.0,0.03056410141289234
9.0,0.030071290209889412
10.0,0.029585735872387886
11.0,0.02911786362528801
12.0,0.028668468818068504
13.0,0.028214920312166214
14.0,0.027784176170825958
15.0,0.02736225351691246
16.0,0.026953445747494698
18.0,0.026135340332984924
20.0,0.02535606361925602
22.0,0.024608103558421135
24.0,0.02388926036655903
26.0,0.023247241973876953
28.0,0.022656802088022232
30.0,0.022102493792772293
32.0,0.021612782031297684
36.0,0.020641375333070755
40.0,0.01978244259953499
44.0,0.01896299049258232
48.0,0.01826254092156887
52.0,0.01763339526951313
56.0,0.0170134287327528
60.0,0.016427064314484596
64.0,0.01591426692903042
72.0,0.01504535786807537
80.0,0.014359600841999054
88.0,0.013793768361210823
96.0,0.01312495768070221
104.0,0.012577440589666367
112.0,0.012028326280415058
120.0,0.011464100331068039
128.0,0.011003564111888409
144.0,0.010021981783211231
160.0,0.009067265316843987
176.0,0.008335661143064499
192.0,0.007482578977942467
208.0,0.006610085256397724
224.0,0.005576116964221001
240.0,0.00408039428293705
256.0,0.002720991615206003
288.0,0.0013928882544860244
320.0,0.00028082513017579913
352.0,-0.00056267628679052
384.0,-0.0012957238359376788
416.0,-0.0014805796090513468
448.0,-0.0015334043418988585
480.0,-0.0009673884487710893
512.0,-0.0007512732991017401
576.0,-0.0017907391302287579
640.0,-0.0013613750925287604
704.0,-0.002482492243871093
768.0,-0.002826290437951684
832.0,-0.002518861088901758
896.0,-0.001045498182065785
960.0,-0.0008169476641342044
1024.0,0.0011046984000131488
1152.0,0.0021754216868430376
1280.0,0.0016446232330054045
1408.0,-0.0005342892254702747
1536.0,-0.001694303355179727
1664.0,-0.0011781207285821438
1792.0,0.001328946091234684
1920.0,0.0004856165323872119
2048.0,-0.0007235733210109174
2304.0,-0.0016259141266345978
2560.0,0.001732362317852676
2816.0,-0.0007071351283229887
3072.0,0.0011450989404693246
3328.0,-0.0005211280658841133
3584.0,0.0008631675154902041
3840.0,-0.0012752859620377421
4096.0,-0.004603117238730192
4608.0,-0.0036399406380951405
5120.0,-0.0020847979467362165
5632.0,-0.001317861839197576
6144.0,-0.0003863914462272078
6656.0,0.00172378309071064
7168.0,0.000411438086302951
7680.0,0.0003758821985684335
8192.0,0.0004952390445396304
9216.0,-0.0003497977741062641
10240.0,0.0031967649701982737
11264.0,-0.002057882258668542
12288.0,-0.00025404136977158487
13312.0,0.00029530335450544953
14336.0,-0.00020978857355657965
end
