version,3.0
numOfCh,1
type,point
parent_name,4-cuts
ch_type,1_1
kcount,1
numberNandB,1
brightnessNandB,1
carpet pos,0
pc,0
Time (ms),CH1 Auto-Correlation
1.0,0.021402539685368538
2.0,0.020990457385778427
3.0,0.020586013793945312
4.0,0.020203614607453346
5.0,0.019825082272291183
6.0,0.0194544680416584
7.0,0.01909564435482025
8.0,0.018749672919511795
9.0,0.018411915749311447
10.0,0.018094418570399284
11.0,0.017778713256120682
12.0,0.017472989857196808
13.0,0.017170339822769165
14.0,0.016885796561837196
15.0,0.016608428210020065
16.0,0.01634504273533821
18.0,0.0158417746424675
20.0,0.0153389573097229
22.0,0.014846432022750378
24.0,0.014375793747603893
26.0,0.013936759904026985
28.0,0.013502616435289383
30.0,0.01309472881257534
32.0,0.012703917920589447
36.0,0.011983492411673069
40.0,0.011331134475767612
44.0,0.010775904171168804
48.0,0.01029170397669077
52.0,0.009900335222482681
56.0,0.009586640633642673
60.0,0.009312812238931656
64.0,0.00905274972319603
72.0,0.008471531793475151
80.0,0.007755262777209282
88.0,0.00693201320245862
96.0,0.006084467750042677
104.0,0.005352312233299017
112.0,0.0048650288954377174
120.0,0.004473517648875713
128.0,0.004072653129696846
144.0,0.0035115503706038
160.0,0.0032572648487985134
176.0,0.003015106078237295
192.0,0.0029455856420099735
208.0,0.0028545407112687826
224.0,0.002767124678939581
240.0,0.0029361797496676445
256.0,0.002825656905770302
288.0,0.0019905611407011747
320.0,0.0017566707683727145
352.0,0.0016260207630693913
384.0,0.0018478831043466926
416.0,0.0021306241396814585
448.0,0.0023400941863656044
480.0,0.0020154337398707867
512.0,0.0012081312015652657
576.0,0.00100555713288486
640.0,0.0008143425802700222
704.0,0.0008896923973225057
768.0,0.0012097350554540753
832.0,0.0012740923557430506
896.0,0.0012338346568867564
960.0,0.0009328558226116002
1024.0,0.0006613872246816754
1152.0,1.2294697626202833e-05
1280.0,0.00020216635311953723
1408.0,-5.080421396996826e-05
1536.0,-0.0008586209150962532
1664.0,-0.0030808509327471256
1792.0,-0.0028267514426261187
1920.0,-0.0016113367164507508
2048.0,-0.0020852521993219852
2304.0,-0.0013896076707169414
2560.0,-0.0013685813173651695
2816.0,-0.00039244789513759315
3072.0,-0.0011647554347291589
3328.0,-0.00012375038932077587
3584.0,-0.0009494520490989089
3840.0,0.0028927491512149572
4096.0,0.0010372188407927752
4608.0,0.0018891221843659878
5120.0,0.001267797197215259
5632.0,1.4926050425856374e-05
6144.0,-0.0013157646171748638
6656.0,-0.0015840582782402635
7168.0,-0.000705623475369066
7680.0,-0.001244625193066895
8192.0,0.000991371343843639
9216.0,-2.141986260539852e-05
10240.0,-0.0004659010737668723
11264.0,0.000995855894871056
12288.0,-0.0021294434554874897
13312.0,-0.0024408316239714622
14336.0,-0.0005471595213748515
end
