version,3.0
numOfCh,1
type,point
parent_name,4-cuts
ch_type,1_1
kcount,1
numberNandB,1
brightnessNandB,1
carpet pos,0
pc,0
Time (ms),CH1 Auto-Correlation
1.0,0.02304590307176113
2.0,0.022665351629257202
3.0,0.02230190858244896
4.0,0.021951910108327866
5.0,0.021612733602523804
6.0,0.02128990925848484
7.0,0.020972564816474915
8.0,0.020669197663664818
9.0,0.020376741886138916
10.0,0.02009580098092556
11.0,0.019811999052762985
12.0,0.019546842202544212
13.0,0.019294708967208862
14.0,0.019041310995817184
15.0,0.018791334703564644
16.0,0.018543096259236336
18.0,0.018059229478240013
20.0,0.017593514174222946
22.0,0.017155393958091736
24.0,0.016731493175029755
26.0,0.01631329022347927
28.0,0.015914950519800186
30.0,0.015507828444242477
32.0,0.015094129368662834
36.0,0.014309151098132133
40.0,0.0135574359446764
44.0,0.012861533090472221
48.0,0.012272298336029053
52.0,0.011753886938095093
56.0,0.01129998080432415
60.0,0.01090469304472208
64.0,0.01045629195868969
72.0,0.009817034006118774
80.0,0.009353394620120525
88.0,0.009047497995197773
96.0,0.008771434426307678
104.0,0.008452226407825947
112.0,0.00814726110547781
120.0,0.008002368733286858
128.0,0.007897591218352318
144.0,0.007565540727227926
160.0,0.007194897625595331
176.0,0.006618568208068609
192.0,0.0060917711816728115
208.0,0.005398498848080635
224.0,0.004779196809977293
240.0,0.004644711501896381
256.0,0.00464879535138607
288.0,0.0041180383414030075
320.0,0.0040641967207193375
352.0,0.00407255906611681
384.0,0.0036341389641165733
416.0,0.0028915670700371265
448.0,0.002231020713225007
480.0,0.0017038993537425995
512.0,0.0017197823617607355
576.0,0.001953561557456851
640.0,0.0020273320842534304
704.0,0.002134696813300252
768.0,0.0014386193361133337
832.0,0.0013713077642023563
896.0,0.0007437475142069161
960.0,0.00041182953282259405
1024.0,0.00012560754839796573
1152.0,-0.0010599908418953419
1280.0,-0.0024059382267296314
1408.0,-0.0013633035123348236
1536.0,-0.0007947267149575055
1664.0,0.0001904610835481435
1792.0,-0.0011866501299664378
1920.0,-0.001547689433209598
2048.0,-0.002291616750881076
2304.0,-0.0013624668354168534
2560.0,0.00016268932085949928
2816.0,-0.0018116133287549019
3072.0,-0.004330760799348354
3328.0,-0.004106420557945967
3584.0,-0.002388931345194578
3840.0,-0.0012494483962655067
4096.0,9.067037899512798e-05
4608.0,0.0007703901501372457
5120.0,0.00018167369125876576
5632.0,-0.00032526921131648123
6144.0,-0.0021019061096012592
6656.0,-0.0008949350449256599
7168.0,-1.4686901522509288e-05
7680.0,-0.0004146217252127826
8192.0,0.003736180951818824
9216.0,0.003515245858579874
10240.0,0.0003785633889492601
11264.0,-0.005950890015810728
12288.0,-0.003725019283592701
13312.0,0.002465025056153536
14336.0,0.004997746553272009
end
