version,3.0
numOfCh,1
type,point
parent_name,4-cuts
ch_type,1_1
kcount,1
numberNandB,1
brightnessNandB,1
carpet pos,0
pc,0
Time (ms),CH1 Auto-Correlation
1.0,0.037316612899303436
2.0,0.036697015166282654
3.0,0.0361151397228241
4.0,0.035539109259843826
5.0,0.034974366426467896
6.0,0.03442876785993576
7.0,0.03391013666987419
8.0,0.033408910036087036
9.0,0.032932255417108536
10.0,0.032477349042892456
11.0,0.032047420740127563
12.0,0.0316491536796093
13.0,0.031268030405044556
14.0,0.030912142246961594
15.0,0.03056446462869644
16.0,0.030235327780246735
18.0,0.029582057148218155
20.0,0.02895944193005562
22.0,0.028348978608846664
24.0,0.02773430570960045
26.0,0.02714046835899353
28.0,0.02660187892615795
30.0,0.026111608371138573
32.0,0.02563435770571232
36.0,0.024807576090097427
40.0,0.024071479216217995
44.0,0.023312807083129883
48.0,0.022600039839744568
52.0,0.021900983527302742
56.0,0.021188432350754738
60.0,0.020539041608572006
64.0,0.019948191940784454
72.0,0.018986811861395836
80.0,0.018179310485720634
88.0,0.017391931265592575
96.0,0.016517704352736473
104.0,0.01556357927620411
112.0,0.01471780426800251
120.0,0.014144211076200008
128.0,0.013743387535214424
144.0,0.013234332203865051
160.0,0.012552697211503983
176.0,0.011870264075696468
192.0,0.011321866884827614
208.0,0.01087853591889143
224.0,0.010659595020115376
240.0,0.010065839625895023
256.0,0.009373835287988186
288.0,0.0075279115699231625
320.0,0.006459066178649664
352.0,0.005428793840110302
384.0,0.004245958290994167
416.0,0.0036256953608244658
448.0,0.003550575114786625
480.0,0.0030999262817204
512.0,0.0014261094620451331
576.0,-0.0009630843997001648
640.0,-0.00033108200295828283
704.0,0.00043740522232837975
768.0,7.595733768539503e-05
832.0,-0.00011781790817622095
896.0,-0.0004293405218049884
960.0,-1.606565092515666e-05
1024.0,-0.0007822119514457881
1152.0,-0.002952157286927104
1280.0,-0.00457810377702117
1408.0,-0.0019692680798470974
1536.0,-0.002101440681144595
1664.0,-0.0009335121721960604
1792.0,-0.0014539133990183473
1920.0,-0.0021361561957746744
2048.0,-0.0012234343448653817
2304.0,-0.0006771869957447052
2560.0,-0.00054328324040398
2816.0,-0.002912238473072648
3072.0,-0.006951681803911924
3328.0,-0.00549518596380949
3584.0,-0.003967849537730217
3840.0,-0.005778632592409849
4096.0,-0.0013116496847942472
4608.0,0.0017365465173497796
5120.0,0.003275573719292879
5632.0,0.0029739432502537966
6144.0,0.001723708352074027
6656.0,0.003443371970206499
7168.0,0.0004128295404370874
7680.0,-0.003946410026401281
8192.0,-0.00717570586130023
9216.0,-0.00369432894513011
10240.0,0.0002453855413477868
11264.0,0.005144430324435234
12288.0,0.004199012648314238
13312.0,-0.0010614845668897033
14336.0,-0.0007477558101527393
end
