version,3.0
numOfCh,1
type,point
parent_name,4-cuts
ch_type,1_1
kcount,1
numberNandB,1
brightnessNandB,1
carpet pos,0
pc,0
Time (ms),CH1 Auto-Correlation
1.0,0.020101197063922882
2.0,0.019718853756785393
3.0,0.019349168986082077
4.0,0.018984641879796982
5.0,0.01863957569003105
6.0,0.01830924302339554
7.0,0.017986001446843147
8.0,0.017672421410679817
9.0,0.01736040785908699
10.0,0.017062246799468994
11.0,0.016779573634266853
12.0,0.016509879380464554
13.0,0.01625104807317257
14.0,0.016005441546440125
15.0,0.015767548233270645
16.0,0.015528098680078983
18.0,0.015081938356161118
20.0,0.014649324119091034
22.0,0.01423199474811554
24.0,0.013830670155584812
26.0,0.013452362269163132
28.0,0.01311859767884016
30.0,0.012799641117453575
32.0,0.012499325908720493
36.0,0.01188666932284832
40.0,0.0113380067050457
44.0,0.010889558121562004
48.0,0.010475111193954945
52.0,0.010087011381983757
56.0,0.009691271930932999
60.0,0.00929015502333641
64.0,0.008937294594943523
72.0,0.008281191810965538
80.0,0.007685650605708361
88.0,0.007172289304435253
96.0,0.006682025268673897
104.0,0.006281157489866018
112.0,0.0060129654593765736
120.0,0.0057279630564153194
128.0,0.005429484415799379
144.0,0.004922604653984308
160.0,0.004668706562370062
176.0,0.004649296402931213
192.0,0.004277892876416445
208.0,0.0036972437519580126
224.0,0.0028997771441936493
240.0,0.0023045155685395002
256.0,0.0016629260499030352
288.0,0.00047724536852911115
320.0,0.00021725869737565517
352.0,0.00033185354550369084
384.0,0.0009696698980405927
416.0,0.0014164310414344072
448.0,0.0010612293845042586
480.0,0.0009046015329658985
512.0,0.0012372008059173822
576.0,0.0019282507710158825
640.0,0.002678983611986041
704.0,0.0026526106521487236
768.0,0.0016914616571739316
832.0,0.0011899123201146722
896.0,-0.0001353431143797934
960.0,-0.0007362599717453122
1024.0,-0.0010304899187758565
1152.0,-0.0007325023761950433
1280.0,-0.0016723291482776403
1408.0,-8.656338468426839e-05
1536.0,0.00015479855937883258
1664.0,-0.001093418337404728
1792.0,-0.0007307578925974667
1920.0,0.00011925501166842878
2048.0,0.0002682260819710791
2304.0,-8.527863974450156e-05
2560.0,0.00027306011179462075
2816.0,-0.0009060717420652509
3072.0,-0.0005193485412746668
3328.0,-0.0010024149669334292
3584.0,-0.0013374175177887082
3840.0,8.827132114674896e-05
4096.0,-0.001288713188841939
4608.0,0.0006999972392804921
5120.0,0.0015222851652652025
5632.0,-6.373679934768006e-05
6144.0,0.001061932765878737
6656.0,0.0010925300884991884
7168.0,0.000842527428176254
7680.0,-0.00032596627715975046
8192.0,-0.0009095770656131208
9216.0,-0.0005008424050174654
10240.0,-0.003123534843325615
11264.0,0.0009756804793141782
12288.0,-0.001399143715389073
13312.0,-0.0009759363601915538
14336.0,-0.002029960509389639
end
