version,3.0
numOfCh,1
type,point
parent_name,4-cuts
ch_type,1_1
kcount,1
numberNandB,1
brightnessNandB,1
carpet pos,0
pc,0
Time (ms),CH1 Auto-Correlation
1.0,0.03816106542944908
2.0,0.03756758198142052
3.0,0.03699161112308502
4.0,0.036435265094041824
5.0,0.035882141441106796
6.0,0.0353490449488163
7.0,0.03481393679976463
8.0,0.034295666962862015
9.0,0.03380197286605835
10.0,0.03333611041307449
11.0,0.032871928066015244
12.0,0.03242902830243111
13.0,0.03198738023638725
14.0,0.03156270086765289
15.0,0.031153947114944458
16.0,0.030748238787055016
18.0,0.029975563287734985
20.0,0.029249534010887146
22.0,0.028569556772708893
24.0,0.027959013357758522
26.0,0.027382804080843925
28.0,0.026856277137994766
30.0,0.02637198008596897
32.0,0.02592804841697216
36.0,0.025075461715459824
40.0,0.024284934625029564
44.0,0.023546263575553894
48.0,0.022834913805127144
52.0,0.022133193910121918
56.0,0.021495338529348373
60.0,0.020840460434556007
64.0,0.0201673973351717
72.0,0.019218869507312775
80.0,0.018507804721593857
88.0,0.017498228698968887
96.0,0.016385560855269432
104.0,0.015444302000105381
112.0,0.014491330832242966
120.0,0.013490170240402222
128.0,0.012645190581679344
144.0,0.011332714930176735
160.0,0.010182756930589676
176.0,0.009367063641548157
192.0,0.009146477095782757
208.0,0.009099472314119339
224.0,0.009435313753783703
240.0,0.009666217491030693
256.0,0.009789138101041317
288.0,0.010024857707321644
320.0,0.009456719271838665
352.0,0.008694236166775227
384.0,0.007517420686781406
416.0,0.005794782657176256
448.0,0.004076654091477394
480.0,0.003156354883685708
512.0,0.0023980922996997833
576.0,0.0026385474484413862
640.0,0.003159034764394164
704.0,0.002901778556406498
768.0,-0.00013546821719501168
832.0,-0.0003163153014611453
896.0,0.0005888118757866323
960.0,0.0024797338992357254
1024.0,0.0020337672904133797
1152.0,0.0016165408305823803
1280.0,0.00391401955857873
1408.0,0.002466420875862241
1536.0,0.002473407657817006
1664.0,0.003976460546255112
1792.0,0.0019092030124738812
1920.0,0.0037454264238476753
2048.0,0.00027543550822883844
2304.0,-0.00018870402709580958
2560.0,0.0003002530720550567
2816.0,-0.0017652155365794897
3072.0,-0.002915938850492239
3328.0,-0.0013653766363859177
3584.0,-0.0011337683536112309
3840.0,-0.0010147701250389218
4096.0,-0.003125387942418456
4608.0,-0.0015607146779075265
5120.0,-0.00045470267650671303
5632.0,-0.000728279585018754
6144.0,-0.0033762729726731777
6656.0,-0.007989345118403435
7168.0,-0.0032849449198693037
7680.0,-0.004429766908288002
8192.0,-0.0006233524763956666
9216.0,0.0019096658797934651
10240.0,0.0009115644497796893
11264.0,-0.0015080332523211837
12288.0,-0.0016182215185835958
13312.0,0.0006281695095822215
14336.0,0.0010491842404007912
end
