version,3.0
numOfCh,1
type,point
parent_name,4-cuts
ch_type,1_1
kcount,1
numberNandB,1
brightnessNandB,1
carpet pos,0
pc,0
Time (ms),CH1 Auto-Correlation
1.0,0.054271139204502106
2.0,0.05314728617668152
3.0,0.05209319666028023
4.0,0.05105772987008095
5.0,0.05005330964922905
6.0,0.04907680302858353
7.0,0.04814266413450241
8.0,0.04723477363586426
9.0,0.04636441171169281
10.0,0.045523930341005325
11.0,0.044714879244565964
12.0,0.043904922902584076
13.0,0.0431252084672451
14.0,0.042368464171886444
15.0,0.04162430390715599
16.0,0.0408787876367569
18.0,0.03950046747922897
20.0,0.03818341717123985
22.0,0.036911219358444214
24.0,0.035705454647541046
26.0,0.03459777310490608
28.0,0.03358843922615051
30.0,0.032675739377737045
32.0,0.03184036165475845
36.0,0.03043106198310852
40.0,0.029112936928868294
44.0,0.027786655351519585
48.0,0.026539182290434837
52.0,0.02548365853726864
56.0,0.02452762797474861
60.0,0.02361983433365822
64.0,0.022763961926102638
72.0,0.02114342711865902
80.0,0.019854353740811348
88.0,0.01884712651371956
96.0,0.017981721088290215
104.0,0.017389940097928047
112.0,0.01711665652692318
120.0,0.016892340034246445
128.0,0.01651003025472164
144.0,0.015527389012277126
160.0,0.01456838846206665
176.0,0.014382732100784779
192.0,0.01348890084773302
208.0,0.012524429708719254
224.0,0.011378975585103035
240.0,0.010504222474992275
256.0,0.009577110409736633
288.0,0.007940087467432022
320.0,0.007712583523243666
352.0,0.0057897865772247314
384.0,0.0043563744984567165
416.0,0.0024970117956399918
448.0,0.0006619241321459413
480.0,0.000520749599672854
512.0,-0.00038680582656525075
576.0,-0.003690049285069108
640.0,-0.006386385299265385
704.0,-0.006785858888179064
768.0,-0.006144466809928417
832.0,-0.005069042555987835
896.0,-0.004183937329798937
960.0,-0.0030602768529206514
1024.0,-0.0015523923793807626
1152.0,6.346876034513116e-05
1280.0,0.0027246440295130014
1408.0,0.005842415615916252
1536.0,0.006231244187802076
1664.0,0.0036469672340899706
1792.0,-0.0012988810194656253
1920.0,-0.004762249533087015
2048.0,-0.0059235841035842896
2304.0,-0.0048434860073029995
2560.0,-0.004284969996660948
2816.0,-0.0021264234092086554
3072.0,-0.002067581983283162
3328.0,-0.001902035903185606
3584.0,-0.005196343641728163
3840.0,-0.008568951860070229
4096.0,-0.007923275232315063
4608.0,-7.41415933589451e-05
5120.0,0.005845362786203623
5632.0,-0.0032279768493026495
6144.0,0.0016530335415154696
6656.0,0.007209077011793852
7168.0,-0.002895750105381012
7680.0,0.0020742134656757116
8192.0,0.004847467876970768
9216.0,-0.002278960309922695
10240.0,0.002187214093282819
11264.0,0.001161029445938766
12288.0,-0.005410203710198402
13312.0,0.0037389507051557302
14336.0,0.0010022141505032778
end
