version,3.0
numOfCh,1
type,point
parent_name,4-cuts
ch_type,1_1
kcount,1
numberNandB,1
brightnessNandB,1
carpet pos,0
pc,0
Time (ms),CH1 Auto-Correlation
1.0,0.06503540277481079
2.0,0.06378670781850815
3.0,0.06257474422454834
4.0,0.06140188127756119
5.0,0.06026448309421539
6.0,0.05915181711316109
7.0,0.058067504316568375
8.0,0.05700407177209854
9.0,0.05598902702331543
10.0,0.054995425045490265
11.0,0.05400504916906357
12.0,0.05306793749332428
13.0,0.052186861634254456
14.0,0.05129658430814743
15.0,0.05040333420038223
16.0,0.04957358539104462
18.0,0.04799594730138779
20.0,0.04650295153260231
22.0,0.04508568346500397
24.0,0.04375181347131729
26.0,0.04246874153614044
28.0,0.041205864399671555
30.0,0.04005413502454758
32.0,0.03898334875702858
36.0,0.03725019842386246
40.0,0.035846807062625885
44.0,0.034484557807445526
48.0,0.0331977903842926
52.0,0.03206417337059975
56.0,0.031060650944709778
60.0,0.030118221417069435
64.0,0.029066558927297592
72.0,0.02673151157796383
80.0,0.024527596309781075
88.0,0.02264300361275673
96.0,0.02114964835345745
104.0,0.02003258839249611
112.0,0.01903700828552246
120.0,0.017801862210035324
128.0,0.016535043716430664
144.0,0.013546882197260857
160.0,0.011528815142810345
176.0,0.011345790699124336
192.0,0.010132267139852047
208.0,0.008738633245229721
224.0,0.0073569840751588345
240.0,0.007287489715963602
256.0,0.007452995982021093
288.0,0.00715679069980979
320.0,0.00784291885793209
352.0,0.008209294639527798
384.0,0.008687983267009258
416.0,0.008221819065511227
448.0,0.008225252851843834
480.0,0.007104150019586086
512.0,0.006571554578840733
576.0,0.005022681318223476
640.0,0.003970906604081392
704.0,0.003096530446782708
768.0,0.0014120166888460517
832.0,0.0002910069015342742
896.0,-0.0006553142447955906
960.0,0.0015477201668545604
1024.0,0.004002659115940332
1152.0,0.007212948519736528
1280.0,0.005438055843114853
1408.0,0.003193910699337721
1536.0,0.0012092686956748366
1664.0,0.001022369135171175
1792.0,-0.00022693691425956786
1920.0,0.0007030667038634419
2048.0,-0.002394345123320818
2304.0,-0.005019754637032747
2560.0,-0.003944778349250555
2816.0,-0.0007612842018716037
3072.0,-0.006953349336981773
3328.0,-0.0044862679205834866
3584.0,-0.004189805593341589
3840.0,-0.0010528027778491378
4096.0,0.0005196633283048868
4608.0,-0.0046173203736543655
5120.0,0.0007630654145032167
5632.0,-0.006629872135818005
6144.0,-0.009631950408220291
6656.0,-0.007595106028020382
7168.0,-0.003278252435848117
7680.0,-0.004040213767439127
8192.0,0.004193946253508329
9216.0,0.005924676079303026
10240.0,0.008759076707065105
11264.0,-0.0050072623416781425
12288.0,0.0023156797979027033
13312.0,-0.006296299397945404
14336.0,0.009203369729220867
end
