version,3.0
numOfCh,1
type,point
parent_name,4-cuts
ch_type,1_1
kcount,1
numberNandB,1
brightnessNandB,1
carpet pos,0
pc,0
Time (ms),CH1 Auto-Correlation
1.0,0.027228431776165962
2.0,0.026659317314624786
3.0,0.02610316313803196
4.0,0.02555723488330841
5.0,0.025025824084877968
6.0,0.02451690286397934
7.0,0.02405082806944847
8.0,0.02360156923532486
9.0,0.023171089589595795
10.0,0.022742094472050667
11.0,0.022332828491926193
12.0,0.021930169314146042
13.0,0.021542470902204514
14.0,0.021161077544093132
15.0,0.020777883008122444
16.0,0.020397452637553215
18.0,0.019696000963449478
20.0,0.019032083451747894
22.0,0.018393930047750473
24.0,0.017778117209672928
26.0,0.01719874143600464
28.0,0.016668323427438736
30.0,0.016160834580659866
32.0,0.015672877430915833
36.0,0.014745594002306461
40.0,0.013876212760806084
44.0,0.013087171129882336
48.0,0.012369327247142792
52.0,0.011708532460033894
56.0,0.011049018241465092
60.0,0.010401688516139984
64.0,0.009742999449372292
72.0,0.00844417791813612
80.0,0.00729218777269125
88.0,0.006419648416340351
96.0,0.005889332853257656
104.0,0.005381803493946791
112.0,0.004860897548496723
120.0,0.004330785945057869
128.0,0.004001180175691843
144.0,0.0035928115248680115
160.0,0.0034660296514630318
176.0,0.003046691417694092
192.0,0.0028447220101952553
208.0,0.0028549416456371546
224.0,0.002954675117507577
240.0,0.003027483122423291
256.0,0.0033566076308488846
288.0,0.003778602462261915
320.0,0.0032783811911940575
352.0,0.003545698244124651
384.0,0.003143667709082365
416.0,0.0024433869402855635
448.0,0.002417284529656172
480.0,0.00232460955157876
512.0,0.0029317631851881742
576.0,0.004370448645204306
640.0,0.0036121977027505636
704.0,0.002154788002371788
768.0,0.0007177495863288641
832.0,0.0005256605800241232
896.0,0.0011391756124794483
960.0,0.0015839670086279511
1024.0,0.0016995880287140608
1152.0,0.001977725652977824
1280.0,0.0016725838650017977
1408.0,0.0004155039496254176
1536.0,0.0008671256364323199
1664.0,0.00043299185927025974
1792.0,-0.001865584054030478
1920.0,-0.0042808689177036285
2048.0,-0.003657673019915819
2304.0,-0.0031243511475622654
2560.0,-0.0037561513017863035
2816.0,-0.0022151360753923655
3072.0,-0.003643280128017068
3328.0,-0.0011469308519735932
3584.0,-0.002767655299976468
3840.0,-0.0011219115694984794
4096.0,-0.0017982788849622011
4608.0,-0.0012744789710268378
5120.0,0.000698510673828423
5632.0,-0.00014339077461045235
6144.0,0.0027324187103658915
6656.0,0.0035254484973847866
7168.0,0.0014375615864992142
7680.0,0.0019128283020108938
8192.0,-0.0009317102958448231
9216.0,-0.002920350292697549
10240.0,-0.0007945346878841519
11264.0,0.0028436104767024517
12288.0,0.0023978252429515123
13312.0,-0.0009321231045760214
14336.0,-0.003846160601824522
end
