version,3.0
numOfCh,1
type,point
parent_name,4-cuts
ch_type,1_1
kcount,1
numberNandB,1
brightnessNandB,1
carpet pos,0
pc,0
Time (ms),CH1 Auto-Correlation
1.0,0.06835464388132095
2.0,0.06704017519950867
3.0,0.06580358743667603
4.0,0.06459450721740723
5.0,0.06343698501586914
6.0,0.06229953095316887
7.0,0.061248794198036194
8.0,0.06024593859910965
9.0,0.05926566570997238
10.0,0.05836020037531853
11.0,0.05746300891041756
12.0,0.056592341512441635
13.0,0.05574936047196388
14.0,0.05493254214525223
15.0,0.05417338386178017
16.0,0.053432583808898926
18.0,0.052061695605516434
20.0,0.05079891160130501
22.0,0.049592629075050354
24.0,0.048348840326070786
26.0,0.04710645228624344
28.0,0.0459187813103199
30.0,0.04475899040699005
32.0,0.043642301112413406
36.0,0.041320428252220154
40.0,0.0390673466026783
44.0,0.03699072077870369
48.0,0.03507577255368233
52.0,0.03343959152698517
56.0,0.032155197113752365
60.0,0.031033392995595932
64.0,0.029996031895279884
72.0,0.028068657964468002
80.0,0.026315683498978615
88.0,0.02452474646270275
96.0,0.022812293842434883
104.0,0.02112133987247944
112.0,0.01925305277109146
120.0,0.017382893711328506
128.0,0.015393197536468506
144.0,0.011778898537158966
160.0,0.009458745829761028
176.0,0.008538994938135147
192.0,0.008021173067390919
208.0,0.007391170132905245
224.0,0.006351082120090723
240.0,0.004247608594596386
256.0,0.0027511967346072197
288.0,0.0002483859716448933
320.0,-0.0019182547694072127
352.0,-0.0030165244825184345
384.0,-0.003193584503605962
416.0,-0.004086507949978113
448.0,-0.003952253144234419
480.0,-0.004815755411982536
512.0,-0.006928206421434879
576.0,-0.0049974736757576466
640.0,-0.0024013123475015163
704.0,0.0010597403161227703
768.0,0.0043493942357599735
832.0,0.006097510457038879
896.0,0.006781209725886583
960.0,0.007324898149818182
1024.0,0.0062213921919465065
1152.0,0.0035186423920094967
1280.0,-0.0038782129995524883
1408.0,-0.003051280276849866
1536.0,-0.003390716854482889
1664.0,-0.002968922723084688
1792.0,-0.0017085785511881113
1920.0,-0.0005839806399308145
2048.0,-0.0037985036615282297
2304.0,-0.007258858997374773
2560.0,-0.0031252263579517603
2816.0,0.00042072401265613735
3072.0,-0.003810619469732046
3328.0,-0.003947016783058643
3584.0,-0.002332566771656275
3840.0,-0.0018966258503496647
4096.0,-0.0008642063476145267
4608.0,-0.0002696189912967384
5120.0,0.0056135086342692375
5632.0,0.003137111198157072
6144.0,-0.0011539846891537309
6656.0,0.0016173115000128746
7168.0,-0.006706686690449715
7680.0,-0.006216481328010559
8192.0,-0.0008138396660797298
9216.0,-0.003019646042957902
10240.0,0.001756245968863368
11264.0,0.007741744630038738
12288.0,0.00231693172827363
13312.0,-7.806413486832753e-05
14336.0,-0.007507833186537027
end
