version,3.0
numOfCh,1
type,point
parent_name,4-cuts
ch_type,1_1
kcount,1
numberNandB,1
brightnessNandB,1
carpet pos,0
pc,0
Time (ms),CH1 Auto-Correlation
1.0,0.05482810363173485
2.0,0.053550511598587036
3.0,0.05228813365101814
4.0,0.05104130506515503
5.0,0.04987497255206108
6.0,0.04878434166312218
7.0,0.047727376222610474
8.0,0.04672889783978462
9.0,0.0457010455429554
10.0,0.04470361769199371
11.0,0.04372905194759369
12.0,0.04275330528616905
13.0,0.041779059916734695
14.0,0.04083603620529175
15.0,0.039900097995996475
16.0,0.039029840379953384
18.0,0.03742319345474243
20.0,0.03597557544708252
22.0,0.03461911901831627
24.0,0.033278729766607285
26.0,0.03201548755168915
28.0,0.03084692917764187
30.0,0.029805263504385948
32.0,0.028810931369662285
36.0,0.02687215246260166
40.0,0.02496953122317791
44.0,0.023239202797412872
48.0,0.021703427657485008
52.0,0.020415300503373146
56.0,0.019309502094984055
60.0,0.018306657671928406
64.0,0.017369186505675316
72.0,0.015425310470163822
80.0,0.01363168191164732
88.0,0.011941385455429554
96.0,0.01044911053031683
104.0,0.009389551356434822
112.0,0.008921892382204533
120.0,0.00834636203944683
128.0,0.007807206362485886
144.0,0.007081503979861736
160.0,0.006082975771278143
176.0,0.005215022247284651
192.0,0.004366577137261629
208.0,0.004651928786188364
224.0,0.00534087885171175
240.0,0.005447262432426214
256.0,0.004689355380833149
288.0,0.004966640379279852
320.0,0.004513031803071499
352.0,0.002280982444062829
384.0,0.0006099516758695245
416.0,-0.001467537833377719
448.0,-0.0007184079149737954
480.0,-0.0003266988496761769
512.0,-0.004733155481517315
576.0,-0.0033390335738658905
640.0,-0.002298828447237611
704.0,-0.0018078071298077703
768.0,-0.0011754728620871902
832.0,0.0016567561542615294
896.0,0.0028024313505738974
960.0,0.003748927731066942
1024.0,0.006351123098284006
1152.0,0.0037135593593120575
1280.0,0.004421865567564964
1408.0,0.0065644108690321445
1536.0,0.003660543356090784
1664.0,0.0025530331768095493
1792.0,0.001456364174373448
1920.0,7.929803541628644e-05
2048.0,0.0006702141254208982
2304.0,0.00017209995712619275
2560.0,0.0018414594233036041
2816.0,0.0027235900051891804
3072.0,0.00110883719753474
3328.0,0.0001861818163888529
3584.0,-0.0018700893269851804
3840.0,-0.0007273357477970421
4096.0,-0.003974614664912224
4608.0,0.00031042753835208714
5120.0,-0.002886698581278324
5632.0,0.0016933985752984881
6144.0,-0.0012297779321670532
6656.0,-0.0036855635698884726
7168.0,-0.0015472351806238294
7680.0,-0.0019197399960830808
8192.0,-0.0032084963750094175
9216.0,-0.0037697528023272753
10240.0,-0.0007695089443586767
11264.0,-0.0015909717185422778
12288.0,-0.003571972018107772
13312.0,0.0005241933395154774
14336.0,-0.0010735224932432175
end
