version,3.0
numOfCh,1
type,point
parent_name,4-cuts
ch_type,1_1
kcount,1
numberNandB,1
brightnessNandB,1
carpet pos,0
pc,0
Time (ms),CH1 Auto-Correlation
1.0,0.030438151210546494
2.0,0.029851961880922318
3.0,0.029279248788952827
4.0,0.0287516787648201
5.0,0.028238587081432343
6.0,0.027729498222470284
7.0,0.027214625850319862
8.0,0.026698192581534386
9.0,0.026199473068118095
10.0,0.025737551972270012
11.0,0.025282932445406914
12.0,0.02484925091266632
13.0,0.02444017119705677
14.0,0.02404889650642872
15.0,0.023653188720345497
16.0,0.023253535851836205
18.0,0.022492939606308937
20.0,0.02177061140537262
22.0,0.02106471173465252
24.0,0.020363714545965195
26.0,0.019711250439286232
28.0,0.019078604876995087
30.0,0.018458636477589607
32.0,0.017867019400000572
36.0,0.016824545338749886
40.0,0.015797864645719528
44.0,0.014825505204498768
48.0,0.013979502022266388
52.0,0.013193939812481403
56.0,0.012456640601158142
60.0,0.011750784702599049
64.0,0.011020546779036522
72.0,0.009562058374285698
80.0,0.00827017892152071
88.0,0.00737795839086175
96.0,0.006663175765424967
104.0,0.006077378522604704
112.0,0.005465541034936905
120.0,0.004866816569119692
128.0,0.004284494556486607
144.0,0.0032213886734098196
160.0,0.0028453802224248648
176.0,0.0021355829667299986
192.0,0.001097384374588728
208.0,0.0004021914501208812
224.0,-0.0002268319221911952
240.0,-0.0006497188587673008
256.0,-0.000706826860550791
288.0,-0.00045151120866648853
320.0,-0.0005551195936277509
352.0,-0.0004682982398662716
384.0,0.00027118035359308124
416.0,0.0005758579936809838
448.0,0.001427608309313655
480.0,0.002548482734709978
512.0,0.0028243481647223234
576.0,0.003791610011830926
640.0,0.001462102634832263
704.0,-0.001033980050124228
768.0,-0.0007978141657076776
832.0,0.0016932974103838205
896.0,0.0020553995855152607
960.0,0.001448734081350267
1024.0,0.0011266411747783422
1152.0,-0.0020082704722881317
1280.0,-0.0016733818920329213
1408.0,-0.00042020194814540446
1536.0,-0.0024986800272017717
1664.0,-0.00399958249181509
1792.0,-0.0035712243989109993
1920.0,-0.001028817379847169
2048.0,-0.00034189614234492183
2304.0,-0.0019213373307138681
2560.0,-0.0008378502679988742
2816.0,0.0004958537756465375
3072.0,0.0005307166138663888
3328.0,0.0012892178492620587
3584.0,0.0005590299842879176
3840.0,0.0023763214703649282
4096.0,0.0017387177795171738
4608.0,0.00026093111955560744
5120.0,-0.0015488213393837214
5632.0,-0.0025913678109645844
6144.0,-0.0014600344002246857
6656.0,0.0002021373511524871
7168.0,-0.0007301552104763687
7680.0,0.0006168897380121052
8192.0,0.0012689949944615364
9216.0,0.0005654971464537084
10240.0,-0.000776628206949681
11264.0,0.00015738749061711133
12288.0,0.0004408451495692134
13312.0,-0.00026168485055677593
14336.0,-0.0010430432157590985
end
