version,3.0
numOfCh,1
type,point
parent_name,0cd20_0dot08-0dot01
ch_type,1_1
kcount,1
numberNandB,1
brightnessNandB,1
carpet pos,0
pc,0
Time (ms),CH1 Auto-Correlation
1.0,0.050932273268699646
2.0,0.05060945451259613
3.0,0.05026921629905701
4.0,0.04995500668883324
5.0,0.04965602606534958
6.0,0.04934979975223541
7.0,0.04904767498373985
8.0,0.04875998571515083
9.0,0.04847139120101929
10.0,0.048196252435445786
11.0,0.04792111739516258
12.0,0.04766786843538284
13.0,0.0474034883081913
14.0,0.047138020396232605
15.0,0.04688131809234619
16.0,0.046646736562252045
18.0,0.04616018757224083
20.0,0.04566808417439461
22.0,0.045186229050159454
24.0,0.04468335956335068
26.0,0.04418386146426201
28.0,0.04367803409695625
30.0,0.04317114129662514
32.0,0.042692631483078
36.0,0.041812460869550705
40.0,0.04099950194358826
44.0,0.04022059589624405
48.0,0.03947044536471367
52.0,0.03875717520713806
56.0,0.0380016528069973
60.0,0.03727654740214348
64.0,0.03659294173121452
72.0,0.03531089052557945
80.0,0.03417663648724556
88.0,0.03324659913778305
96.0,0.03246210515499115
104.0,0.03180414065718651
112.0,0.031084710732102394
120.0,0.03033103421330452
128.0,0.029517708346247673
144.0,0.027959665283560753
160.0,0.02645329013466835
176.0,0.025339482352137566
192.0,0.02431824803352356
208.0,0.023439506068825722
224.0,0.02253836952149868
240.0,0.021899312734603882
256.0,0.0208709966391325
288.0,0.019272584468126297
320.0,0.018377535045146942
352.0,0.017869018018245697
384.0,0.017045367509126663
416.0,0.016398558393120766
448.0,0.016409674659371376
480.0,0.016380945220589638
512.0,0.01532212644815445
576.0,0.010883478447794914
640.0,0.007433122023940086
704.0,0.006498298607766628
768.0,0.005754479207098484
832.0,0.005007867235690355
896.0,0.0038286568596959114
960.0,0.00355966086499393
1024.0,0.003416686784476042
1152.0,0.0029967802111059427
1280.0,0.001767685986123979
1408.0,0.00025022061890922487
1536.0,0.0004594731726683676
1664.0,0.0017360108904540539
1792.0,0.0010104074608534575
1920.0,-0.0002330287388758734
2048.0,-0.0016153743490576744
2304.0,-0.007954660803079605
2560.0,-0.011591851711273193
2816.0,-0.007139469962567091
3072.0,-0.005438978783786297
3328.0,-0.007073948159813881
3584.0,-0.006421799771487713
3840.0,-0.001059307949617505
4096.0,0.005027955397963524
4608.0,0.007050986867398024
5120.0,0.0012277712812647223
5632.0,-0.0006741707911714911
6144.0,0.0014243905898183584
6656.0,-0.005398034118115902
7168.0,-0.0011420001974329352
7680.0,0.0030403316486626863
8192.0,0.0050240783020854
end
