version,3.0
numOfCh,1
type,point
parent_name,0cd20_0dot08-0dot01
ch_type,1_1
kcount,1
numberNandB,1
brightnessNandB,1
carpet pos,0
pc,0
Time (ms),CH1 Auto-Correlation
1.0,0.03059825487434864
2.0,0.03032858297228813
3.0,0.030065054073929787
4.0,0.029810266569256783
5.0,0.029556630179286003
6.0,0.02930552139878273
7.0,0.029060514643788338
8.0,0.028816111385822296
9.0,0.02858228050172329
10.0,0.028346382081508636
11.0,0.028119059279561043
12.0,0.027894984930753708
13.0,0.027673615142703056
14.0,0.02745232544839382
15.0,0.027233261615037918
16.0,0.0270217452198267
18.0,0.026606207713484764
20.0,0.026201937347650528
22.0,0.02581307478249073
24.0,0.025432733818888664
26.0,0.025075852870941162
28.0,0.024746717885136604
30.0,0.02443768084049225
32.0,0.02413848787546158
36.0,0.023570287972688675
40.0,0.02299412153661251
44.0,0.022475644946098328
48.0,0.022003861144185066
52.0,0.021546611562371254
56.0,0.02112566865980625
60.0,0.020705029368400574
64.0,0.020308611914515495
72.0,0.019587351009249687
80.0,0.018861550837755203
88.0,0.01819695346057415
96.0,0.017636561766266823
104.0,0.017248306423425674
112.0,0.016796927899122238
120.0,0.01633756421506405
128.0,0.015942946076393127
144.0,0.015304507687687874
160.0,0.014735677279531956
176.0,0.014185307547450066
192.0,0.013970131054520607
208.0,0.014036822132766247
224.0,0.014003114774823189
240.0,0.013850978575646877
256.0,0.01359765324741602
288.0,0.013018876314163208
320.0,0.01214964222162962
352.0,0.0112449424341321
384.0,0.010303627699613571
416.0,0.00948763731867075
448.0,0.009038231335580349
480.0,0.009126181714236736
512.0,0.009030444547533989
576.0,0.008325648494064808
640.0,0.007249632850289345
704.0,0.006836519110947847
768.0,0.0063825249671936035
832.0,0.006477363873273134
896.0,0.0063869100995361805
960.0,0.006383894477039576
1024.0,0.006878891959786415
1152.0,0.007356856018304825
1280.0,0.006351742893457413
1408.0,0.006536512169986963
1536.0,0.008113386109471321
1664.0,0.007830487564206123
1792.0,0.006917105987668037
1920.0,0.005128373391926289
2048.0,0.003428913652896881
2304.0,0.0030496965628117323
2560.0,-9.755542123457417e-05
2816.0,-0.0015372700290754437
3072.0,-0.0004188136663287878
3328.0,0.0026198613923043013
3584.0,-0.0013907571556046605
3840.0,-0.004090697038918734
4096.0,-0.0029951303731650114
4608.0,-0.0009558182791806757
5120.0,-0.0002364305837545544
5632.0,-0.004433483351022005
6144.0,-0.002155403606593609
6656.0,0.003467185189947486
7168.0,-5.264675564831123e-05
7680.0,-0.00490440521389246
8192.0,-0.0029359713662415743
end
