version,3.0
numOfCh,1
type,point
parent_name,0cd20_0dot08-0dot01
ch_type,1_1
kcount,1
numberNandB,1
brightnessNandB,1
carpet pos,0
pc,0
Time (ms),CH1 Auto-Correlation
1.0,0.03407825529575348
2.0,0.03381599485874176
3.0,0.03355063125491142
4.0,0.03328755125403404
5.0,0.03302977606654167
6.0,0.0327695794403553
7.0,0.03251563757658005
8.0,0.032256998121738434
9.0,0.03200109675526619
10.0,0.03174513578414917
11.0,0.031488411128520966
12.0,0.031237198039889336
13.0,0.030990883708000183
14.0,0.030751803889870644
15.0,0.030514754354953766
16.0,0.03029395453631878
18.0,0.029842909425497055
20.0,0.029407011345028877
22.0,0.02898903377354145
24.0,0.028568919748067856
26.0,0.028142105787992477
28.0,0.02772258035838604
30.0,0.027312440797686577
32.0,0.026917964220046997
36.0,0.02612534910440445
40.0,0.02535051479935646
44.0,0.024607373401522636
48.0,0.023891696706414223
52.0,0.023208700120449066
56.0,0.022546028718352318
60.0,0.02190765179693699
64.0,0.02130860649049282
72.0,0.020090656355023384
80.0,0.01894773170351982
88.0,0.017805440351366997
96.0,0.016703054308891296
104.0,0.01564028300344944
112.0,0.014580105431377888
120.0,0.013632469810545444
128.0,0.012845540419220924
144.0,0.011538696475327015
160.0,0.01056392677128315
176.0,0.009765774011611938
192.0,0.008828979916870594
208.0,0.008230113424360752
224.0,0.008048687130212784
240.0,0.008189819753170013
256.0,0.008323733694851398
288.0,0.008444299921393394
320.0,0.00869726948440075
352.0,0.008830584585666656
384.0,0.009073877707123756
416.0,0.00877552479505539
448.0,0.007806387264281511
480.0,0.007347668521106243
512.0,0.006851420272141695
576.0,0.005178237333893776
640.0,0.005516342353075743
704.0,0.005295176059007645
768.0,0.0041596172377467155
832.0,0.0027578624431043863
896.0,0.0014480678364634514
960.0,0.0017930787289515138
1024.0,0.0031645854469388723
1152.0,0.002720819553360343
1280.0,0.00028685200959444046
1408.0,0.0002924874715972692
1536.0,0.0017411189619451761
1664.0,0.000303710694424808
1792.0,0.0011921828845515847
1920.0,0.0024938147980719805
2048.0,0.0004589654563460499
2304.0,-0.004375558812171221
2560.0,-0.004242803901433945
2816.0,-0.004693503491580486
3072.0,-0.006723850034177303
3328.0,-0.004241687245666981
3584.0,-0.006273526698350906
3840.0,-0.005060856230556965
4096.0,-0.005631565116345882
4608.0,-0.006142190657556057
5120.0,-0.002405596198514104
5632.0,-0.0034156315959990025
6144.0,-0.0028744013980031013
6656.0,-0.0003745174908544868
7168.0,0.005705942399799824
7680.0,0.0086044417694211
8192.0,0.006905523594468832
end
