version,3.0
numOfCh,1
type,point
parent_name,0cd20_0dot08-0dot01
ch_type,1_1
kcount,1
numberNandB,1
brightnessNandB,1
carpet pos,0
pc,0
Time (ms),CH1 Auto-Correlation
1.0,0.07846704870462418
2.0,0.07799908518791199
3.0,0.07758379727602005
4.0,0.07713937759399414
5.0,0.07674003392457962
6.0,0.07631527632474899
7.0,0.07589180767536163
8.0,0.07554943859577179
9.0,0.07514902949333191
10.0,0.07480523735284805
11.0,0.07444460690021515
12.0,0.07411546260118484
13.0,0.07375258207321167
14.0,0.07336734235286713
15.0,0.07299895584583282
16.0,0.07266278564929962
18.0,0.07192012667655945
20.0,0.07127632200717926
22.0,0.0706220269203186
24.0,0.06999137997627258
26.0,0.06935972720384598
28.0,0.0687078982591629
30.0,0.06805206835269928
32.0,0.0674063190817833
36.0,0.0660950317978859
40.0,0.06472805887460709
44.0,0.06339049339294434
48.0,0.062129948288202286
52.0,0.06084584444761276
56.0,0.05953264236450195
60.0,0.05819762125611305
64.0,0.056927524507045746
72.0,0.05478112772107124
80.0,0.052927419543266296
88.0,0.05121307447552681
96.0,0.049312200397253036
104.0,0.04753085970878601
112.0,0.04602356627583504
120.0,0.0448189415037632
128.0,0.04388660565018654
144.0,0.042090967297554016
160.0,0.04038018360733986
176.0,0.03850935399532318
192.0,0.03602135181427002
208.0,0.03260943666100502
224.0,0.028973102569580078
240.0,0.02545982040464878
256.0,0.022368181496858597
288.0,0.017251476645469666
320.0,0.013680373318493366
352.0,0.011536953039467335
384.0,0.010544520802795887
416.0,0.010226104408502579
448.0,0.010928007774055004
480.0,0.012376248836517334
512.0,0.012859019450843334
576.0,0.012038649059832096
640.0,0.012327238917350769
704.0,0.009853879921138287
768.0,0.006670516915619373
832.0,0.005290334112942219
896.0,0.0005702471826225519
960.0,-0.0021576175931841135
1024.0,-0.004976158495992422
1152.0,-0.0049660587683320045
1280.0,-0.003914458677172661
1408.0,-0.00036435408401302993
1536.0,0.0009454362443648279
1664.0,0.004090884234756231
1792.0,0.004185982048511505
1920.0,0.0033566306810826063
2048.0,0.003556594019755721
2304.0,0.0030794127378612757
2560.0,0.010076803155243397
2816.0,0.006782195530831814
3072.0,-0.005474787671118975
3328.0,-0.004699830897152424
3584.0,-0.0006328199524432421
3840.0,-0.0026280495803803205
4096.0,-0.004220254253596067
4608.0,-0.006509733386337757
5120.0,-0.0037288714665919542
5632.0,-0.009214255027472973
6144.0,-0.008325102739036083
6656.0,-0.007444778922945261
7168.0,-0.002891644136980176
7680.0,-0.00429008761420846
8192.0,-0.018200045451521873
end
