version,3.0
numOfCh,1
type,point
parent_name,0cd20_0dot08-0dot01
ch_type,1_1
kcount,1
numberNandB,1
brightnessNandB,1
carpet pos,0
pc,0
Time (ms),CH1 Auto-Correlation
1.0,0.037250373512506485
2.0,0.03692644089460373
3.0,0.036611855030059814
4.0,0.03629477694630623
5.0,0.03597341105341911
6.0,0.03566211089491844
7.0,0.03535230830311775
8.0,0.0350448302924633
9.0,0.03474097326397896
10.0,0.03444753587245941
11.0,0.034148648381233215
12.0,0.0338447131216526
13.0,0.03354213386774063
14.0,0.03324616700410843
15.0,0.032954100519418716
16.0,0.03267010301351547
18.0,0.03208859637379646
20.0,0.03149205446243286
22.0,0.03089413233101368
24.0,0.030306437984108925
26.0,0.029730459675192833
28.0,0.029176227748394012
30.0,0.02864542417228222
32.0,0.028140515089035034
36.0,0.02716313675045967
40.0,0.026222949847579002
44.0,0.02535131946206093
48.0,0.024578792974352837
52.0,0.023888861760497093
56.0,0.02325570397078991
60.0,0.02263142168521881
64.0,0.02197609283030033
72.0,0.020680507645010948
80.0,0.019356193020939827
88.0,0.018224310129880905
96.0,0.017200898379087448
104.0,0.01633360981941223
112.0,0.015527334064245224
120.0,0.014673029072582722
128.0,0.01363673247396946
144.0,0.011581944301724434
160.0,0.009373871609568596
176.0,0.007540547288954258
192.0,0.006632575299590826
208.0,0.006421956699341536
224.0,0.006029305513948202
240.0,0.0054922248236835
256.0,0.005334001500159502
288.0,0.006563051138073206
320.0,0.006992601323872805
352.0,0.00632600300014019
384.0,0.005081542767584324
416.0,0.004667724948376417
448.0,0.004347179085016251
480.0,0.002771376632153988
512.0,0.0016601217212155461
576.0,0.0018510346999391913
640.0,0.0019010389223694801
704.0,0.0011093916837126017
768.0,9.236673213308677e-05
832.0,-0.002439012285321951
896.0,-0.004445244092494249
960.0,-0.004045128356665373
1024.0,-0.00226674135774374
1152.0,-0.0018456106772646308
1280.0,-0.0021258159540593624
1408.0,0.001007633632980287
1536.0,0.0015770302852615714
1664.0,0.0021495395340025425
1792.0,0.0018177733290940523
1920.0,0.0018892547814175487
2048.0,0.0020414283499121666
2304.0,0.001171998679637909
2560.0,0.0007482607616111636
2816.0,-0.0012523906771093607
3072.0,0.00017615256365388632
3328.0,0.0006871221703477204
3584.0,-0.0034638741053640842
3840.0,-0.0035119210369884968
4096.0,-0.004582987632602453
4608.0,-0.0044563342817127705
5120.0,-0.0005438706139102578
5632.0,-0.002073954790830612
6144.0,-0.005468284245580435
6656.0,-0.00829894095659256
7168.0,-0.0091544883325696
7680.0,0.004324034787714481
8192.0,0.002852339530363679
end
