version,3.0
numOfCh,1
type,point
parent_name,0cd20_0dot08-0dot01
ch_type,1_1
kcount,1
numberNandB,1
brightnessNandB,1
carpet pos,0
pc,0
Time (ms),CH1 Auto-Correlation
1.0,0.0331169068813324
2.0,0.03285203129053116
3.0,0.03258659318089485
4.0,0.03232194483280182
5.0,0.03206301108002663
6.0,0.0318094827234745
7.0,0.03156359866261482
8.0,0.03132465109229088
9.0,0.031093768775463104
10.0,0.030863899737596512
11.0,0.030639706179499626
12.0,0.030421080067753792
13.0,0.030197519809007645
14.0,0.029976315796375275
15.0,0.02976153790950775
16.0,0.02954367734491825
18.0,0.029107429087162018
20.0,0.02867753989994526
22.0,0.02825333923101425
24.0,0.027831828221678734
26.0,0.02742236666381359
28.0,0.02702745795249939
30.0,0.026657382026314735
32.0,0.02627076394855976
36.0,0.025518259033560753
40.0,0.024842923507094383
44.0,0.024223243817687035
48.0,0.02361048385500908
52.0,0.022988948971033096
56.0,0.022339731454849243
60.0,0.02166794054210186
64.0,0.021035686135292053
72.0,0.01984352059662342
80.0,0.01876337267458439
88.0,0.017826221883296967
96.0,0.01700972206890583
104.0,0.016176236793398857
112.0,0.015361638739705086
120.0,0.014547866769134998
128.0,0.01387022715061903
144.0,0.012816301546990871
160.0,0.0117169925943017
176.0,0.010803187265992165
192.0,0.009939529933035374
208.0,0.009213906712830067
224.0,0.008734885603189468
240.0,0.008476324379444122
256.0,0.008248765021562576
288.0,0.008093290030956268
320.0,0.008055790327489376
352.0,0.007442383095622063
384.0,0.006676352582871914
416.0,0.006208627484738827
448.0,0.006608517374843359
480.0,0.006814970169216394
512.0,0.007115671876817942
576.0,0.005964815616607666
640.0,0.0032132554333657026
704.0,0.0019055361626669765
768.0,0.0014950474724173546
832.0,0.0009605102241039276
896.0,-0.00034578671329654753
960.0,-0.0007317587151192129
1024.0,4.4757700379705057e-05
1152.0,0.004462618846446276
1280.0,0.0032619466073811054
1408.0,0.0012817655224353075
1536.0,0.0003084041818510741
1664.0,-0.0005101473652757704
1792.0,-0.0019353512907400727
1920.0,-0.00017308152746409178
2048.0,0.0012061604065820575
2304.0,0.0004284312599338591
2560.0,0.002246383111923933
2816.0,-0.002235789317637682
3072.0,-0.0017747370293363929
3328.0,0.0014400060754269361
3584.0,0.00246622646227479
3840.0,0.00266605569049716
4096.0,-0.0010350028751417994
4608.0,0.00011121769057353958
5120.0,-0.00030549452640116215
5632.0,-0.0029508881270885468
6144.0,-0.003929534461349249
6656.0,-0.004705953877419233
7168.0,-0.00024185085203498602
7680.0,-0.0031134900636970997
8192.0,-0.0048351772129535675
end
