version,3.0
numOfCh,1
type,point
parent_name,0cd20_0dot08-0dot01
ch_type,1_1
kcount,1
numberNandB,1
brightnessNandB,1
carpet pos,0
pc,0
Time (ms),CH1 Auto-Correlation
1.0,0.02369624190032482
2.0,0.02342117764055729
3.0,0.023138009011745453
4.0,0.022862529382109642
5.0,0.02259049378335476
6.0,0.02232491783797741
7.0,0.022069411352276802
8.0,0.021824674680829048
9.0,0.02158055640757084
10.0,0.021340372040867805
11.0,0.02109859511256218
12.0,0.020847732201218605
13.0,0.020600812509655952
14.0,0.020359860733151436
15.0,0.020129477605223656
16.0,0.019909514114260674
18.0,0.01947661116719246
20.0,0.01905706152319908
22.0,0.018647145479917526
24.0,0.018269814550876617
26.0,0.017899468541145325
28.0,0.017543453723192215
30.0,0.017203522846102715
32.0,0.01687004789710045
36.0,0.016233382746577263
40.0,0.015634911134839058
44.0,0.015076100826263428
48.0,0.01451664324849844
52.0,0.013955332338809967
56.0,0.013439850881695747
60.0,0.012971327640116215
64.0,0.012536609545350075
72.0,0.011777054518461227
80.0,0.011045090854167938
88.0,0.010471880435943604
96.0,0.009891335852444172
104.0,0.009328913874924183
112.0,0.008684901520609856
120.0,0.007968511432409286
128.0,0.007412177976220846
144.0,0.00676770368590951
160.0,0.006114617455750704
176.0,0.005324958823621273
192.0,0.004602348897606134
208.0,0.004026458598673344
224.0,0.003449413925409317
240.0,0.003089218633249402
256.0,0.002668008441105485
288.0,0.0018033533124253154
320.0,0.0010260774288326502
352.0,0.0010723966406658292
384.0,0.0013799070147797465
416.0,0.0018489802023395896
448.0,0.0021028569899499416
480.0,0.001427371520549059
512.0,0.0009875285904854536
576.0,0.00013336678966879845
640.0,0.0004469676350709051
704.0,0.0016436120495200157
768.0,0.0015212884172797203
832.0,0.003335673827677965
896.0,0.003883147379383445
960.0,0.0024716968182474375
1024.0,0.001869449159130454
1152.0,0.002984229940921068
1280.0,0.0025136866606771946
1408.0,0.002396779367700219
1536.0,0.0021846857853233814
1664.0,0.0052967132069170475
1792.0,0.005991281010210514
1920.0,0.0040564644150435925
2048.0,0.0006484772893600166
2304.0,-0.0018782950937747955
2560.0,-0.0012623490765690804
2816.0,-0.0004274214443285018
3072.0,0.0015021291328594089
3328.0,-0.0023653008975088596
3584.0,-0.0037575489841401577
3840.0,-0.005428066477179527
4096.0,-0.00422228779643774
4608.0,-0.00274708797223866
5120.0,-0.004666531458497047
5632.0,-0.004854993894696236
6144.0,-0.0026794259902089834
6656.0,-0.002092296490445733
7168.0,-0.0014068408636376262
7680.0,-0.0018582595512270927
8192.0,-0.0017920637037605047
end
