version,3.0
numOfCh,1
type,point
parent_name,0cd20_0dot08-0dot01
ch_type,1_1
kcount,1
numberNandB,1
brightnessNandB,1
carpet pos,0
pc,0
Time (ms),CH1 Auto-Correlation
1.0,0.029786692932248116
2.0,0.02952064946293831
3.0,0.029260220006108284
4.0,0.02899681217968464
5.0,0.028745122253894806
6.0,0.028503652662038803
7.0,0.02826227992773056
8.0,0.028026465326547623
9.0,0.02778906375169754
10.0,0.027554623782634735
11.0,0.02731969580054283
12.0,0.027083870023489
13.0,0.02685258910059929
14.0,0.0266293715685606
15.0,0.026402389630675316
16.0,0.02617584355175495
18.0,0.02574615553021431
20.0,0.025335613638162613
22.0,0.024967122822999954
24.0,0.02462114952504635
26.0,0.024289341643452644
28.0,0.023971159011125565
30.0,0.023653414100408554
32.0,0.023352347314357758
36.0,0.02275911718606949
40.0,0.02216658741235733
44.0,0.021606389433145523
48.0,0.0210985466837883
52.0,0.02063499391078949
56.0,0.020189959555864334
60.0,0.019764501601457596
64.0,0.01938081718981266
72.0,0.018758026883006096
80.0,0.018185872584581375
88.0,0.017648344859480858
96.0,0.01713821291923523
104.0,0.01662605255842209
112.0,0.016143780201673508
120.0,0.01572699099779129
128.0,0.015429933555424213
144.0,0.014779765158891678
160.0,0.014045082032680511
176.0,0.013389229774475098
192.0,0.012726165354251862
208.0,0.012463673017919064
224.0,0.012713491916656494
240.0,0.012910347431898117
256.0,0.012628733180463314
288.0,0.01163035724312067
320.0,0.010668584145605564
352.0,0.009938238188624382
384.0,0.009024938568472862
416.0,0.007894792594015598
448.0,0.006589362397789955
480.0,0.005419714841991663
512.0,0.004848227370530367
576.0,0.0030235256999731064
640.0,0.0016747608315199614
704.0,0.0008670967654325068
768.0,-7.619604730280116e-05
832.0,-0.0008717246819287539
896.0,-0.0018640139605849981
960.0,-0.0027269599959254265
1024.0,-0.004810664337128401
1152.0,-0.006435874849557877
1280.0,-0.00543411448597908
1408.0,-0.00529314624145627
1536.0,-0.005307042971253395
1664.0,-0.0050683049485087395
1792.0,-0.0048530492931604385
1920.0,-0.005085836164653301
2048.0,-0.003904410172253847
2304.0,-0.0027532726526260376
2560.0,0.0010745077161118388
2816.0,0.004325469955801964
3072.0,0.0031280487310141325
3328.0,0.005635745823383331
3584.0,0.0027130998205393553
3840.0,-0.003017087932676077
4096.0,-0.0042823622934520245
4608.0,-0.003464613575488329
5120.0,-0.0039725350216031075
5632.0,0.00022644187265541404
6144.0,0.005757501348853111
6656.0,0.004836791194975376
7168.0,-0.0027082597371190786
7680.0,-0.005083278752863407
8192.0,0.00043975611333735287
end
