version,3.0
numOfCh,1
type,point
parent_name,0cd20_0dot08-0dot01
ch_type,1_1
kcount,1
numberNandB,1
brightnessNandB,1
carpet pos,0
pc,0
Time (ms),CH1 Auto-Correlation
1.0,0.04749554768204689
2.0,0.04709789156913757
3.0,0.046692099422216415
4.0,0.04631689935922623
5.0,0.04593803361058235
6.0,0.04558633267879486
7.0,0.04523976892232895
8.0,0.044901520013809204
9.0,0.04454860836267471
10.0,0.04421257600188255
11.0,0.043881822377443314
12.0,0.043564941734075546
13.0,0.04326503723859787
14.0,0.042960431426763535
15.0,0.04265788197517395
16.0,0.04234711825847626
18.0,0.04179864004254341
20.0,0.04130097106099129
22.0,0.040842875838279724
24.0,0.040354397147893906
26.0,0.03987874090671539
28.0,0.039432767778635025
30.0,0.03894514590501785
32.0,0.038431935012340546
36.0,0.03745999559760094
40.0,0.036541227251291275
44.0,0.03567424789071083
48.0,0.03485869988799095
52.0,0.034043148159980774
56.0,0.03319008648395538
60.0,0.03234128654003143
64.0,0.031508248299360275
72.0,0.029438454657793045
80.0,0.02722332812845707
88.0,0.025287721306085587
96.0,0.023463008925318718
104.0,0.021766819059848785
112.0,0.020282376557588577
120.0,0.01894591748714447
128.0,0.01742507331073284
144.0,0.014538196846842766
160.0,0.012618400156497955
176.0,0.011323951184749603
192.0,0.010431735776364803
208.0,0.009950094856321812
224.0,0.00963068287819624
240.0,0.008974198251962662
256.0,0.008210558444261551
288.0,0.007596537470817566
320.0,0.006937000434845686
352.0,0.006977996788918972
384.0,0.006543481722474098
416.0,0.0070167179219424725
448.0,0.008192484267055988
480.0,0.008615306578576565
512.0,0.00747021334245801
576.0,0.0025932725984603167
640.0,-0.002658793469890952
704.0,-0.0032682751771062613
768.0,-0.0012287989957258105
832.0,0.0016410083044320345
896.0,0.005872981622815132
960.0,0.009397138841450214
1024.0,0.009882032871246338
1152.0,0.0031679191160947084
1280.0,0.0028752058278769255
1408.0,0.004654407035559416
1536.0,0.003469582414254546
1664.0,-0.002593132434412837
1792.0,-0.006151671055704355
1920.0,-1.4862700936646434e-07
2048.0,0.005271983332931995
2304.0,0.005482506938278675
2560.0,0.0004388776433188468
2816.0,-0.004744349978864193
3072.0,-0.0007699698908254504
3328.0,0.0014785246457904577
3584.0,2.3635593606741168e-05
3840.0,-0.00229365355335176
4096.0,0.0005699823959730566
4608.0,0.0009376716916449368
5120.0,-0.00723662506788969
5632.0,-0.009572545997798443
6144.0,-0.016236437484622
6656.0,0.003524815198034048
7168.0,-0.017897143959999084
7680.0,-0.025747576728463173
8192.0,-0.010120043531060219
end
