version,3.0
numOfCh,1
type,point
parent_name,0cd20_0dot08-0dot01
ch_type,1_1
kcount,1
numberNandB,1
brightnessNandB,1
carpet pos,0
pc,0
Time (ms),CH1 Auto-Correlation
1.0,0.04399506375193596
2.0,0.04373708739876747
3.0,0.043493177741765976
4.0,0.043251458555459976
5.0,0.04301336035132408
6.0,0.04277946427464485
7.0,0.04254601523280144
8.0,0.04231085628271103
9.0,0.04207144305109978
10.0,0.04183239862322807
11.0,0.04159269109368324
12.0,0.041361138224601746
13.0,0.04112996533513069
14.0,0.04089592024683952
15.0,0.04066536948084831
16.0,0.040435221046209335
18.0,0.039984080940485
20.0,0.039531026035547256
22.0,0.03908895328640938
24.0,0.038657840341329575
26.0,0.03824242204427719
28.0,0.037842877209186554
30.0,0.03745215758681297
32.0,0.03708165884017944
36.0,0.03636353462934494
40.0,0.035652149468660355
44.0,0.03497345745563507
48.0,0.034349896013736725
52.0,0.03372606262564659
56.0,0.033116329461336136
60.0,0.03251924365758896
64.0,0.03196513280272484
72.0,0.030871238559484482
80.0,0.02983250468969345
88.0,0.028848187997937202
96.0,0.027913758531212807
104.0,0.027030549943447113
112.0,0.026140229776501656
120.0,0.02526945061981678
128.0,0.024458346888422966
144.0,0.022838151082396507
160.0,0.021275058388710022
176.0,0.01994752138853073
192.0,0.018548185005784035
208.0,0.01727839931845665
224.0,0.016067078337073326
240.0,0.014887705445289612
256.0,0.01389757264405489
288.0,0.012818267568945885
320.0,0.011951359920203686
352.0,0.011180452071130276
384.0,0.010656751692295074
416.0,0.010373425669968128
448.0,0.010559105314314365
480.0,0.0107119744643569
512.0,0.00982705969363451
576.0,0.008127103559672832
640.0,0.006778596434742212
704.0,0.005361536052078009
768.0,0.0049506560899317265
832.0,0.0047332607209682465
896.0,0.00382429757155478
960.0,0.0024284631945192814
1024.0,0.0011526786256581545
1152.0,0.0015144521603360772
1280.0,0.0030728571582585573
1408.0,0.004271838814020157
1536.0,0.004056683275848627
1664.0,0.004707021173089743
1792.0,0.003925324883311987
1920.0,0.0011476639192551374
2048.0,-0.002240475034341216
2304.0,-0.006298973225057125
2560.0,-0.009823152795433998
2816.0,-0.009075403213500977
3072.0,-0.0054885330609977245
3328.0,-0.0032867754343897104
3584.0,-0.009011642076075077
3840.0,-0.008845632895827293
4096.0,-0.005836424417793751
4608.0,-0.002667850349098444
5120.0,-0.002499400870874524
5632.0,-0.002383889863267541
6144.0,0.003683655522763729
6656.0,0.0037432240787893534
7168.0,0.0011114730732515454
7680.0,0.00720559386536479
8192.0,0.009449412114918232
end
