version,3.0
numOfCh,1
type,point
parent_name,0cd20_0dot08-0dot01
ch_type,1_1
kcount,1
numberNandB,1
brightnessNandB,1
carpet pos,0
pc,0
Time (ms),CH1 Auto-Correlation
1.0,0.022030042484402657
2.0,0.021780861541628838
3.0,0.021546777337789536
4.0,0.02131321281194687
5.0,0.021079134196043015
6.0,0.020844556391239166
7.0,0.020610366016626358
8.0,0.02038257196545601
9.0,0.020161326974630356
10.0,0.01993630826473236
11.0,0.019715765491127968
12.0,0.019499987363815308
13.0,0.01928708702325821
14.0,0.01907961070537567
15.0,0.01887354627251625
16.0,0.018672877922654152
18.0,0.01829640567302704
20.0,0.017942726612091064
22.0,0.017616791650652885
24.0,0.017302805557847023
26.0,0.017016030848026276
28.0,0.016737326979637146
30.0,0.016478966921567917
32.0,0.016215169802308083
36.0,0.0157002080231905
40.0,0.015240294858813286
44.0,0.01480717584490776
48.0,0.014398838393390179
52.0,0.013997272588312626
56.0,0.013610407710075378
60.0,0.013215969316661358
64.0,0.012868114747107029
72.0,0.012222311459481716
80.0,0.011617207899689674
88.0,0.011072669178247452
96.0,0.010599132627248764
104.0,0.010162807069718838
112.0,0.009723973460495472
120.0,0.009293382987380028
128.0,0.00875665433704853
144.0,0.007871054112911224
160.0,0.0072716958820819855
176.0,0.0065116193145513535
192.0,0.005714014638215303
208.0,0.005060521885752678
224.0,0.00452671991661191
240.0,0.004056633450090885
256.0,0.0037539659533649683
288.0,0.003627471625804901
320.0,0.0029614863451570272
352.0,0.002400631783530116
384.0,0.001901420415379107
416.0,0.001677009742707014
448.0,0.0023230351507663727
480.0,0.0029846953693777323
512.0,0.0028996141627430916
576.0,0.002103720558807254
640.0,0.0010300108697265387
704.0,0.0005590267246589065
768.0,0.00015020504361018538
832.0,-0.00046805417514406145
896.0,-0.001305443118326366
960.0,-0.002591149415820837
1024.0,-0.004602943547070026
1152.0,-0.004778443835675716
1280.0,-0.0025058090686798096
1408.0,6.982364720897749e-05
1536.0,0.0013002286432310939
1664.0,-0.001352644874714315
1792.0,-0.0025898159947246313
1920.0,-0.0033099392894655466
2048.0,-0.003841775469481945
2304.0,-0.004964263644069433
2560.0,-0.0030172551050782204
2816.0,-0.0007606264553032815
3072.0,0.0014323651557788253
3328.0,0.004276908002793789
3584.0,0.003201184794306755
3840.0,0.0021035654935985804
4096.0,0.005584304686635733
4608.0,0.0012891932856291533
5120.0,-0.005716705694794655
5632.0,-0.0016383546171709895
6144.0,0.00047762657050043344
6656.0,-0.004829137120395899
7168.0,-0.0007708980119787157
7680.0,0.006877071224153042
8192.0,0.00016239486285485327
end
