version,3.0
numOfCh,1
type,point
parent_name,0cd20_0dot08-0dot01
ch_type,1_1
kcount,1
numberNandB,1
brightnessNandB,1
carpet pos,0
pc,0
Time (ms),CH1 Auto-Correlation
1.0,0.0369802750647068
2.0,0.03673189878463745
3.0,0.03648858889937401
4.0,0.03624967113137245
5.0,0.03601193055510521
6.0,0.035767149180173874
7.0,0.035520948469638824
8.0,0.035279303789138794
9.0,0.0350332111120224
10.0,0.03479431942105293
11.0,0.034555286169052124
12.0,0.03432019054889679
13.0,0.0340958870947361
14.0,0.03387630730867386
15.0,0.0336596705019474
16.0,0.03344922140240669
18.0,0.033051639795303345
20.0,0.032678451389074326
22.0,0.032308053225278854
24.0,0.031940534710884094
26.0,0.0315881185233593
28.0,0.031234482303261757
30.0,0.030885035172104836
32.0,0.03053414076566696
36.0,0.029852185398340225
40.0,0.029177173972129822
44.0,0.028550324961543083
48.0,0.027996785938739777
52.0,0.027504947036504745
56.0,0.027012821286916733
60.0,0.02650640532374382
64.0,0.025989100337028503
72.0,0.02503855526447296
80.0,0.02422657422721386
88.0,0.023425348103046417
96.0,0.022717703133821487
104.0,0.02207745425403118
112.0,0.021513011306524277
120.0,0.021067671477794647
128.0,0.020848533138632774
144.0,0.0204913467168808
160.0,0.019904909655451775
176.0,0.018815092742443085
192.0,0.01762627810239792
208.0,0.01670452393591404
224.0,0.016140028834342957
240.0,0.01537100039422512
256.0,0.01439228467643261
288.0,0.01320586446672678
320.0,0.012378577142953873
352.0,0.011428426951169968
384.0,0.010198271833360195
416.0,0.008920976892113686
448.0,0.00823154952377081
480.0,0.008041327819228172
512.0,0.008161752484738827
576.0,0.008710518479347229
640.0,0.008969048038125038
704.0,0.009544245898723602
768.0,0.010416167788207531
832.0,0.009956392459571362
896.0,0.00869757030159235
960.0,0.008317210711538792
1024.0,0.00712041649967432
1152.0,0.002853573067113757
1280.0,0.0016130356816574931
1408.0,0.0011656932765617967
1536.0,0.0037534034345299006
1664.0,0.0050135827623307705
1792.0,0.004495648201555014
1920.0,0.005220629274845123
2048.0,0.004649072885513306
2304.0,0.005644477438181639
2560.0,0.004759586416184902
2816.0,-3.771280944420141e-06
3072.0,-0.002496025525033474
3328.0,0.004372994415462017
3584.0,0.004126692656427622
3840.0,-0.001492909388616681
4096.0,0.001269667292945087
4608.0,-0.0032857712358236313
5120.0,-0.0034463577903807163
5632.0,0.0003712876350618899
6144.0,0.0018344782292842865
6656.0,-0.0002788489800877869
7168.0,0.0020074239000678062
7680.0,0.003591890912503004
8192.0,4.4352775148581713e-05
end
