version,3.0
numOfCh,1
type,point
parent_name,0cd20_0dot08-0dot01
ch_type,1_1
kcount,1
numberNandB,1
brightnessNandB,1
carpet pos,0
pc,0
Time (ms),CH1 Auto-Correlation
1.0,0.05353016406297684
2.0,0.0532245896756649
3.0,0.05292389169335365
4.0,0.052625685930252075
5.0,0.05233093351125717
6.0,0.0520314946770668
7.0,0.051744941622018814
8.0,0.05145787447690964
9.0,0.05117415636777878
10.0,0.050893548876047134
11.0,0.05061696097254753
12.0,0.05034348741173744
13.0,0.05007026344537735
14.0,0.04979732260107994
15.0,0.049525439739227295
16.0,0.049255646765232086
18.0,0.04873364046216011
20.0,0.048239294439554214
22.0,0.04778818413615227
24.0,0.04735370725393295
26.0,0.04693515971302986
28.0,0.04653073102235794
30.0,0.0461234375834465
32.0,0.04574583098292351
36.0,0.045037947595119476
40.0,0.04434756189584732
44.0,0.043725404888391495
48.0,0.04314182326197624
52.0,0.04255985468626022
56.0,0.04201073944568634
60.0,0.04151075333356857
64.0,0.041061777621507645
72.0,0.040237054228782654
80.0,0.03933461010456085
88.0,0.038419850170612335
96.0,0.03749806061387062
104.0,0.03653151914477348
112.0,0.03565119951963425
120.0,0.03490009531378746
128.0,0.034126777201890945
144.0,0.032592181116342545
160.0,0.031114399433135986
176.0,0.02977471612393856
192.0,0.028512418270111084
208.0,0.027347736060619354
224.0,0.02635970525443554
240.0,0.025395022705197334
256.0,0.02443927340209484
288.0,0.022951476275920868
320.0,0.021452032029628754
352.0,0.02035968005657196
384.0,0.019888898357748985
416.0,0.018672538921236992
448.0,0.01729419082403183
480.0,0.016006439924240112
512.0,0.01547701470553875
576.0,0.014629671350121498
640.0,0.014484783634543419
704.0,0.013789261691272259
768.0,0.012469273991882801
832.0,0.010036546736955643
896.0,0.008710699155926704
960.0,0.006929048802703619
1024.0,0.005778862629085779
1152.0,0.0006439444259740412
1280.0,-0.005752020049840212
1408.0,-0.008222616277635098
1536.0,-0.007122398354113102
1664.0,-0.004527477081865072
1792.0,-0.002898199250921607
1920.0,-0.003418157808482647
2048.0,-0.004120581783354282
2304.0,-0.0016255093505606055
2560.0,0.004066607914865017
2816.0,0.004452873952686787
3072.0,0.0030402219854295254
3328.0,0.0012883374001830816
3584.0,0.000960679491981864
3840.0,0.0014424406690523028
4096.0,0.00438814889639616
4608.0,-0.0005308156250976026
5120.0,-0.008195759728550911
5632.0,-0.019270796328783035
6144.0,-0.017575819045305252
6656.0,-0.012825249694287777
7168.0,-0.008148372173309326
7680.0,0.002276459475979209
8192.0,-0.0033317431807518005
end
