version,3.0
numOfCh,1
type,point
parent_name,0cd20_0dot08-0dot01
ch_type,1_1
kcount,1
numberNandB,1
brightnessNandB,1
carpet pos,0
pc,0
Time (ms),CH1 Auto-Correlation
1.0,0.2718483805656433
2.0,0.27073633670806885
3.0,0.2696443796157837
4.0,0.26858681440353394
5.0,0.267551451921463
6.0,0.2664875388145447
7.0,0.26543253660202026
8.0,0.26449981331825256
9.0,0.263510525226593
10.0,0.26254281401634216
11.0,0.26156094670295715
12.0,0.2606041729450226
13.0,0.25956419110298157
14.0,0.25852856040000916
15.0,0.25747665762901306
16.0,0.2565070390701294
18.0,0.2541622221469879
20.0,0.2521842122077942
22.0,0.2501138150691986
24.0,0.24810263514518738
26.0,0.24614793062210083
28.0,0.24436669051647186
30.0,0.24259164929389954
32.0,0.2408645898103714
36.0,0.23773851990699768
40.0,0.23456040024757385
44.0,0.23101849853992462
48.0,0.2274037003517151
52.0,0.22388465702533722
56.0,0.22063778340816498
60.0,0.21795637905597687
64.0,0.21569007635116577
72.0,0.21293266117572784
80.0,0.21092480421066284
88.0,0.20865939557552338
96.0,0.20691998302936554
104.0,0.2059790939092636
112.0,0.20595990121364594
120.0,0.20619578659534454
128.0,0.20541630685329437
144.0,0.20269560813903809
160.0,0.20144879817962646
176.0,0.200117290019989
192.0,0.2005440890789032
208.0,0.19979599118232727
224.0,0.1990348845720291
240.0,0.19922207295894623
256.0,0.1986447423696518
288.0,0.1965448260307312
320.0,0.19245010614395142
352.0,0.18253445625305176
384.0,0.17304055392742157
416.0,0.16952326893806458
448.0,0.16943922638893127
480.0,0.1735760122537613
512.0,0.17260266840457916
576.0,0.1656653881072998
640.0,0.1714039295911789
704.0,0.1634078323841095
768.0,0.15553995966911316
832.0,0.14415180683135986
896.0,0.1404140591621399
960.0,0.12743940949440002
1024.0,0.11280818283557892
1152.0,0.07455962896347046
1280.0,0.05458405613899231
1408.0,0.04276108741760254
1536.0,0.03267909958958626
1664.0,0.023560240864753723
1792.0,-0.0012208609841763973
1920.0,-0.026068704202771187
2048.0,-0.03553927689790726
2304.0,-0.04341498389840126
2560.0,-0.049917999655008316
2816.0,-0.07131832838058472
3072.0,-0.0906686782836914
3328.0,-0.10217414051294327
3584.0,-0.12754489481449127
3840.0,-0.15121838450431824
4096.0,-0.18087589740753174
end
