version,3.0
numOfCh,1
type,point
parent_name,0cd20_0dot08-0dot01
ch_type,1_1
kcount,1
numberNandB,1
brightnessNandB,1
carpet pos,0
pc,0
Time (ms),CH1 Auto-Correlation
1.0,0.04383469000458717
2.0,0.04348641633987427
3.0,0.04314645007252693
4.0,0.04282686859369278
5.0,0.04251272603869438
6.0,0.04220404848456383
7.0,0.04190158471465111
8.0,0.041598908603191376
9.0,0.04130189120769501
10.0,0.04099958762526512
11.0,0.040706031024456024
12.0,0.040419016033411026
13.0,0.04014921933412552
14.0,0.039886102080345154
15.0,0.0396152101457119
16.0,0.039344947785139084
18.0,0.03881216421723366
20.0,0.03828681632876396
22.0,0.037743981927633286
24.0,0.03724750131368637
26.0,0.036761537194252014
28.0,0.03630592301487923
30.0,0.03587980940937996
32.0,0.03547876700758934
36.0,0.03467211499810219
40.0,0.03391890227794647
44.0,0.033147796988487244
48.0,0.03235970064997673
52.0,0.03157009556889534
56.0,0.03090081550180912
60.0,0.030266733840107918
64.0,0.029621362686157227
72.0,0.028398917987942696
80.0,0.027393048629164696
88.0,0.026333844289183617
96.0,0.02536664344370365
104.0,0.024632079526782036
112.0,0.02392876148223877
120.0,0.023264382034540176
128.0,0.02250371128320694
144.0,0.020905639976263046
160.0,0.019401928409934044
176.0,0.018558241426944733
192.0,0.01822708174586296
208.0,0.017610939219594002
224.0,0.01690850593149662
240.0,0.016265038400888443
256.0,0.01586397923529148
288.0,0.014433047734200954
320.0,0.013509255833923817
352.0,0.011769323609769344
384.0,0.010652869008481503
416.0,0.009157904423773289
448.0,0.007375479210168123
480.0,0.006230533123016357
512.0,0.005513501353561878
576.0,0.002975712763145566
640.0,0.0014387494884431362
704.0,0.0005453280173242092
768.0,0.00023127520398702472
832.0,-0.0018099630251526833
896.0,-0.0023663691245019436
960.0,-0.0007474200683645904
1024.0,0.0006199719500727952
1152.0,-0.0025856539141386747
1280.0,-0.0031009167432785034
1408.0,-0.0018893375527113676
1536.0,-0.0025247721932828426
1664.0,-0.003377337008714676
1792.0,-0.007255686447024345
1920.0,-0.008310558274388313
2048.0,-0.007607092149555683
2304.0,-0.003529004054144025
2560.0,0.004097605124115944
2816.0,0.008439866825938225
3072.0,0.007281540893018246
3328.0,0.004393317271023989
3584.0,0.005410909187048674
3840.0,0.006555879022926092
4096.0,0.008143060840666294
4608.0,-0.009704635478556156
5120.0,-0.010398678481578827
5632.0,-0.009247032925486565
6144.0,-0.010987795889377594
6656.0,0.00580718694254756
7168.0,0.015793858096003532
7680.0,-0.0017066973960027099
8192.0,-0.02240479178726673
end
