version,3.0
numOfCh,1
type,point
parent_name,0cd20_0dot08-0dot01
ch_type,1_1
kcount,1
numberNandB,1
brightnessNandB,1
carpet pos,0
pc,0
Time (ms),CH1 Auto-Correlation
1.0,0.042056605219841
2.0,0.04180565103888512
3.0,0.041567470878362656
4.0,0.04133162647485733
5.0,0.04110244661569595
6.0,0.040867600589990616
7.0,0.04063395410776138
8.0,0.04040355980396271
9.0,0.040179893374443054
10.0,0.03996240347623825
11.0,0.039751313626766205
12.0,0.03954770416021347
13.0,0.03934180736541748
14.0,0.03913323953747749
15.0,0.038917332887649536
16.0,0.03870929032564163
18.0,0.038319479674100876
20.0,0.03792998939752579
22.0,0.03752952441573143
24.0,0.037135738879442215
26.0,0.03674590587615967
28.0,0.03635789081454277
30.0,0.03597777336835861
32.0,0.035609688609838486
36.0,0.03490741178393364
40.0,0.03422529995441437
44.0,0.03355296328663826
48.0,0.032899197190999985
52.0,0.032296836376190186
56.0,0.03172057494521141
60.0,0.031152185052633286
64.0,0.030584342777729034
72.0,0.029484190046787262
80.0,0.028490353375673294
88.0,0.02759692072868347
96.0,0.02675795927643776
104.0,0.026001987978816032
112.0,0.02531523071229458
120.0,0.02462875097990036
128.0,0.023979006335139275
144.0,0.02268432080745697
160.0,0.021518893539905548
176.0,0.020698046311736107
192.0,0.019917065277695656
208.0,0.019188852980732918
224.0,0.018273571506142616
240.0,0.017191357910633087
256.0,0.016207292675971985
288.0,0.014535297639667988
320.0,0.013666713610291481
352.0,0.012956874445080757
384.0,0.01155814528465271
416.0,0.00965393241494894
448.0,0.00746102724224329
480.0,0.0057627554051578045
512.0,0.0051282295025885105
576.0,0.0031502179335802794
640.0,0.0011072979541495442
704.0,-4.282524605514482e-05
768.0,-0.0015764274867251515
832.0,-0.0027037712279707193
896.0,-0.003065911354497075
960.0,-0.003061777213588357
1024.0,-0.002579382387921214
1152.0,-0.0007623910205438733
1280.0,0.0019468371756374836
1408.0,0.0012595945736393332
1536.0,0.0004605487338267267
1664.0,0.0007451970013789833
1792.0,-0.0027339146472513676
1920.0,-0.001975069520995021
2048.0,0.001124878297559917
2304.0,0.0027331931050866842
2560.0,0.004036548547446728
2816.0,0.004723523743450642
3072.0,0.001979687949642539
3328.0,0.0038175357040017843
3584.0,0.002340136794373393
3840.0,0.0018343566916882992
4096.0,-8.608460484538227e-05
4608.0,-0.0045658377930521965
5120.0,-0.0036134617403149605
5632.0,-0.0064635975286364555
6144.0,0.005525462795048952
6656.0,0.001953920815140009
7168.0,-0.006633504759520292
7680.0,-0.003784687491133809
8192.0,-0.010307573713362217
end
