version,3.0
numOfCh,1
type,point
parent_name,0cd20_0dot08-0dot01
ch_type,1_1
kcount,1
numberNandB,1
brightnessNandB,1
carpet pos,0
pc,0
Time (ms),CH1 Auto-Correlation
1.0,0.03488082438707352
2.0,0.03458915650844574
3.0,0.034297820180654526
4.0,0.03401827812194824
5.0,0.033742595463991165
6.0,0.03346534073352814
7.0,0.033202845603227615
8.0,0.032938774675130844
9.0,0.03268350660800934
10.0,0.03242567181587219
11.0,0.03217349573969841
12.0,0.03193552792072296
13.0,0.03170774504542351
14.0,0.03146610036492348
15.0,0.031215230002999306
16.0,0.030972909182310104
18.0,0.030490973964333534
20.0,0.030010748654603958
22.0,0.029542962089180946
24.0,0.029109330847859383
26.0,0.028718488290905952
28.0,0.028338516131043434
30.0,0.027975037693977356
32.0,0.027625592425465584
36.0,0.026951707899570465
40.0,0.026311583817005157
44.0,0.025707680732011795
48.0,0.02510472573339939
52.0,0.02448328770697117
56.0,0.02390989661216736
60.0,0.023355934768915176
64.0,0.02284596487879753
72.0,0.02187061682343483
80.0,0.020977620035409927
88.0,0.02010495588183403
96.0,0.019293030723929405
104.0,0.018570328131318092
112.0,0.017969243228435516
120.0,0.017347712069749832
128.0,0.01663326658308506
144.0,0.015283075161278248
160.0,0.014095931313931942
176.0,0.013187653385102749
192.0,0.01229612436145544
208.0,0.01104057114571333
224.0,0.0097572673112154
240.0,0.008894515223801136
256.0,0.008304986171424389
288.0,0.005776857491582632
320.0,0.003995554056018591
352.0,0.002974915783852339
384.0,0.002802989212796092
416.0,0.002457767492160201
448.0,0.0020665195770561695
480.0,0.0012963421177119017
512.0,0.0007238198886625469
576.0,9.252004383597523e-05
640.0,0.0019164832774549723
704.0,0.0017762987408787012
768.0,0.0023899509105831385
832.0,0.0024585500359535217
896.0,0.003251864807680249
960.0,0.003250709269195795
1024.0,0.002771002007648349
1152.0,0.0019393510883674026
1280.0,0.002090845722705126
1408.0,0.00017976443632505834
1536.0,-0.005174677819013596
1664.0,-0.006194761022925377
1792.0,-0.001683410257101059
1920.0,0.0045639644376933575
2048.0,0.008183915168046951
2304.0,0.0002634681877680123
2560.0,-0.008278284221887589
2816.0,-0.007578953169286251
3072.0,-0.0012825872981920838
3328.0,4.007310781162232e-05
3584.0,-0.01025486271828413
3840.0,-0.01375457551330328
4096.0,-0.005827076733112335
end
