version,3.0
numOfCh,1
type,point
parent_name,0cd20_0dot08-0dot01
ch_type,1_1
kcount,1
numberNandB,1
brightnessNandB,1
carpet pos,0
pc,0
Time (ms),CH1 Auto-Correlation
1.0,0.0404762364923954
2.0,0.04020335525274277
3.0,0.03993867710232735
4.0,0.039676565676927567
5.0,0.03942257538437843
6.0,0.03917793557047844
7.0,0.038938239216804504
8.0,0.03870723769068718
9.0,0.03848891705274582
10.0,0.038275182247161865
11.0,0.038061629980802536
12.0,0.037852656096220016
13.0,0.03765140101313591
14.0,0.03744731843471527
15.0,0.03724677860736847
16.0,0.03704604133963585
18.0,0.03664107993245125
20.0,0.0362410694360733
22.0,0.03583979234099388
24.0,0.03543972969055176
26.0,0.03503268584609032
28.0,0.03462862968444824
30.0,0.034250251948833466
32.0,0.033889275044202805
36.0,0.03321510925889015
40.0,0.03259240835905075
44.0,0.03198722377419472
48.0,0.03141186386346817
52.0,0.03087267093360424
56.0,0.03037765994668007
60.0,0.0299359317868948
64.0,0.02952849306166172
72.0,0.028760351240634918
80.0,0.028090177103877068
88.0,0.027517667040228844
96.0,0.026961620897054672
104.0,0.02638399414718151
112.0,0.025767693296074867
120.0,0.025148939341306686
128.0,0.024541474878787994
144.0,0.02335130050778389
160.0,0.022261006757616997
176.0,0.021620720624923706
192.0,0.02110438048839569
208.0,0.020648417994379997
224.0,0.020090291276574135
240.0,0.019398361444473267
256.0,0.018830690532922745
288.0,0.017579028382897377
320.0,0.0168149434030056
352.0,0.015519160777330399
384.0,0.013995596207678318
416.0,0.012756732292473316
448.0,0.011867687106132507
480.0,0.010658662766218185
512.0,0.009099776856601238
576.0,0.004927349276840687
640.0,0.0034416811540722847
704.0,0.0032019075006246567
768.0,0.00347967934794724
832.0,0.0025143229868263006
896.0,0.0022785125765949488
960.0,0.0018651788122951984
1024.0,0.0020245325285941362
1152.0,0.0033316174522042274
1280.0,0.0018769092857837677
1408.0,0.0006432052468881011
1536.0,0.0003599104529712349
1664.0,-0.0007474037120118737
1792.0,-0.00021543704497162253
1920.0,0.0019417282892391086
2048.0,0.001999236410483718
2304.0,-0.0033495710231363773
2560.0,-0.008675698190927505
2816.0,-0.009623795747756958
3072.0,-0.00820548553019762
3328.0,-0.003926033619791269
3584.0,-0.0021100479643791914
3840.0,-3.7015539419371635e-05
4096.0,0.00042093259980902076
4608.0,-0.010975160636007786
5120.0,-0.011526020243763924
5632.0,-0.005808509420603514
6144.0,-0.0014361059293150902
6656.0,-0.0032098363153636456
7168.0,0.004919826984405518
7680.0,0.011317833326756954
8192.0,0.010068816132843494
end
