version,3.0
numOfCh,1
type,point
parent_name,0cd20_0dot08-0dot01
ch_type,1_1
kcount,1
numberNandB,1
brightnessNandB,1
carpet pos,0
pc,0
Time (ms),CH1 Auto-Correlation
1.0,0.03916478157043457
2.0,0.03889146447181702
3.0,0.038611914962530136
4.0,0.038334835320711136
5.0,0.038061801344156265
6.0,0.0377969965338707
7.0,0.03753522410988808
8.0,0.03727630525827408
9.0,0.03701891377568245
10.0,0.03675717115402222
11.0,0.0365007147192955
12.0,0.036248598247766495
13.0,0.03600168973207474
14.0,0.035756248980760574
15.0,0.03551959618926048
16.0,0.03528200462460518
18.0,0.034801971167325974
20.0,0.03433617204427719
22.0,0.033859651535749435
24.0,0.033386215567588806
26.0,0.032918088138103485
28.0,0.03246411308646202
30.0,0.0320330448448658
32.0,0.031633876264095306
36.0,0.030861785635352135
40.0,0.03010176308453083
44.0,0.02937198616564274
48.0,0.028691615909337997
52.0,0.028063472360372543
56.0,0.027454115450382233
60.0,0.02684844098985195
64.0,0.026263538748025894
72.0,0.02511591836810112
80.0,0.024120276793837547
88.0,0.02331281453371048
96.0,0.022531699389219284
104.0,0.02177654579281807
112.0,0.021040447056293488
120.0,0.020381944254040718
128.0,0.019836636260151863
144.0,0.018636928871273994
160.0,0.017399637028574944
176.0,0.016062820330262184
192.0,0.015059872530400753
208.0,0.014451084658503532
224.0,0.014101351611316204
240.0,0.013484295457601547
256.0,0.012747024185955524
288.0,0.011328944936394691
320.0,0.010921080596745014
352.0,0.011295699514448643
384.0,0.011160425841808319
416.0,0.010537398047745228
448.0,0.00966733694076538
480.0,0.008793401531875134
512.0,0.007792624644935131
576.0,0.006578401662409306
640.0,0.004229205660521984
704.0,0.004150180611759424
768.0,0.003960706293582916
832.0,0.003725849324837327
896.0,0.002048071939498186
960.0,0.0011025581043213606
1024.0,0.001078682136721909
1152.0,-0.0002122311998391524
1280.0,0.0006526994402520359
1408.0,-0.0018580787582322955
1536.0,0.0005313275032676756
1664.0,0.001900431583635509
1792.0,-0.000598029640968889
1920.0,0.0006972926785238087
2048.0,0.0015544581692665815
2304.0,0.0013614989584311843
2560.0,0.000356657721567899
2816.0,0.0010621664114296436
3072.0,0.0029022255912423134
3328.0,0.0008061864064075053
3584.0,0.002787252888083458
3840.0,0.0057744854129850864
4096.0,0.007080154027789831
4608.0,-3.75458512280602e-05
5120.0,-0.0029947676230221987
5632.0,0.0016532212030142546
6144.0,-0.0005010768072679639
6656.0,-0.009235389530658722
7168.0,-0.006440853234380484
7680.0,-0.007647100370377302
8192.0,-0.012395680882036686
end
