version,3.0
numOfCh,1
type,point
parent_name,0cd20_0dot08-0dot01
ch_type,1_1
kcount,1
numberNandB,1
brightnessNandB,1
carpet pos,0
pc,0
Time (ms),CH1 Auto-Correlation
1.0,0.037104710936546326
2.0,0.036834731698036194
3.0,0.03656259551644325
4.0,0.036294981837272644
5.0,0.03602554276585579
6.0,0.03575808182358742
7.0,0.035493507981300354
8.0,0.0352257564663887
9.0,0.03496638685464859
10.0,0.03471478074789047
11.0,0.03446437045931816
12.0,0.03421521931886673
13.0,0.0339653305709362
14.0,0.03372076153755188
15.0,0.03347274661064148
16.0,0.03322388976812363
18.0,0.03272310644388199
20.0,0.03221706673502922
22.0,0.031726665794849396
24.0,0.031268030405044556
26.0,0.030832365155220032
28.0,0.03041055053472519
30.0,0.029986102133989334
32.0,0.029578831046819687
36.0,0.028854912146925926
40.0,0.028168903663754463
44.0,0.027508432045578957
48.0,0.02688954398036003
52.0,0.026293590664863586
56.0,0.025727134197950363
60.0,0.02518121525645256
64.0,0.024648495018482208
72.0,0.023611437529325485
80.0,0.022649142891168594
88.0,0.02178586646914482
96.0,0.02100399136543274
104.0,0.020257610827684402
112.0,0.01951584778726101
120.0,0.018702220171689987
128.0,0.017887158319354057
144.0,0.016878347843885422
160.0,0.016123374924063683
176.0,0.01525779440999031
192.0,0.014153996482491493
208.0,0.013102530501782894
224.0,0.012138713151216507
240.0,0.011254509910941124
256.0,0.010323228314518929
288.0,0.009240943007171154
320.0,0.008579643443226814
352.0,0.007746811956167221
384.0,0.006168371066451073
416.0,0.004788104444742203
448.0,0.0033758485224097967
480.0,0.0021408137399703264
512.0,0.0013487968826666474
576.0,0.0008636131533421576
640.0,-0.0001396243169438094
704.0,-0.0007662252173759043
768.0,-0.0016979345818981528
832.0,-0.0021424670703709126
896.0,-0.0034390962682664394
960.0,-0.003432517871260643
1024.0,-0.0034047807566821575
1152.0,-0.004341245163232088
1280.0,-0.006022777408361435
1408.0,-0.004467296879738569
1536.0,-0.003613421693444252
1664.0,-0.002724346937611699
1792.0,-0.0004897991893813014
1920.0,0.0009394142543897033
2048.0,0.00023882027016952634
2304.0,-0.0010993153555318713
2560.0,-0.002337242243811488
2816.0,-0.0022665734868496656
3072.0,-0.0016103893285617232
3328.0,-0.00555706862360239
3584.0,-0.004274635575711727
3840.0,-0.0017062376718968153
4096.0,-0.004258813336491585
4608.0,0.0001875234884209931
5120.0,-1.6050906197051518e-05
5632.0,0.0025931131094694138
6144.0,0.0011710829567164183
6656.0,0.0058754864148795605
7168.0,0.0012679476058110595
7680.0,-0.004007629118859768
8192.0,-9.971134568331763e-05
end
