version,3.0
numOfCh,1
type,point
parent_name,0cd20_0dot08-0dot01
ch_type,1_1
kcount,1
numberNandB,1
brightnessNandB,1
carpet pos,0
pc,0
Time (ms),CH1 Auto-Correlation
1.0,0.029177427291870117
2.0,0.02888493426144123
3.0,0.028598181903362274
4.0,0.02831045538187027
5.0,0.028022179380059242
6.0,0.027732521295547485
7.0,0.02744661644101143
8.0,0.02715931460261345
9.0,0.026870112866163254
10.0,0.026594053953886032
11.0,0.026314035058021545
12.0,0.02604237012565136
13.0,0.025782275944948196
14.0,0.025525052100419998
15.0,0.025271298363804817
16.0,0.025015488266944885
18.0,0.024532625451683998
20.0,0.024042610079050064
22.0,0.023568201810121536
24.0,0.023114679381251335
26.0,0.022668693214654922
28.0,0.022248582914471626
30.0,0.021851710975170135
32.0,0.021479856222867966
36.0,0.02080860361456871
40.0,0.020183654502034187
44.0,0.01956832781434059
48.0,0.01900354027748108
52.0,0.018481597304344177
56.0,0.017991023138165474
60.0,0.01754174940288067
64.0,0.017070632427930832
72.0,0.016049308702349663
80.0,0.01506201270967722
88.0,0.014185010455548763
96.0,0.013373013585805893
104.0,0.012403248809278011
112.0,0.011444983072578907
120.0,0.0107077332213521
128.0,0.010130946524441242
144.0,0.0089362608268857
160.0,0.008207266218960285
176.0,0.007482666522264481
192.0,0.006940011400729418
208.0,0.006420953664928675
224.0,0.0059325979091227055
240.0,0.005494963843375444
256.0,0.005411371123045683
288.0,0.005754098296165466
320.0,0.005679721478372812
352.0,0.00528710475191474
384.0,0.004903473891317844
416.0,0.0041010682471096516
448.0,0.0030960910953581333
480.0,0.0024751031305640936
512.0,0.002600756473839283
576.0,0.002057355595752597
640.0,0.00338756968267262
704.0,0.004065682180225849
768.0,0.0037294740322977304
832.0,0.004258922766894102
896.0,0.004602499306201935
960.0,0.0041170138865709305
1024.0,0.004285499919205904
1152.0,0.004366553854197264
1280.0,0.002279694192111492
1408.0,0.002497890032827854
1536.0,0.001158993225544691
1664.0,0.0009589597466401756
1792.0,-0.0004821046895813197
1920.0,0.0017126083839684725
2048.0,0.005211483221501112
2304.0,0.0031993112061172724
2560.0,0.001085315947420895
2816.0,0.0017186221666634083
3072.0,0.0010878174798563123
3328.0,0.001432988909073174
3584.0,-0.0005501536652445793
3840.0,-0.003810798516497016
4096.0,-0.005149931646883488
4608.0,-0.005217467434704304
5120.0,-0.0014772301074117422
5632.0,-0.003734477097168565
6144.0,-0.007713508792221546
6656.0,-0.008537515997886658
7168.0,-0.0019528866978362203
7680.0,-0.005679970141500235
8192.0,-0.005888461600989103
end
