version,3.0
numOfCh,1
type,point
parent_name,0cd20_0dot08-0dot01
ch_type,1_1
kcount,1
numberNandB,1
brightnessNandB,1
carpet pos,0
pc,0
Time (ms),CH1 Auto-Correlation
1.0,0.1309976577758789
2.0,0.1303066909313202
3.0,0.12957803905010223
4.0,0.12880955636501312
5.0,0.12802843749523163
6.0,0.12728440761566162
7.0,0.12657760083675385
8.0,0.1258198320865631
9.0,0.12504883110523224
10.0,0.12431300431489944
11.0,0.12352488189935684
12.0,0.1227937713265419
13.0,0.12213148921728134
14.0,0.12146581709384918
15.0,0.12076219916343689
16.0,0.12007854878902435
18.0,0.11837675422430038
20.0,0.1169641762971878
22.0,0.11551821976900101
24.0,0.113960862159729
26.0,0.11227485537528992
28.0,0.11049700528383255
30.0,0.10883945226669312
32.0,0.10725447535514832
36.0,0.10402742773294449
40.0,0.10084428638219833
44.0,0.09777168184518814
48.0,0.09470833092927933
52.0,0.09166853874921799
56.0,0.08910150080919266
60.0,0.0865534171462059
64.0,0.08371087908744812
72.0,0.076496422290802
80.0,0.07124603539705276
88.0,0.06586442142724991
96.0,0.06055513024330139
104.0,0.05508408695459366
112.0,0.050077542662620544
120.0,0.046177420765161514
128.0,0.04378972947597504
144.0,0.04030318930745125
160.0,0.03807968273758888
176.0,0.03728196769952774
192.0,0.03752101957798004
208.0,0.03883872553706169
224.0,0.0407666452229023
240.0,0.042302846908569336
256.0,0.04335285350680351
288.0,0.04441807046532631
320.0,0.041657593101263046
352.0,0.03728418052196503
384.0,0.03047771379351616
416.0,0.024441953748464584
448.0,0.015133693814277649
480.0,0.0068826754577457905
512.0,0.002077851677313447
576.0,-0.006826787255704403
640.0,0.00016712016076780856
704.0,0.0004147077561356127
768.0,-0.006072246469557285
832.0,-0.015083354897797108
896.0,-0.01025752630084753
960.0,-0.014278202317655087
1024.0,-0.005902397446334362
1152.0,0.006389265414327383
1280.0,0.006399926263839006
1408.0,0.022097818553447723
1536.0,0.029973136261105537
1664.0,0.01734563708305359
1792.0,0.015679016709327698
1920.0,0.018027309328317642
2048.0,-0.0009386009769514203
2304.0,-0.028181225061416626
2560.0,-0.025759903714060783
2816.0,-0.01049958635121584
3072.0,-0.002504324074834585
3328.0,-0.036816928535699844
3584.0,-0.06739784777164459
3840.0,-0.0776771754026413
4096.0,-0.11636053025722504
end
