version,3.0
numOfCh,1
type,point
parent_name,0cd20_0dot08-0dot01
ch_type,1_1
kcount,1
numberNandB,1
brightnessNandB,1
carpet pos,0
pc,0
Time (ms),CH1 Auto-Correlation
1.0,0.03663304075598717
2.0,0.036365900188684464
3.0,0.03609953448176384
4.0,0.03583991900086403
5.0,0.03558120131492615
6.0,0.03532061353325844
7.0,0.035070013254880905
8.0,0.03482460230588913
9.0,0.03458032384514809
10.0,0.03433101996779442
11.0,0.034081388264894485
12.0,0.033847518265247345
13.0,0.033611878752708435
14.0,0.03338710963726044
15.0,0.03316280618309975
16.0,0.03293803706765175
18.0,0.03250966593623161
20.0,0.032089464366436005
22.0,0.03168148919939995
24.0,0.03129195421934128
26.0,0.030923178419470787
28.0,0.030553875491023064
30.0,0.03019389510154724
32.0,0.029850028455257416
36.0,0.029159003868699074
40.0,0.02847318910062313
44.0,0.02780865505337715
48.0,0.027151189744472504
52.0,0.026529952883720398
56.0,0.02594124525785446
60.0,0.02540775202214718
64.0,0.024931110441684723
72.0,0.024005606770515442
80.0,0.02320423722267151
88.0,0.022478755563497543
96.0,0.02184576727449894
104.0,0.02126408740878105
112.0,0.020715942606329918
120.0,0.02013765461742878
128.0,0.01959174871444702
144.0,0.01874668523669243
160.0,0.017998704686760902
176.0,0.017360154539346695
192.0,0.016935136169195175
208.0,0.016471734270453453
224.0,0.01592988707125187
240.0,0.015087787993252277
256.0,0.014234730042517185
288.0,0.012515179812908173
320.0,0.011151343584060669
352.0,0.01026313379406929
384.0,0.009646271355450153
416.0,0.008901262655854225
448.0,0.008754681795835495
480.0,0.00878189504146576
512.0,0.008522424846887589
576.0,0.008763620629906654
640.0,0.008903084322810173
704.0,0.008919392712414265
768.0,0.008170667104423046
832.0,0.007620943244546652
896.0,0.007309154141694307
960.0,0.006106697488576174
1024.0,0.006874759681522846
1152.0,0.008730880916118622
1280.0,0.007795355748385191
1408.0,0.005836084485054016
1536.0,0.00402335450053215
1664.0,0.0025379799772053957
1792.0,0.00281565822660923
1920.0,0.0022441481705754995
2048.0,0.0003275942290201783
2304.0,-0.004143343772739172
2560.0,-0.0033083069138228893
2816.0,0.0012889050412923098
3072.0,-0.0022850031964480877
3328.0,-0.005691169761121273
3584.0,-0.008488664403557777
3840.0,-0.005304856691509485
4096.0,-0.0032519525848329067
4608.0,-0.004623278509825468
5120.0,-0.0057495227083563805
5632.0,-0.0054807886481285095
6144.0,-0.007225796114653349
6656.0,-0.006186384707689285
7168.0,-0.006219375412911177
7680.0,-0.004828389268368483
8192.0,-0.0013738364214077592
end
