version,3.0
numOfCh,1
type,point
parent_name,0cd20_0dot08-0dot01
ch_type,1_1
kcount,1
numberNandB,1
brightnessNandB,1
carpet pos,0
pc,0
Time (ms),CH1 Auto-Correlation
1.0,0.035840608179569244
2.0,0.03557963669300079
3.0,0.03531850874423981
4.0,0.035066213458776474
5.0,0.03481712564826012
6.0,0.03456857427954674
7.0,0.03433653712272644
8.0,0.034113407135009766
9.0,0.03389813005924225
10.0,0.03368595242500305
11.0,0.03347789868712425
12.0,0.033276163041591644
13.0,0.03307487815618515
14.0,0.0328785739839077
15.0,0.032683104276657104
16.0,0.03248212859034538
18.0,0.03210250660777092
20.0,0.0317341573536396
22.0,0.03137817978858948
24.0,0.03105899877846241
26.0,0.03076517954468727
28.0,0.030488936230540276
30.0,0.03020782768726349
32.0,0.029921386390924454
36.0,0.029373958706855774
40.0,0.02886596880853176
44.0,0.028362039476633072
48.0,0.02782195806503296
52.0,0.027264831587672234
56.0,0.02673640288412571
60.0,0.026277853175997734
64.0,0.025864113122224808
72.0,0.025075243785977364
80.0,0.02425430528819561
88.0,0.023381711915135384
96.0,0.02258242294192314
104.0,0.021958623081445694
112.0,0.02142709493637085
120.0,0.020967630669474602
128.0,0.020450621843338013
144.0,0.019392719492316246
160.0,0.018214667215943336
176.0,0.017145005986094475
192.0,0.01606013812124729
208.0,0.01512699294835329
224.0,0.014248787425458431
240.0,0.014015497639775276
256.0,0.013981310650706291
288.0,0.012821187265217304
320.0,0.01087258756160736
352.0,0.009508364833891392
384.0,0.008859438821673393
416.0,0.008791007101535797
448.0,0.008709280751645565
480.0,0.008711998350918293
512.0,0.008593402802944183
576.0,0.008706357330083847
640.0,0.008211581967771053
704.0,0.005672947503626347
768.0,0.003070055739954114
832.0,0.002102505648508668
896.0,0.0029607610777020454
960.0,0.0030757146887481213
1024.0,0.0030907243490219116
1152.0,0.0039069210179150105
1280.0,0.0030657711904495955
1408.0,0.004374232608824968
1536.0,0.009618743322789669
1664.0,0.00958882737904787
1792.0,0.008127368986606598
1920.0,0.0027739449869841337
2048.0,0.0018860374111682177
2304.0,0.0012243535602465272
2560.0,0.0008573746308684349
2816.0,-0.00015588998212479055
3072.0,-0.0005107460892759264
3328.0,0.0012831372441723943
3584.0,-0.0027008054312318563
3840.0,-0.002540851943194866
4096.0,-0.002760566771030426
4608.0,-0.009899462573230267
5120.0,-0.010599142871797085
5632.0,-0.005755891092121601
6144.0,-0.01017265859991312
6656.0,-0.015281004831194878
7168.0,-0.009665403515100479
7680.0,-0.006626610178500414
8192.0,-0.01716560497879982
end
