version,3.0
numOfCh,1
type,point
parent_name,0cd20_0dot08-0dot01
ch_type,1_1
kcount,1
numberNandB,1
brightnessNandB,1
carpet pos,0
pc,0
Time (ms),CH1 Auto-Correlation
1.0,0.026470504701137543
2.0,0.026082558557391167
3.0,0.025706179440021515
4.0,0.02518305554986
5.0,0.024905670434236526
6.0,0.0246367659419775
7.0,0.024370023980736732
8.0,0.024114277213811874
9.0,0.023856649175286293
10.0,0.023581039160490036
11.0,0.023310992866754532
12.0,0.02307061478495598
13.0,0.022844357416033745
14.0,0.02261865884065628
15.0,0.02240041084587574
16.0,0.02217893861234188
18.0,0.021685708314180374
20.0,0.021285375580191612
22.0,0.020908240228891373
24.0,0.0205288827419281
26.0,0.02017078548669815
28.0,0.019833428785204887
30.0,0.01951535791158676
32.0,0.01922767609357834
36.0,0.018580105155706406
40.0,0.01806218922138214
44.0,0.017560062929987907
48.0,0.01709039695560932
52.0,0.01662036031484604
56.0,0.016218917444348335
60.0,0.015805207192897797
64.0,0.015341518446803093
72.0,0.014514060690999031
80.0,0.013920596800744534
88.0,0.013444310054183006
96.0,0.013019482605159283
104.0,0.012780616991221905
112.0,0.012670082040131092
120.0,0.012653535231947899
128.0,0.012571817263960838
144.0,0.012610547244548798
160.0,0.012694919481873512
176.0,0.012325461953878403
192.0,0.011635472998023033
208.0,0.011121850460767746
224.0,0.01090849470347166
240.0,0.010510709136724472
256.0,0.009878234937787056
288.0,0.009073765017092228
320.0,0.008215231820940971
352.0,0.007501967251300812
384.0,0.007646079175174236
416.0,0.007962735369801521
448.0,0.0083844643086195
480.0,0.007773332763463259
512.0,0.007462340407073498
576.0,0.008234195411205292
640.0,0.00810658372938633
704.0,0.007953417487442493
768.0,0.006906813010573387
832.0,0.00655865715816617
896.0,0.006044802721589804
960.0,0.0054497020319104195
1024.0,0.00378707074560225
1152.0,0.0028270611073821783
1280.0,0.001205907086841762
1408.0,0.002932911738753319
1536.0,0.0036947226617485285
1664.0,0.004101605154573917
1792.0,0.002948559820652008
1920.0,0.0013162685791030526
2048.0,0.0012347347801551223
2304.0,0.002356997225433588
2560.0,0.002553569385781884
2816.0,-0.000523276801686734
3072.0,-0.0007274536183103919
3328.0,-0.0028425983618944883
3584.0,-0.004127625375986099
3840.0,-0.004564217291772366
4096.0,-0.0036243642680346966
4608.0,-0.006967530585825443
5120.0,-0.009000754915177822
5632.0,-0.004696556366980076
6144.0,-0.005444993264973164
6656.0,-0.007827513851225376
7168.0,-0.011133496649563313
7680.0,-0.009800737723708153
8192.0,-0.00019201463146600872
end
