version,3.0
numOfCh,1
type,point
parent_name,0cd20_0dot08-0dot01
ch_type,1_1
kcount,1
numberNandB,1
brightnessNandB,1
carpet pos,0
pc,0
Time (ms),CH1 Auto-Correlation
1.0,0.06585301458835602
2.0,0.06544289737939835
3.0,0.06503760814666748
4.0,0.06464224308729172
5.0,0.06425400078296661
6.0,0.0638766661286354
7.0,0.06351885944604874
8.0,0.06316476315259933
9.0,0.06280724704265594
10.0,0.06245157867670059
11.0,0.06210207939147949
12.0,0.06176527589559555
13.0,0.061425305902957916
14.0,0.06107865646481514
15.0,0.06072532385587692
16.0,0.06036560237407684
18.0,0.05968935787677765
20.0,0.05899617075920105
22.0,0.058314502239227295
24.0,0.05760560557246208
26.0,0.05687962844967842
28.0,0.05614060163497925
30.0,0.05544669181108475
32.0,0.05477353557944298
36.0,0.053432922810316086
40.0,0.0521853081882
44.0,0.05100718513131142
48.0,0.0497620590031147
52.0,0.04847235232591629
56.0,0.047269340604543686
60.0,0.046151936054229736
64.0,0.0451522096991539
72.0,0.04331014305353165
80.0,0.04157350957393646
88.0,0.040067512542009354
96.0,0.03890515863895416
104.0,0.037976209074258804
112.0,0.03729243203997612
120.0,0.03666100278496742
128.0,0.036029502749443054
144.0,0.03514445200562477
160.0,0.034767407923936844
176.0,0.03427235782146454
192.0,0.034171268343925476
208.0,0.033802781254053116
224.0,0.03318946808576584
240.0,0.032128043472766876
256.0,0.03091561608016491
288.0,0.029708679765462875
320.0,0.029473531991243362
352.0,0.02928801253437996
384.0,0.02814057655632496
416.0,0.027791257947683334
448.0,0.026634905487298965
480.0,0.023854846134781837
512.0,0.021419066935777664
576.0,0.02121330425143242
640.0,0.020183110609650612
704.0,0.01774401217699051
768.0,0.015742596238851547
832.0,0.012803838588297367
896.0,0.011120747774839401
960.0,0.01167902909219265
1024.0,0.011356661096215248
1152.0,0.005503950174897909
1280.0,0.001401870627887547
1408.0,-0.00398892629891634
1536.0,-0.004419501405209303
1664.0,-0.0028241234831511974
1792.0,-0.0016307784244418144
1920.0,-0.001967550255358219
2048.0,-0.0010475254384800792
2304.0,-0.004123017657548189
2560.0,-0.00383896566927433
2816.0,-0.0019707006867974997
3072.0,-0.004845141898840666
3328.0,-0.009895967319607735
3584.0,-0.007616566028445959
3840.0,-0.005433896090835333
4096.0,-0.0011446018470451236
4608.0,-0.009887594729661942
5120.0,-0.01819804310798645
5632.0,-0.021695945411920547
6144.0,-0.010500718839466572
6656.0,0.008975144475698471
7168.0,0.010442151688039303
7680.0,-0.008509267121553421
8192.0,-0.039454761892557144
end
