version,3.0
numOfCh,1
type,point
parent_name,0cd20_0dot08-0dot01
ch_type,1_1
kcount,1
numberNandB,1
brightnessNandB,1
carpet pos,0
pc,0
Time (ms),CH1 Auto-Correlation
1.0,0.0357641726732254
2.0,0.03550339862704277
3.0,0.035242579877376556
4.0,0.03499048203229904
5.0,0.03473486006259918
6.0,0.034477487206459045
7.0,0.03422616049647331
8.0,0.03397626802325249
9.0,0.03372451290488243
10.0,0.033470701426267624
11.0,0.033214930444955826
12.0,0.03295763581991196
13.0,0.03270483389496803
14.0,0.032449912279844284
15.0,0.03220709413290024
16.0,0.031965725123882294
18.0,0.031510792672634125
20.0,0.03105737455189228
22.0,0.030619580298662186
24.0,0.030195895582437515
26.0,0.02978917956352234
28.0,0.02939787320792675
30.0,0.029017090797424316
32.0,0.028633777052164078
36.0,0.02788439765572548
40.0,0.027183610945940018
44.0,0.026499835774302483
48.0,0.02585129626095295
52.0,0.02522418648004532
56.0,0.02461252734065056
60.0,0.023991664871573448
64.0,0.023370925337076187
72.0,0.022216785699129105
80.0,0.021099912002682686
88.0,0.019950928166508675
96.0,0.018944647163152695
104.0,0.01818181574344635
112.0,0.01762007363140583
120.0,0.01710648648440838
128.0,0.016580570489168167
144.0,0.015491588972508907
160.0,0.014534952118992805
176.0,0.013412618078291416
192.0,0.012409016489982605
208.0,0.01160937175154686
224.0,0.010757094249129295
240.0,0.009984307922422886
256.0,0.009384788572788239
288.0,0.007900703698396683
320.0,0.006055651232600212
352.0,0.004510381259024143
384.0,0.0036975082475692034
416.0,0.003428195370361209
448.0,0.003510976443067193
480.0,0.0037212837487459183
512.0,0.0033109348732978106
576.0,0.003090264741331339
640.0,0.002455806126818061
704.0,0.0030190395191311836
768.0,0.0037857091519981623
832.0,0.0026652314700186253
896.0,0.0033971653319895267
960.0,0.004958552774041891
1024.0,0.005217598285526037
1152.0,0.0033151679672300816
1280.0,0.002424247097223997
1408.0,-0.0013250329066067934
1536.0,-0.0036113038659095764
1664.0,-0.005093906540423632
1792.0,-0.004771724808961153
1920.0,-0.0021242708899080753
2048.0,0.00211209780536592
2304.0,-0.0007250953349284828
2560.0,-0.0013215768849477172
2816.0,0.000804067007265985
3072.0,0.00428270036354661
3328.0,0.004043140914291143
3584.0,0.0007405700162053108
3840.0,0.00260945619083941
4096.0,0.0045075383968651295
4608.0,0.0026057581417262554
5120.0,0.0014544132864102721
5632.0,-0.003509027184918523
6144.0,-0.003913029097020626
6656.0,-0.008627752773463726
7168.0,-0.0045250337570905685
7680.0,-0.000926555716432631
8192.0,0.004236490465700626
end
