version,3.0
numOfCh,1
type,point
parent_name,0cd20_0dot08-0dot01
ch_type,1_1
kcount,1
numberNandB,1
brightnessNandB,1
carpet pos,0
pc,0
Time (ms),CH1 Auto-Correlation
1.0,0.046343401074409485
2.0,0.046061255037784576
3.0,0.04577692225575447
4.0,0.04550817236304283
5.0,0.0452464297413826
6.0,0.04498555511236191
7.0,0.04472727328538895
8.0,0.04446304962038994
9.0,0.04420122131705284
10.0,0.0439380519092083
11.0,0.04368586465716362
12.0,0.04344300925731659
13.0,0.043213605880737305
14.0,0.04299110174179077
15.0,0.04276785999536514
16.0,0.04255026578903198
18.0,0.04211993142962456
20.0,0.04169590026140213
22.0,0.04127577692270279
24.0,0.04086422920227051
26.0,0.040450312197208405
28.0,0.04003668949007988
30.0,0.03964958339929581
32.0,0.03927723690867424
36.0,0.0386006161570549
40.0,0.03797227516770363
44.0,0.03733648732304573
48.0,0.03670315816998482
52.0,0.03612222895026207
56.0,0.0355764664709568
60.0,0.035057779401540756
64.0,0.03449874371290207
72.0,0.03339302912354469
80.0,0.03232915326952934
88.0,0.03134909272193909
96.0,0.03051975555717945
104.0,0.029857462272047997
112.0,0.029196232557296753
120.0,0.02856176346540451
128.0,0.02791532129049301
144.0,0.026615990325808525
160.0,0.025263089686632156
176.0,0.02393796294927597
192.0,0.0226864293217659
208.0,0.021750574931502342
224.0,0.02103016898036003
240.0,0.020490949973464012
256.0,0.01977551355957985
288.0,0.018292486667633057
320.0,0.016319189220666885
352.0,0.014711027033627033
384.0,0.013837042264640331
416.0,0.013213260099291801
448.0,0.012993339449167252
480.0,0.012810883112251759
512.0,0.012735861353576183
576.0,0.012424597516655922
640.0,0.012671372853219509
704.0,0.012484303675591946
768.0,0.010856995359063148
832.0,0.009330174885690212
896.0,0.008598344400525093
960.0,0.007846198044717312
1024.0,0.008502218872308731
1152.0,0.009775431826710701
1280.0,0.009736945852637291
1408.0,0.010773761197924614
1536.0,0.009361697360873222
1664.0,0.00648985430598259
1792.0,0.002405231585726142
1920.0,-0.00029509139130823314
2048.0,-0.00293134618550539
2304.0,-0.008033298887312412
2560.0,-0.008294806815683842
2816.0,-0.00839305855333805
3072.0,-0.008121365681290627
3328.0,-0.012609762139618397
3584.0,-0.013372242450714111
3840.0,-0.012421542778611183
4096.0,-0.01377253420650959
4608.0,-0.011884154751896858
5120.0,-0.009512575343251228
5632.0,-0.007763348985463381
6144.0,-0.0028731985948979855
6656.0,0.002257028827443719
7168.0,0.0032870022114366293
7680.0,0.005762376356869936
8192.0,0.012712697498500347
end
