version,3.0
numOfCh,1
type,point
parent_name,34a6d_0dot4-0dot1
ch_type,1_1
kcount,1
numberNandB,1
brightnessNandB,1
carpet pos,0
pc,0
Time (ms),CH1 Auto-Correlation
1.0,0.030035723000764847
2.0,0.029014846310019493
3.0,0.02808048203587532
4.0,0.02724153734743595
5.0,0.026456201449036598
6.0,0.025728004053235054
7.0,0.02503325045108795
8.0,0.024405397474765778
9.0,0.023806791752576828
10.0,0.02323451079428196
11.0,0.022675873711705208
12.0,0.022155554965138435
13.0,0.021645531058311462
14.0,0.021143723279237747
15.0,0.02067546173930168
16.0,0.020226845517754555
18.0,0.019394878298044205
20.0,0.018582457676529884
22.0,0.01783861592411995
24.0,0.01716366410255432
26.0,0.016504131257534027
28.0,0.015884947031736374
30.0,0.015340082347393036
32.0,0.014828608371317387
36.0,0.013992002233862877
40.0,0.013266557827591896
44.0,0.012536106631159782
48.0,0.011763996444642544
52.0,0.01103882770985365
56.0,0.010416101664304733
60.0,0.009893056005239487
64.0,0.009486088529229164
72.0,0.008744167163968086
80.0,0.007982747629284859
88.0,0.006991057191044092
96.0,0.006360738072544336
104.0,0.006060251500457525
112.0,0.005995403043925762
120.0,0.005798003636300564
128.0,0.005613936111330986
144.0,0.005496989469975233
160.0,0.005327820777893066
176.0,0.005730175878852606
192.0,0.005940498784184456
208.0,0.0053699868731200695
224.0,0.004455768037587404
240.0,0.0037423891481012106
256.0,0.003249723929911852
288.0,0.0023076424840837717
320.0,0.0024509113281965256
352.0,0.0034614489413797855
384.0,0.002346036024391651
416.0,0.0023226586636155844
448.0,0.0017455721972510219
480.0,0.0008835533517412841
512.0,0.000432911969255656
576.0,0.00015347875887528062
640.0,0.000353978801285848
704.0,0.0007066357648000121
768.0,0.002361369552090764
832.0,0.0028331014327704906
896.0,0.0015938201686367393
960.0,-6.684129766654223e-05
1024.0,0.0005113206570968032
1152.0,0.0010001582559198141
1280.0,0.00023858087661210448
1408.0,-0.0028721399139612913
1536.0,-0.0037332449574023485
1664.0,-0.001248028944246471
1792.0,-0.0015256215119734406
1920.0,0.0011816909536719322
2048.0,0.002187473000958562
2304.0,-0.00023378773767035455
2560.0,-0.0008770340937189758
2816.0,-0.0013713689986616373
3072.0,-0.0010605552233755589
3328.0,-0.0003668102726805955
3584.0,-0.002731029875576496
3840.0,-0.0008743338985368609
4096.0,0.0003056584973819554
4608.0,0.00022941241331864148
5120.0,0.00031791176297701895
5632.0,0.0002797302440740168
6144.0,0.0012649684213101864
6656.0,-0.0029006381519138813
7168.0,-0.0038305134512484074
7680.0,-0.004291788209229708
8192.0,0.000680815486703068
end
