version,3.0
numOfCh,1
type,point
parent_name,34a6d_0dot4-0dot1
ch_type,1_1
kcount,1
numberNandB,1
brightnessNandB,1
carpet pos,0
pc,0
Time (ms),CH1 Auto-Correlation
1.0,0.028682369738817215
2.0,0.027691101655364037
3.0,0.026753665879368782
4.0,0.025872906669974327
5.0,0.025047389790415764
6.0,0.02423924021422863
7.0,0.023487115278840065
8.0,0.022778276354074478
9.0,0.022116990759968758
10.0,0.021504737436771393
11.0,0.0209366288036108
12.0,0.02039838396012783
13.0,0.019887356087565422
14.0,0.019390251487493515
15.0,0.01887725666165352
16.0,0.01841464452445507
18.0,0.017506154254078865
20.0,0.016634417697787285
22.0,0.015822673216462135
24.0,0.015101786702871323
26.0,0.014438767917454243
28.0,0.013832676224410534
30.0,0.013251611962914467
32.0,0.012717869132757187
36.0,0.011797911487519741
40.0,0.010926900431513786
44.0,0.010165686719119549
48.0,0.00952541921287775
52.0,0.008873560465872288
56.0,0.00832322146743536
60.0,0.007858955301344395
64.0,0.007464649621397257
72.0,0.00673061516135931
80.0,0.005990602541714907
88.0,0.005075743421912193
96.0,0.004466631915420294
104.0,0.003622581483796239
112.0,0.0029117565136402845
120.0,0.0026921259704977274
128.0,0.0025355061516165733
144.0,0.001456973608583212
160.0,0.0008006107527762651
176.0,0.0005288235261105001
192.0,0.0005000187084078789
208.0,0.00011536211968632415
224.0,0.0008864276460371912
240.0,0.0016407598741352558
256.0,0.001979989930987358
288.0,0.0012547499500215054
320.0,0.0008369865245185792
352.0,-0.0001022906944854185
384.0,-0.0006638031918555498
416.0,0.00027229287661612034
448.0,-8.887206058716401e-05
480.0,0.00012629659613594413
512.0,-0.0001966059789992869
576.0,-0.0004899569321423769
640.0,-0.0012516661081463099
704.0,-0.0004652180359698832
768.0,1.5510731827816926e-05
832.0,0.0002139849093509838
896.0,0.0003605464880820364
960.0,-0.0009907709900289774
1024.0,-0.0015115330461412668
1152.0,-0.0010322671150788665
1280.0,0.00027043878799304366
1408.0,-0.0006859154673293233
1536.0,-0.0002857954823412001
1664.0,0.000439259601989761
1792.0,-0.0006900496082380414
1920.0,-0.0009834454394876957
2048.0,-0.004114638548344374
2304.0,-0.0013773597311228514
2560.0,0.0004773328546434641
2816.0,0.0005873494665138423
3072.0,2.7620842956821434e-05
3328.0,0.00032189779449254274
3584.0,0.0014185045147314668
3840.0,0.0008106318418867886
4096.0,0.000267550814896822
4608.0,-0.0005187681526876986
5120.0,0.0003287582367192954
5632.0,-0.0005640337476506829
6144.0,-0.0001794388663256541
6656.0,0.0012874602107331157
7168.0,-0.0009018612327054143
7680.0,-0.0010033351136371493
8192.0,-0.00041002800571732223
end
