version,3.0
numOfCh,1
type,point
parent_name,34a6d_0dot4-0dot1
ch_type,1_1
kcount,1
numberNandB,1
brightnessNandB,1
carpet pos,0
pc,0
Time (ms),CH1 Auto-Correlation
1.0,0.03166278079152107
2.0,0.030511043965816498
3.0,0.02943951077759266
4.0,0.028401844203472137
5.0,0.027442675083875656
6.0,0.026526393368840218
7.0,0.025648096576333046
8.0,0.02481219917535782
9.0,0.024030881002545357
10.0,0.023306386545300484
11.0,0.022661389783024788
12.0,0.02205449342727661
13.0,0.02150542475283146
14.0,0.02100921794772148
15.0,0.020538855344057083
16.0,0.02010914497077465
18.0,0.019245047122240067
20.0,0.018494660034775734
22.0,0.01781509444117546
24.0,0.017126090824604034
26.0,0.01647489331662655
28.0,0.015839215368032455
30.0,0.015146148391067982
32.0,0.014467855915427208
36.0,0.013318493030965328
40.0,0.012367108836770058
44.0,0.01149634551256895
48.0,0.010650462470948696
52.0,0.009858781471848488
56.0,0.009175083599984646
60.0,0.008586478419601917
64.0,0.008137485943734646
72.0,0.007411331404000521
80.0,0.0068078674376010895
88.0,0.006306583061814308
96.0,0.0062423148192465305
104.0,0.006187332794070244
112.0,0.005788473412394524
120.0,0.005384667776525021
128.0,0.004672995302826166
144.0,0.003855068003758788
160.0,0.003459147410467267
176.0,0.003565842052921653
192.0,0.004012688063085079
208.0,0.003963433671742678
224.0,0.004164956044405699
240.0,0.0037560146301984787
256.0,0.003081045113503933
288.0,0.00126409693621099
320.0,-0.0005015554488636553
352.0,-0.0006306185969151556
384.0,-0.00038678341661579907
416.0,-0.0005810370203107595
448.0,-0.00023392721777781844
480.0,-0.00029082948458380997
512.0,0.0001514776231488213
576.0,0.0002898355305660516
640.0,0.0004879226617049426
704.0,0.0007776130805723369
768.0,0.0004478907794691622
832.0,0.0019302370492368937
896.0,0.002797761233523488
960.0,0.002924294676631689
1024.0,0.0023937500081956387
1152.0,0.002556511200964451
1280.0,0.0003774469660129398
1408.0,0.0020217550918459892
1536.0,-0.00043219051440246403
1664.0,-0.002526025054976344
1792.0,-0.0019521614303812385
1920.0,-0.002905776724219322
2048.0,-0.0011103180004283786
2304.0,-0.0016349502839148045
2560.0,-0.003015851369127631
2816.0,-0.0027709670830518007
3072.0,-0.002266276627779007
3328.0,-0.0017553955549374223
3584.0,-0.0022420077584683895
3840.0,-0.001107871881686151
4096.0,-4.183738201390952e-05
4608.0,0.001281183329410851
5120.0,0.001500717713497579
5632.0,0.0014365921961143613
6144.0,0.0015386018203571439
6656.0,-0.00019343799795024097
7168.0,-2.839709304680582e-05
7680.0,-0.0014914717758074403
8192.0,-0.001695164479315281
end
