version,3.0
numOfCh,1
type,point
parent_name,34a6d_0dot4-0dot1
ch_type,1_1
kcount,1
numberNandB,1
brightnessNandB,1
carpet pos,0
pc,0
Time (ms),CH1 Auto-Correlation
1.0,0.03376367688179016
2.0,0.032628852874040604
3.0,0.0316200889647007
4.0,0.030732156708836555
5.0,0.029899725690484047
6.0,0.029117122292518616
7.0,0.028364581987261772
8.0,0.027660371735692024
9.0,0.026974214240908623
10.0,0.026305828243494034
11.0,0.02567092701792717
12.0,0.02506638877093792
13.0,0.024422384798526764
14.0,0.023836134001612663
15.0,0.023275025188922882
16.0,0.022779855877161026
18.0,0.021854078397154808
20.0,0.020989708602428436
22.0,0.02024497091770172
24.0,0.01960594765841961
26.0,0.018984641879796982
28.0,0.018468013033270836
30.0,0.017972460016608238
32.0,0.017505979165434837
36.0,0.016674868762493134
40.0,0.015977488830685616
44.0,0.015378287062048912
48.0,0.014813940972089767
52.0,0.014280128292739391
56.0,0.013825266622006893
60.0,0.013502192683517933
64.0,0.013113870285451412
72.0,0.01199278887361288
80.0,0.010859645903110504
88.0,0.010012054815888405
96.0,0.009495788253843784
104.0,0.00947779230773449
112.0,0.009449264965951443
120.0,0.009198513813316822
128.0,0.008741927333176136
144.0,0.007554790936410427
160.0,0.006792865693569183
176.0,0.00646451860666275
192.0,0.0062774838879704475
208.0,0.006940372753888369
224.0,0.007149368990212679
240.0,0.007130072917789221
256.0,0.006709016859531403
288.0,0.005087531637400389
320.0,0.004164146259427071
352.0,0.003630903782323003
384.0,0.0028403112664818764
416.0,0.0012987827649340034
448.0,0.001175670069642365
480.0,0.002325137611478567
512.0,0.003060602117329836
576.0,0.0032119089737534523
640.0,0.0022569564171135426
704.0,0.001892861444503069
768.0,0.0021542655304074287
832.0,0.00238683819770813
896.0,0.0013150712475180626
960.0,0.001463830005377531
1024.0,0.0006172416033223271
1152.0,-0.001754230703227222
1280.0,-0.0023381663486361504
1408.0,-0.0027502153534442186
1536.0,-0.0009691125596873462
1664.0,0.0008555001113563776
1792.0,-0.0010765884071588516
1920.0,-0.0027732381131500006
2048.0,-0.0029929406009614468
2304.0,-0.002386626787483692
2560.0,0.0005415463820099831
2816.0,-0.003380883950740099
3072.0,-0.0026918589137494564
3328.0,-0.0008627047063782811
3584.0,-0.002488350495696068
3840.0,-0.003109223209321499
4096.0,-0.0011345006059855223
4608.0,-0.001876183319836855
5120.0,-0.0017601946601644158
5632.0,-0.0002728700637817383
6144.0,0.0008351924479939044
6656.0,0.0006028563366271555
7168.0,0.0010741623118519783
7680.0,0.0027599181048572063
8192.0,0.0013647747691720724
end
