version,3.0
numOfCh,1
type,point
parent_name,34a6d_0dot4-0dot1
ch_type,1_1
kcount,1
numberNandB,1
brightnessNandB,1
carpet pos,0
pc,0
Time (ms),CH1 Auto-Correlation
1.0,0.03180167078971863
2.0,0.030769655480980873
3.0,0.029804345220327377
4.0,0.02889515645802021
5.0,0.02803710289299488
6.0,0.027230968698859215
7.0,0.02646542899310589
8.0,0.025760173797607422
9.0,0.025095563381910324
10.0,0.02444334886968136
11.0,0.023787163197994232
12.0,0.023195015266537666
13.0,0.022645840421319008
14.0,0.022112829610705376
15.0,0.021615248173475266
16.0,0.021157152950763702
18.0,0.020311875268816948
20.0,0.01951872743666172
22.0,0.01872831955552101
24.0,0.017961934208869934
26.0,0.017296887934207916
28.0,0.016694968566298485
30.0,0.01611970365047455
32.0,0.015611685812473297
36.0,0.01472197100520134
40.0,0.013960267417132854
44.0,0.013236390426754951
48.0,0.012451001442968845
52.0,0.011749370023608208
56.0,0.011067570187151432
60.0,0.010469974018633366
64.0,0.009975616820156574
72.0,0.009555038996040821
80.0,0.00942344032227993
88.0,0.009394732303917408
96.0,0.009096523746848106
104.0,0.008311044424772263
112.0,0.007464367896318436
120.0,0.006653182208538055
128.0,0.006061349529772997
144.0,0.00481420150026679
160.0,0.0044543067924678326
176.0,0.004360290709882975
192.0,0.004465990699827671
208.0,0.004228987265378237
224.0,0.004151989705860615
240.0,0.0034111961722373962
256.0,0.0032184908632189035
288.0,0.0028143110685050488
320.0,0.0017310696421191096
352.0,0.0014706348301842809
384.0,0.0018893999513238668
416.0,0.0016505502862855792
448.0,0.00133865128736943
480.0,0.0004543301183730364
512.0,0.0007812569965608418
576.0,-0.00011157683184137568
640.0,-0.00031028379453346133
704.0,-0.0005195419071242213
768.0,6.09816765972937e-07
832.0,0.0008737418684177101
896.0,-0.000608846836257726
960.0,-0.0011746349046006799
1024.0,-0.000998043455183506
1152.0,-0.0018731681630015373
1280.0,0.0005989806377328932
1408.0,0.0002626114001031965
1536.0,0.0002798343193717301
1664.0,-9.111841063713655e-05
1792.0,-0.00198370567522943
1920.0,-0.0039103832095861435
2048.0,-0.003555996110662818
2304.0,-0.00021478075359482318
2560.0,0.0010892864083871245
2816.0,0.0009243747917935252
3072.0,0.0006095478893257678
3328.0,-0.001612567575648427
3584.0,-0.002131578279659152
3840.0,-0.0019390875240787864
4096.0,-0.0013143373653292656
4608.0,-0.0015699616633355618
5120.0,1.1892638212884776e-05
5632.0,0.00045191581011749804
6144.0,-0.00012869852071162313
6656.0,-0.00027678013429977
7168.0,-0.001674105180427432
7680.0,-0.0001577371294843033
8192.0,0.0025996642652899027
end
