version,3.0
numOfCh,1
type,point
parent_name,34a6d_0dot4-0dot1
ch_type,1_1
kcount,1
numberNandB,1
brightnessNandB,1
carpet pos,0
pc,0
Time (ms),CH1 Auto-Correlation
1.0,0.0339650996029377
2.0,0.03273722156882286
3.0,0.031575191766023636
4.0,0.03052612580358982
5.0,0.0295244287699461
6.0,0.02859826572239399
7.0,0.02774531953036785
8.0,0.026904111728072166
9.0,0.02611289545893669
10.0,0.025320589542388916
11.0,0.024563591927289963
12.0,0.023829620331525803
13.0,0.023163270205259323
14.0,0.02255300059914589
15.0,0.02198914624750614
16.0,0.021489853039383888
18.0,0.020574888214468956
20.0,0.019762683659791946
22.0,0.019033396616578102
24.0,0.018405457958579063
26.0,0.017795387655496597
28.0,0.017174292355775833
30.0,0.01660524681210518
32.0,0.01608177274465561
36.0,0.015257947146892548
40.0,0.014586301520466805
44.0,0.01394052617251873
48.0,0.013139783404767513
52.0,0.012319241650402546
56.0,0.0115357032045722
60.0,0.01086835190653801
64.0,0.01036771573126316
72.0,0.010202514007687569
80.0,0.009850307367742062
88.0,0.008668188005685806
96.0,0.0077865771017968655
104.0,0.007423059549182653
112.0,0.00711792940273881
120.0,0.006947074551135302
128.0,0.006762079428881407
144.0,0.005665947217494249
160.0,0.00408365111798048
176.0,0.003255155635997653
192.0,0.003186531364917755
208.0,0.0028604837134480476
224.0,0.001830857596360147
240.0,0.001050603692419827
256.0,0.0010847300291061401
288.0,0.0005689591052941978
320.0,-0.00019673809583764523
352.0,-0.0007161051617003977
384.0,-0.0018562593031674623
416.0,-0.0020954806823283434
448.0,-0.0027706227265298367
480.0,-0.0024373421911150217
512.0,-0.002596270991489291
576.0,-0.001956003485247493
640.0,-0.0012316537322476506
704.0,0.00029499814263544977
768.0,0.0008625002228654921
832.0,0.0016401639441028237
896.0,-4.0994491428136826e-05
960.0,-0.0014974084915593266
1024.0,-0.0020952883642166853
1152.0,-0.0032478717621415854
1280.0,-0.00024023953301366419
1408.0,-0.0019133262103423476
1536.0,-0.0002963030128739774
1664.0,-0.0011297072051092982
1792.0,0.0006118665914982557
1920.0,0.0028974241577088833
2048.0,0.001913392567075789
2304.0,0.00023271224927157164
2560.0,-0.0008029367891140282
2816.0,-0.0008034840575419366
3072.0,-0.0005141501897014678
3328.0,0.001369693549349904
3584.0,0.0011074417270720005
3840.0,-0.0016523465747013688
4096.0,-0.000178408736246638
4608.0,-0.004962586797773838
5120.0,0.0012994844000786543
5632.0,0.0028561451472342014
6144.0,-0.0006610210402868688
6656.0,-0.005101267248392105
7168.0,0.002148498548194766
7680.0,0.0016265826998278499
8192.0,-0.0018536156276240945
end
