version,3.0
numOfCh,1
type,point
parent_name,34a6d_0dot4-0dot1
ch_type,1_1
kcount,1
numberNandB,1
brightnessNandB,1
carpet pos,0
pc,0
Time (ms),CH1 Auto-Correlation
1.0,0.03302468731999397
2.0,0.03196866437792778
3.0,0.030965538695454597
4.0,0.030032528564333916
5.0,0.02913709171116352
6.0,0.02829708904027939
7.0,0.027485009282827377
8.0,0.026758724823594093
9.0,0.026055581867694855
10.0,0.02537843957543373
11.0,0.024759948253631592
12.0,0.024180186912417412
13.0,0.02363264560699463
14.0,0.023097874596714973
15.0,0.022572942078113556
16.0,0.022072579711675644
18.0,0.02114260569214821
20.0,0.02027091383934021
22.0,0.019505105912685394
24.0,0.018828487023711205
26.0,0.018198667094111443
28.0,0.017549172043800354
30.0,0.016886863857507706
32.0,0.016219796612858772
36.0,0.015091415494680405
40.0,0.014203323051333427
44.0,0.013442489318549633
48.0,0.012786176055669785
52.0,0.012298005633056164
56.0,0.011854380369186401
60.0,0.011365204118192196
64.0,0.010965085588395596
72.0,0.01043082494288683
80.0,0.010214672423899174
88.0,0.01013777032494545
96.0,0.009976515546441078
104.0,0.009567816741764545
112.0,0.008790459483861923
120.0,0.007929949089884758
128.0,0.007424207869917154
144.0,0.006906907539814711
160.0,0.006961246952414513
176.0,0.0059998612850904465
192.0,0.005148121155798435
208.0,0.004550549201667309
224.0,0.004776000045239925
240.0,0.004961141385138035
256.0,0.00544315529987216
288.0,0.0042943889275193214
320.0,0.0024532037787139416
352.0,0.0006285765557549894
384.0,0.0001695824903436005
416.0,0.0005562275764532387
448.0,0.001184519729577005
480.0,0.0007087619160301983
512.0,0.0009769630851224065
576.0,-0.0006622296059504151
640.0,-0.0008517559035681188
704.0,-0.0002708303218241781
768.0,0.00034330206108279526
832.0,-0.00038864437374286354
896.0,0.0001112970057874918
960.0,0.0008183949976228178
1024.0,0.0007308856584131718
1152.0,0.0016987656708806753
1280.0,0.001346185919828713
1408.0,0.0002736590395215899
1536.0,0.00043964129872620106
1664.0,-0.0003227796405553818
1792.0,-0.0003202247025910765
1920.0,-0.0018028020858764648
2048.0,-0.0018739677034318447
2304.0,-0.001058432855643332
2560.0,-0.001285205944441259
2816.0,-0.0008870697347447276
3072.0,0.00033872126368805766
3328.0,-0.0028411452658474445
3584.0,-0.0033644831273704767
3840.0,-0.002626200672239065
4096.0,-0.0003596229653339833
4608.0,0.00016511339345015585
5120.0,-0.000811574689578265
5632.0,0.0004023111832793802
6144.0,-0.0011498556705191731
6656.0,5.088726902613416e-05
7168.0,0.003750261850655079
7680.0,0.00012787083687726408
8192.0,0.0026060936506837606
end
