version,3.0
numOfCh,1
type,point
parent_name,34a6d_0dot4-0dot1
ch_type,1_1
kcount,1
numberNandB,1
brightnessNandB,1
carpet pos,0
pc,0
Time (ms),CH1 Auto-Correlation
1.0,0.03012493997812271
2.0,0.02906639128923416
3.0,0.028069140389561653
4.0,0.027124011889100075
5.0,0.02624950371682644
6.0,0.02541354112327099
7.0,0.024591824039816856
8.0,0.023801425471901894
9.0,0.023042362183332443
10.0,0.022332964465022087
11.0,0.021702535450458527
12.0,0.02108132652938366
13.0,0.020488545298576355
14.0,0.019953612238168716
15.0,0.019429124891757965
16.0,0.01891961321234703
18.0,0.018070917576551437
20.0,0.017302023246884346
22.0,0.01664421334862709
24.0,0.016121312975883484
26.0,0.015694070607423782
28.0,0.015234872698783875
30.0,0.014811216853559017
32.0,0.014426467940211296
36.0,0.013716424815356731
40.0,0.013158447109162807
44.0,0.012620258145034313
48.0,0.012140220031142235
52.0,0.011700188741087914
56.0,0.011327691376209259
60.0,0.010924168862402439
64.0,0.010466861538589
72.0,0.009675671346485615
80.0,0.009226422756910324
88.0,0.008725515566766262
96.0,0.008374614641070366
104.0,0.007922427728772163
112.0,0.007181862369179726
120.0,0.00647459551692009
128.0,0.005766208283603191
144.0,0.005413612816482782
160.0,0.005477713420987129
176.0,0.004745089448988438
192.0,0.004180283285677433
208.0,0.003165719797834754
224.0,0.0020396888721734285
240.0,0.0016682991990819573
256.0,0.0015978181036189198
288.0,0.0013191231992095709
320.0,0.0018730366136878729
352.0,0.002296445658430457
384.0,0.002403659513220191
416.0,0.0016129554715007544
448.0,0.0017342008650302887
480.0,0.002615817356854677
512.0,0.0035320748575031757
576.0,0.0025651094038039446
640.0,0.0007029508706182241
704.0,0.0010595127241685987
768.0,0.0007959049544297159
832.0,0.0009574690484441817
896.0,0.001382760819979012
960.0,0.0009236897458322346
1024.0,0.0004517959605436772
1152.0,0.002330795396119356
1280.0,0.001687506097368896
1408.0,-0.0010742605663836002
1536.0,-0.0030606710352003574
1664.0,-0.0006428027991205454
1792.0,0.0008873680490069091
1920.0,0.0006199275376275182
2048.0,0.0011039956007152796
2304.0,-0.002821379341185093
2560.0,-0.003312594024464488
2816.0,-0.002159444149583578
3072.0,0.000647560169454664
3328.0,-0.000169625214766711
3584.0,-0.002349694026634097
3840.0,0.0017401168588548899
4096.0,-2.849931661330629e-05
4608.0,9.784441499505192e-05
5120.0,0.0022933860309422016
5632.0,0.0002877331280615181
6144.0,0.001290457439608872
6656.0,-0.000343783525750041
7168.0,-0.0016441912157461047
7680.0,-0.004558683838695288
8192.0,-0.0033663567155599594
end
