version,3.0
numOfCh,1
type,point
parent_name,34a6d_0dot4-0dot1
ch_type,1_1
kcount,1
numberNandB,1
brightnessNandB,1
carpet pos,0
pc,0
Time (ms),CH1 Auto-Correlation
1.0,0.02821858786046505
2.0,0.027117842808365822
3.0,0.026139777153730392
4.0,0.0252044927328825
5.0,0.024320045486092567
6.0,0.023527009412646294
7.0,0.022798648104071617
8.0,0.022135423496365547
9.0,0.021471835672855377
10.0,0.02080429717898369
11.0,0.020127762109041214
12.0,0.019483407959342003
13.0,0.01888105645775795
14.0,0.018327921628952026
15.0,0.01779157668352127
16.0,0.017292123287916183
18.0,0.016394561156630516
20.0,0.01561986468732357
22.0,0.014869802631437778
24.0,0.014173367992043495
26.0,0.013586953282356262
28.0,0.013095480389893055
30.0,0.01268951315432787
32.0,0.012265726923942566
36.0,0.011563730426132679
40.0,0.010958272963762283
44.0,0.01045638881623745
48.0,0.009886408224701881
52.0,0.009247487410902977
56.0,0.008660390973091125
60.0,0.008066531270742416
64.0,0.007616307120770216
72.0,0.007125372067093849
80.0,0.006553418934345245
88.0,0.006167992018163204
96.0,0.00570562994107604
104.0,0.00538075715303421
112.0,0.004924818407744169
120.0,0.004482160322368145
128.0,0.004120844881981611
144.0,0.0041414545848965645
160.0,0.0040067220106720924
176.0,0.003941399045288563
192.0,0.0036020579282194376
208.0,0.003468687878921628
224.0,0.003629035782068968
240.0,0.0028913216665387154
256.0,0.0018522967584431171
288.0,0.0007917050970718265
320.0,0.0011847062269225717
352.0,0.0014423439279198647
384.0,0.00049809948541224
416.0,-0.00036514122621156275
448.0,0.000600719649810344
480.0,0.0008977673714980483
512.0,0.0008264087955467403
576.0,0.0015057987766340375
640.0,6.687247514491901e-05
704.0,0.001321343588642776
768.0,0.001863935380242765
832.0,0.001657965243794024
896.0,-0.0001782571926014498
960.0,-0.0014264446217566729
1024.0,-9.355787187814713e-05
1152.0,0.0005866581341251731
1280.0,0.0010800568852573633
1408.0,0.0014968508621677756
1536.0,0.0025032961275428534
1664.0,0.0021846096497029066
1792.0,0.0019566966220736504
1920.0,0.0019663439597934484
2048.0,0.0005664627533406019
2304.0,-0.00020519060490187258
2560.0,-0.0008195867412723601
2816.0,0.0010102770756930113
3072.0,0.0018508038483560085
3328.0,0.0012306583812460303
3584.0,0.001173609052784741
3840.0,0.0008058524690568447
4096.0,-0.0010127953719347715
4608.0,0.00025421366444788873
5120.0,0.000779501220677048
5632.0,-0.00029732135590165854
6144.0,0.00094032590277493
6656.0,-0.0003744600107893348
7168.0,-0.003897604765370488
7680.0,-0.0023313320707529783
8192.0,-0.0011762302601709962
end
