version,3.0
numOfCh,1
type,point
parent_name,34a6d_0dot4-0dot1
ch_type,1_1
kcount,1
numberNandB,1
brightnessNandB,1
carpet pos,0
pc,0
Time (ms),CH1 Auto-Correlation
1.0,0.03312898427248001
2.0,0.03210984915494919
3.0,0.031127749010920525
4.0,0.03021409921348095
5.0,0.029360085725784302
6.0,0.028536692261695862
7.0,0.027780752629041672
8.0,0.027081485837697983
9.0,0.02637498266994953
10.0,0.02570967748761177
11.0,0.025089621543884277
12.0,0.024529047310352325
13.0,0.023969512432813644
14.0,0.023437384516000748
15.0,0.022929338738322258
16.0,0.022456131875514984
18.0,0.021571805700659752
20.0,0.020739851519465446
22.0,0.019944192841649055
24.0,0.019228093326091766
26.0,0.018546558916568756
28.0,0.017896413803100586
30.0,0.017287209630012512
32.0,0.016682332381606102
36.0,0.01557102520018816
40.0,0.014603286981582642
44.0,0.013809898868203163
48.0,0.013144517317414284
52.0,0.012475828640162945
56.0,0.01200137473642826
60.0,0.011768191121518612
64.0,0.011556402780115604
72.0,0.010937865823507309
80.0,0.010154401883482933
88.0,0.009371306747198105
96.0,0.008818482048809528
104.0,0.00838876236230135
112.0,0.007660350762307644
120.0,0.006710955407470465
128.0,0.00605966430157423
144.0,0.004744332283735275
160.0,0.0034153677988797426
176.0,0.002907870104536414
192.0,0.002677180105820298
208.0,0.002219695132225752
224.0,0.0016685114242136478
240.0,0.0013980056392028928
256.0,0.0010712555376812816
288.0,0.0022822695318609476
320.0,0.0027345179114490747
352.0,0.0025818406138569117
384.0,0.002447166247293353
416.0,0.002723709912970662
448.0,0.0020416814368218184
480.0,0.0020908380392938852
512.0,0.0018045766046270728
576.0,-2.042577398242429e-05
640.0,-0.0006533076521009207
704.0,-6.249763100640848e-05
768.0,0.0013223779387772083
832.0,0.0023601045832037926
896.0,0.002594185061752796
960.0,-4.6231562009779736e-05
1024.0,-0.0007724061142653227
1152.0,-0.0010933080920949578
1280.0,-0.0007339240401051939
1408.0,-0.0006410111673176289
1536.0,-0.0006542521296069026
1664.0,-0.002490958198904991
1792.0,-0.0016769631765782833
1920.0,-0.0022467118687927723
2048.0,-0.0024198475293815136
2304.0,-0.0004932723823003471
2560.0,0.001284990576095879
2816.0,0.00018331997853238136
3072.0,-0.003358048154041171
3328.0,-0.004247745499014854
3584.0,-0.0005942820571362972
3840.0,-0.00028023397317156196
4096.0,0.0003587583196349442
4608.0,0.002054043347015977
5120.0,0.0016559134237468243
5632.0,0.000910268456209451
6144.0,0.0029184569139033556
6656.0,0.0014220018638297915
7168.0,-0.0011113579384982586
7680.0,-0.003535038558766246
8192.0,-0.0051720598712563515
end
