version,3.0
numOfCh,1
type,point
parent_name,34a6d_0dot4-0dot1
ch_type,1_1
kcount,1
numberNandB,1
brightnessNandB,1
carpet pos,0
pc,0
Time (ms),CH1 Auto-Correlation
1.0,0.030636684969067574
2.0,0.02954678051173687
3.0,0.028517941012978554
4.0,0.02759270742535591
5.0,0.026704806834459305
6.0,0.025859234854578972
7.0,0.02505831979215145
8.0,0.02431030012667179
9.0,0.023626768961548805
10.0,0.022968776524066925
11.0,0.022352706640958786
12.0,0.021764423698186874
13.0,0.021192798390984535
14.0,0.020663196220993996
15.0,0.02016683667898178
16.0,0.01971275918185711
18.0,0.018927358090877533
20.0,0.018221396952867508
22.0,0.0175390113145113
24.0,0.016926251351833344
26.0,0.016367141157388687
28.0,0.015929890796542168
30.0,0.015544659458100796
32.0,0.015251118689775467
36.0,0.014656398445367813
40.0,0.014071274548768997
44.0,0.013547136448323727
48.0,0.012999972328543663
52.0,0.012432923540472984
56.0,0.011867879889905453
60.0,0.011296425946056843
64.0,0.010722586885094643
72.0,0.009350044652819633
80.0,0.008526251651346684
88.0,0.00800076499581337
96.0,0.007043682038784027
104.0,0.006379543803632259
112.0,0.005517500452697277
120.0,0.005020108539611101
128.0,0.00451270118355751
144.0,0.003361992072314024
160.0,0.0024297162890434265
176.0,0.002147676656022668
192.0,0.0019257022067904472
208.0,0.0013491454301401973
224.0,0.0013442585477605462
240.0,0.0018903263844549656
256.0,0.0022939606569707394
288.0,0.0013025433290749788
320.0,0.0006667323177680373
352.0,-1.9655230062198825e-05
384.0,-0.0004154024936724454
416.0,-0.00041097504436038435
448.0,-3.985891817137599e-05
480.0,0.0005597737617790699
512.0,0.0013328550849109888
576.0,0.002253761747851968
640.0,0.002677277196198702
704.0,0.0015288034919649363
768.0,0.001827884349040687
832.0,0.000537335523404181
896.0,-0.00179605174344033
960.0,-0.003523053601384163
1024.0,-0.0032709429506212473
1152.0,-0.0016066917451098561
1280.0,-0.002725904807448387
1408.0,-0.002427714643999934
1536.0,8.951915515353903e-05
1664.0,0.00018363125855103135
1792.0,0.0002700666955206543
1920.0,-0.0025568981654942036
2048.0,-0.00164891523309052
2304.0,-0.0007918822229839861
2560.0,-0.00280897063203156
2816.0,-0.0013130479492247105
3072.0,-0.002076004398986697
3328.0,0.0005881878896616399
3584.0,-0.0009097762522287667
3840.0,0.002002299064770341
4096.0,0.0014688397059217095
4608.0,0.0008567863260395825
5120.0,0.0007519255159422755
5632.0,0.0004132753820158541
6144.0,-0.001905943499878049
6656.0,-0.003435709746554494
7168.0,-0.00035620632115751505
7680.0,0.0019738406408578157
8192.0,0.001993580488488078
end
