version,3.0
numOfCh,1
type,point
parent_name,34a6d_0dot4-0dot1
ch_type,1_1
kcount,1
numberNandB,1
brightnessNandB,1
carpet pos,0
pc,0
Time (ms),CH1 Auto-Correlation
1.0,0.03251900151371956
2.0,0.03144393488764763
3.0,0.03042888268828392
4.0,0.02949710376560688
5.0,0.02861655503511429
6.0,0.027769776061177254
7.0,0.02697194740176201
8.0,0.026237597689032555
9.0,0.025533687323331833
10.0,0.02486688643693924
11.0,0.024206701666116714
12.0,0.023604029789566994
13.0,0.02301557920873165
14.0,0.022445855662226677
15.0,0.021907024085521698
16.0,0.02140522561967373
18.0,0.02046307735145092
20.0,0.019511442631483078
22.0,0.018594736233353615
24.0,0.017759377136826515
26.0,0.016987517476081848
28.0,0.01623712293803692
30.0,0.015464356169104576
32.0,0.014704418368637562
36.0,0.013479909859597683
40.0,0.012507750652730465
44.0,0.011672639288008213
48.0,0.01088685356080532
52.0,0.010426394641399384
56.0,0.010151204653084278
60.0,0.010011596605181694
64.0,0.009883512742817402
72.0,0.009874500334262848
80.0,0.009754475206136703
88.0,0.009178513661026955
96.0,0.008432404138147831
104.0,0.007545446045696735
112.0,0.006231856532394886
120.0,0.005043318960815668
128.0,0.004375210031867027
144.0,0.003713342361152172
160.0,0.003790117334574461
176.0,0.0036318849306553602
192.0,0.0026562761049717665
208.0,0.0023241345770657063
224.0,0.0028609847649931908
240.0,0.0036275433376431465
256.0,0.003331239800900221
288.0,0.0021792009938508272
320.0,0.002376185031607747
352.0,0.0012317891232669353
384.0,0.0002828019205480814
416.0,0.0008376329205930233
448.0,0.0009630153072066605
480.0,0.0009011158836074173
512.0,0.0009370518382638693
576.0,0.001092524966225028
640.0,0.0009798458777368069
704.0,0.00032012167503125966
768.0,-0.0018910293001681566
832.0,-0.0027522179298102856
896.0,-0.0026589815970510244
960.0,-0.0019173822365701199
1024.0,-0.0028576808981597424
1152.0,-0.0005601043230853975
1280.0,-0.0024016755633056164
1408.0,-0.00044717435957863927
1536.0,-0.0003754594945348799
1664.0,0.00010805709462147206
1792.0,0.0022727223113179207
1920.0,0.0024852068163454533
2048.0,0.0019333221716806293
2304.0,0.0018846914172172546
2560.0,0.0023174555972218513
2816.0,0.00044644702575169504
3072.0,-0.0004912296426482499
3328.0,-0.001962091075256467
3584.0,-0.003772530471906066
3840.0,-0.0012360624969005585
4096.0,-0.00047650322085246444
4608.0,0.0024435175582766533
5120.0,0.0008102780557237566
5632.0,-0.0024602024350315332
6144.0,-0.0013573404867202044
6656.0,0.00047919145436026156
7168.0,-0.0010272867511957884
7680.0,-0.0017940182005986571
8192.0,-0.003408752614632249
end
