version,3.0
numOfCh,1
type,point
parent_name,34a6d_0dot4-0dot1
ch_type,1_1
kcount,1
numberNandB,1
brightnessNandB,1
carpet pos,0
pc,0
Time (ms),CH1 Auto-Correlation
1.0,0.029595836997032166
2.0,0.028527380898594856
3.0,0.02753370627760887
4.0,0.02660517767071724
5.0,0.025739509612321854
6.0,0.024947302415966988
7.0,0.0242046806961298
8.0,0.023519352078437805
9.0,0.022898923605680466
10.0,0.022318171337246895
11.0,0.021782858297228813
12.0,0.021274277940392494
13.0,0.02075759507715702
14.0,0.020301319658756256
15.0,0.01988687738776207
16.0,0.019482310861349106
18.0,0.018676571547985077
20.0,0.017908290028572083
22.0,0.017182666808366776
24.0,0.016476845368742943
26.0,0.01578051969408989
28.0,0.015125184319913387
30.0,0.014553786255419254
32.0,0.01402305532246828
36.0,0.013116990216076374
40.0,0.012519821524620056
44.0,0.011862499639391899
48.0,0.011079075746238232
52.0,0.01023146789520979
56.0,0.00954353529959917
60.0,0.00901117455214262
64.0,0.00858346652239561
72.0,0.007702226750552654
80.0,0.006962683983147144
88.0,0.006503121927380562
96.0,0.006128009874373674
104.0,0.005786498077213764
112.0,0.0055475495755672455
120.0,0.005038957577198744
128.0,0.004611588083207607
144.0,0.0040742442943155766
160.0,0.003052575746551156
176.0,0.0021315496414899826
192.0,0.0020932056941092014
208.0,0.00240215752273798
224.0,0.0026211822405457497
240.0,0.0027359402738511562
256.0,0.002618425292894244
288.0,0.0021738987416028976
320.0,0.0017023553373292089
352.0,0.0011387838749215007
384.0,0.002090317429974675
416.0,0.0010754087707027793
448.0,0.00044661443098448217
480.0,0.0006811178755015135
512.0,-3.031862070201896e-05
576.0,-0.0008293299470096827
640.0,-0.00048533466178923845
704.0,-0.0011788710253313184
768.0,-0.0017888572765514255
832.0,-0.0021130982786417007
896.0,-0.001200677827000618
960.0,-0.001486928784288466
1024.0,-0.0025823451578617096
1152.0,-0.0029924053233116865
1280.0,-0.00315020140260458
1408.0,-0.0025843398179858923
1536.0,-0.0013638940872624516
1664.0,-0.00017019854567479342
1792.0,9.414445958100259e-05
1920.0,0.0004908308619633317
2048.0,0.001462846645154059
2304.0,0.0006472305976785719
2560.0,0.0009221778018400073
2816.0,0.0005269788671284914
3072.0,5.651871833833866e-05
3328.0,0.0003090477257501334
3584.0,-5.747691830038093e-05
3840.0,-0.0019725700840353966
4096.0,0.0007659466937184334
4608.0,0.0010508571285754442
5120.0,-0.0009515541605651379
5632.0,-0.000735086330678314
6144.0,0.0015873246593400836
6656.0,0.0002612448879517615
7168.0,-0.0034982103388756514
7680.0,-0.0005085738375782967
8192.0,0.0030218546744436026
end
