version,3.0
numOfCh,1
type,point
parent_name,34a6d_0dot4-0dot1
ch_type,1_1
kcount,1
numberNandB,1
brightnessNandB,1
carpet pos,0
pc,0
Time (ms),CH1 Auto-Correlation
1.0,0.03381097689270973
2.0,0.03274046629667282
3.0,0.03170764446258545
4.0,0.03072264976799488
5.0,0.029779935255646706
6.0,0.02887851744890213
7.0,0.028042949736118317
8.0,0.027270302176475525
9.0,0.026524510234594345
10.0,0.02583049051463604
11.0,0.02516765333712101
12.0,0.02454500086605549
13.0,0.023938007652759552
14.0,0.02336830087006092
15.0,0.022822022438049316
16.0,0.022318866103887558
18.0,0.021382540464401245
20.0,0.020583752542734146
22.0,0.01988239586353302
24.0,0.019265644252300262
26.0,0.0186722744256258
28.0,0.018080713227391243
30.0,0.017531313002109528
32.0,0.017008347436785698
36.0,0.016064686700701714
40.0,0.015148576349020004
44.0,0.014226374216377735
48.0,0.013312610797584057
52.0,0.012500081211328506
56.0,0.011961194686591625
60.0,0.011381600983440876
64.0,0.010899214074015617
72.0,0.00993323139846325
80.0,0.009421475231647491
88.0,0.008936924859881401
96.0,0.008677974343299866
104.0,0.008337567560374737
112.0,0.00812715943902731
120.0,0.007872809655964375
128.0,0.007384143304079771
144.0,0.006515915971249342
160.0,0.005933020263910294
176.0,0.004535994492471218
192.0,0.0034463834017515182
208.0,0.0033028540201485157
224.0,0.003422519424930215
240.0,0.0028159816283732653
256.0,0.0022432892583310604
288.0,0.0020136202219873667
320.0,0.0008122208528220654
352.0,-0.0014441265957430005
384.0,-0.001298185670748353
416.0,-0.0003647109551820904
448.0,0.00019229536701459438
480.0,-8.54903701110743e-05
512.0,-0.000415151851484552
576.0,-0.0009274441399611533
640.0,-0.000983866979368031
704.0,-0.0012141200713813305
768.0,-0.002385188825428486
832.0,-0.0029630979988723993
896.0,-0.0027339975349605083
960.0,-0.0037577312905341387
1024.0,-0.0033815582282841206
1152.0,-0.0024995349813252687
1280.0,-0.004235021770000458
1408.0,-0.003003517398610711
1536.0,-0.0012214917223900557
1664.0,0.0016355003463104367
1792.0,0.0006859148852527142
1920.0,-0.00011253354023210704
2048.0,0.0014263722114264965
2304.0,0.0005936479428783059
2560.0,-3.098630622844212e-05
2816.0,0.0007620840333402157
3072.0,-0.0013934330781921744
3328.0,-0.0030226854141801596
3584.0,-0.0006958726444281638
3840.0,0.000831090786959976
4096.0,0.0010277433320879936
4608.0,-0.00010934978490695357
5120.0,-0.0011831511510536075
5632.0,-0.0002294663427164778
6144.0,0.0017451426247134805
6656.0,0.0006717088399454951
7168.0,-0.0009456418338231742
7680.0,-0.003164709312841296
8192.0,0.0024147112853825092
end
