version,3.0
numOfCh,1
type,point
parent_name,34a6d_0dot4-0dot1
ch_type,1_1
kcount,1
numberNandB,1
brightnessNandB,1
carpet pos,0
pc,0
Time (ms),CH1 Auto-Correlation
1.0,0.028102312237024307
2.0,0.027037374675273895
3.0,0.026065237820148468
4.0,0.02519678883254528
5.0,0.024388916790485382
6.0,0.02363661304116249
7.0,0.022942909970879555
8.0,0.022303804755210876
9.0,0.021689077839255333
10.0,0.021129706874489784
11.0,0.020542742684483528
12.0,0.019999291747808456
13.0,0.019485950469970703
14.0,0.019023383036255836
15.0,0.018581431359052658
16.0,0.01816636510193348
18.0,0.017446070909500122
20.0,0.01671275869011879
22.0,0.016039390116930008
24.0,0.015396703965961933
26.0,0.014800800941884518
28.0,0.014251125045120716
30.0,0.013790187425911427
32.0,0.013386597856879234
36.0,0.012571609579026699
40.0,0.011742040514945984
44.0,0.010875058360397816
48.0,0.01006709598004818
52.0,0.009375839494168758
56.0,0.008801938965916634
60.0,0.008307925425469875
64.0,0.00789958331733942
72.0,0.007082911673933268
80.0,0.006429446395486593
88.0,0.005955519154667854
96.0,0.005780171137303114
104.0,0.005893884226679802
112.0,0.005801791790872812
120.0,0.005369005724787712
128.0,0.004873419646173716
144.0,0.004105829633772373
160.0,0.0033813652116805315
176.0,0.0027607660740613937
192.0,0.002214853186160326
208.0,0.0017412489978596568
224.0,0.0007977106724865735
240.0,-0.00014721561456099153
256.0,-0.0002094519295496866
288.0,-0.00023574165243189782
320.0,0.000695926311891526
352.0,0.0007142270333133638
384.0,0.0007579733501188457
416.0,0.0005022941622883081
448.0,-0.0009247592533938587
480.0,-0.0009812801145017147
512.0,-0.0008456249488517642
576.0,-0.0019712005741894245
640.0,-0.0016577800270169973
704.0,-9.748939191922545e-05
768.0,0.0003533294366206974
832.0,0.0007896791212260723
896.0,0.0011996665270999074
960.0,0.00016833262634463608
1024.0,0.00037916001747362316
1152.0,0.0013463636860251427
1280.0,-0.0005357692716643214
1408.0,-0.0009791634511202574
1536.0,-0.002572614699602127
1664.0,-0.002650256035849452
1792.0,-0.0010262090945616364
1920.0,0.0004852220881730318
2048.0,7.332521636271849e-05
2304.0,0.0001232430659001693
2560.0,-0.0015890365466475487
2816.0,-0.0032238985877484083
3072.0,-0.00019178190268576145
3328.0,0.0010253982618451118
3584.0,-0.00046906035277061164
3840.0,-0.0005203369655646384
4096.0,0.00030348123982548714
4608.0,0.0003447732306085527
5120.0,0.0024842359125614166
5632.0,-0.0005166995106264949
6144.0,-0.0006111214170232415
6656.0,-0.0020776321180164814
7168.0,-0.00043970352271571755
7680.0,-0.001954865176230669
8192.0,0.002394511364400387
end
