version,3.0
numOfCh,1
type,point
parent_name,34a6d_0dot4-0dot1
ch_type,1_1
kcount,1
numberNandB,1
brightnessNandB,1
carpet pos,0
pc,0
Time (ms),CH1 Auto-Correlation
1.0,0.029233062639832497
2.0,0.028213173151016235
3.0,0.027268892154097557
4.0,0.02636628970503807
5.0,0.025483816862106323
6.0,0.02467026188969612
7.0,0.02389664202928543
8.0,0.023165639489889145
9.0,0.02246534638106823
10.0,0.02179528959095478
11.0,0.02114681713283062
12.0,0.02053075283765793
13.0,0.01996312104165554
14.0,0.019466904923319817
15.0,0.018992608413100243
16.0,0.01855538971722126
18.0,0.017750244587659836
20.0,0.01705431565642357
22.0,0.016399595886468887
24.0,0.015821658074855804
26.0,0.015272962860763073
28.0,0.014749682508409023
30.0,0.01423688791692257
32.0,0.013718144036829472
36.0,0.012704343535006046
40.0,0.011701405048370361
44.0,0.010947787202894688
48.0,0.01039188727736473
52.0,0.009924771264195442
56.0,0.009549845941364765
60.0,0.009217249229550362
64.0,0.008759748190641403
72.0,0.007726424373686314
80.0,0.007436693180352449
88.0,0.007359901908785105
96.0,0.006915103178471327
104.0,0.006327732466161251
112.0,0.005887167062610388
120.0,0.005291594658046961
128.0,0.004579176660627127
144.0,0.004141739569604397
160.0,0.0036566341295838356
176.0,0.0035625735763460398
192.0,0.002926439046859741
208.0,0.0023368264082819223
224.0,0.002373948460444808
240.0,0.002461808966472745
256.0,0.0026874311733990908
288.0,0.0031711128540337086
320.0,0.003435072721913457
352.0,0.0020926629658788443
384.0,0.0007616914226673543
416.0,-0.00013332041271496564
448.0,-0.0005151627701707184
480.0,0.00037387842894531786
512.0,-4.162702680332586e-05
576.0,0.00013305996253620833
640.0,0.0011989511549472809
704.0,0.00038893648888915777
768.0,2.939190380857326e-05
832.0,0.0007652420899830759
896.0,-0.00017911581380758435
960.0,-0.0012874637031927705
1024.0,-0.0017727918457239866
1152.0,-0.0016666526207700372
1280.0,-0.0003908064099960029
1408.0,0.0015209057601168752
1536.0,-0.00069196562981233
1664.0,-0.0008786640828475356
1792.0,-0.0005539542180486023
1920.0,-0.0010998374782502651
2048.0,-0.0014499773969873786
2304.0,-0.0016720563871785998
2560.0,-0.0012135941069573164
2816.0,0.00019094013259746134
3072.0,0.0006861456204205751
3328.0,0.0022282504942268133
3584.0,-0.0012695982586592436
3840.0,-0.000639300502371043
4096.0,0.0018795423675328493
4608.0,0.0010834350250661373
5120.0,-0.0009874014649540186
5632.0,-0.001157255843281746
6144.0,-0.0006805917946621776
6656.0,0.0009743278496898711
7168.0,0.0025127988774329424
7680.0,-0.004053205251693726
8192.0,-0.0021914858371019363
end
