version,3.0
numOfCh,1
type,point
parent_name,34a6d_0dot4-0dot1
ch_type,1_1
kcount,1
numberNandB,1
brightnessNandB,1
carpet pos,0
pc,0
Time (ms),CH1 Auto-Correlation
1.0,0.027863333001732826
2.0,0.02675609476864338
3.0,0.02571524865925312
4.0,0.02473156526684761
5.0,0.023809222504496574
6.0,0.022962763905525208
7.0,0.022208495065569878
8.0,0.021523907780647278
9.0,0.02091045118868351
10.0,0.02026979997754097
11.0,0.019649561494588852
12.0,0.0190743338316679
13.0,0.018499694764614105
14.0,0.0179902371019125
15.0,0.017506089061498642
16.0,0.017040271311998367
18.0,0.01617271825671196
20.0,0.015342623926699162
22.0,0.014531171880662441
24.0,0.013829896226525307
26.0,0.01322323177009821
28.0,0.012644258327782154
30.0,0.01210259459912777
32.0,0.011625564657151699
36.0,0.010823971591889858
40.0,0.010056869126856327
44.0,0.009280785918235779
48.0,0.008466700091958046
52.0,0.007773738354444504
56.0,0.007132374681532383
60.0,0.006682123057544231
64.0,0.006416674237698317
72.0,0.005972405429929495
80.0,0.00535398256033659
88.0,0.004776609130203724
96.0,0.004381489008665085
104.0,0.004056847654283047
112.0,0.0036828117445111275
120.0,0.003211009781807661
128.0,0.002671098569408059
144.0,0.0024786368012428284
160.0,0.0022418026346713305
176.0,0.0017335268203169107
192.0,0.0016637078952044249
208.0,0.0013912657741457224
224.0,0.001316896523348987
240.0,0.001284708734601736
256.0,0.0005683965282514691
288.0,0.0002415096969343722
320.0,-0.00025060356711037457
352.0,-0.0013773463433608413
384.0,-0.0026111288461834192
416.0,-0.0019080647034570575
448.0,-0.0006119171157479286
480.0,-9.26021602936089e-05
512.0,-7.800715684425086e-05
576.0,-0.0006631002761423588
640.0,-0.00023173075169324875
704.0,0.0007735726539976895
768.0,0.0012796864612028003
832.0,0.0003463039465714246
896.0,-0.000582924927584827
960.0,-0.000705842103343457
1024.0,-0.0015661922516301274
1152.0,-0.0009518152219243348
1280.0,-0.0007793566910549998
1408.0,-0.0007526089320890605
1536.0,-0.0011886180145666003
1664.0,0.0008702441700734198
1792.0,-0.00016503100050613284
1920.0,0.0008412126917392015
2048.0,-0.0003297697112429887
2304.0,0.00014695739082526416
2560.0,0.0012799645774066448
2816.0,-0.00048440718092024326
3072.0,-0.0022280309349298477
3328.0,-0.0009379965486004949
3584.0,-0.0003854061069432646
3840.0,0.0012668208219110966
4096.0,0.001771938637830317
4608.0,-0.00032115078647620976
5120.0,0.0014258809387683868
5632.0,-0.0003523436316754669
6144.0,-0.000588442082516849
6656.0,-0.001524743507616222
7168.0,-0.0004016361781395972
7680.0,0.00048331357538700104
8192.0,-0.003286398481577635
end
