version,3.0
numOfCh,1
type,point
parent_name,34a6d_0dot4-0dot1
ch_type,1_1
kcount,1
numberNandB,1
brightnessNandB,1
carpet pos,0
pc,0
Time (ms),CH1 Auto-Correlation
1.0,0.03560532629489899
2.0,0.03448126092553139
3.0,0.03339496627449989
4.0,0.032413531094789505
5.0,0.0315147265791893
6.0,0.030662503093481064
7.0,0.0298455823212862
8.0,0.02908671274781227
9.0,0.028368445113301277
10.0,0.02768915891647339
11.0,0.027040328830480576
12.0,0.026414182037115097
13.0,0.025756990537047386
14.0,0.025129035115242004
15.0,0.024569252505898476
16.0,0.02402740716934204
18.0,0.023052381351590157
20.0,0.022176874801516533
22.0,0.02132408879697323
24.0,0.020457759499549866
26.0,0.01961926929652691
28.0,0.01884309947490692
30.0,0.018150437623262405
32.0,0.017524776980280876
36.0,0.01647554337978363
40.0,0.015635360032320023
44.0,0.015011864714324474
48.0,0.014463149011135101
52.0,0.013840148225426674
56.0,0.013153520412743092
60.0,0.012496154755353928
64.0,0.011899004690349102
72.0,0.011057260446250439
80.0,0.009969239123165607
88.0,0.009059615433216095
96.0,0.008446370251476765
104.0,0.00807726476341486
112.0,0.008070752955973148
120.0,0.008500739000737667
128.0,0.008810533210635185
144.0,0.008662977255880833
160.0,0.00858854316174984
176.0,0.008812904357910156
192.0,0.009183797053992748
208.0,0.008889072574675083
224.0,0.007776025217026472
240.0,0.0073208133690059185
256.0,0.007380516733974218
288.0,0.006128989160060883
320.0,0.005459848325699568
352.0,0.004396415315568447
384.0,0.003942486830055714
416.0,0.003241456812247634
448.0,0.0026345306541770697
480.0,0.0018776721553876996
512.0,0.0001615792280063033
576.0,0.0007932585431262851
640.0,0.0002737048489507288
704.0,-0.0017680764431133866
768.0,-0.0025747150648385286
832.0,-0.001195499673485756
896.0,-0.0031000508461147547
960.0,-0.0039033705834299326
1024.0,-0.0008365431567654014
1152.0,0.0003580005432013422
1280.0,0.0007557377102784812
1408.0,0.002893207361921668
1536.0,0.0027369651943445206
1664.0,0.006162662990391254
1792.0,0.0038958322256803513
1920.0,0.00236806133762002
2048.0,0.0010563485557213426
2304.0,-0.0008167033083736897
2560.0,-0.000998380477540195
2816.0,-0.00038473436143249273
3072.0,-0.0009451069054193795
3328.0,-0.0014073625206947327
3584.0,-0.001122180838137865
3840.0,-0.0024615575093775988
4096.0,-0.0017142118886113167
4608.0,-0.0023414227180182934
5120.0,-0.00099985022097826
5632.0,-0.005911510903388262
6144.0,-0.0037636335473507643
6656.0,-0.0010780447628349066
7168.0,-0.004389680456370115
7680.0,-0.003818836063146591
8192.0,0.0019018971361219883
end
