version,3.0
numOfCh,1
type,point
parent_name,34a6d_0dot4-0dot1
ch_type,1_1
kcount,1
numberNandB,1
brightnessNandB,1
carpet pos,0
pc,0
Time (ms),CH1 Auto-Correlation
1.0,0.029798325151205063
2.0,0.028785886242985725
3.0,0.027847085148096085
4.0,0.026979980990290642
5.0,0.026119722053408623
6.0,0.02530534937977791
7.0,0.024552009999752045
8.0,0.0238473042845726
9.0,0.023173298686742783
10.0,0.022540926933288574
11.0,0.021965723484754562
12.0,0.021407488733530045
13.0,0.02087264321744442
14.0,0.020353849977254868
15.0,0.01984790898859501
16.0,0.019371815025806427
18.0,0.018512794747948647
20.0,0.017774362117052078
22.0,0.017090603709220886
24.0,0.016501259058713913
26.0,0.015929168090224266
28.0,0.015379799529910088
30.0,0.014852335676550865
32.0,0.014316440559923649
36.0,0.013261182233691216
40.0,0.01243951078504324
44.0,0.011836773715913296
48.0,0.011191134341061115
52.0,0.010551107116043568
56.0,0.009933484718203545
60.0,0.009350776672363281
64.0,0.008801408112049103
72.0,0.007755711209028959
80.0,0.0067530847154557705
88.0,0.005658349487930536
96.0,0.004886157810688019
104.0,0.00429317494854331
112.0,0.003919408190995455
120.0,0.003757213009521365
128.0,0.003704738337546587
144.0,0.0034904424101114273
160.0,0.0037003415636718273
176.0,0.0037802630104124546
192.0,0.0044047217816114426
208.0,0.0038192651700228453
224.0,0.003287361701950431
240.0,0.002664160681888461
256.0,0.002469367114827037
288.0,0.0024056779220700264
320.0,0.001857201918028295
352.0,0.0012221746146678925
384.0,0.0011637437855824828
416.0,0.0010808190563693643
448.0,0.0003349611652083695
480.0,-2.1393312636064366e-05
512.0,-0.0002253059356007725
576.0,0.00020117333042435348
640.0,-0.00023049280571285635
704.0,0.0006649371352978051
768.0,0.0015566323418170214
832.0,0.001474840333685279
896.0,0.0014898601220920682
960.0,0.0018373721977695823
1024.0,0.002625995082780719
1152.0,7.052690489217639e-05
1280.0,0.0005054629291407764
1408.0,-9.176651656161994e-05
1536.0,-0.0004929206916131079
1664.0,-0.0008497206144966185
1792.0,-0.00032265394111163914
1920.0,-0.0023586887400597334
2048.0,0.001023519434966147
2304.0,-0.0011922980193048716
2560.0,-0.0028732335194945335
2816.0,-0.004506157245486975
3072.0,-0.001576018170453608
3328.0,-0.0014384074602276087
3584.0,-0.0011612990638241172
3840.0,-0.0004550969460979104
4096.0,0.0005433360929600894
4608.0,0.0011275116121396422
5120.0,0.0014839473878964782
5632.0,0.0012672393349930644
6144.0,0.0003214406897313893
6656.0,-0.0012053509708493948
7168.0,0.0007140625384636223
7680.0,-0.0017624410102143884
8192.0,-0.0003399561101105064
end
