version,3.0
numOfCh,1
type,point
parent_name,34a6d_0dot4-0dot1
ch_type,1_1
kcount,1
numberNandB,1
brightnessNandB,1
carpet pos,0
pc,0
Time (ms),CH1 Auto-Correlation
1.0,0.03400551527738571
2.0,0.03284268081188202
3.0,0.03178359195590019
4.0,0.030774004757404327
5.0,0.029795300215482712
6.0,0.028876425698399544
7.0,0.02804156392812729
8.0,0.0272270105779171
9.0,0.026470592245459557
10.0,0.02579716593027115
11.0,0.025100093334913254
12.0,0.024403635412454605
13.0,0.023750903084874153
14.0,0.02314949966967106
15.0,0.02258826419711113
16.0,0.02208133600652218
18.0,0.02113928459584713
20.0,0.0202633086591959
22.0,0.019412023946642876
24.0,0.018640944734215736
26.0,0.017959224060177803
28.0,0.017344733700156212
30.0,0.016766004264354706
32.0,0.016204651445150375
36.0,0.015216615982353687
40.0,0.014225338585674763
44.0,0.013394653797149658
48.0,0.012901821173727512
52.0,0.012587099336087704
56.0,0.012437200173735619
60.0,0.012405185028910637
64.0,0.012187547981739044
72.0,0.011987699195742607
80.0,0.011645306833088398
88.0,0.01078985258936882
96.0,0.009876321069896221
104.0,0.008825511671602726
112.0,0.0078442906960845
120.0,0.007119877729564905
128.0,0.0065851593390107155
144.0,0.006477288901805878
160.0,0.006906624883413315
176.0,0.006860059220343828
192.0,0.0056567504070699215
208.0,0.004860837012529373
224.0,0.0041341823525726795
240.0,0.004553383681923151
256.0,0.004553910810500383
288.0,0.004096291493624449
320.0,0.0029930786695331335
352.0,0.001672605867497623
384.0,-0.00023709048400633037
416.0,-0.000709033221937716
448.0,-0.002056904835626483
480.0,-0.0021948739886283875
512.0,-0.002258084947243333
576.0,-0.0020870130974799395
640.0,-0.0021667638793587685
704.0,-0.002673086244612932
768.0,-0.0018872602377086878
832.0,-0.0017649761866778135
896.0,-0.00183112861122936
960.0,-0.003056105924770236
1024.0,-0.004276400897651911
1152.0,-0.003335491055622697
1280.0,-0.0033146042842417955
1408.0,0.0003768433234654367
1536.0,0.0010577966459095478
1664.0,-0.0009660876239649951
1792.0,-0.0002093020302709192
1920.0,-0.0012868137564510107
2048.0,0.0008461159304715693
2304.0,0.0032993031200021505
2560.0,0.00066150858765468
2816.0,-0.0012757455697283149
3072.0,5.617177976091625e-06
3328.0,-0.00021859061962459236
3584.0,-0.0001177217491203919
3840.0,0.00038904836401343346
4096.0,0.0006963478517718613
4608.0,0.0006262318347580731
5120.0,-3.5688859497895464e-05
5632.0,-0.0008997290278784931
6144.0,-0.00033390289172530174
6656.0,0.0012426129542291164
7168.0,0.0007269505877047777
7680.0,-0.003879216266795993
8192.0,5.543518636841327e-05
end
