version,3.0
numOfCh,1
type,point
parent_name,34a6d_0dot4-0dot1
ch_type,1_1
kcount,1
numberNandB,1
brightnessNandB,1
carpet pos,0
pc,0
Time (ms),CH1 Auto-Correlation
1.0,0.03245650231838226
2.0,0.03136865794658661
3.0,0.030344123020768166
4.0,0.02936704084277153
5.0,0.028452713042497635
6.0,0.027577398344874382
7.0,0.026741690933704376
8.0,0.025937967002391815
9.0,0.025195879861712456
10.0,0.024464057758450508
11.0,0.023778531700372696
12.0,0.02313406579196453
13.0,0.022500937804579735
14.0,0.021891364827752113
15.0,0.02131199836730957
16.0,0.020762555301189423
18.0,0.01976579613983631
20.0,0.01889699697494507
22.0,0.018142545595765114
24.0,0.017468631267547607
26.0,0.016787545755505562
28.0,0.016193285584449768
30.0,0.01563468761742115
32.0,0.015102710574865341
36.0,0.014169984497129917
40.0,0.013377519324421883
44.0,0.012667899951338768
48.0,0.012094742618501186
52.0,0.011657356284558773
56.0,0.011321187019348145
60.0,0.011040669865906239
64.0,0.010681528598070145
72.0,0.009934834204614162
80.0,0.009323477745056152
88.0,0.00851411558687687
96.0,0.007932264357805252
104.0,0.007333175279200077
112.0,0.0071190460585057735
120.0,0.006943420507013798
128.0,0.006739696022123098
144.0,0.006542460527271032
160.0,0.006489085964858532
176.0,0.006311508826911449
192.0,0.0055200788192451
208.0,0.004258945118635893
224.0,0.003233758034184575
240.0,0.0025862150359898806
256.0,0.002056478289887309
288.0,0.002105133840814233
320.0,0.0014810767024755478
352.0,0.0011784101370722055
384.0,0.0004235238302499056
416.0,-0.00023168508778326213
448.0,-0.0007791529060341418
480.0,-0.0006261453381739557
512.0,0.000269177631707862
576.0,-0.0013088947162032127
640.0,-0.0012810976477339864
704.0,3.455995465628803e-05
768.0,-0.0013262182474136353
832.0,0.0004326131020206958
896.0,0.00097760115750134
960.0,-0.0012101548491045833
1024.0,-0.0016054528532549739
1152.0,-0.0022454741410911083
1280.0,-0.0010930083226412535
1408.0,-0.0004835968720726669
1536.0,0.0010563000105321407
1664.0,0.003209017449989915
1792.0,0.0031945512164384127
1920.0,0.002084770007058978
2048.0,0.001450975425541401
2304.0,-0.00021397889940999448
2560.0,0.0012075682170689106
2816.0,-9.943205077433959e-05
3072.0,-0.0027948569040745497
3328.0,-0.0009140608599409461
3584.0,0.0014282463816925883
3840.0,-0.0020859548822045326
4096.0,-0.004472076892852783
4608.0,-0.0021854655351489782
5120.0,0.0009822796564549208
5632.0,-0.0007341527962125838
6144.0,-0.001863062847405672
6656.0,-0.002479481277987361
7168.0,0.0017688533989712596
7680.0,0.0011242820182815194
8192.0,-0.001147113973274827
end
