version,3.0
numOfCh,1
type,point
parent_name,34a6d_0dot4-0dot1
ch_type,1_1
kcount,1
numberNandB,1
brightnessNandB,1
carpet pos,0
pc,0
Time (ms),CH1 Auto-Correlation
1.0,0.030948257073760033
2.0,0.029916558414697647
3.0,0.02896355465054512
4.0,0.028066257014870644
5.0,0.027218619361519814
6.0,0.026401057839393616
7.0,0.025590592995285988
8.0,0.0248189065605402
9.0,0.024089740589261055
10.0,0.02340521849691868
11.0,0.022762887179851532
12.0,0.022160854190587997
13.0,0.021575963124632835
14.0,0.0209954846650362
15.0,0.020435301586985588
16.0,0.019913841038942337
18.0,0.018946008756756783
20.0,0.01803114265203476
22.0,0.017205579206347466
24.0,0.01645870879292488
26.0,0.015797516331076622
28.0,0.015171656385064125
30.0,0.014576935209333897
32.0,0.014046893455088139
36.0,0.013164951466023922
40.0,0.012322855181992054
44.0,0.011507234536111355
48.0,0.010767933912575245
52.0,0.010118535719811916
56.0,0.00952968467026949
60.0,0.00891475472599268
64.0,0.008351491764187813
72.0,0.0076173702254891396
80.0,0.007239375729113817
88.0,0.007017115596681833
96.0,0.006542762275785208
104.0,0.005619420669972897
112.0,0.005012803245335817
120.0,0.004556103143841028
128.0,0.004202757030725479
144.0,0.0037265820428729057
160.0,0.0038674476090818644
176.0,0.00492894509807229
192.0,0.005281311925500631
208.0,0.005419285036623478
224.0,0.005372556857764721
240.0,0.005038674920797348
256.0,0.004728755913674831
288.0,0.0026987481396645308
320.0,0.002096938667818904
352.0,0.001440920401364565
384.0,0.00015179345791693777
416.0,-0.001426549511961639
448.0,-0.0014376017497852445
480.0,-0.001117838197387755
512.0,-0.0005566420149989426
576.0,-0.001175073441118002
640.0,-0.0008507834863848984
704.0,-0.0011331336572766304
768.0,-0.0014091389020904899
832.0,0.0005190251395106316
896.0,0.0017084575956687331
960.0,0.0007786666392348707
1024.0,-0.00035205011954531074
1152.0,0.00034470806713216007
1280.0,0.0015394480433315039
1408.0,-0.0006311492761597037
1536.0,0.000708076055161655
1664.0,-0.0008312257123179734
1792.0,0.000905361957848072
1920.0,-3.960752655984834e-05
2048.0,-0.001379231340251863
2304.0,-0.0012652553850784898
2560.0,-0.0009562231716699898
2816.0,-0.0012796813389286399
3072.0,-0.002330600516870618
3328.0,-0.001262235688045621
3584.0,-0.0008250042446888983
3840.0,-0.002226275624707341
4096.0,-0.004683396313339472
4608.0,0.00017457245849072933
5120.0,-0.0016030033584684134
5632.0,8.546664321329445e-05
6144.0,0.003067618701606989
6656.0,0.0011996714165434241
7168.0,0.0030475377570837736
7680.0,-0.00038957982906140387
8192.0,-0.00017279692110605538
end
