version,3.0
numOfCh,1
type,point
parent_name,34a6d_0dot4-0dot1
ch_type,1_1
kcount,1
numberNandB,1
brightnessNandB,1
carpet pos,0
pc,0
Time (ms),CH1 Auto-Correlation
1.0,0.029902826994657516
2.0,0.028801262378692627
3.0,0.02779703214764595
4.0,0.026886126026511192
5.0,0.026027467101812363
6.0,0.025217784568667412
7.0,0.024441324174404144
8.0,0.023765593767166138
9.0,0.02312878705561161
10.0,0.02254563383758068
11.0,0.022006800398230553
12.0,0.021474076434969902
13.0,0.020943595096468925
14.0,0.020420173183083534
15.0,0.019898289814591408
16.0,0.019392235204577446
18.0,0.01841593347489834
20.0,0.017514295876026154
22.0,0.016651678830385208
24.0,0.015821203589439392
26.0,0.015063722617924213
28.0,0.014394056983292103
30.0,0.013777513988316059
32.0,0.01320477295666933
36.0,0.01215666439384222
40.0,0.011137483641505241
44.0,0.010202400386333466
48.0,0.009440305642783642
52.0,0.00875210203230381
56.0,0.008210920728743076
60.0,0.007686997298151255
64.0,0.007157084997743368
72.0,0.00606333976611495
80.0,0.005345899146050215
88.0,0.004757565911859274
96.0,0.004405934363603592
104.0,0.004068851936608553
112.0,0.0037969492841511965
120.0,0.0038013681769371033
128.0,0.003447892377153039
144.0,0.0030972021631896496
160.0,0.0033212017733603716
176.0,0.002975282957777381
192.0,0.002596586709842086
208.0,0.0029002318624407053
224.0,0.0032099178060889244
240.0,0.0028265416622161865
256.0,0.0025089990813285112
288.0,0.0023887099232524633
320.0,0.002945384243503213
352.0,0.00263646780513227
384.0,0.0004522863309830427
416.0,0.00021211637067608535
448.0,0.00029207367333583534
480.0,8.823441748972982e-05
512.0,0.0006987719680182636
576.0,0.0010604278650134802
640.0,0.0002882898261304945
704.0,-0.0019523424562066793
768.0,-0.0018707345006987453
832.0,-0.0004399557365104556
896.0,-0.0014407114358618855
960.0,-0.002217398025095463
1024.0,-0.0019594398327171803
1152.0,-0.0016226136358454823
1280.0,-0.0018107171636074781
1408.0,-0.0009101478499360383
1536.0,-0.0013951038708910346
1664.0,-0.00028187601128593087
1792.0,0.000891319417860359
1920.0,0.0005923450808040798
2048.0,0.001957794651389122
2304.0,0.001475048717111349
2560.0,0.0012388365576043725
2816.0,0.00018603261560201645
3072.0,-0.0036285354290157557
3328.0,-0.0023377833422273397
3584.0,-0.0002210866950917989
3840.0,0.00021036395628470927
4096.0,0.0023681330494582653
4608.0,-0.0013694844674319029
5120.0,-0.001209796522744
5632.0,-0.00041392442653886974
6144.0,0.003057014662772417
6656.0,0.00026166572934016585
7168.0,-0.002759376307949424
7680.0,-0.000829450145829469
8192.0,-0.00042890338227152824
end
