version,3.0
numOfCh,1
type,point
parent_name,34a6d_0dot4-0dot1
ch_type,1_1
kcount,1
numberNandB,1
brightnessNandB,1
carpet pos,0
pc,0
Time (ms),CH1 Auto-Correlation
1.0,0.03188435360789299
2.0,0.03078514151275158
3.0,0.029753226786851883
4.0,0.028797924518585205
5.0,0.027902552857995033
6.0,0.0270696934312582
7.0,0.0262784231454134
8.0,0.0255336482077837
9.0,0.02486252225935459
10.0,0.02421804890036583
11.0,0.023612115532159805
12.0,0.02305501513183117
13.0,0.02251657098531723
14.0,0.022027967497706413
15.0,0.021543318405747414
16.0,0.021065564826130867
18.0,0.02016507275402546
20.0,0.01924033649265766
22.0,0.018338851630687714
24.0,0.01754908636212349
26.0,0.016836922615766525
28.0,0.01620040088891983
30.0,0.01553469616919756
32.0,0.014916338957846165
36.0,0.013825240544974804
40.0,0.012890360318124294
44.0,0.012039920315146446
48.0,0.011268326081335545
52.0,0.010552770458161831
56.0,0.009738188236951828
60.0,0.00899599026888609
64.0,0.008487978018820286
72.0,0.007716348394751549
80.0,0.0072669656947255135
88.0,0.006757757160812616
96.0,0.006328340154141188
104.0,0.005766908638179302
112.0,0.005169463809579611
120.0,0.0050527919083833694
128.0,0.00509072607383132
144.0,0.005394169595092535
160.0,0.005149487406015396
176.0,0.0034563082735985518
192.0,0.0020392644219100475
208.0,0.0011467920849099755
224.0,0.0010942970402538776
240.0,0.0017040205420926213
256.0,0.0017791225109249353
288.0,0.0013327987398952246
320.0,0.0005509308539330959
352.0,-0.0007114403415471315
384.0,-0.0006168202962726355
416.0,-0.0006724948761984706
448.0,-0.0003229910507798195
480.0,-0.0014421495143324137
512.0,-0.002190949860960245
576.0,5.1963103032903746e-05
640.0,-0.0014250142266973853
704.0,0.0005828581633977592
768.0,-0.00038085118285380304
832.0,-0.0015225105453282595
896.0,-0.0010295703541487455
960.0,-0.0007443498470820487
1024.0,0.0021720370277762413
1152.0,0.001956281252205372
1280.0,-0.001932565588504076
1408.0,-0.002545502269640565
1536.0,-0.005710715427994728
1664.0,-0.0028955130837857723
1792.0,0.0004050934803672135
1920.0,0.0009155624429695308
2048.0,0.0006340178661048412
2304.0,0.0013415291905403137
2560.0,0.001996258506551385
2816.0,8.380644430872053e-05
3072.0,-0.001408839481882751
3328.0,-0.001224159263074398
3584.0,0.0018639984773471951
3840.0,-0.0014855143381282687
4096.0,-0.0050719138234853745
4608.0,-0.00018095615087077022
5120.0,0.001503280713222921
5632.0,0.0008190490189008415
6144.0,-0.0018775527132675052
6656.0,-0.001957857282832265
7168.0,-0.0016380330780521035
7680.0,0.00023980367404874414
8192.0,-0.0001326993660768494
end
