version,3.0
numOfCh,1
type,point
parent_name,34766_10dot0-0dot01
ch_type,1_1
kcount,1
numberNandB,1
brightnessNandB,1
carpet pos,0
pc,0
Time (ms),CH1 Auto-Correlation
1.0,0.5063439607620239
2.0,0.5029280781745911
3.0,0.501190185546875
4.0,0.4997207522392273
5.0,0.4984537959098816
6.0,0.4976751208305359
7.0,0.49699661135673523
8.0,0.4963811933994293
9.0,0.49592867493629456
10.0,0.4954301416873932
11.0,0.4947814643383026
12.0,0.49401092529296875
13.0,0.4934598505496979
14.0,0.49276646971702576
15.0,0.49225595593452454
16.0,0.49156370759010315
18.0,0.4905290901660919
20.0,0.4894491732120514
22.0,0.48869848251342773
24.0,0.4878480136394501
26.0,0.48679056763648987
28.0,0.48566702008247375
30.0,0.48464536666870117
32.0,0.48350587487220764
36.0,0.48193174600601196
40.0,0.48034781217575073
44.0,0.47906768321990967
48.0,0.4771491289138794
52.0,0.4757653772830963
56.0,0.4741237759590149
60.0,0.4729594886302948
64.0,0.4716257154941559
72.0,0.46838805079460144
80.0,0.46556004881858826
88.0,0.4626246392726898
96.0,0.45897457003593445
104.0,0.4553605914115906
112.0,0.45156168937683105
120.0,0.4472774863243103
128.0,0.44341716170310974
144.0,0.4356881082057953
160.0,0.4286300837993622
176.0,0.4216229319572449
192.0,0.4132464528083801
208.0,0.4056450426578522
224.0,0.39841461181640625
240.0,0.39240312576293945
256.0,0.3871828019618988
288.0,0.3759576976299286
320.0,0.37063705921173096
352.0,0.36767786741256714
384.0,0.36084187030792236
416.0,0.35486334562301636
448.0,0.34654566645622253
480.0,0.33719199895858765
512.0,0.33014383912086487
576.0,0.29631805419921875
640.0,0.2667643427848816
704.0,0.24494288861751556
768.0,0.23113147914409637
832.0,0.21881850063800812
896.0,0.20257516205310822
960.0,0.17707063257694244
1024.0,0.15192660689353943
1152.0,0.09216603636741638
1280.0,0.04617371782660484
1408.0,0.02074667252600193
1536.0,0.00841778889298439
1664.0,-0.0037216234486550093
1792.0,-0.017405688762664795
1920.0,-0.015516449697315693
2048.0,-0.012164653278887272
2304.0,-0.048071470111608505
2560.0,-0.05978084355592728
2816.0,-0.07408376783132553
3072.0,-0.08519425988197327
3328.0,-0.10071171820163727
3584.0,-0.10590817779302597
3840.0,-0.12014488875865936
4096.0,-0.13098859786987305
4608.0,-0.16410231590270996
5120.0,-0.19068576395511627
5632.0,-0.1977071613073349
6144.0,-0.20269551873207092
6656.0,-0.31107380986213684
7168.0,-0.43212878704071045
end
