version,3.0
numOfCh,1
type,point
parent_name,34766_10dot0-0dot01
ch_type,1_1
kcount,1
numberNandB,1
brightnessNandB,1
carpet pos,0
pc,0
Time (ms),CH1 Auto-Correlation
1.0,0.061061304062604904
2.0,0.05411901697516441
3.0,0.05022800713777542
4.0,0.0481371209025383
5.0,0.04646855592727661
6.0,0.04490404576063156
7.0,0.04374880716204643
8.0,0.04277632758021355
9.0,0.04214547201991081
10.0,0.04140503704547882
11.0,0.04032859206199646
12.0,0.03979463130235672
13.0,0.03953180089592934
14.0,0.03923816233873367
15.0,0.03884081169962883
16.0,0.03853250667452812
18.0,0.03780282288789749
20.0,0.0370953232049942
22.0,0.0362621434032917
24.0,0.03573302924633026
26.0,0.0350758321583271
28.0,0.034431230276823044
30.0,0.03422455117106438
32.0,0.03366536647081375
36.0,0.03213224560022354
40.0,0.031179089099168777
44.0,0.030153946951031685
48.0,0.0289139561355114
52.0,0.02820916287600994
56.0,0.02737252227962017
60.0,0.026496702805161476
64.0,0.02593611367046833
72.0,0.025012459605932236
80.0,0.023748302832245827
88.0,0.02314649522304535
96.0,0.02295948565006256
104.0,0.022311700507998466
112.0,0.020646700635552406
120.0,0.019848419353365898
128.0,0.018445301800966263
144.0,0.016603879630565643
160.0,0.015242142602801323
176.0,0.015117171220481396
192.0,0.014247576706111431
208.0,0.012823052704334259
224.0,0.012284710071980953
240.0,0.012149573303759098
256.0,0.011365643702447414
288.0,0.010028013959527016
320.0,0.008763493038713932
352.0,0.008551876991987228
384.0,0.0075868284329771996
416.0,0.00731524545699358
448.0,0.00757534010335803
480.0,0.0076738521456718445
512.0,0.008943899534642696
576.0,0.013018103316426277
640.0,0.01686454378068447
704.0,0.020256277173757553
768.0,0.016577476635575294
832.0,0.01726631447672844
896.0,0.01258650328963995
960.0,0.009278054349124432
1024.0,0.008203133940696716
1152.0,0.005886884406208992
1280.0,0.0058900644071400166
1408.0,0.006020017899572849
1536.0,0.0053591253235936165
1664.0,0.0035918313078582287
1792.0,0.0015760507667437196
1920.0,0.0005336099420674145
2048.0,0.0013362353201955557
2304.0,0.0008183587924577296
2560.0,0.0015999706229194999
2816.0,-0.0007216075900942087
3072.0,-0.000942630460485816
3328.0,-0.0011855928460136056
3584.0,-0.0011100360425189137
3840.0,-0.0015374677022919059
4096.0,-0.0001968599681276828
4608.0,-0.0017715470166876912
5120.0,-0.0015003542648628354
5632.0,-0.0029747283551841974
6144.0,-0.00419663218781352
6656.0,-0.004276589956134558
7168.0,-0.0055092861875891685
7680.0,-0.007014154456555843
8192.0,-0.011224772781133652
end
