version,3.0
numOfCh,1
type,point
parent_name,fe81d_0dot6-0dot01
ch_type,1_1
kcount,1
numberNandB,1
brightnessNandB,1
carpet pos,0
pc,0
Time (ms),CH1 Auto-Correlation
1.0,0.030705099925398827
2.0,0.029584888368844986
3.0,0.02856655977666378
4.0,0.02763650380074978
5.0,0.026755316182971
6.0,0.025918960571289062
7.0,0.02514219470322132
8.0,0.024435987696051598
9.0,0.02378358691930771
10.0,0.02320251800119877
11.0,0.0226773452013731
12.0,0.02217359095811844
13.0,0.021712718531489372
14.0,0.02126827836036682
15.0,0.020821526646614075
16.0,0.020387619733810425
18.0,0.019524462521076202
20.0,0.018686039373278618
22.0,0.017884695902466774
24.0,0.017087560147047043
26.0,0.016468584537506104
28.0,0.015916060656309128
30.0,0.015404914505779743
32.0,0.014918395318090916
36.0,0.014017274603247643
40.0,0.013152963481843472
44.0,0.012362427078187466
48.0,0.011660602875053883
52.0,0.011070257984101772
56.0,0.010674768127501011
60.0,0.010248095728456974
64.0,0.009928930550813675
72.0,0.00946478545665741
80.0,0.008961567655205727
88.0,0.008744330145418644
96.0,0.008436090312898159
104.0,0.008097243495285511
112.0,0.007792787626385689
120.0,0.007650593761354685
128.0,0.007422069553285837
144.0,0.006911718752235174
160.0,0.006714354734867811
176.0,0.006788869388401508
192.0,0.006751340348273516
208.0,0.0058813029900193214
224.0,0.00499995332211256
240.0,0.00521425623446703
256.0,0.00591285340487957
288.0,0.005777811165899038
320.0,0.005492921452969313
352.0,0.005339642986655235
384.0,0.005279316566884518
416.0,0.004109454341232777
448.0,0.003854801645502448
480.0,0.0034654485061764717
512.0,0.002973015420138836
576.0,0.0029326670337468386
640.0,0.0032110169995576143
704.0,0.0035308541264384985
768.0,0.0028610641602426767
832.0,0.0034798095002770424
896.0,0.002788044512271881
960.0,0.002355393022298813
1024.0,0.0008266886579804122
1152.0,-0.0008557239198125899
1280.0,-0.0007721350993961096
1408.0,-0.0002375463955104351
1536.0,0.00025799369905143976
1664.0,0.0006460328004322946
1792.0,-0.0002297514001838863
1920.0,0.0008541028946638107
2048.0,-0.0021510759834200144
2304.0,-0.001903262222185731
2560.0,-0.0019474559230729938
2816.0,-0.0015000777784734964
3072.0,-0.0018924153409898281
3328.0,-0.0010950969299301505
3584.0,-0.0008615004480816424
3840.0,-0.0008069394971244037
4096.0,-0.0002923208521679044
4608.0,0.0017539499094709754
5120.0,7.896044553490356e-05
5632.0,-0.0017349678091704845
6144.0,-0.0017538127722218633
6656.0,0.0002800587099045515
7168.0,0.00044960970990359783
7680.0,-0.003543383674696088
8192.0,-0.005236478988081217
end
