version,3.0
numOfCh,1
type,point
parent_name,fe81d_0dot6-0dot01
ch_type,1_1
kcount,1
numberNandB,1
brightnessNandB,1
carpet pos,0
pc,0
Time (ms),CH1 Auto-Correlation
1.0,0.025096813216805458
2.0,0.023935498669743538
3.0,0.022867871448397636
4.0,0.02188432775437832
5.0,0.020970692858099937
6.0,0.020130623131990433
7.0,0.019338417798280716
8.0,0.018622132018208504
9.0,0.017980894073843956
10.0,0.017408162355422974
11.0,0.016827624291181564
12.0,0.016321133822202682
13.0,0.015853460878133774
14.0,0.01541650015860796
15.0,0.015003961510956287
16.0,0.01461698580533266
18.0,0.013856559060513973
20.0,0.013107075355947018
22.0,0.012416328303515911
24.0,0.011824115179479122
26.0,0.01135312207043171
28.0,0.010997562669217587
30.0,0.010644218884408474
32.0,0.010269326157867908
36.0,0.00959452148526907
40.0,0.009036730043590069
44.0,0.008508012630045414
48.0,0.007877610623836517
52.0,0.007304952945560217
56.0,0.006826184224337339
60.0,0.006509948987513781
64.0,0.0061997962184250355
72.0,0.005754136014729738
80.0,0.005158956162631512
88.0,0.00424856785684824
96.0,0.0038458288181573153
104.0,0.0036739055067300797
112.0,0.00393415242433548
120.0,0.004478882998228073
128.0,0.004794147331267595
144.0,0.004903815686702728
160.0,0.0053229378536343575
176.0,0.004714525770395994
192.0,0.0037948237732052803
208.0,0.003494726261124015
224.0,0.0033934260718524456
240.0,0.0029266378842294216
256.0,0.0026147926691919565
288.0,0.0030546009074896574
320.0,0.0026277697179466486
352.0,0.002636586083099246
384.0,0.002364009851589799
416.0,0.0019348133355379105
448.0,0.0018892684020102024
480.0,0.0015835096128284931
512.0,0.001242773374542594
576.0,-0.0006573335267603397
640.0,-0.0015763116534799337
704.0,-0.0016429435927420855
768.0,-0.0019935157615691423
832.0,-0.0026181696448475122
896.0,-0.0032091198954731226
960.0,-0.002635021461173892
1024.0,-0.0027137345168739557
1152.0,-0.0012616993626579642
1280.0,-0.000570101838093251
1408.0,-0.0001837663003243506
1536.0,-0.00024193238641601056
1664.0,3.640125578385778e-05
1792.0,0.0004536225169431418
1920.0,-0.0008282233029603958
2048.0,-0.0032801467459648848
2304.0,-0.0025105238892138004
2560.0,-0.0019118881318718195
2816.0,0.0008573762024752796
3072.0,0.001839436125010252
3328.0,0.002949771471321583
3584.0,0.0015955230919644237
3840.0,0.00103890395257622
4096.0,0.0007347155478782952
4608.0,-0.00045425823191180825
5120.0,-0.002605460351333022
5632.0,-0.0016149041475728154
6144.0,0.0009329586173407733
6656.0,0.0012610380072146654
7168.0,0.00261885579675436
7680.0,0.00035086795105598867
8192.0,-0.0015963229816406965
end
