version,3.0
numOfCh,1
type,point
parent_name,fe81d_0dot6-0dot01
ch_type,1_1
kcount,1
numberNandB,1
brightnessNandB,1
carpet pos,0
pc,0
Time (ms),CH1 Auto-Correlation
1.0,0.02242187410593033
2.0,0.02126825600862503
3.0,0.020208843052387238
4.0,0.019246064126491547
5.0,0.01834881864488125
6.0,0.017506273463368416
7.0,0.01672993041574955
8.0,0.015994127839803696
9.0,0.015309055335819721
10.0,0.014680633321404457
11.0,0.014103768393397331
12.0,0.013590328395366669
13.0,0.0130699397996068
14.0,0.01255687978118658
15.0,0.01206633634865284
16.0,0.011591149494051933
18.0,0.010697458870708942
20.0,0.009882040321826935
22.0,0.009158515371382236
24.0,0.008528831414878368
26.0,0.007959386333823204
28.0,0.007486879825592041
30.0,0.007078163791447878
32.0,0.006741490680724382
36.0,0.006158258765935898
40.0,0.005512035917490721
44.0,0.0049298666417598724
48.0,0.004344915505498648
52.0,0.003709007054567337
56.0,0.0031419647857546806
60.0,0.0028330995701253414
64.0,0.0026057616341859102
72.0,0.0023244309704750776
80.0,0.0020096811931580305
88.0,0.0016575492918491364
96.0,0.001497325487434864
104.0,0.0014150685165077448
112.0,0.0013261132407933474
120.0,0.001455224002711475
128.0,0.0014019988011568785
144.0,0.000989619642496109
160.0,0.0007437985041178763
176.0,0.0008012435864657164
192.0,0.0007739721331745386
208.0,0.0003295613278169185
224.0,0.0004028593248222023
240.0,0.0010020730551332235
256.0,0.000946850806940347
288.0,0.00017962064885068685
320.0,0.0003489866794552654
352.0,0.00022107426775619388
384.0,0.00039879645919427276
416.0,0.0007088396814651787
448.0,0.00022226799046620727
480.0,4.376922152005136e-05
512.0,7.005278894212097e-05
576.0,0.0012058460852131248
640.0,0.000326633540680632
704.0,0.0007450818084180355
768.0,0.00048735400196164846
832.0,-0.00017139501869678497
896.0,4.914160672342405e-05
960.0,-0.00017477780056651682
1024.0,0.0014166961191222072
1152.0,-0.00039705217932350934
1280.0,0.0001033101070788689
1408.0,-0.00011354681919328868
1536.0,-0.00040267323493026197
1664.0,-0.0004542300885077566
1792.0,-0.0009291948517784476
1920.0,-0.0012330161407589912
2048.0,-0.0007549650617875159
2304.0,-0.00029193999944254756
2560.0,0.0007039183401502669
2816.0,-0.00044553016778081656
3072.0,8.438524673692882e-05
3328.0,1.7998363546212204e-05
3584.0,-0.00011625682964222506
3840.0,-0.001222069258801639
4096.0,-0.0003052088140975684
4608.0,-0.0011383384699001908
5120.0,-0.00037935259751975536
5632.0,-0.0001075245309039019
6144.0,0.0013018554309383035
6656.0,0.000994302099570632
7168.0,0.0010687106987461448
7680.0,-0.0002165176993003115
8192.0,-0.00035793078131973743
end
