version,3.0
numOfCh,1
type,point
parent_name,fe81d_0dot6-0dot01
ch_type,1_1
kcount,1
numberNandB,1
brightnessNandB,1
carpet pos,0
pc,0
Time (ms),CH1 Auto-Correlation
1.0,0.023530155420303345
2.0,0.02238168939948082
3.0,0.021342264488339424
4.0,0.020404789596796036
5.0,0.019551018252968788
6.0,0.018761584535241127
7.0,0.018001023679971695
8.0,0.017264854162931442
9.0,0.016630249097943306
10.0,0.016053810715675354
11.0,0.015527401119470596
12.0,0.015057156793773174
13.0,0.014619454741477966
14.0,0.014194273389875889
15.0,0.013794739730656147
16.0,0.013435246422886848
18.0,0.012760471552610397
20.0,0.012121777981519699
22.0,0.011521534062922001
24.0,0.01100379228591919
26.0,0.010497801005840302
28.0,0.010028282180428505
30.0,0.009594157338142395
32.0,0.00914276484400034
36.0,0.008233850821852684
40.0,0.0074120182543993
44.0,0.006795531138777733
48.0,0.006151063367724419
52.0,0.0055380952544510365
56.0,0.005151411984115839
60.0,0.004850074183195829
64.0,0.004555008374154568
72.0,0.0037812443915754557
80.0,0.0030929711647331715
88.0,0.00261342478916049
96.0,0.002340389182791114
104.0,0.0021113210823386908
112.0,0.0023677898570895195
120.0,0.0028231937903910875
128.0,0.002932617673650384
144.0,0.0031265676952898502
160.0,0.0030483899172395468
176.0,0.0031949253752827644
192.0,0.002770394552499056
208.0,0.0020632368978112936
224.0,0.0009810919873416424
240.0,-0.0006058678845874965
256.0,-0.0010539153590798378
288.0,-0.0011907652951776981
320.0,-0.0008607986965216696
352.0,-0.0005083141149953008
384.0,-0.00011563287262106314
416.0,0.0008015010389499366
448.0,0.0018895764369517565
480.0,0.0006286847055889666
512.0,-0.001297220354899764
576.0,0.000331700051901862
640.0,-0.00011551018542377278
704.0,-0.001631889259442687
768.0,-0.0007096860208548605
832.0,0.00011256017023697495
896.0,-0.00046468322398141026
960.0,-0.0001156198195531033
1024.0,-0.00025050752446986735
1152.0,-0.0002951532369479537
1280.0,-0.00013388822844717652
1408.0,0.00027167832013219595
1536.0,0.0010445477673783898
1664.0,0.0020933174528181553
1792.0,5.0001552153844386e-05
1920.0,0.0019183994736522436
2048.0,0.001490438706241548
2304.0,-0.0001381189067615196
2560.0,-0.0004062855732627213
2816.0,-0.00023980882542673498
3072.0,0.00018493943207431585
3328.0,-0.0006598226027563214
3584.0,0.0012298853835090995
3840.0,0.000663151266053319
4096.0,-5.403393515734933e-05
4608.0,-0.0007960182847455144
5120.0,-0.0008732928545214236
5632.0,-0.0020570512861013412
6144.0,0.0001484626263845712
6656.0,0.000646511442027986
7168.0,-0.0025537393521517515
7680.0,-0.0015089975204318762
8192.0,0.0007534755859524012
end
