version,3.0
numOfCh,1
type,point
parent_name,fe81d_0dot6-0dot01
ch_type,1_1
kcount,1
numberNandB,1
brightnessNandB,1
carpet pos,0
pc,0
Time (ms),CH1 Auto-Correlation
1.0,0.022914733737707138
2.0,0.021770425140857697
3.0,0.020719069987535477
4.0,0.019765518605709076
5.0,0.0188911072909832
6.0,0.018115578219294548
7.0,0.017388492822647095
8.0,0.016696033999323845
9.0,0.016045289114117622
10.0,0.015461884438991547
11.0,0.014921636320650578
12.0,0.014430706389248371
13.0,0.013950022868812084
14.0,0.013484968803822994
15.0,0.01303870603442192
16.0,0.012605027295649052
18.0,0.011912808753550053
20.0,0.011279594153165817
22.0,0.010751082561910152
24.0,0.010285979136824608
26.0,0.00983080081641674
28.0,0.009371361695230007
30.0,0.008943472988903522
32.0,0.00855741836130619
36.0,0.007897126488387585
40.0,0.007534924894571304
44.0,0.0073524038307368755
48.0,0.00716102821752429
52.0,0.006980417761951685
56.0,0.006752634886652231
60.0,0.006572817452251911
64.0,0.00655342685058713
72.0,0.006293915212154388
80.0,0.00582240242511034
88.0,0.005150416400283575
96.0,0.004698920529335737
104.0,0.004238839726895094
112.0,0.004083454143255949
120.0,0.0041686734184622765
128.0,0.00409036735072732
144.0,0.0034023765474557877
160.0,0.0023833606392145157
176.0,0.0021951929666101933
192.0,0.0024146605283021927
208.0,0.0026094657368957996
224.0,0.002259514294564724
240.0,0.0014200068544596434
256.0,0.0004970112349838018
288.0,0.00038727879291400313
320.0,0.0008586061303503811
352.0,0.0015760116511955857
384.0,0.001797190634533763
416.0,0.0015641660429537296
448.0,0.00199277326464653
480.0,0.0021675319876521826
512.0,0.0026836961042135954
576.0,0.002062784042209387
640.0,0.001206521294079721
704.0,0.001367251854389906
768.0,0.0007600092212669551
832.0,-0.00017928249144461006
896.0,-0.00042514331289567053
960.0,0.00040509365499019623
1024.0,0.0009173940634354949
1152.0,0.000752918072976172
1280.0,9.13111125555588e-06
1408.0,0.00024269046843983233
1536.0,0.0009422324947081506
1664.0,0.0014409293653443456
1792.0,-0.0006879174034111202
1920.0,-0.000659600889775902
2048.0,-0.0011502422858029604
2304.0,0.0009901394369080663
2560.0,-0.0006968876696191728
2816.0,0.0016955819446593523
3072.0,-0.0005468244198709726
3328.0,0.0005726454546675086
3584.0,-3.129399556200951e-05
3840.0,0.0006393310613930225
4096.0,-0.0012210728600621223
4608.0,-0.00021899823332205415
5120.0,-0.0011330907000228763
5632.0,-0.0010398986050859094
6144.0,-0.0018827581079676747
6656.0,-0.0016336072003468871
7168.0,-7.399464084301144e-05
7680.0,2.507759927539155e-05
8192.0,-0.0016811061650514603
end
