version,3.0
numOfCh,1
type,point
parent_name,fe81d_0dot6-0dot01
ch_type,1_1
kcount,1
numberNandB,1
brightnessNandB,1
carpet pos,0
pc,0
Time (ms),CH1 Auto-Correlation
1.0,0.032803524285554886
2.0,0.031644903123378754
3.0,0.030589889734983444
4.0,0.02959161438047886
5.0,0.028649291023612022
6.0,0.02773875929415226
7.0,0.02684974856674671
8.0,0.02602352388203144
9.0,0.02522815391421318
10.0,0.02447369694709778
11.0,0.02380784973502159
12.0,0.023168202489614487
13.0,0.022554665803909302
14.0,0.022021418437361717
15.0,0.02150028385221958
16.0,0.02100348100066185
18.0,0.020170586183667183
20.0,0.019363343715667725
22.0,0.01856597140431404
24.0,0.017905263230204582
26.0,0.017145030200481415
28.0,0.016314424574375153
30.0,0.015652740374207497
32.0,0.014911617152392864
36.0,0.013639414682984352
40.0,0.0125162648037076
44.0,0.011717423796653748
48.0,0.010866096243262291
52.0,0.009867190383374691
56.0,0.008802072145044804
60.0,0.007733555044978857
64.0,0.0070991236716508865
72.0,0.006622294895350933
80.0,0.0062867337837815285
88.0,0.006601983681321144
96.0,0.007433136459439993
104.0,0.007837827317416668
112.0,0.008001982234418392
120.0,0.007589593529701233
128.0,0.007410035468637943
144.0,0.0073161437176167965
160.0,0.006757823284715414
176.0,0.00578660611063242
192.0,0.005232781171798706
208.0,0.005608633626252413
224.0,0.005879457574337721
240.0,0.006083195563405752
256.0,0.006572851445525885
288.0,0.006401364225894213
320.0,0.004405101761221886
352.0,0.003606230253353715
384.0,0.0047759306617081165
416.0,0.0065207527950406075
448.0,0.005885172635316849
480.0,0.004884098656475544
512.0,0.003398824715986848
576.0,0.001501964288763702
640.0,0.0003789020702242851
704.0,0.00014294176071416587
768.0,-3.025402475032024e-05
832.0,0.0010894136503338814
896.0,-0.000385901948902756
960.0,-0.0019078577170148492
1024.0,-0.001622087904252112
1152.0,-0.0017902556573972106
1280.0,-0.004241555463522673
1408.0,-0.004877802915871143
1536.0,-0.004013799596577883
1664.0,-0.00522152753546834
1792.0,-0.005599267315119505
1920.0,-0.004142304882407188
2048.0,-0.004913164768368006
2304.0,-0.003008082043379545
2560.0,-0.0029858178459107876
2816.0,-0.0007693686638958752
3072.0,0.0013863161439076066
3328.0,0.0018160706385970116
3584.0,0.004382485989481211
3840.0,0.005521552171558142
4096.0,0.0017650965601205826
end
