version,3.0
numOfCh,1
type,point
parent_name,fe81d_0dot6-0dot01
ch_type,1_1
kcount,1
numberNandB,1
brightnessNandB,1
carpet pos,0
pc,0
Time (ms),CH1 Auto-Correlation
1.0,0.034697189927101135
2.0,0.03360867500305176
3.0,0.03261904790997505
4.0,0.031685587018728256
5.0,0.030859502032399178
6.0,0.03009800799190998
7.0,0.02938828058540821
8.0,0.02871496044099331
9.0,0.0281156487762928
10.0,0.02756378799676895
11.0,0.027059156447649002
12.0,0.026583170518279076
13.0,0.02612932212650776
14.0,0.02569868229329586
15.0,0.02524220198392868
16.0,0.024780210107564926
18.0,0.02401168830692768
20.0,0.023304615169763565
22.0,0.022555600851774216
24.0,0.02185998298227787
26.0,0.021266093477606773
28.0,0.020714499056339264
30.0,0.020148154348134995
32.0,0.01966654695570469
36.0,0.01889287494122982
40.0,0.01825825870037079
44.0,0.01771661452949047
48.0,0.01704961620271206
52.0,0.01628015749156475
56.0,0.01572209782898426
60.0,0.015115676447749138
64.0,0.014434807933866978
72.0,0.013253919780254364
80.0,0.012406503781676292
88.0,0.01182336825877428
96.0,0.011438536457717419
104.0,0.010982903651893139
112.0,0.010504206642508507
120.0,0.009877383708953857
128.0,0.009462556801736355
144.0,0.008816140703856945
160.0,0.008674399927258492
176.0,0.008574648760259151
192.0,0.008639905601739883
208.0,0.00818277895450592
224.0,0.00733777554705739
240.0,0.006369404960423708
256.0,0.0060109240002930164
288.0,0.004396181087940931
320.0,0.003875465365126729
352.0,0.004617023281753063
384.0,0.0046114749275147915
416.0,0.003555809147655964
448.0,0.0023150343913584948
480.0,0.001471034367568791
512.0,0.001891984255053103
576.0,0.0023528593592345715
640.0,0.0010256770765408874
704.0,0.0007277799304574728
768.0,0.0007044275407679379
832.0,0.000801079033408314
896.0,0.0004843337810598314
960.0,0.001933351974003017
1024.0,0.0019370863446965814
1152.0,0.0016566658159717917
1280.0,0.0036014358047395945
1408.0,0.0013841898180544376
1536.0,-0.0015289229340851307
1664.0,-0.0034919835161417723
1792.0,-0.003803485305979848
1920.0,-0.0033667469397187233
2048.0,-0.0024226296227425337
2304.0,-0.001153696095570922
2560.0,0.0022062784992158413
2816.0,0.0012281002709642053
3072.0,-0.000137453549541533
3328.0,-0.0003399888228159398
3584.0,-0.001321632182225585
3840.0,-0.0022477449383586645
4096.0,-0.0012192509602755308
4608.0,-0.006336791440844536
5120.0,-0.002057748381048441
5632.0,-0.0029553519561886787
6144.0,0.000835991813801229
6656.0,-0.002263812581077218
7168.0,-0.006175094284117222
7680.0,-0.0009314523776993155
8192.0,-0.005729248747229576
end
