version,3.0
numOfCh,1
type,point
parent_name,fe81d_0dot6-0dot01
ch_type,1_1
kcount,1
numberNandB,1
brightnessNandB,1
carpet pos,0
pc,0
Time (ms),CH1 Auto-Correlation
1.0,0.021739687770605087
2.0,0.020654337480664253
3.0,0.019664699211716652
4.0,0.018760699778795242
5.0,0.017942197620868683
6.0,0.01719437912106514
7.0,0.01646914891898632
8.0,0.015789685770869255
9.0,0.015147889032959938
10.0,0.014550354331731796
11.0,0.014017011970281601
12.0,0.013521745800971985
13.0,0.013046051375567913
14.0,0.012606748379766941
15.0,0.012155079282820225
16.0,0.011726126074790955
18.0,0.010939446277916431
20.0,0.010253102518618107
22.0,0.00961155816912651
24.0,0.0089910589158535
26.0,0.008406995795667171
28.0,0.007820196449756622
30.0,0.007329785265028477
32.0,0.006869068834930658
36.0,0.006026232615113258
40.0,0.005398410372436047
44.0,0.004852963145822287
48.0,0.004400366917252541
52.0,0.004155405331403017
56.0,0.0038057470228523016
60.0,0.003504041349515319
64.0,0.003176597412675619
72.0,0.0026643548626452684
80.0,0.0022237992379814386
88.0,0.001867032377049327
96.0,0.0014290177496150136
104.0,0.0011640900047495961
112.0,0.0006889509386382997
120.0,0.00019941026403103024
128.0,-0.00031617860076949
144.0,-0.00018559412274044007
160.0,-1.7878071957966313e-05
176.0,6.589579425053671e-05
192.0,-0.00030016261734999716
208.0,-0.00040539534529671073
224.0,-0.0002431884640827775
240.0,0.00011907295265700668
256.0,0.0003385137824807316
288.0,0.0005447723087854683
320.0,0.00014799794007558376
352.0,-0.0007884989609010518
384.0,-0.00093517528148368
416.0,-0.0005036310176365077
448.0,-0.0008647936047054827
480.0,-0.0005101379938423634
512.0,0.0003733845369424671
576.0,-0.00024246716930065304
640.0,-0.0006458766292780638
704.0,-0.0004838381428271532
768.0,0.0008883348782546818
832.0,-0.000460978684714064
896.0,0.00014580899733118713
960.0,0.00018736536731012166
1024.0,0.0006951447576284409
1152.0,5.349260027287528e-05
1280.0,1.611115840205457e-05
1408.0,-0.0013271175557747483
1536.0,-0.0011230319505557418
1664.0,-0.00013966321421321481
1792.0,-2.4358581640626653e-07
1920.0,-0.0002770287683233619
2048.0,0.002074046293273568
2304.0,-0.00037626991979777813
2560.0,0.00023700844030827284
2816.0,0.0003600018681026995
3072.0,-0.0011959972325712442
3328.0,0.0003955558640882373
3584.0,-0.000330776849295944
3840.0,0.00017371638386975974
4096.0,-0.00012173726281616837
4608.0,-0.0006202264921739697
5120.0,6.17542682448402e-05
5632.0,0.0005706282099708915
6144.0,-0.000720880227163434
6656.0,-0.00016288913320749998
7168.0,0.0003380392154213041
7680.0,0.00032718302099965513
8192.0,0.00017824010865297168
end
