version,3.0
numOfCh,1
type,point
parent_name,fe81d_0dot6-0dot01
ch_type,1_1
kcount,1
numberNandB,1
brightnessNandB,1
carpet pos,0
pc,0
Time (ms),CH1 Auto-Correlation
1.0,0.02483677677810192
2.0,0.023739386349916458
3.0,0.02275153622031212
4.0,0.021825818344950676
5.0,0.020992053672671318
6.0,0.020239122211933136
7.0,0.01951841078698635
8.0,0.018842123448848724
9.0,0.018225764855742455
10.0,0.017686206847429276
11.0,0.01717846654355526
12.0,0.016713224351406097
13.0,0.016258401796221733
14.0,0.015862619504332542
15.0,0.015452604740858078
16.0,0.015086588449776173
18.0,0.014407395385205746
20.0,0.013787071220576763
22.0,0.013206331059336662
24.0,0.012703103944659233
26.0,0.012172659859061241
28.0,0.011633234098553658
30.0,0.011146833188831806
32.0,0.010712821036577225
36.0,0.00999219436198473
40.0,0.009405359625816345
44.0,0.008881674148142338
48.0,0.008378448896110058
52.0,0.007947249338030815
56.0,0.007558873854577541
60.0,0.007155681494623423
64.0,0.006833669729530811
72.0,0.006482407450675964
80.0,0.005715606734156609
88.0,0.004777361173182726
96.0,0.004178702365607023
104.0,0.0035577816888689995
112.0,0.0029704347252845764
120.0,0.002617725171148777
128.0,0.0024031498469412327
144.0,0.0023468947038054466
160.0,0.0017048739828169346
176.0,0.0013584626140072942
192.0,0.0018166527152061462
208.0,0.002193179214373231
224.0,0.002184807090088725
240.0,0.002389284549281001
256.0,0.002522118156775832
288.0,0.0023507364094257355
320.0,0.00100039248354733
352.0,-0.00039499305421486497
384.0,-0.0006890808581374586
416.0,-0.0007026070961728692
448.0,-0.00014397854101844132
480.0,0.00015008539776317775
512.0,0.0004271070647519082
576.0,-0.0009793301578611135
640.0,-0.0014124256558716297
704.0,-0.00012495185364969075
768.0,0.0004181455879006535
832.0,-0.0020321470219641924
896.0,-0.003181006293743849
960.0,-0.0020662385504692793
1024.0,-0.0018057700945064425
1152.0,0.00028834710246883333
1280.0,0.0008326779352501035
1408.0,-0.000260035420069471
1536.0,-0.00012415615492500365
1664.0,-0.0007704229792580009
1792.0,0.0006680687656626105
1920.0,0.0009844008600339293
2048.0,0.0012783395359292626
2304.0,8.34848324302584e-05
2560.0,-0.0004544087569229305
2816.0,-0.0013656008522957563
3072.0,-0.0018172843847423792
3328.0,-0.0007698904955759645
3584.0,-0.0008897293591871858
3840.0,0.0007001212215982378
4096.0,-0.00038468270213343203
4608.0,-0.00011031017493223771
5120.0,-0.00035197511897422373
5632.0,0.00044801109470427036
6144.0,0.0019403721671551466
6656.0,0.0001223221333930269
7168.0,-0.000275123689789325
7680.0,3.562863639672287e-05
8192.0,0.00013689672050531954
end
