version,3.0
numOfCh,1
type,point
parent_name,fe81d_0dot6-0dot01
ch_type,1_1
kcount,1
numberNandB,1
brightnessNandB,1
carpet pos,0
pc,0
Time (ms),CH1 Auto-Correlation
1.0,0.02701784111559391
2.0,0.025921395048499107
3.0,0.024903275072574615
4.0,0.023965317755937576
5.0,0.02307157963514328
6.0,0.02223438210785389
7.0,0.021490875631570816
8.0,0.02078630030155182
9.0,0.020133303478360176
10.0,0.019528720527887344
11.0,0.018967196345329285
12.0,0.018481271341443062
13.0,0.018035227432847023
14.0,0.01764211803674698
15.0,0.017231088131666183
16.0,0.01685926504433155
18.0,0.01617608778178692
20.0,0.015613790601491928
22.0,0.015087210573256016
24.0,0.014599094167351723
26.0,0.014118430204689503
28.0,0.013675796799361706
30.0,0.013265839777886868
32.0,0.012809792533516884
36.0,0.011837138794362545
40.0,0.010929547250270844
44.0,0.010071013122797012
48.0,0.009278456680476665
52.0,0.00874662771821022
56.0,0.008178221061825752
60.0,0.007455464918166399
64.0,0.006869439035654068
72.0,0.005788826383650303
80.0,0.004659648053348064
88.0,0.003799914149567485
96.0,0.0032462177332490683
104.0,0.0026857538614422083
112.0,0.002396092051640153
120.0,0.0019154333276674151
128.0,0.001622950891032815
144.0,0.0010040992638096213
160.0,0.0007840417674742639
176.0,0.0004225826414767653
192.0,-0.00045086361933499575
208.0,-0.0006662023370154202
224.0,-0.000992240384221077
240.0,-0.0014462964609265327
256.0,-0.0012671948643401265
288.0,-0.0014404156245291233
320.0,-0.0015899443533271551
352.0,-0.0022166084963828325
384.0,-0.0021179739851504564
416.0,-0.0016087964177131653
448.0,-0.0006731644971296191
480.0,-0.00031371566001325846
512.0,0.0007915380410850048
576.0,0.0016513869632035494
640.0,0.0012698923237621784
704.0,0.0003787011082749814
768.0,0.0018698275089263916
832.0,0.0026398913469165564
896.0,0.0009494063560850918
960.0,-0.0005277846939861774
1024.0,-0.0013937458861619234
1152.0,-0.0020806752145290375
1280.0,0.00029121586703695357
1408.0,0.00046976772136986256
1536.0,0.0015460348222404718
1664.0,0.001295226626098156
1792.0,0.0008308698306791484
1920.0,-0.0010405437787994742
2048.0,-0.00030801541288383305
2304.0,-0.00024284704704768956
2560.0,0.0003139590553473681
2816.0,-0.0025957031175494194
3072.0,5.2736784709850326e-05
3328.0,-5.3009709517937154e-05
3584.0,3.108985038124956e-05
3840.0,-0.0010218151146546006
4096.0,0.00041342468466609716
4608.0,-0.00041033729212358594
5120.0,-0.0008334777085110545
5632.0,-0.001292416942305863
6144.0,-0.0013427685480564833
6656.0,-0.0013238488463684916
7168.0,0.0005461804685182869
7680.0,0.000384978367947042
8192.0,0.0004265186726115644
end
