version,3.0
numOfCh,1
type,point
parent_name,fe81d_0dot6-0dot01
ch_type,1_1
kcount,1
numberNandB,1
brightnessNandB,1
carpet pos,0
pc,0
Time (ms),CH1 Auto-Correlation
1.0,0.024661533534526825
2.0,0.0234884824603796
3.0,0.02244407683610916
4.0,0.021511107683181763
5.0,0.020668094977736473
6.0,0.019895905628800392
7.0,0.01919170282781124
8.0,0.018530724570155144
9.0,0.01791614107787609
10.0,0.017350532114505768
11.0,0.01680843159556389
12.0,0.01628035679459572
13.0,0.01576997898519039
14.0,0.01531266514211893
15.0,0.014886793680489063
16.0,0.014499656856060028
18.0,0.0138167105615139
20.0,0.013171211816370487
22.0,0.012500915676355362
24.0,0.011886642314493656
26.0,0.011299997568130493
28.0,0.01071702130138874
30.0,0.01012516487389803
32.0,0.009535332210361958
36.0,0.008597028441727161
40.0,0.007877911441028118
44.0,0.007314940448850393
48.0,0.006928536109626293
52.0,0.006675615906715393
56.0,0.0064587765373289585
60.0,0.006286207120865583
64.0,0.00608781585469842
72.0,0.005700628273189068
80.0,0.005369372665882111
88.0,0.0049981120973825455
96.0,0.0047477176412940025
104.0,0.004220249596983194
112.0,0.0036482939030975103
120.0,0.0034100732300430536
128.0,0.0035980702377855778
144.0,0.003463140921667218
160.0,0.0026632463559508324
176.0,0.002002289053052664
192.0,0.001969253411516547
208.0,0.0019023718778043985
224.0,0.001449358998797834
240.0,0.0008250520913861692
256.0,0.000615346827544272
288.0,-0.00032605373417027295
320.0,-0.0009817490354180336
352.0,0.00035832522553391755
384.0,0.00018239019846078008
416.0,-0.0003051177482120693
448.0,-0.0003649841237347573
480.0,-0.0013955027097836137
512.0,-0.0015491629019379616
576.0,-0.0012596520828083158
640.0,-0.0007671618950553238
704.0,-0.00020767083333339542
768.0,0.0007030022097751498
832.0,0.0017544799484312534
896.0,0.0012126988731324673
960.0,0.0006788416067138314
1024.0,0.00033964059548452497
1152.0,-0.0017874299082905054
1280.0,-0.0012614330044016242
1408.0,0.0009213096345774829
1536.0,8.254439308075234e-05
1664.0,-0.0003644806274678558
1792.0,0.0013244602596387267
1920.0,0.0004049782291986048
2048.0,0.0005285855149850249
2304.0,-0.001151670585386455
2560.0,0.00016084038361441344
2816.0,0.00013487135584000498
3072.0,-0.002375986659899354
3328.0,-0.0009381240233778954
3584.0,0.0013945220271125436
3840.0,0.0007575670606456697
4096.0,-0.001326253404840827
4608.0,-0.0005305235390551388
5120.0,8.854520274326205e-05
5632.0,-0.0014168750494718552
6144.0,0.001216503675095737
6656.0,0.0009380741976201534
7168.0,0.0008761330391280353
7680.0,0.0006731756730005145
8192.0,-0.0005840096855536103
end
