version,3.0
numOfCh,1
type,point
parent_name,fe81d_0dot6-0dot01
ch_type,1_1
kcount,1
numberNandB,1
brightnessNandB,1
carpet pos,0
pc,0
Time (ms),CH1 Auto-Correlation
1.0,0.02406800538301468
2.0,0.022934123873710632
3.0,0.021932469680905342
4.0,0.021049629896879196
5.0,0.020221585407853127
6.0,0.019482994452118874
7.0,0.018809493631124496
8.0,0.018173059448599815
9.0,0.017610428854823112
10.0,0.017059972509741783
11.0,0.016532132402062416
12.0,0.016035843640565872
13.0,0.01555970124900341
14.0,0.015083320438861847
15.0,0.014610403217375278
16.0,0.014132076874375343
18.0,0.013284403830766678
20.0,0.01246486697345972
22.0,0.011713230051100254
24.0,0.01103272195905447
26.0,0.010426472872495651
28.0,0.00989475566893816
30.0,0.009458393789827824
32.0,0.009130517952144146
36.0,0.008507340215146542
40.0,0.00788857415318489
44.0,0.007333884481340647
48.0,0.006943095475435257
52.0,0.006591697223484516
56.0,0.006171072367578745
60.0,0.00562699418514967
64.0,0.005124203860759735
72.0,0.004418722353875637
80.0,0.0037122813519090414
88.0,0.0028399364091455936
96.0,0.001963557442650199
104.0,0.0014473440824076533
112.0,0.0010749974753707647
120.0,0.0008700436446815729
128.0,0.0006737064104527235
144.0,0.00014834199100732803
160.0,-0.00023228452482726425
176.0,3.1111751013668254e-05
192.0,9.127883822657168e-05
208.0,0.000644654268398881
224.0,0.0012631079880520701
240.0,0.0016966636758297682
256.0,0.0017678458243608475
288.0,0.0017629406647756696
320.0,0.002437182469293475
352.0,0.0024052963126450777
384.0,0.002214947948232293
416.0,0.0013911026762798429
448.0,0.0007168073789216578
480.0,-0.0002743260993156582
512.0,-0.00012908419012092054
576.0,0.0010023026261478662
640.0,0.001196748693473637
704.0,0.0019469006219878793
768.0,0.002563226269558072
832.0,0.0023102457635104656
896.0,0.0012425287859514356
960.0,0.0008936201338656247
1024.0,0.00020873580069746822
1152.0,0.00013758765999227762
1280.0,0.000935202173423022
1408.0,0.00020786153618246317
1536.0,0.002073097275570035
1664.0,0.0004705553292296827
1792.0,-0.00019105539831798524
1920.0,-0.0010788579238578677
2048.0,0.00014516891678795218
2304.0,-0.00037294189678505063
2560.0,0.0005015461938455701
2816.0,0.000340364029398188
3072.0,-3.893188477377407e-05
3328.0,0.00013228401076048613
3584.0,-0.0005346765392459929
3840.0,0.00032589214970357716
4096.0,-0.000338419689796865
4608.0,-0.000404721824452281
5120.0,-0.0005748915136791766
5632.0,-0.0016829828964546323
6144.0,-0.0011182674206793308
6656.0,-0.003207744797691703
7168.0,-0.0027878261171281338
7680.0,-0.001116239232942462
8192.0,-8.609729411546141e-05
end
