version,3.0
numOfCh,1
type,point
parent_name,fe81d_0dot6-0dot01
ch_type,1_1
kcount,1
numberNandB,1
brightnessNandB,1
carpet pos,0
pc,0
Time (ms),CH1 Auto-Correlation
1.0,0.02240798994898796
2.0,0.021243877708911896
3.0,0.020210394635796547
4.0,0.019272157922387123
5.0,0.018401343375444412
6.0,0.01762012578547001
7.0,0.016899291425943375
8.0,0.016197916120290756
9.0,0.015543622896075249
10.0,0.01496939267963171
11.0,0.01442691870033741
12.0,0.013912282884120941
13.0,0.01342149917036295
14.0,0.012976999394595623
15.0,0.012578627094626427
16.0,0.01220073364675045
18.0,0.011474461294710636
20.0,0.01079701166599989
22.0,0.010140241123735905
24.0,0.009614337235689163
26.0,0.00907512940466404
28.0,0.008597636595368385
30.0,0.008115111850202084
32.0,0.007632229942828417
36.0,0.006825653370469809
40.0,0.00619508558884263
44.0,0.005600202362984419
48.0,0.004997584968805313
52.0,0.004544376395642757
56.0,0.004199902061372995
60.0,0.0038031400181353092
64.0,0.0035570450127124786
72.0,0.0034125796519219875
80.0,0.003127170028164983
88.0,0.0029391201678663492
96.0,0.0030285411048680544
104.0,0.0029953629709780216
112.0,0.003101872745901346
120.0,0.0029953275807201862
128.0,0.0026324805803596973
144.0,0.0020045158453285694
160.0,0.0007664969307370484
176.0,0.0003305952704977244
192.0,0.0004744573379866779
208.0,0.00011470663594081998
224.0,0.0003546179796103388
240.0,0.0005079438560642302
256.0,0.0006884983740746975
288.0,0.0005666193901561201
320.0,0.0007162805995903909
352.0,0.0008955671801231802
384.0,0.0011762157082557678
416.0,0.0005304926307871938
448.0,-0.0010931432479992509
480.0,-0.0005833001341670752
512.0,-0.00019705609884113073
576.0,0.0003837195981759578
640.0,0.0009084080229513347
704.0,3.224733882234432e-05
768.0,-0.0009554779971949756
832.0,-0.0008880433742888272
896.0,-0.001160691725090146
960.0,-0.0010286630131304264
1024.0,-0.000639782112557441
1152.0,-0.0004635413351934403
1280.0,-0.0006103638443164527
1408.0,-0.0004200852708891034
1536.0,0.0007443347712978721
1664.0,0.002120694611221552
1792.0,0.0023357507307082415
1920.0,0.001296173082664609
2048.0,0.0006544690695591271
2304.0,-0.0003633291635196656
2560.0,-0.00043698493391275406
2816.0,-0.0012397314421832561
3072.0,-0.0006283679394982755
3328.0,0.00029623182490468025
3584.0,0.0005875285714864731
3840.0,0.000617331184912473
4096.0,-0.0010512497974559665
4608.0,-0.0013018551981076598
5120.0,-0.001457289094105363
5632.0,-9.571445843903348e-05
6144.0,-0.0006062741740606725
6656.0,-0.0010903967777267098
7168.0,0.00047813772107474506
7680.0,0.0009205678943544626
8192.0,0.0004192929482087493
end
