version,3.0
numOfCh,1
type,point
parent_name,fe81d_0dot6-0dot01
ch_type,1_1
kcount,1
numberNandB,1
brightnessNandB,1
carpet pos,0
pc,0
Time (ms),CH1 Auto-Correlation
1.0,0.02732391469180584
2.0,0.02623208798468113
3.0,0.02521003782749176
4.0,0.024277672171592712
5.0,0.023451363667845726
6.0,0.02269364334642887
7.0,0.02200687676668167
8.0,0.02138613350689411
9.0,0.020770931616425514
10.0,0.020237259566783905
11.0,0.01971474662423134
12.0,0.019228829070925713
13.0,0.018730612471699715
14.0,0.018274011090397835
15.0,0.01786230131983757
16.0,0.017483165487647057
18.0,0.01668386720120907
20.0,0.015973098576068878
22.0,0.015271604992449284
24.0,0.014715177938342094
26.0,0.014260834082961082
28.0,0.013905788771808147
30.0,0.013699059374630451
32.0,0.013555978424847126
36.0,0.01309696864336729
40.0,0.012750724330544472
44.0,0.012385440990328789
48.0,0.011969907209277153
52.0,0.01148309838026762
56.0,0.011033318005502224
60.0,0.010544846765697002
64.0,0.01001423317939043
72.0,0.009554981254041195
80.0,0.009526237845420837
88.0,0.00951334461569786
96.0,0.009212910197675228
104.0,0.00869577843695879
112.0,0.007824606262147427
120.0,0.007527460344135761
128.0,0.00705129886046052
144.0,0.005887319799512625
160.0,0.005399452056735754
176.0,0.005053380969911814
192.0,0.005092720501124859
208.0,0.004457217641174793
224.0,0.004158139228820801
240.0,0.0040796492248773575
256.0,0.0027433091308921576
288.0,0.001849877298809588
320.0,0.0003969509562011808
352.0,0.00046202802332118154
384.0,0.0010477154282853007
416.0,0.0003646356344688684
448.0,-0.0003013430396094918
480.0,-0.0004452435241546482
512.0,0.0005956031382083893
576.0,0.00046357049723155797
640.0,0.0027216123417019844
704.0,0.002274308120831847
768.0,0.0004076631448697299
832.0,0.0006652746233157814
896.0,-0.0010544348042458296
960.0,-0.0016234776703640819
1024.0,-0.0005104022566229105
1152.0,0.000989733962342143
1280.0,0.0018018644768744707
1408.0,0.0024714588653296232
1536.0,0.002008679322898388
1664.0,0.0009406017488799989
1792.0,0.0011050052708014846
1920.0,0.001734823570586741
2048.0,0.002040641149505973
2304.0,-0.0007064803503453732
2560.0,-0.0027835885994136333
2816.0,-0.0027325330302119255
3072.0,-0.002808081451803446
3328.0,-0.0008498749230057001
3584.0,-0.0007508881972171366
3840.0,-0.004036462400108576
4096.0,-0.002925163833424449
4608.0,-0.004050158429890871
5120.0,-0.0012579457834362984
5632.0,-0.002389088971540332
6144.0,-0.0021929165814071894
6656.0,0.00521926349028945
7168.0,0.0007781272288411856
end
