version,3.0
numOfCh,1
type,point
parent_name,fe81d_0dot6-0dot01
ch_type,1_1
kcount,1
numberNandB,1
brightnessNandB,1
carpet pos,0
pc,0
Time (ms),CH1 Auto-Correlation
1.0,0.028166232630610466
2.0,0.027099058032035828
3.0,0.02609531581401825
4.0,0.02520868182182312
5.0,0.024380294606089592
6.0,0.02361583337187767
7.0,0.02290630340576172
8.0,0.02225986309349537
9.0,0.02162754535675049
10.0,0.021073956042528152
11.0,0.020547576248645782
12.0,0.020066101104021072
13.0,0.019648900255560875
14.0,0.019236106425523758
15.0,0.01881692372262478
16.0,0.018384886905550957
18.0,0.017582127824425697
20.0,0.01671939343214035
22.0,0.01596798561513424
24.0,0.01525160763412714
26.0,0.014573594555258751
28.0,0.01388243306428194
30.0,0.013216155581176281
32.0,0.012590738944709301
36.0,0.011508068069815636
40.0,0.010436485521495342
44.0,0.009471317753195763
48.0,0.008735730312764645
52.0,0.008168336935341358
56.0,0.007646583020687103
60.0,0.00728020491078496
64.0,0.007174176163971424
72.0,0.007056018803268671
80.0,0.006955298595130444
88.0,0.006846196483820677
96.0,0.006786246784031391
104.0,0.0066540781408548355
112.0,0.006706033833324909
120.0,0.006807341706007719
128.0,0.006554081570357084
144.0,0.0052420394495129585
160.0,0.00408451771363616
176.0,0.002981492318212986
192.0,0.0023583665024489164
208.0,0.002101876540109515
224.0,0.0017176923574879766
240.0,0.0014219011645764112
256.0,0.0015848386101424694
288.0,0.002200657268986106
320.0,0.0008097935351543128
352.0,-0.000717994524165988
384.0,0.00014361065404955298
416.0,0.0002833915641531348
448.0,-0.0018229741835966706
480.0,-0.0020134830847382545
512.0,-0.001471146009862423
576.0,0.0001261761790374294
640.0,0.001675139763392508
704.0,0.0010665436275303364
768.0,0.0010763336904346943
832.0,-0.0003858528798446059
896.0,0.0010204962454736233
960.0,-0.00038955939817242324
1024.0,-0.0007607320440001786
1152.0,-0.0024219758342951536
1280.0,-0.0023265688214451075
1408.0,-0.0037934102583676577
1536.0,-0.00433412054553628
1664.0,-0.0046920496970415115
1792.0,-0.0025141173973679543
1920.0,-0.0002520752022974193
2048.0,0.0005443303962238133
2304.0,-0.0015023377491161227
2560.0,0.0007162934634834528
2816.0,0.002879760693758726
3072.0,0.0023287807125598192
3328.0,0.0014863190008327365
3584.0,0.0012703891843557358
3840.0,-0.0004480983770918101
4096.0,-0.002767348662018776
4608.0,-0.0017726265359669924
5120.0,0.00230324175208807
5632.0,-3.346799348946661e-05
6144.0,0.0025442636106163263
6656.0,-0.001618647133000195
7168.0,0.0027378506492823362
7680.0,-0.001452678581699729
8192.0,0.00029605135205201805
end
