version,3.0
numOfCh,1
type,point
parent_name,fe81d_0dot6-0dot01
ch_type,1_1
kcount,1
numberNandB,1
brightnessNandB,1
carpet pos,0
pc,0
Time (ms),CH1 Auto-Correlation
1.0,0.02826854959130287
2.0,0.027187228202819824
3.0,0.026194659993052483
4.0,0.025275221094489098
5.0,0.02445233426988125
6.0,0.02374759130179882
7.0,0.023094942793250084
8.0,0.022493259981274605
9.0,0.021893952041864395
10.0,0.021348213776946068
11.0,0.02084585465490818
12.0,0.020356765016913414
13.0,0.019897444173693657
14.0,0.01947592757642269
15.0,0.019069397822022438
16.0,0.018657881766557693
18.0,0.01793712005019188
20.0,0.017269494011998177
22.0,0.016690600663423538
24.0,0.016107888892292976
26.0,0.015573633834719658
28.0,0.015126343816518784
30.0,0.014788775704801083
32.0,0.014450795017182827
36.0,0.013781500980257988
40.0,0.013099112547934055
44.0,0.012461282312870026
48.0,0.011871611699461937
52.0,0.011210475116968155
56.0,0.010595421306788921
60.0,0.01010331604629755
64.0,0.009588132612407207
72.0,0.008737402968108654
80.0,0.007938845083117485
88.0,0.007596958894282579
96.0,0.0073742857202887535
104.0,0.007180221378803253
112.0,0.006690239999443293
120.0,0.006109665147960186
128.0,0.005335274618119001
144.0,0.004765769466757774
160.0,0.0042202104814350605
176.0,0.004027857910841703
192.0,0.003685647388920188
208.0,0.003363625844940543
224.0,0.002924732631072402
240.0,0.001799106947146356
256.0,0.001349292229861021
288.0,0.0012210438726469874
320.0,0.0011710186954587698
352.0,0.0016595333581790328
384.0,0.0012822796124964952
416.0,0.0005827074055559933
448.0,0.0012137094745412469
480.0,0.002213900675997138
512.0,0.0012386838207021356
576.0,0.0018613470019772649
640.0,0.0019773058593273163
704.0,0.0024168258532881737
768.0,0.0018166241934522986
832.0,-0.0007446952513419092
896.0,-0.001365440315566957
960.0,-0.00011401317897252738
1024.0,0.00035505095729604363
1152.0,0.0009882076410576701
1280.0,-0.000560262065846473
1408.0,-0.0013254436198621988
1536.0,-0.0036927773617208004
1664.0,-0.005087682045996189
1792.0,-0.003669296158477664
1920.0,-0.002328914124518633
2048.0,-0.0021627750247716904
2304.0,-0.001949255121871829
2560.0,-0.0018847738392651081
2816.0,-0.0009652934386394918
3072.0,-0.00022550093126483262
3328.0,0.0016538499621674418
3584.0,0.0018739078659564257
3840.0,0.0011858036741614342
4096.0,0.001383857917971909
4608.0,0.00022198491205926985
5120.0,-0.0005886174621991813
5632.0,-0.0034204840194433928
6144.0,-0.0028928187675774097
6656.0,-0.002471130806952715
7168.0,0.0021679732017219067
7680.0,0.004011140670627356
8192.0,0.005771141033619642
end
