version,3.0
numOfCh,1
type,point
parent_name,fe81d_0dot6-0dot01
ch_type,1_1
kcount,1
numberNandB,1
brightnessNandB,1
carpet pos,0
pc,0
Time (ms),CH1 Auto-Correlation
1.0,0.05374401807785034
2.0,0.05246521532535553
3.0,0.0512399785220623
4.0,0.050118058919906616
5.0,0.049086038023233414
6.0,0.048148270696401596
7.0,0.04727787896990776
8.0,0.04641943797469139
9.0,0.0456044040620327
10.0,0.044811151921749115
11.0,0.04408127814531326
12.0,0.04333882033824921
13.0,0.04263709485530853
14.0,0.04195355251431465
15.0,0.041266344487667084
16.0,0.04055818170309067
18.0,0.039261456578969955
20.0,0.03805031254887581
22.0,0.03684007748961449
24.0,0.03571563586592674
26.0,0.03469805791974068
28.0,0.033805567771196365
30.0,0.032992586493492126
32.0,0.03231444209814072
36.0,0.03072095476090908
40.0,0.029563289135694504
44.0,0.028621554374694824
48.0,0.0277242511510849
52.0,0.026772094890475273
56.0,0.025842400267720222
60.0,0.024948380887508392
64.0,0.024151861667633057
72.0,0.02310062013566494
80.0,0.02216196060180664
88.0,0.021346043795347214
96.0,0.020249102264642715
104.0,0.018724504858255386
112.0,0.018046608194708824
120.0,0.017667414620518684
128.0,0.017425868660211563
144.0,0.016951821744441986
160.0,0.016133366152644157
176.0,0.014664974994957447
192.0,0.013455016538500786
208.0,0.013149484060704708
224.0,0.013305789791047573
240.0,0.013206244446337223
256.0,0.013410043902695179
288.0,0.014094253070652485
320.0,0.01301062386482954
352.0,0.013003350235521793
384.0,0.012544647790491581
416.0,0.010897613130509853
448.0,0.011417413130402565
480.0,0.011375950649380684
512.0,0.010783642530441284
576.0,0.012238471768796444
640.0,0.011247093789279461
704.0,0.009969512932002544
768.0,0.006522638723254204
832.0,0.005060242488980293
896.0,0.0051108659245073795
960.0,0.0032279242295771837
1024.0,0.003934012260288
1152.0,0.0029111583717167377
1280.0,0.0014119049301370978
1408.0,0.0030461109708994627
1536.0,0.003030673135071993
1664.0,0.002816638210788369
1792.0,0.0014668324729427695
1920.0,0.0006803842261433601
2048.0,-0.0015453839441761374
2304.0,-0.0017613442614674568
2560.0,-0.0018729442963376641
2816.0,-0.0038833802100270987
3072.0,-0.0021064889151602983
3328.0,-0.0026277436409145594
3584.0,-0.0021618434693664312
3840.0,-0.001894146203994751
4096.0,-0.004140705801546574
4608.0,-0.0007170402095653117
5120.0,-0.0007132503669708967
5632.0,5.820260412292555e-05
6144.0,-0.0014998851111158729
6656.0,-0.004046842455863953
7168.0,-0.003300450509414077
7680.0,-0.0022903033532202244
8192.0,-0.005628839135169983
end
