version,3.0
numOfCh,1
type,point
parent_name,fe81d_0dot6-0dot01
ch_type,1_1
kcount,1
numberNandB,1
brightnessNandB,1
carpet pos,0
pc,0
Time (ms),CH1 Auto-Correlation
1.0,0.026820117607712746
2.0,0.025706253945827484
3.0,0.024682650342583656
4.0,0.02371942065656185
5.0,0.022832417860627174
6.0,0.022044459357857704
7.0,0.02136475220322609
8.0,0.02073540911078453
9.0,0.02010491117835045
10.0,0.019497044384479523
11.0,0.018907440826296806
12.0,0.018359925597906113
13.0,0.01781797967851162
14.0,0.01732955314218998
15.0,0.016878070309758186
16.0,0.016452861949801445
18.0,0.01567932218313217
20.0,0.01499490812420845
22.0,0.014360204339027405
24.0,0.013763854280114174
26.0,0.013195663690567017
28.0,0.012663879431784153
30.0,0.012182177044451237
32.0,0.011798672378063202
36.0,0.011019505560398102
40.0,0.010478494688868523
44.0,0.010112185962498188
48.0,0.009698906913399696
52.0,0.00923362746834755
56.0,0.00867120735347271
60.0,0.008101282641291618
64.0,0.007840619422495365
72.0,0.007774839177727699
80.0,0.007852967828512192
88.0,0.007855798117816448
96.0,0.008174463175237179
104.0,0.008053023368120193
112.0,0.00761078204959631
120.0,0.006877882871776819
128.0,0.006346517708152533
144.0,0.005402169656008482
160.0,0.005226157605648041
176.0,0.005977568682283163
192.0,0.0071811010129749775
208.0,0.007008167915046215
224.0,0.0066370004788041115
240.0,0.005846752319484949
256.0,0.00512663135305047
288.0,0.00487943273037672
320.0,0.0029083238914608955
352.0,0.001066823722794652
384.0,0.0018865264719352126
416.0,0.0015972763067111373
448.0,0.0015048596542328596
480.0,0.0027639404870569706
512.0,0.002554431790485978
576.0,0.0011304018553346395
640.0,0.0009060014272108674
704.0,0.002420653821900487
768.0,0.0029245009645819664
832.0,0.0016524976817891002
896.0,0.0009319341625086963
960.0,0.0004192946944385767
1024.0,-0.0011138266418129206
1152.0,-0.001129482756368816
1280.0,-0.0007175218779593706
1408.0,-0.0003102906921412796
1536.0,-0.00012436135148163885
1664.0,0.0023393770679831505
1792.0,0.000257157749729231
1920.0,0.0003460917214397341
2048.0,-0.0008227677899412811
2304.0,-0.0006445605540648103
2560.0,-0.0011016188655048609
2816.0,-0.0032069466542452574
3072.0,-0.002428166102617979
3328.0,0.0013022507773712277
3584.0,0.0029873372986912727
3840.0,0.0011893343180418015
4096.0,0.0015274628531187773
4608.0,-0.0016174454940482974
5120.0,-0.0033646924421191216
5632.0,-0.004131544381380081
6144.0,-0.004168319050222635
6656.0,-0.003349236911162734
7168.0,-0.004160829354077578
7680.0,0.0006419859128072858
8192.0,0.006774681620299816
end
