version,3.0
numOfCh,1
type,point
parent_name,fe81d_0dot6-0dot01
ch_type,1_1
kcount,1
numberNandB,1
brightnessNandB,1
carpet pos,0
pc,0
Time (ms),CH1 Auto-Correlation
1.0,0.09108086675405502
2.0,0.08991307020187378
3.0,0.08884324133396149
4.0,0.0879112184047699
5.0,0.08704435080289841
6.0,0.08622561395168304
7.0,0.08545399457216263
8.0,0.08477388322353363
9.0,0.08407189697027206
10.0,0.08338065445423126
11.0,0.08272325247526169
12.0,0.0820886492729187
13.0,0.0815226286649704
14.0,0.08100167661905289
15.0,0.08054019510746002
16.0,0.08010022342205048
18.0,0.07924042642116547
20.0,0.07844195514917374
22.0,0.07754217088222504
24.0,0.0766805112361908
26.0,0.07590758800506592
28.0,0.07521297037601471
30.0,0.07442782819271088
32.0,0.07357360422611237
36.0,0.07194935530424118
40.0,0.07047408819198608
44.0,0.06896702200174332
48.0,0.0670921728014946
52.0,0.06510854512453079
56.0,0.06319157034158707
60.0,0.06148219853639603
64.0,0.059776969254016876
72.0,0.05700845271348953
80.0,0.054505668580532074
88.0,0.051797229796648026
96.0,0.048981621861457825
104.0,0.04608830064535141
112.0,0.0439525730907917
120.0,0.04203515127301216
128.0,0.03988984227180481
144.0,0.03539470210671425
160.0,0.030801022425293922
176.0,0.025696519762277603
192.0,0.02115713432431221
208.0,0.01746414229273796
224.0,0.01465836726129055
240.0,0.01382563728839159
256.0,0.014974580146372318
288.0,0.019428402185440063
320.0,0.022259831428527832
352.0,0.02087578922510147
384.0,0.016997357830405235
416.0,0.014099538326263428
448.0,0.010428533889353275
480.0,0.004130605608224869
512.0,-2.136018520104699e-05
576.0,-0.004704900085926056
640.0,-0.0032766154035925865
704.0,-0.00010583450784906745
768.0,-0.00021186296362429857
832.0,-0.0016814337577670813
896.0,-0.004778560716658831
960.0,-0.0076638502068817616
1024.0,-0.0066060530953109264
1152.0,0.003463008441030979
1280.0,0.0013620767276734114
1408.0,-0.010706428438425064
1536.0,-0.008480049669742584
1664.0,-0.008719905279576778
1792.0,-0.02203720062971115
1920.0,-0.020167024806141853
2048.0,-0.017296763136982918
2304.0,-0.018871817737817764
2560.0,-0.018530355766415596
2816.0,-0.013840108178555965
3072.0,-0.007991243153810501
3328.0,0.011584539897739887
3584.0,0.0093674436211586
3840.0,0.007761613465845585
4096.0,0.007803679443895817
end
