version,3.0
numOfCh,1
type,point
parent_name,fe81d_0dot6-0dot01
ch_type,1_1
kcount,1
numberNandB,1
brightnessNandB,1
carpet pos,0
pc,0
Time (ms),CH1 Auto-Correlation
1.0,0.0837191492319107
2.0,0.08145155012607574
3.0,0.07922904193401337
4.0,0.07709700614213943
5.0,0.07504145056009293
6.0,0.07305735349655151
7.0,0.07118106633424759
8.0,0.06937777996063232
9.0,0.06759579479694366
10.0,0.0658545270562172
11.0,0.06408680230379105
12.0,0.06236756965517998
13.0,0.060693614184856415
14.0,0.05904851853847504
15.0,0.05743081122636795
16.0,0.05586479976773262
18.0,0.052702970802783966
20.0,0.049524080008268356
22.0,0.04647960513830185
24.0,0.0434560663998127
26.0,0.0405409075319767
28.0,0.03767096996307373
30.0,0.03476054593920708
32.0,0.031852275133132935
36.0,0.029501479119062424
40.0,0.02849656529724598
44.0,0.027566684409976006
48.0,0.02664455957710743
52.0,0.02575267292559147
56.0,0.024702411144971848
60.0,0.02367795631289482
64.0,0.023008620366454124
72.0,0.02232019230723381
80.0,0.02186407707631588
88.0,0.020727654919028282
96.0,0.019824741408228874
104.0,0.019171081483364105
112.0,0.01917889527976513
120.0,0.019704105332493782
128.0,0.020294474437832832
144.0,0.01928146742284298
160.0,0.017191756516695023
176.0,0.01719396375119686
192.0,0.018023382872343063
208.0,0.01790417544543743
224.0,0.015969298779964447
240.0,0.014716070145368576
256.0,0.01507718674838543
288.0,0.014596087858080864
320.0,0.01351933367550373
352.0,0.013582123443484306
384.0,0.011995796114206314
416.0,0.012106288224458694
448.0,0.011035051196813583
480.0,0.010496862232685089
512.0,0.0074508110992610455
576.0,0.0076233702711761
640.0,0.00687839649617672
704.0,0.005368004087358713
768.0,0.005821601487696171
832.0,0.008102977648377419
896.0,0.005377777852118015
960.0,0.00594742875546217
1024.0,0.005791959352791309
1152.0,0.0040352302603423595
1280.0,0.001617888337932527
1408.0,0.00044351545511744916
1536.0,-0.0008971813367679715
1664.0,-0.0006974379066377878
1792.0,-0.003215594682842493
1920.0,-0.0048495070077478886
2048.0,-0.003910887520760298
2304.0,0.0013126296689733863
2560.0,-0.0022923939395695925
2816.0,-0.004915599711239338
3072.0,-0.002801836933940649
3328.0,-0.004440830554813147
3584.0,-0.005503927823156118
3840.0,-0.0017545449081808329
4096.0,-0.0036767420824617147
4608.0,-0.0035588552709668875
5120.0,-0.0041149393655359745
5632.0,-0.0022064188960939646
6144.0,-0.0026486071292310953
6656.0,-0.00524322921410203
7168.0,-0.003460004460066557
7680.0,-0.007954534143209457
8192.0,-0.00756183871999383
end
