version,3.0
numOfCh,1
type,point
parent_name,fe81d_0dot6-0dot01
ch_type,1_1
kcount,1
numberNandB,1
brightnessNandB,1
carpet pos,0
pc,0
Time (ms),CH1 Auto-Correlation
1.0,0.02418125607073307
2.0,0.02301301620900631
3.0,0.021990956738591194
4.0,0.021061604842543602
5.0,0.02020852081477642
6.0,0.019435279071331024
7.0,0.018719220533967018
8.0,0.01804906502366066
9.0,0.01744706928730011
10.0,0.01689102128148079
11.0,0.016360877081751823
12.0,0.015855519101023674
13.0,0.015375581569969654
14.0,0.01488241832703352
15.0,0.014440557919442654
16.0,0.014007266610860825
18.0,0.013239482417702675
20.0,0.012568279169499874
22.0,0.011987634934484959
24.0,0.011409335769712925
26.0,0.010883565060794353
28.0,0.010450543835759163
30.0,0.010079942643642426
32.0,0.009743974544107914
36.0,0.009093561209738255
40.0,0.008485625497996807
44.0,0.007885431870818138
48.0,0.007279795128852129
52.0,0.006697657983750105
56.0,0.006113402545452118
60.0,0.005668664816766977
64.0,0.005278585013002157
72.0,0.004737688694149256
80.0,0.004432383459061384
88.0,0.0039682635106146336
96.0,0.0035646643955260515
104.0,0.00312961358577013
112.0,0.002819197019562125
120.0,0.0027032792568206787
128.0,0.002591824857518077
144.0,0.002026120200753212
160.0,0.0015854297671467066
176.0,0.0017237139400094748
192.0,0.0020588214974850416
208.0,0.0022067467216402292
224.0,0.0026207163464277983
240.0,0.00260178348980844
256.0,0.0023208297789096832
288.0,0.0028803315944969654
320.0,0.0024079708382487297
352.0,0.0022540006320923567
384.0,0.0021696314215660095
416.0,0.0022765519097447395
448.0,0.002035503974184394
480.0,0.001439194311387837
512.0,0.0012376492377370596
576.0,-0.0003765324945561588
640.0,-0.00012121101462980732
704.0,-0.00037499057361856103
768.0,-0.0004397517768666148
832.0,0.000609236303716898
896.0,0.0009618818876333535
960.0,-7.134659244911745e-05
1024.0,-0.0008094307850115001
1152.0,-0.001353160827420652
1280.0,-0.0014461495447903872
1408.0,-0.0020419317297637463
1536.0,-0.0015900335274636745
1664.0,-0.0017039849190041423
1792.0,-0.002000153763219714
1920.0,-0.0011709174141287804
2048.0,0.00047724624164402485
2304.0,-9.21301543712616e-05
2560.0,0.00034680639510042965
2816.0,0.0008427617722190917
3072.0,0.0008809181745164096
3328.0,0.0010279373964294791
3584.0,-0.00032052560709416866
3840.0,0.0009223890374414623
4096.0,0.00141018140129745
4608.0,-0.00017245289927814156
5120.0,-0.0006862576701678336
5632.0,-0.0018818475073203444
6144.0,-0.00011654385889414698
6656.0,0.0006933998083695769
7168.0,0.001865923055447638
7680.0,0.0008756728493608534
8192.0,-0.000266578106675297
end
