version,3.0
numOfCh,1
type,point
parent_name,fe81d_0dot6-0dot01
ch_type,1_1
kcount,1
numberNandB,1
brightnessNandB,1
carpet pos,0
pc,0
Time (ms),CH1 Auto-Correlation
1.0,0.024929780513048172
2.0,0.023864466696977615
3.0,0.02289433591067791
4.0,0.02201220579445362
5.0,0.02119712345302105
6.0,0.02046274021267891
7.0,0.019761698320508003
8.0,0.01912030577659607
9.0,0.018526986241340637
10.0,0.01798415370285511
11.0,0.01748947985470295
12.0,0.01703006401658058
13.0,0.016625171527266502
14.0,0.016223371028900146
15.0,0.015843380242586136
16.0,0.015496505424380302
18.0,0.014853161759674549
20.0,0.01425701379776001
22.0,0.01369504351168871
24.0,0.013115488924086094
26.0,0.012527268379926682
28.0,0.012023835442960262
30.0,0.011534812860190868
32.0,0.011148249730467796
36.0,0.010551409795880318
40.0,0.010009907186031342
44.0,0.009399199858307838
48.0,0.008836950175464153
52.0,0.008579676039516926
56.0,0.008307861164212227
60.0,0.008057676255702972
64.0,0.007677060551941395
72.0,0.006664690095931292
80.0,0.0057459319941699505
88.0,0.005344313569366932
96.0,0.005427298601716757
104.0,0.005367155186831951
112.0,0.0050547486171126366
120.0,0.004751504864543676
128.0,0.004783569369465113
144.0,0.004130054265260696
160.0,0.003818719880655408
176.0,0.0036892814096063375
192.0,0.003359565045684576
208.0,0.0030367644503712654
224.0,0.002693952526897192
240.0,0.0024312480818480253
256.0,0.002313402248546481
288.0,0.0026064852718263865
320.0,0.0035853285808116198
352.0,0.003462580731138587
384.0,0.0023097191005945206
416.0,0.0022132406011223793
448.0,0.0008634838741272688
480.0,0.00035751305404119194
512.0,-0.0002960042911581695
576.0,-0.0002214594860561192
640.0,-0.0007584188715554774
704.0,-0.0003464554902166128
768.0,-0.0009542234474793077
832.0,-0.0028319431003183126
896.0,-0.0017461538081988692
960.0,-0.001060578739270568
1024.0,-0.0026882756501436234
1152.0,-0.0016436177538707852
1280.0,-0.0005488456226885319
1408.0,-0.002017129445448518
1536.0,-0.0021463711746037006
1664.0,-0.002080473816022277
1792.0,-0.0027640070766210556
1920.0,-0.0017078963574022055
2048.0,-0.0027443747967481613
2304.0,-0.0013200780376791954
2560.0,-0.0010449019027873874
2816.0,-0.0007453273283317685
3072.0,0.0022872420959174633
3328.0,0.0035116958897560835
3584.0,0.0037639031652361155
3840.0,0.0011073421919718385
4096.0,-0.00024129082157742232
4608.0,-0.001333739492110908
5120.0,-0.0009281058446504176
5632.0,0.0005168407806195319
6144.0,0.0006999159813858569
6656.0,0.0009879950666800141
7168.0,0.0012362246634438634
7680.0,-0.0016436862060800195
8192.0,-0.0027718134224414825
end
