version,3.0
numOfCh,1
type,point
parent_name,fe81d_0dot6-0dot01
ch_type,1_1
kcount,1
numberNandB,1
brightnessNandB,1
carpet pos,0
pc,0
Time (ms),CH1 Auto-Correlation
1.0,0.022652067244052887
2.0,0.02157764695584774
3.0,0.020589720457792282
4.0,0.019692419096827507
5.0,0.018857847899198532
6.0,0.018070345744490623
7.0,0.017343513667583466
8.0,0.016695154830813408
9.0,0.016088025644421577
10.0,0.015530805103480816
11.0,0.015019318088889122
12.0,0.014564093202352524
13.0,0.014143572188913822
14.0,0.013735394924879074
15.0,0.01335274986922741
16.0,0.0129496268928051
18.0,0.012203647755086422
20.0,0.011506713926792145
22.0,0.010899276472628117
24.0,0.010343037545681
26.0,0.009862947277724743
28.0,0.009398212656378746
30.0,0.008981410413980484
32.0,0.008613964542746544
36.0,0.00803434383124113
40.0,0.007563556078821421
44.0,0.007143971044570208
48.0,0.00676918588578701
52.0,0.0062489197589457035
56.0,0.005685088224709034
60.0,0.005057841539382935
64.0,0.004536900203675032
72.0,0.003668894525617361
80.0,0.0030354426708072424
88.0,0.0025292453356087208
96.0,0.0023370925337076187
104.0,0.0021668695844709873
112.0,0.0019250657642260194
120.0,0.0015213716542348266
128.0,0.0011872736504301429
144.0,0.0009572923881933093
160.0,0.0006775166257284582
176.0,-0.00042206133366562426
192.0,-0.0004393023264128715
208.0,8.914851059671491e-05
224.0,0.00022199857630766928
240.0,0.00017444264085497707
256.0,-6.398565165000036e-05
288.0,-0.00024440002744086087
320.0,-0.00018834127695299685
352.0,0.0002644173800945282
384.0,0.0004513979656621814
416.0,0.00046576891327276826
448.0,0.00016987310664262623
480.0,-0.00010527392441872507
512.0,5.410436642705463e-05
576.0,0.0012107384391129017
640.0,0.0008531025378033519
704.0,-0.00010434468276798725
768.0,0.000685912324115634
832.0,0.0007030398119240999
896.0,0.0008343788795173168
960.0,0.0012929916847497225
1024.0,0.0010632571065798402
1152.0,0.0016879806062206626
1280.0,-0.000328341091517359
1408.0,-3.3882177376654e-05
1536.0,0.0007934968452900648
1664.0,0.0005851167370565236
1792.0,-0.0014098462415859103
1920.0,-0.001091616926714778
2048.0,0.0003474644909147173
2304.0,1.2514097761595622e-05
2560.0,-9.783128916751593e-05
2816.0,-0.0018135737627744675
3072.0,-0.0009432229562662542
3328.0,-0.00024037483672145754
3584.0,-0.0013048994587734342
3840.0,-0.0020488265436142683
4096.0,-0.00035833570291288197
4608.0,-0.0014269048115238547
5120.0,-0.0004804859927389771
5632.0,-0.0006422896985895932
6144.0,0.00022085818636696786
6656.0,0.000872353499289602
7168.0,0.0001644299627514556
7680.0,0.0013874287251383066
8192.0,0.0008808247512206435
end
