version,3.0
numOfCh,1
type,point
parent_name,100-cuts
ch_type,1_1
kcount,1
numberNandB,1
brightnessNandB,1
carpet pos,0
pc,0
Time (ms),CH1 Auto-Correlation
1.0,0.030904486775398254
2.0,0.030135057866573334
3.0,0.029393233358860016
4.0,0.02866813912987709
5.0,0.027960101142525673
6.0,0.027261868119239807
7.0,0.02660450153052807
8.0,0.025963636115193367
9.0,0.025333167985081673
10.0,0.024733738973736763
11.0,0.024164652451872826
12.0,0.023616638034582138
13.0,0.023113196715712547
14.0,0.022639280185103416
15.0,0.022162867709994316
16.0,0.0217090155929327
18.0,0.02086089365184307
20.0,0.02002643421292305
22.0,0.019265856593847275
24.0,0.018578549847006798
26.0,0.017950909212231636
28.0,0.017371268942952156
30.0,0.016834242269396782
32.0,0.016298815608024597
36.0,0.015361287631094456
40.0,0.014466959051787853
44.0,0.013516852632164955
48.0,0.01273847371339798
52.0,0.012105267494916916
56.0,0.011612467467784882
60.0,0.011086789891123772
64.0,0.010614192113280296
72.0,0.01006648875772953
80.0,0.009563321247696877
88.0,0.008934603072702885
96.0,0.008338226936757565
104.0,0.007803274318575859
112.0,0.007573376875370741
120.0,0.007521076127886772
128.0,0.007209360599517822
144.0,0.006170344538986683
160.0,0.005006648134440184
176.0,0.003984659910202026
192.0,0.0031290450133383274
208.0,0.0028534468729048967
224.0,0.0022757630795240402
240.0,0.0017010911833494902
256.0,0.0017872087191790342
288.0,0.0021816527005285025
320.0,0.002042333362624049
352.0,0.0021187574602663517
384.0,0.0018832030473276973
416.0,0.001995182130485773
448.0,0.002693282440304756
480.0,0.003584252204746008
512.0,0.002926433924585581
576.0,0.002370668575167656
640.0,0.003663316834717989
704.0,0.0026874342001974583
768.0,0.0010819326853379607
832.0,0.0011698746820911765
896.0,0.0010608222801238298
960.0,0.0010978862410411239
1024.0,0.0020493941847234964
1152.0,0.0026033485773950815
1280.0,0.002314693061634898
1408.0,0.0016698827967047691
1536.0,0.0012299868976697326
1664.0,-0.0020396867766976357
1792.0,-0.0016891475534066558
1920.0,0.0006515108980238438
2048.0,-0.0005868845037184656
2304.0,-5.103601870359853e-05
2560.0,0.00025685346918180585
2816.0,0.0005731973797082901
3072.0,-0.0007195304497145116
3328.0,0.0006764326826669276
3584.0,0.002510785823687911
3840.0,0.00143474992364645
4096.0,0.0006982154445722699
4608.0,0.0007716711261309683
5120.0,-0.0010510616702958941
5632.0,-0.001104909460991621
6144.0,-0.001789719332009554
6656.0,-0.0028259349055588245
7168.0,-0.0009457680280320346
7680.0,-0.0023136979434639215
8192.0,-0.0034098876640200615
9216.0,-0.002211919752880931
10240.0,-0.0008281960617750883
11264.0,-0.0012189523549750447
12288.0,-0.003976169042289257
13312.0,0.00024926711921580136
14336.0,0.007463743910193443
end
