version,3.0
numOfCh,1
type,point
parent_name,100-cuts
ch_type,1_1
kcount,1
numberNandB,1
brightnessNandB,1
carpet pos,0
pc,0
Time (ms),CH1 Auto-Correlation
1.0,0.02251547761261463
2.0,0.022027824074029922
3.0,0.021545130759477615
4.0,0.021079592406749725
5.0,0.020643193274736404
6.0,0.020223716273903847
7.0,0.01982909068465233
8.0,0.019432425498962402
9.0,0.019044656306505203
10.0,0.01867551915347576
11.0,0.018314167857170105
12.0,0.017955150455236435
13.0,0.01758710667490959
14.0,0.017238153144717216
15.0,0.01689201220870018
16.0,0.016562215983867645
18.0,0.015935814008116722
20.0,0.015305816195905209
22.0,0.01472646277397871
24.0,0.014179474674165249
26.0,0.01364933792501688
28.0,0.013171016238629818
30.0,0.012726837769150734
32.0,0.012293555773794651
36.0,0.011417029425501823
40.0,0.01058206520974636
44.0,0.00984968151897192
48.0,0.009194564074277878
52.0,0.008633335120975971
56.0,0.008158686570823193
60.0,0.007744683418422937
64.0,0.007362120784819126
72.0,0.0066055115312337875
80.0,0.005808934569358826
88.0,0.005097195506095886
96.0,0.004474001936614513
104.0,0.003974662162363529
112.0,0.003612716216593981
120.0,0.003379552159458399
128.0,0.003180057741701603
144.0,0.002915608696639538
160.0,0.0024739981163293123
176.0,0.0018470317590981722
192.0,0.0013829004019498825
208.0,0.0013846273068338633
224.0,0.0016268122708424926
240.0,0.002031659008935094
256.0,0.0023618703708052635
288.0,0.002005517715588212
320.0,0.001670411555096507
352.0,0.0007134668412618339
384.0,0.00055668008280918
416.0,0.00032936051138676703
448.0,-2.5409995942027308e-05
480.0,0.0010205324506387115
512.0,0.002241487381979823
576.0,0.002870079129934311
640.0,0.0017791794380173087
704.0,0.0003527275111991912
768.0,-0.00032676412956789136
832.0,-0.00032374385045841336
896.0,-0.0006921820458956063
960.0,-0.00016753023373894393
1024.0,-0.000340557424351573
1152.0,0.0017503839917480946
1280.0,0.001696715597063303
1408.0,-0.0009169546538032591
1536.0,-0.0014470237074419856
1664.0,-0.0009418806293979287
1792.0,9.116189175983891e-05
1920.0,-0.0020480176899582148
2048.0,-0.0020235057454556227
2304.0,-0.0014753704890608788
2560.0,-0.0004536523192655295
2816.0,-0.0001525501866126433
3072.0,-0.00105227658059448
3328.0,-0.0010468674590811133
3584.0,-0.0006066889618523419
3840.0,9.85370934358798e-05
4096.0,0.001612091320566833
4608.0,0.0007620081887580454
5120.0,0.0004728244384750724
5632.0,0.00040431335219182074
6144.0,0.00030650588450953364
6656.0,-0.0013247268507257104
7168.0,-0.0017261139582842588
7680.0,-0.0020445066038519144
8192.0,-0.0011813821038231254
9216.0,-0.0012605153024196625
10240.0,0.0024662099312990904
11264.0,-0.0011036075884476304
12288.0,0.0006849385099485517
13312.0,0.0016865745419636369
14336.0,-0.0009419135749340057
end
