version,3.0
numOfCh,1
type,point
parent_name,100-cuts
ch_type,1_1
kcount,1
numberNandB,1
brightnessNandB,1
carpet pos,0
pc,0
Time (ms),CH1 Auto-Correlation
1.0,0.02265152707695961
2.0,0.02216169610619545
3.0,0.021687185391783714
4.0,0.02122831717133522
5.0,0.02077575959265232
6.0,0.02034313604235649
7.0,0.01991642825305462
8.0,0.01949790120124817
9.0,0.019098982214927673
10.0,0.01871834509074688
11.0,0.01835012435913086
12.0,0.01799866370856762
13.0,0.01766255684196949
14.0,0.017337143421173096
15.0,0.017027927562594414
16.0,0.016724126413464546
18.0,0.016140254214406013
20.0,0.015567597933113575
22.0,0.015033568255603313
24.0,0.014550379477441311
26.0,0.014099114574491978
28.0,0.013663184829056263
30.0,0.01325317658483982
32.0,0.012842893600463867
36.0,0.012063662521541119
40.0,0.011303842067718506
44.0,0.01057503093034029
48.0,0.009921626187860966
52.0,0.009298526681959629
56.0,0.008713527582585812
60.0,0.008202380500733852
64.0,0.00780322914943099
72.0,0.007159248925745487
80.0,0.00659472169354558
88.0,0.006094403564929962
96.0,0.005538359750062227
104.0,0.004966114182025194
112.0,0.0043671634048223495
120.0,0.004015493672341108
128.0,0.003838468575850129
144.0,0.0035956131760030985
160.0,0.0032585773151367903
176.0,0.0027315227780491114
192.0,0.002620662795379758
208.0,0.002194770146161318
224.0,0.001774907810613513
240.0,0.0012683166423812509
256.0,0.0008215417037717998
288.0,0.0005819233483634889
320.0,-0.0001331804523942992
352.0,-0.0012632817961275578
384.0,-0.0014902944676578045
416.0,-0.0010987278074026108
448.0,-0.0010219730902463198
480.0,-0.00025081259082071483
512.0,3.792252027778886e-05
576.0,0.0002057256642729044
640.0,0.0014329430414363742
704.0,0.0015743132680654526
768.0,0.0020964154973626137
832.0,0.0023998264223337173
896.0,0.001917292014695704
960.0,0.0018424273002892733
1024.0,0.0005869944579899311
1152.0,0.00034513077116571367
1280.0,0.00011264263594057411
1408.0,-0.0011706816731020808
1536.0,-0.0009480707813054323
1664.0,0.00018376146908849478
1792.0,0.0005518576363101602
1920.0,0.0007303868769668043
2048.0,0.0009875977411866188
2304.0,0.0009132763370871544
2560.0,-0.001170944538898766
2816.0,-0.0007167777512222528
3072.0,0.00022564562095794827
3328.0,-0.0014265959616750479
3584.0,-0.003961588721722364
3840.0,-0.0011589295463636518
4096.0,0.000183743322850205
4608.0,-0.0001763030595611781
5120.0,-0.00013259275874588639
5632.0,0.0002583257155492902
6144.0,-8.068909664871171e-05
6656.0,0.0012713404139503837
7168.0,9.320981916971505e-06
7680.0,-0.0009191322606056929
8192.0,0.00026197382248938084
9216.0,-0.0015052329981699586
10240.0,-0.0023086341097950935
11264.0,-0.001434256206266582
12288.0,0.0006429755012504756
13312.0,0.0027021269779652357
14336.0,0.002639184007421136
end
