version,3.0
numOfCh,1
type,point
parent_name,100-cuts
ch_type,1_1
kcount,1
numberNandB,1
brightnessNandB,1
carpet pos,0
pc,0
Time (ms),CH1 Auto-Correlation
1.0,0.02419900707900524
2.0,0.023486947640776634
3.0,0.022791335359215736
4.0,0.022121606394648552
5.0,0.02149365283548832
6.0,0.020888671278953552
7.0,0.020312251523137093
8.0,0.019758431240916252
9.0,0.01921004056930542
10.0,0.018661152571439743
11.0,0.018120041117072105
12.0,0.017593124881386757
13.0,0.01706555485725403
14.0,0.016552116721868515
15.0,0.016051724553108215
16.0,0.015535471960902214
18.0,0.014569830149412155
20.0,0.013696476817131042
22.0,0.012924657203257084
24.0,0.012190663255751133
26.0,0.011511588469147682
28.0,0.010897093452513218
30.0,0.010317327454686165
32.0,0.009709909558296204
36.0,0.008542707189917564
40.0,0.0074784476310014725
44.0,0.006669546011835337
48.0,0.005972874816507101
52.0,0.005364967975765467
56.0,0.004862997215241194
60.0,0.004450727254152298
64.0,0.004124804399907589
72.0,0.0037989113479852676
80.0,0.0036242944188416004
88.0,0.0033176441211253405
96.0,0.003022555960342288
104.0,0.0029473681934177876
112.0,0.0028598776552826166
120.0,0.002665039151906967
128.0,0.0022231144830584526
144.0,0.0016291500069200993
160.0,0.0012773233465850353
176.0,0.0008672542171552777
192.0,0.0008068101014941931
208.0,0.0004262170987203717
224.0,5.6196713558165357e-05
240.0,-4.4159347453387454e-05
256.0,-5.371392398956232e-05
288.0,-0.00045857197255827487
320.0,-0.0007214037468656898
352.0,-0.00018939442816190422
384.0,0.0006146460073068738
416.0,0.0006892039673402905
448.0,0.00042104520252905786
480.0,0.0006464268662966788
512.0,0.001011068932712078
576.0,0.001040820381604135
640.0,0.00033954414539039135
704.0,0.0006360482075251639
768.0,-0.0005099262925796211
832.0,1.0775564987852704e-05
896.0,0.00019257796520832926
960.0,0.0022378796711564064
1024.0,0.000791154510807246
1152.0,-0.0004364479682408273
1280.0,-0.00029437054763548076
1408.0,0.0006492477259598672
1536.0,0.0008719349862076342
1664.0,-0.0009110805112868547
1792.0,-0.0021705019753426313
1920.0,-0.001471026218496263
2048.0,-0.0010887219104915857
2304.0,-4.366155553725548e-05
2560.0,-0.0017411458538845181
2816.0,-0.0006855985848233104
3072.0,-0.0007709614001214504
3328.0,-0.000632171577308327
3584.0,0.00014907044533174485
3840.0,-7.00136661180295e-05
4096.0,0.00014988738985266536
4608.0,0.00039210543036460876
5120.0,0.0004541134985629469
5632.0,-0.0005250147078186274
6144.0,0.0004826856020372361
6656.0,0.00012993895506951958
7168.0,-0.0008599341381341219
7680.0,0.0005495164077728987
8192.0,-4.850859841099009e-05
9216.0,0.0007131214952096343
10240.0,0.0007603432750329375
11264.0,-0.0023918587248772383
12288.0,-0.0019575785845518112
13312.0,0.0017822316149249673
14336.0,0.0021395988296717405
end
