version,3.0
numOfCh,1
type,point
parent_name,100-cuts
ch_type,1_1
kcount,1
numberNandB,1
brightnessNandB,1
carpet pos,0
pc,0
Time (ms),CH1 Auto-Correlation
1.0,0.05669942870736122
2.0,0.05516510829329491
3.0,0.05371931940317154
4.0,0.052323129028081894
5.0,0.05098804458975792
6.0,0.04968796670436859
7.0,0.048438660800457
8.0,0.04724719375371933
9.0,0.04606720805168152
10.0,0.04492418095469475
11.0,0.04381086677312851
12.0,0.04270670562982559
13.0,0.041626691818237305
14.0,0.0405682735145092
15.0,0.03953529894351959
16.0,0.038529518991708755
18.0,0.03662491589784622
20.0,0.0349016897380352
22.0,0.03331409767270088
24.0,0.03183465451002121
26.0,0.03041509911417961
28.0,0.029033973813056946
30.0,0.027752535417675972
32.0,0.026465516537427902
36.0,0.024087566882371902
40.0,0.02194332890212536
44.0,0.020091090351343155
48.0,0.018607312813401222
52.0,0.017300300300121307
56.0,0.016208982095122337
60.0,0.01507378090173006
64.0,0.01386269647628069
72.0,0.011785152368247509
80.0,0.010588569566607475
88.0,0.009652255102992058
96.0,0.008750706911087036
104.0,0.007647811435163021
112.0,0.006651971023529768
120.0,0.0057968455366790295
128.0,0.004891276825219393
144.0,0.004106658045202494
160.0,0.0030657341703772545
176.0,0.0024000329431146383
192.0,0.002917729550972581
208.0,0.0028457569424062967
224.0,0.002188578015193343
240.0,0.0017092919442802668
256.0,0.0023417863994836807
288.0,0.0021641056519001722
320.0,0.001543186022900045
352.0,0.002720111282542348
384.0,0.0035551453474909067
416.0,0.004269860219210386
448.0,0.00414227694272995
480.0,0.0011757577303797007
512.0,-0.0015168247045949101
576.0,-0.0009268075809814036
640.0,-0.0021166608203202486
704.0,-0.003658622270449996
768.0,-0.004264406394213438
832.0,-0.0040639289654791355
896.0,-0.003548002801835537
960.0,-0.00029908056603744626
1024.0,-0.0017049957532435656
1152.0,-0.0021683869417756796
1280.0,-0.0022217032965272665
1408.0,0.0001703137968434021
1536.0,0.0013255601515993476
1664.0,-0.00039510897477157414
1792.0,0.003987704403698444
1920.0,0.0036458992399275303
2048.0,-0.00012567886733449996
2304.0,-0.00214778957888484
2560.0,-0.0071271928027272224
2816.0,-0.0058618588373064995
3072.0,-0.0045357379131019115
3328.0,-0.00013762290473096073
3584.0,0.0008682970656082034
3840.0,0.0043099308386445045
4096.0,0.0033594246488064528
4608.0,0.0012570382095873356
5120.0,0.001802919083274901
5632.0,0.0024918823037296534
6144.0,-0.0013268631882965565
6656.0,-0.004046231508255005
7168.0,-0.001962080132216215
7680.0,-0.0007075130706652999
8192.0,-0.0007283702143467963
9216.0,0.003512836992740631
10240.0,-0.00036693201400339603
11264.0,-0.00035391218261793256
12288.0,-0.0014742891071364284
13312.0,0.0006321343826130033
14336.0,0.002378994831815362
end
