version,3.0
numOfCh,1
type,point
parent_name,100-cuts
ch_type,1_1
kcount,1
numberNandB,1
brightnessNandB,1
carpet pos,0
pc,0
Time (ms),CH1 Auto-Correlation
1.0,0.023140355944633484
2.0,0.022647397592663765
3.0,0.02217387966811657
4.0,0.02170490473508835
5.0,0.021255329251289368
6.0,0.02081424742937088
7.0,0.02038690447807312
8.0,0.019960133358836174
9.0,0.019530175253748894
10.0,0.01910506933927536
11.0,0.018702838569879532
12.0,0.01831398718059063
13.0,0.017935656011104584
14.0,0.01757952943444252
15.0,0.017223531380295753
16.0,0.01687588356435299
18.0,0.016238799318671227
20.0,0.015634214505553246
22.0,0.015063885599374771
24.0,0.014539855532348156
26.0,0.014033157378435135
28.0,0.013544365763664246
30.0,0.013090010732412338
32.0,0.01265773456543684
36.0,0.011891746893525124
40.0,0.011200102046132088
44.0,0.010565557517111301
48.0,0.009930811822414398
52.0,0.00929100252687931
56.0,0.008656641468405724
60.0,0.008013359270989895
64.0,0.007383556105196476
72.0,0.006365865934640169
80.0,0.005511767230927944
88.0,0.0046423557214438915
96.0,0.00391412666067481
104.0,0.0032807488460093737
112.0,0.0027722888626158237
120.0,0.0024399375542998314
128.0,0.002250941237434745
144.0,0.0020983070135116577
160.0,0.0018741271924227476
176.0,0.0016034924192354083
192.0,0.0008775134920142591
208.0,0.0005015340866521001
224.0,0.00048578184214420617
240.0,0.00016730093921069056
256.0,-0.00044475108734332025
288.0,-0.0011139605194330215
320.0,-0.0012955291895195842
352.0,-0.0014336002059280872
384.0,-0.0009736338397487998
416.0,-0.00032686584745533764
448.0,0.00021262808877509087
480.0,0.0006882874295115471
512.0,0.0008204581681638956
576.0,0.00018540595192462206
640.0,0.0007880011689849198
704.0,0.0012946219649165869
768.0,-0.0002657193108461797
832.0,-0.0010737485717982054
896.0,-9.0280722361058e-05
960.0,-0.0006366870948113501
1024.0,0.00023647514171898365
1152.0,0.0010066117392852902
1280.0,0.0018023161683231592
1408.0,0.0006115635624155402
1536.0,-0.0024996676947921515
1664.0,-0.0009211916476488113
1792.0,0.0019965057726949453
1920.0,0.002334024291485548
2048.0,0.0014537913957610726
2304.0,0.001496338052675128
2560.0,-0.0007172396872192621
2816.0,-0.0006499485461972654
3072.0,0.0007476736791431904
3328.0,-0.002427596366032958
3584.0,0.0010964771499857306
3840.0,-0.0007970285369083285
4096.0,0.0011361403157934546
4608.0,0.0007078692433424294
5120.0,-0.0010113288881257176
5632.0,8.953544602263719e-05
6144.0,0.000529589771758765
6656.0,0.0003611077554523945
7168.0,-0.0004703892336692661
7680.0,-0.001420353539288044
8192.0,0.0002690149121917784
9216.0,-0.00026075349887833
10240.0,-0.0011855760822072625
11264.0,-0.0013838300947099924
12288.0,-0.0020027272403240204
13312.0,-0.0003883388126268983
14336.0,-0.0006920617306604981
end
