version,3.0
numOfCh,1
type,point
parent_name,100-cuts
ch_type,1_1
kcount,1
numberNandB,1
brightnessNandB,1
carpet pos,0
pc,0
Time (ms),CH1 Auto-Correlation
1.0,0.019604217261075974
2.0,0.01912248693406582
3.0,0.018656307831406593
4.0,0.018216408789157867
5.0,0.01780536398291588
6.0,0.017409782856702805
7.0,0.017034010961651802
8.0,0.016659289598464966
9.0,0.01629071682691574
10.0,0.015935810282826424
11.0,0.015578350983560085
12.0,0.015226410701870918
13.0,0.014897165820002556
14.0,0.014585500583052635
15.0,0.014282431453466415
16.0,0.013979068025946617
18.0,0.013409364968538284
20.0,0.0128650963306427
22.0,0.012355349026620388
24.0,0.01186928991228342
26.0,0.011424914933741093
28.0,0.011003829538822174
30.0,0.010599629022181034
32.0,0.010213320143520832
36.0,0.009470033459365368
40.0,0.008747958578169346
44.0,0.00805790163576603
48.0,0.007398902904242277
52.0,0.006737834773957729
56.0,0.006107317749410868
60.0,0.005510411225259304
64.0,0.004913019947707653
72.0,0.0039067924953997135
80.0,0.0031967973336577415
88.0,0.002628072863444686
96.0,0.0022537680342793465
104.0,0.0018666763789951801
112.0,0.0014864972326904535
120.0,0.0010339557193219662
128.0,0.0005218622973188758
144.0,-0.000104803271824494
160.0,-0.00025904469657689333
176.0,-0.00023238782887347043
192.0,-0.00014694672427140176
208.0,-0.00010322238085791469
224.0,-0.00024561912869103253
240.0,-0.0001224257139256224
256.0,0.0001533842005301267
288.0,0.0005398124922066927
320.0,0.00014674088743049651
352.0,-0.00021954964904580265
384.0,-0.00019079886260442436
416.0,0.0006308016600087285
448.0,0.0010924162343144417
480.0,0.0008314495789818466
512.0,0.0005831781309098005
576.0,-0.0006538229645229876
640.0,-6.461363955168054e-05
704.0,0.0009990597609430552
768.0,0.0005567545886151493
832.0,0.00039386196294799447
896.0,0.000338645710144192
960.0,0.0007906072423793375
1024.0,-0.0002842339454218745
1152.0,-0.0013403231278061867
1280.0,-0.0013243304565548897
1408.0,0.0003276844508945942
1536.0,0.0007618271629326046
1664.0,0.00014640278823208064
1792.0,-0.0009237101767212152
1920.0,7.650286715943366e-05
2048.0,3.638130237959558e-06
2304.0,0.0010318225249648094
2560.0,-0.0007217968231998384
2816.0,0.0006420815479941666
3072.0,-9.22751787584275e-05
3328.0,-0.000999363837763667
3584.0,-0.0002856750215869397
3840.0,0.00035247852792963386
4096.0,-0.0016027831006795168
4608.0,0.0007592480396851897
5120.0,0.0013846363872289658
5632.0,-0.000589345523621887
6144.0,-0.0006380385020747781
6656.0,0.00013778505672235042
7168.0,-0.0005129380151629448
7680.0,-0.0007537156925536692
8192.0,-0.0005067953024990857
9216.0,-0.00038183387368917465
10240.0,2.9071234166622162e-05
11264.0,0.0002142137091141194
12288.0,-0.0001496990444138646
13312.0,-0.0021745830308645964
14336.0,0.001892144326120615
end
