version,3.0
numOfCh,1
type,point
parent_name,100-cuts
ch_type,1_1
kcount,1
numberNandB,1
brightnessNandB,1
carpet pos,0
pc,0
Time (ms),CH1 Auto-Correlation
1.0,0.05855179205536842
2.0,0.05687406659126282
3.0,0.05521965026855469
4.0,0.053626496344804764
5.0,0.052114445716142654
6.0,0.05063614621758461
7.0,0.04923455789685249
8.0,0.047869592905044556
9.0,0.04654746502637863
10.0,0.0452861413359642
11.0,0.04406817629933357
12.0,0.04286778345704079
13.0,0.041706815361976624
14.0,0.0405893512070179
15.0,0.03948146104812622
16.0,0.038417987525463104
18.0,0.036398664116859436
20.0,0.03439387306571007
22.0,0.03243430331349373
24.0,0.030535109341144562
26.0,0.028755012899637222
28.0,0.027045074850320816
30.0,0.02544807456433773
32.0,0.023873040452599525
36.0,0.020849185064435005
40.0,0.017977241426706314
44.0,0.015230659395456314
48.0,0.012843916192650795
52.0,0.01077323593199253
56.0,0.009122406132519245
60.0,0.007872200571000576
64.0,0.006927600130438805
72.0,0.005476217716932297
80.0,0.004489801358431578
88.0,0.0038990769535303116
96.0,0.0035061067901551723
104.0,0.0036409262102097273
112.0,0.003633171087130904
120.0,0.003328392980620265
128.0,0.0029703304171562195
144.0,0.0023049931041896343
160.0,0.001893780194222927
176.0,0.001206804416142404
192.0,0.00040906143840402365
208.0,0.00022806816559750587
224.0,-0.00013912955182604492
240.0,-0.0004049315466545522
256.0,-0.0010259072296321392
288.0,7.022579666227102e-05
320.0,0.0004885855014435947
352.0,-0.0005027622682973742
384.0,-0.0012489256914705038
416.0,-0.0023815662134438753
448.0,-0.0009146462543867528
480.0,-0.0014564096927642822
512.0,-0.0010743369348347187
576.0,0.00022390142839867622
640.0,-0.0022118049673736095
704.0,-0.0005474644713103771
768.0,-0.0010785415070131421
832.0,-0.0014840431977063417
896.0,-0.0019180073868483305
960.0,-0.0010976511985063553
1024.0,-0.0013365339254960418
1152.0,-0.001241844380274415
1280.0,-0.0021194720175117254
1408.0,-0.0021881747525185347
1536.0,0.0009010834619402885
1664.0,0.0006583720678463578
1792.0,0.003487016074359417
1920.0,0.004795456305146217
2048.0,0.003391493810340762
2304.0,0.0016388439107686281
2560.0,-0.001562114106491208
2816.0,-0.0019512951839715242
3072.0,-0.002838603686541319
3328.0,-0.003260790603235364
3584.0,0.003618646413087845
3840.0,-0.0016235049115493894
4096.0,0.003881982993334532
4608.0,-0.00046841008588671684
5120.0,-0.001989870797842741
5632.0,0.000604059430770576
6144.0,2.1325888610590482e-07
6656.0,-0.002231327584013343
7168.0,-2.2519031972478842e-06
7680.0,-0.00015886675100773573
8192.0,-0.0011885586427524686
9216.0,0.0011496995575726032
10240.0,-0.0010115505428984761
11264.0,0.0006770042818970978
12288.0,-0.003005039179697633
13312.0,0.0009613162255845964
14336.0,-0.002581372857093811
end
