version,3.0
numOfCh,1
type,point
parent_name,100-cuts
ch_type,1_1
kcount,1
numberNandB,1
brightnessNandB,1
carpet pos,0
pc,0
Time (ms),CH1 Auto-Correlation
1.0,0.022925395518541336
2.0,0.022353528067469597
3.0,0.021796811372041702
4.0,0.02125636674463749
5.0,0.020736299455165863
6.0,0.02021676115691662
7.0,0.019702402874827385
8.0,0.01920798234641552
9.0,0.018728630617260933
10.0,0.018249135464429855
11.0,0.01779189147055149
12.0,0.01734926551580429
13.0,0.016902735456824303
14.0,0.01646876148879528
15.0,0.016041971743106842
16.0,0.015624879859387875
18.0,0.014840003103017807
20.0,0.01408363226801157
22.0,0.013350347056984901
24.0,0.012675433419644833
26.0,0.012056867592036724
28.0,0.011467674747109413
30.0,0.010908938013017178
32.0,0.010378668084740639
36.0,0.009369934909045696
40.0,0.008443920873105526
44.0,0.007623541168868542
48.0,0.006843500770628452
52.0,0.006181004457175732
56.0,0.005643662065267563
60.0,0.0051535340026021
64.0,0.004701241385191679
72.0,0.0037619881331920624
80.0,0.0031209513545036316
88.0,0.0026331180706620216
96.0,0.0022327660117298365
104.0,0.0020756167359650135
112.0,0.0019142713863402605
120.0,0.0017072270857170224
128.0,0.0014010785380378366
144.0,0.0007151633617468178
160.0,0.0006797912647016346
176.0,0.00046498244046233594
192.0,0.00026371050626039505
208.0,3.52495517290663e-05
224.0,0.00024321132514160126
240.0,0.00041447728290222585
256.0,0.0005927198799327016
288.0,0.0009891021763905883
320.0,0.0013606861466541886
352.0,0.0014926313888281584
384.0,0.0011515707010403275
416.0,0.0005192338721826673
448.0,-0.00010291251237504184
480.0,0.00011682477634167299
512.0,-0.0003435656544752419
576.0,-0.0020533509086817503
640.0,-0.001120090833865106
704.0,-0.00014512951020151377
768.0,-0.0006254284526221454
832.0,-0.00015792927297297865
896.0,4.037052349303849e-05
960.0,0.0006639883504249156
1024.0,-0.0007960382499732077
1152.0,-0.0008664698107168078
1280.0,-0.001613750820979476
1408.0,0.0006038148421794176
1536.0,-0.0014987498288974166
1664.0,-0.0012364382855594158
1792.0,0.00018099260341841727
1920.0,-9.532886906526983e-05
2048.0,-0.0007981141679920256
2304.0,0.00021061494771856815
2560.0,0.001103007234632969
2816.0,0.0012210888089612126
3072.0,0.0015107758808881044
3328.0,0.00015014396922197193
3584.0,0.00025071672280319035
3840.0,-0.0012126832734793425
4096.0,-0.0006440088618546724
4608.0,-0.0006412078510038555
5120.0,0.0008268007659353316
5632.0,0.0006609539850614965
6144.0,-0.0016437035519629717
6656.0,0.00019325499306432903
7168.0,-0.001623801770620048
7680.0,0.0005929074832238257
8192.0,0.0008353109005838633
9216.0,-0.00043858762364834547
10240.0,2.3051763491821475e-05
11264.0,-0.0005797247285954654
12288.0,-0.00011613519018283114
13312.0,0.0007077748305164278
14336.0,0.00041203288128599524
end
