version,3.0
numOfCh,1
type,point
parent_name,100-cuts
ch_type,1_1
kcount,1
numberNandB,1
brightnessNandB,1
carpet pos,0
pc,0
Time (ms),CH1 Auto-Correlation
1.0,0.07925662398338318
2.0,0.07755701243877411
3.0,0.07591509073972702
4.0,0.07433539628982544
5.0,0.07280148565769196
6.0,0.07132789492607117
7.0,0.06994528323411942
8.0,0.06856987625360489
9.0,0.06720665842294693
10.0,0.0658487007021904
11.0,0.06454313546419144
12.0,0.06322406977415085
13.0,0.06196027621626854
14.0,0.06075465679168701
15.0,0.05958728864789009
16.0,0.05845314636826515
18.0,0.05625203624367714
20.0,0.05413765832781792
22.0,0.052081819623708725
24.0,0.05016406625509262
26.0,0.04837619140744209
28.0,0.04668194800615311
30.0,0.04515869542956352
32.0,0.04375173896551132
36.0,0.04129067435860634
40.0,0.03894360736012459
44.0,0.03687446564435959
48.0,0.03479217737913132
52.0,0.03271107003092766
56.0,0.03060806356370449
60.0,0.02863243967294693
64.0,0.02683836594223976
72.0,0.02386537753045559
80.0,0.021822726354002953
88.0,0.02087768167257309
96.0,0.020219987258315086
104.0,0.018963517621159554
112.0,0.01745956763625145
120.0,0.015676073729991913
128.0,0.013897283002734184
144.0,0.010474841110408306
160.0,0.00756786810234189
176.0,0.005635523237287998
192.0,0.004649460781365633
208.0,0.0036360148806124926
224.0,0.001771590206772089
240.0,0.0004396225849632174
256.0,0.0009396526729688048
288.0,0.0004515117616392672
320.0,-0.002254554070532322
352.0,-0.004867988638579845
384.0,-0.00327867129817605
416.0,-0.002388149034231901
448.0,-0.002829460659995675
480.0,0.0007221330888569355
512.0,0.0035900224465876818
576.0,-0.0013654287904500961
640.0,-0.006996557116508484
704.0,-0.008237234316766262
768.0,-0.011039461009204388
832.0,-0.011588326655328274
896.0,-0.007721357978880405
960.0,-0.005628577433526516
1024.0,-0.004389183595776558
1152.0,-0.0011302167549729347
1280.0,0.0017933783819898963
1408.0,0.0016513041919097304
1536.0,0.002919458318501711
1664.0,0.004761831369251013
1792.0,0.012827157974243164
1920.0,0.005972995888441801
2048.0,-0.0023664769250899553
2304.0,-0.004744499456137419
2560.0,-0.004894455429166555
2816.0,-6.475287955254316e-05
3072.0,0.002723582787439227
3328.0,0.0016448718961328268
3584.0,-0.004310942720621824
3840.0,0.002586567075923085
4096.0,-0.0027231911662966013
4608.0,0.002659630263224244
5120.0,0.0002595490659587085
5632.0,-0.005684790201485157
6144.0,-0.0004094963369425386
6656.0,0.006075489334762096
7168.0,-0.0021962535101920366
7680.0,-0.001944635296240449
8192.0,-0.0009958790615200996
9216.0,-0.004466014914214611
10240.0,-0.0013070604763925076
11264.0,0.0012870660284534097
12288.0,-0.0012261610245332122
13312.0,0.002759097144007683
14336.0,0.004145272541791201
end
