version,3.0
numOfCh,1
type,point
parent_name,100-cuts
ch_type,1_1
kcount,1
numberNandB,1
brightnessNandB,1
carpet pos,0
pc,0
Time (ms),CH1 Auto-Correlation
1.0,0.033526159822940826
2.0,0.03274713456630707
3.0,0.03200231119990349
4.0,0.03127617761492729
5.0,0.03056970238685608
6.0,0.029901688918471336
7.0,0.02925749495625496
8.0,0.028627362102270126
9.0,0.02802988886833191
10.0,0.027441183105111122
11.0,0.02686079405248165
12.0,0.026293475180864334
13.0,0.025739803910255432
14.0,0.02519388124346733
15.0,0.024643991142511368
16.0,0.02410777471959591
18.0,0.023155663162469864
20.0,0.02224542200565338
22.0,0.021336520090699196
24.0,0.02047245018184185
26.0,0.019655128940939903
28.0,0.01893470622599125
30.0,0.01826275885105133
32.0,0.017653100192546844
36.0,0.01648164726793766
40.0,0.015369432047009468
44.0,0.01444190926849842
48.0,0.013686669059097767
52.0,0.01295474637299776
56.0,0.012245111167430878
60.0,0.011650020256638527
64.0,0.011159288696944714
72.0,0.010522836819291115
80.0,0.009913956746459007
88.0,0.009459325112402439
96.0,0.009100418537855148
104.0,0.008768453262746334
112.0,0.008453203365206718
120.0,0.008067825809121132
128.0,0.007684154901653528
144.0,0.007294763810932636
160.0,0.006403547711670399
176.0,0.005259845405817032
192.0,0.004539045970886946
208.0,0.003699288936331868
224.0,0.002701923716813326
240.0,0.0020534470677375793
256.0,0.0015306462300941348
288.0,0.0009192473953589797
320.0,0.00018973086844198406
352.0,-0.0003923703043255955
384.0,0.00018632762657944113
416.0,-0.00022870358952786773
448.0,-0.0017158513655886054
480.0,-0.0018346791621297598
512.0,-0.001513283816166222
576.0,-0.001608253107406199
640.0,-0.001147090457379818
704.0,-0.0011886211577802896
768.0,-0.00017816585022956133
832.0,0.0003942695038858801
896.0,0.0012183727230876684
960.0,-0.001476023462601006
1024.0,-0.0012441214639693499
1152.0,-0.0022239077370613813
1280.0,-0.00376426475122571
1408.0,-0.002941625425592065
1536.0,-0.001499349600635469
1664.0,-0.0018553314730525017
1792.0,-0.0023787354584783316
1920.0,-0.0016983778914436698
2048.0,-0.0017145895399153233
2304.0,0.0006930941017344594
2560.0,0.002595735713839531
2816.0,-0.00014410470612347126
3072.0,-0.0003437632694840431
3328.0,0.00331735797226429
3584.0,0.002019908046349883
3840.0,0.000831045676022768
4096.0,-0.000192738400073722
4608.0,-0.001556617789901793
5120.0,-0.003074048785492778
5632.0,-0.00033984758192673326
6144.0,0.00579106854274869
6656.0,-0.0014230400556698442
7168.0,0.0004568882577586919
7680.0,-0.0005877092480659485
8192.0,0.0004134234332013875
9216.0,0.000754551962018013
10240.0,-0.0003006757760886103
11264.0,-0.0023457210045307875
12288.0,0.0020732623524963856
13312.0,-0.001740159816108644
14336.0,2.5075889425352216e-05
end
