version,3.0
numOfCh,1
type,point
parent_name,100-cuts
ch_type,1_1
kcount,1
numberNandB,1
brightnessNandB,1
carpet pos,0
pc,0
Time (ms),CH1 Auto-Correlation
1.0,0.06924615055322647
2.0,0.06753905117511749
3.0,0.06585682928562164
4.0,0.0642506554722786
5.0,0.06272800266742706
6.0,0.0612608827650547
7.0,0.05981629714369774
8.0,0.05841481685638428
9.0,0.05704972892999649
10.0,0.05576452240347862
11.0,0.05449467897415161
12.0,0.05327337980270386
13.0,0.052069053053855896
14.0,0.05090782418847084
15.0,0.04976070672273636
16.0,0.04862487316131592
18.0,0.046389464288949966
20.0,0.04428061842918396
22.0,0.042333830147981644
24.0,0.04052044823765755
26.0,0.038879264146089554
28.0,0.03741399571299553
30.0,0.036010660231113434
32.0,0.0346570760011673
36.0,0.0321069210767746
40.0,0.029891660436987877
44.0,0.02806732803583145
48.0,0.02654019370675087
52.0,0.025202542543411255
56.0,0.024065528064966202
60.0,0.02307935245335102
64.0,0.022211851552128792
72.0,0.020622586831450462
80.0,0.019096210598945618
88.0,0.01748071238398552
96.0,0.01633957028388977
104.0,0.015120070427656174
112.0,0.013173241168260574
120.0,0.01127671729773283
128.0,0.009551582857966423
144.0,0.00672971922904253
160.0,0.004395166877657175
176.0,0.0022406838834285736
192.0,0.0006956647266633809
208.0,-0.000946858199313283
224.0,-0.0018653316656127572
240.0,-0.002283572917804122
256.0,-0.0019183122785761952
288.0,-0.002780584152787924
320.0,0.0004472363507375121
352.0,-0.001487678149715066
384.0,-0.0022862942423671484
416.0,-0.0010149001609534025
448.0,-0.003014947287738323
480.0,-0.0036151492968201637
512.0,-0.004210463725030422
576.0,-0.003342749085277319
640.0,0.0017015878111124039
704.0,0.002320546191185713
768.0,0.006218761671334505
832.0,0.008018653839826584
896.0,0.011354529298841953
960.0,0.009693372994661331
1024.0,0.00548976706340909
1152.0,-0.00041819430771283805
1280.0,-0.006564606446772814
1408.0,-0.001014482113532722
1536.0,0.00501047121360898
1664.0,-0.0004687487380579114
1792.0,0.0016043375944718719
1920.0,0.0015325886197388172
2048.0,0.0005526795284822583
2304.0,-0.0008377456688322127
2560.0,-0.0017664926126599312
2816.0,-2.506790406187065e-05
3072.0,0.0001939044304890558
3328.0,0.003473233664408326
3584.0,-0.0015718186041340232
3840.0,0.004670889116823673
4096.0,0.006532886531203985
4608.0,0.00100713933352381
5120.0,-0.0008937836391851306
5632.0,-0.0004117935604881495
6144.0,-0.0011671381071209908
6656.0,-0.0021773402113467455
7168.0,0.0035450055729597807
7680.0,-0.0007150971796363592
8192.0,0.0026836851611733437
9216.0,-0.005417152773588896
10240.0,-0.0034911800175905228
11264.0,0.001055260538123548
12288.0,-0.0024878261610865593
13312.0,-0.009149957448244095
14336.0,-0.007462187670171261
end
