version,3.0
numOfCh,1
type,point
parent_name,100-cuts
ch_type,1_1
kcount,1
numberNandB,1
brightnessNandB,1
carpet pos,0
pc,0
Time (ms),CH1 Auto-Correlation
1.0,0.033435139805078506
2.0,0.032670654356479645
3.0,0.03193500265479088
4.0,0.031231412664055824
5.0,0.030538180842995644
6.0,0.02984459698200226
7.0,0.029158590361475945
8.0,0.028499383479356766
9.0,0.02787157893180847
10.0,0.027249502018094063
11.0,0.026653746142983437
12.0,0.026075739413499832
13.0,0.025508983060717583
14.0,0.024929478764533997
15.0,0.024381594732403755
16.0,0.023836199194192886
18.0,0.022789208218455315
20.0,0.021830448880791664
22.0,0.020945608615875244
24.0,0.020102083683013916
26.0,0.019253389909863472
28.0,0.01843799091875553
30.0,0.017629321664571762
32.0,0.01684746891260147
36.0,0.015450865961611271
40.0,0.01426548883318901
44.0,0.01325503271073103
48.0,0.012425951659679413
52.0,0.01167203113436699
56.0,0.010957207530736923
60.0,0.010359265841543674
64.0,0.009778794832527637
72.0,0.008790814317762852
80.0,0.008038424886763096
88.0,0.007314411923289299
96.0,0.006532165687531233
104.0,0.005830606911331415
112.0,0.005073785316199064
120.0,0.004138973541557789
128.0,0.0032339945901185274
144.0,0.0022606183774769306
160.0,0.0019254684448242188
176.0,0.001805635285563767
192.0,0.0014981796266511083
208.0,0.0012935525737702847
224.0,0.0007945266552269459
240.0,0.0003508641093503684
256.0,9.504972695140168e-05
288.0,-0.00023622326261829585
320.0,-4.937382982461713e-05
352.0,0.0015450100181624293
384.0,0.002211308805271983
416.0,0.0017965864390134811
448.0,0.0025705723091959953
480.0,0.0025442130863666534
512.0,0.0025289738550782204
576.0,0.0035215457901358604
640.0,0.00106031761970371
704.0,-0.001001038239337504
768.0,-0.0019102680962532759
832.0,-0.0004721519653685391
896.0,-0.0010748185450211167
960.0,-0.00141741125844419
1024.0,-0.0009703104733489454
1152.0,0.0016094865277409554
1280.0,0.0013530116993933916
1408.0,-0.0012600787449628115
1536.0,-0.002687657019123435
1664.0,0.0011611643712967634
1792.0,0.0013107118429616094
1920.0,-0.0005168827483430505
2048.0,-0.0016416807193309069
2304.0,-0.0018267775885760784
2560.0,0.001201400998979807
2816.0,-0.00035766387009061873
3072.0,0.0007519469945691526
3328.0,-0.0019104984821751714
3584.0,-0.0010494065936654806
3840.0,0.001550606219097972
4096.0,0.0007438324391841888
4608.0,0.001996941864490509
5120.0,-0.0005539518315345049
5632.0,0.0005577932461164892
6144.0,-0.0010219201212748885
6656.0,-0.0005744618247263134
7168.0,-0.002954846015200019
7680.0,-0.0034707782324403524
8192.0,-0.0010384215274825692
9216.0,-0.00037997090839780867
10240.0,0.0015922399470582604
11264.0,-0.0025655776262283325
12288.0,-0.0025146270636469126
13312.0,0.0011171207297593355
14336.0,0.003946000710129738
end
