version,3.0
numOfCh,1
type,point
parent_name,100-cuts
ch_type,1_1
kcount,1
numberNandB,1
brightnessNandB,1
carpet pos,0
pc,0
Time (ms),CH1 Auto-Correlation
1.0,0.025177614763379097
2.0,0.024623876437544823
3.0,0.024090006947517395
4.0,0.023586925119161606
5.0,0.023099876940250397
6.0,0.02262905240058899
7.0,0.022176027297973633
8.0,0.021731551736593246
9.0,0.021297194063663483
10.0,0.020868709310889244
11.0,0.020434141159057617
12.0,0.02001783810555935
13.0,0.019627368077635765
14.0,0.019253674894571304
15.0,0.018886925652623177
16.0,0.01852702535688877
18.0,0.017815126106142998
20.0,0.017129678279161453
22.0,0.016499368473887444
24.0,0.015904158353805542
26.0,0.015330163761973381
28.0,0.01478517334908247
30.0,0.014275229535996914
32.0,0.013778997585177422
36.0,0.01284459326416254
40.0,0.011906769126653671
44.0,0.011033577844500542
48.0,0.010215968824923038
52.0,0.009521830826997757
56.0,0.008903502486646175
60.0,0.008400171995162964
64.0,0.007945094257593155
72.0,0.007198145613074303
80.0,0.006672012619674206
88.0,0.006194396410137415
96.0,0.005841284990310669
104.0,0.005605208687484264
112.0,0.005146011710166931
120.0,0.0046486328355968
128.0,0.004153970163315535
144.0,0.0027616096194833517
160.0,0.0010782881872728467
176.0,0.00012445270840544254
192.0,-0.0002564108290243894
208.0,-0.00046806386671960354
224.0,-0.0005810027359984815
240.0,-0.0008734191651456058
256.0,-0.0011614307295531034
288.0,-0.000643076142296195
320.0,-0.00011301409540465102
352.0,0.00020460662199184299
384.0,-8.438676013611257e-05
416.0,-0.00019961560610681772
448.0,-0.0007941236835904419
480.0,-0.0008814606699161232
512.0,-0.0015806981828063726
576.0,-0.001958026085048914
640.0,-0.0017026124987751245
704.0,-0.001384096685796976
768.0,-0.0009856283431872725
832.0,0.0007119713118299842
896.0,0.001986479852348566
960.0,0.0028935219161212444
1024.0,0.0018206071108579636
1152.0,-0.0009101228206418455
1280.0,-0.001348762190900743
1408.0,-0.0015927515923976898
1536.0,-0.0009401650168001652
1664.0,-0.00046558515168726444
1792.0,0.0013835567515343428
1920.0,0.0024035859387367964
2048.0,0.0009977163281291723
2304.0,-0.000646790605969727
2560.0,0.001213901792652905
2816.0,0.0007080402574501932
3072.0,0.00011957414244534448
3328.0,-0.0015541102038696408
3584.0,0.001046735211275518
3840.0,0.0003416725667193532
4096.0,0.0004679991106968373
4608.0,-0.0011273369891569018
5120.0,0.0002259924658574164
5632.0,-0.0003172580909449607
6144.0,0.0006660097278654575
6656.0,0.0016054497100412846
7168.0,-0.0012013945961371064
7680.0,-0.002382218837738037
8192.0,-0.0002841450332198292
9216.0,-0.0002247514494229108
10240.0,-0.00126176280900836
11264.0,-0.0008334230515174568
12288.0,0.0008143720333464444
13312.0,-0.0015345965512096882
14336.0,-0.0006761365802958608
end
