version,3.0
numOfCh,1
type,point
parent_name,100-cuts
ch_type,1_1
kcount,1
numberNandB,1
brightnessNandB,1
carpet pos,0
pc,0
Time (ms),CH1 Auto-Correlation
1.0,0.02239876240491867
2.0,0.021897967904806137
3.0,0.02140958607196808
4.0,0.020931409671902657
5.0,0.020461944863200188
6.0,0.020016653463244438
7.0,0.019574593752622604
8.0,0.01913423463702202
9.0,0.01871299184858799
10.0,0.018319550901651382
11.0,0.01794169656932354
12.0,0.01758151687681675
13.0,0.01724090799689293
14.0,0.01690499484539032
15.0,0.016571609303355217
16.0,0.016254492104053497
18.0,0.01566617749631405
20.0,0.015089125372469425
22.0,0.014545517973601818
24.0,0.014018435962498188
26.0,0.013491879217326641
28.0,0.01299007423222065
30.0,0.012507760897278786
32.0,0.012040228582918644
36.0,0.01121429167687893
40.0,0.010442879982292652
44.0,0.009778580628335476
48.0,0.009201557375490665
52.0,0.008674715645611286
56.0,0.008227383717894554
60.0,0.007812323048710823
64.0,0.007426897995173931
72.0,0.00678669661283493
80.0,0.0061990791000425816
88.0,0.005532470066100359
96.0,0.004864624701440334
104.0,0.004308559466153383
112.0,0.0038118481170386076
120.0,0.0032582369167357683
128.0,0.0025799593422561884
144.0,0.002015855861827731
160.0,0.0018803647253662348
176.0,0.0016396628925576806
192.0,0.0013034178409725428
208.0,0.0006382048595696688
224.0,0.0002785896067507565
240.0,0.00040719102253206074
256.0,0.000529990007635206
288.0,-8.722774509806186e-05
320.0,-0.0009464235045015812
352.0,-0.0024447806645184755
384.0,-0.0032961543183773756
416.0,-0.0027255627792328596
448.0,-0.002313118427991867
480.0,-0.0013831360265612602
512.0,0.00013007364759687334
576.0,0.0010533651802688837
640.0,0.00023422097729053348
704.0,0.0002908353926613927
768.0,0.0015435235109180212
832.0,0.0011990199564024806
896.0,0.0004946605185978115
960.0,-0.00019757280824705958
1024.0,-0.0008818029891699553
1152.0,-0.0011801004875451326
1280.0,-0.0011152583174407482
1408.0,-0.001940696849487722
1536.0,-0.000778130313847214
1664.0,-0.0003911107196472585
1792.0,0.0015937582356855273
1920.0,0.0017475377535447478
2048.0,0.00205750553868711
2304.0,-0.00012946898641530424
2560.0,0.0011180754518136382
2816.0,0.0015668229898437858
3072.0,-0.000996534014120698
3328.0,0.00036918005207553506
3584.0,0.0010333332465961576
3840.0,-0.0008162011508829892
4096.0,1.8980505046783946e-05
4608.0,-0.000497039349284023
5120.0,-0.00011757901665987447
5632.0,-0.00017794256564229727
6144.0,0.000135268215672113
6656.0,-0.0003678167413454503
7168.0,0.0005100244889035821
7680.0,-0.001802599523216486
8192.0,-0.0009636566392146051
9216.0,0.0003212263691239059
10240.0,-0.0013773253886029124
11264.0,-2.3950065951794386e-05
12288.0,-0.00047583310515619814
13312.0,-0.0009051899542100728
14336.0,0.0005371167790144682
end
