version,3.0
numOfCh,1
type,point
parent_name,100-cuts
ch_type,1_1
kcount,1
numberNandB,1
brightnessNandB,1
carpet pos,0
pc,0
Time (ms),CH1 Auto-Correlation
1.0,0.023305842652916908
2.0,0.022773979231715202
3.0,0.022259658202528954
4.0,0.02175978571176529
5.0,0.02128608338534832
6.0,0.02083168737590313
7.0,0.020387781783938408
8.0,0.01997251994907856
9.0,0.019578319042921066
10.0,0.019198279827833176
11.0,0.018819235265254974
12.0,0.018450019881129265
13.0,0.018089139834046364
14.0,0.017730850726366043
15.0,0.017384447157382965
16.0,0.017043141648173332
18.0,0.01638125069439411
20.0,0.015763822942972183
22.0,0.015194320119917393
24.0,0.014658268541097641
26.0,0.014165637083351612
28.0,0.013702568598091602
30.0,0.013248583301901817
32.0,0.012825787998735905
36.0,0.012025395408272743
40.0,0.011256947182118893
44.0,0.010507212020456791
48.0,0.009794959798455238
52.0,0.009135210886597633
56.0,0.008537461049854755
60.0,0.0079833148047328
64.0,0.007483537308871746
72.0,0.0065310923382639885
80.0,0.005721512716263533
88.0,0.00510172825306654
96.0,0.004654339049011469
104.0,0.004237040411680937
112.0,0.0038204111624509096
120.0,0.00334621942602098
128.0,0.0029135923832654953
144.0,0.0024130295496433973
160.0,0.0017434670589864254
176.0,0.0009835894452407956
192.0,0.0007002754718996584
208.0,0.0004568592121358961
224.0,0.0004681411082856357
240.0,0.0007792557589709759
256.0,0.000899967853911221
288.0,0.000843630637973547
320.0,2.1654797819792293e-05
352.0,-5.386158591136336e-05
384.0,-0.00017812418809626251
416.0,-0.0004966513370163739
448.0,-0.0006382480496540666
480.0,-0.000991580542176962
512.0,-0.00024941193987615407
576.0,-8.328231342602521e-05
640.0,-0.0006116147269494832
704.0,-0.001538185984827578
768.0,-0.000754986540414393
832.0,-0.0003450269578024745
896.0,1.6365762348868884e-05
960.0,0.0008330958662554622
1024.0,0.0009943322511389852
1152.0,-0.0009573722491040826
1280.0,-0.001699577085673809
1408.0,0.00017563026631250978
1536.0,0.00036343169631436467
1664.0,-0.0017195509281009436
1792.0,0.00018364650895819068
1920.0,0.0005945443990640342
2048.0,0.000686937419231981
2304.0,0.0020531839691102505
2560.0,0.00072865019319579
2816.0,0.001027050195261836
3072.0,0.0004469261912163347
3328.0,0.000840391032397747
3584.0,-0.00038232054794207215
3840.0,-0.0003694238839671016
4096.0,-0.001504899701103568
4608.0,-0.0005124097224324942
5120.0,0.001005899510346353
5632.0,-0.00020769952971022576
6144.0,-3.757901140488684e-05
6656.0,-0.0005382114322856069
7168.0,-0.0014069866156205535
7680.0,-7.918569463072345e-05
8192.0,-0.0003268431464675814
9216.0,-0.0011493244674056768
10240.0,-0.0004907705006189644
11264.0,-0.00152902293484658
12288.0,0.0013504067901521921
13312.0,-0.0035113913472741842
14336.0,0.0027052799705415964
end
