version,3.0
numOfCh,1
type,point
parent_name,100-cuts
ch_type,1_1
kcount,1
numberNandB,1
brightnessNandB,1
carpet pos,0
pc,0
Time (ms),CH1 Auto-Correlation
1.0,0.021311316639184952
2.0,0.020816149190068245
3.0,0.020332012325525284
4.0,0.019870052114129066
5.0,0.019414246082305908
6.0,0.018963918089866638
7.0,0.018529826775193214
8.0,0.018106115981936455
9.0,0.01768640987575054
10.0,0.017289387062191963
11.0,0.016901589930057526
12.0,0.016526663675904274
13.0,0.016170362010598183
14.0,0.015832046046853065
15.0,0.015500970184803009
16.0,0.015188867226243019
18.0,0.014593549072742462
20.0,0.014016592875123024
22.0,0.01346669066697359
24.0,0.012972458265721798
26.0,0.01253145094960928
28.0,0.012111764401197433
30.0,0.011716876178979874
32.0,0.011341135017573833
36.0,0.010644374415278435
40.0,0.010004004463553429
44.0,0.009414473548531532
48.0,0.008849023841321468
52.0,0.008394326083362103
56.0,0.008044056594371796
60.0,0.007746193557977676
64.0,0.007438675034791231
72.0,0.0068167648278176785
80.0,0.006010209675878286
88.0,0.005162184126675129
96.0,0.0044519235379993916
104.0,0.003820194862782955
112.0,0.0032789078541100025
120.0,0.00292494660243392
128.0,0.002679151715710759
144.0,0.002496236003935337
160.0,0.0019135585753247142
176.0,0.0013306253822520375
192.0,0.0008307970711030066
208.0,0.00026773542049340904
224.0,-0.00041281021549366415
240.0,-0.0010955816833302379
256.0,-0.0014325710944831371
288.0,-0.00146377831697464
320.0,-0.0011800687061622739
352.0,-0.0010421727783977985
384.0,-0.0011386290425434709
416.0,-0.0011985410237684846
448.0,-0.0013364896876737475
480.0,-0.0015677633928135037
512.0,-0.0018885433673858643
576.0,-0.0011842368403449655
640.0,-0.0011817015474662185
704.0,-0.0008305334486067295
768.0,-0.0009412350482307374
832.0,0.0004931756993755698
896.0,0.001885876408778131
960.0,0.0018917704001069069
1024.0,0.0009778314270079136
1152.0,-0.000589224393479526
1280.0,-0.00044880073983222246
1408.0,0.0007255246164277196
1536.0,0.0012727068969979882
1664.0,0.0007962303352542222
1792.0,0.0013437881134450436
1920.0,0.0013607552973553538
2048.0,-0.0014573897933587432
2304.0,-0.0010239523835480213
2560.0,-0.0008929817704483867
2816.0,-0.0009938600705936551
3072.0,-0.0006392853683792055
3328.0,0.0003456096746958792
3584.0,-0.0006696291966363788
3840.0,-0.001782345469109714
4096.0,6.0655263951048255e-05
4608.0,0.0005009827436879277
5120.0,-8.189951040549204e-05
5632.0,0.00014586937322746962
6144.0,0.000657921249512583
6656.0,-0.00014386337716132402
7168.0,0.0001135041966335848
7680.0,0.00012657656043302268
8192.0,-0.0017763455398380756
9216.0,-7.204283610917628e-05
10240.0,0.0004057950573042035
11264.0,0.0012519131414592266
12288.0,0.0003632803854998201
13312.0,-0.0009732338367030025
14336.0,-0.0011571398936212063
end
