version,3.0
numOfCh,1
type,point
parent_name,100-cuts
ch_type,1_1
kcount,1
numberNandB,1
brightnessNandB,1
carpet pos,0
pc,0
Time (ms),CH1 Auto-Correlation
1.0,0.027169693261384964
2.0,0.026617983356118202
3.0,0.026080945506691933
4.0,0.02555859088897705
5.0,0.025059774518013
6.0,0.024587608873844147
7.0,0.02412438951432705
8.0,0.023685231804847717
9.0,0.02324611507356167
10.0,0.02282756008207798
11.0,0.02241942286491394
12.0,0.02201416715979576
13.0,0.021630315110087395
14.0,0.021258259192109108
15.0,0.02089456096291542
16.0,0.020542144775390625
18.0,0.01983902044594288
20.0,0.01916845515370369
22.0,0.01854945532977581
24.0,0.017998050898313522
26.0,0.01748785190284252
28.0,0.017016487196087837
30.0,0.016584528610110283
32.0,0.016206994652748108
36.0,0.015477171167731285
40.0,0.014726892113685608
44.0,0.013988238759338856
48.0,0.013291162438690662
52.0,0.012681277468800545
56.0,0.012129638344049454
60.0,0.011658724397420883
64.0,0.011201090179383755
72.0,0.010515310801565647
80.0,0.009839651174843311
88.0,0.00909673236310482
96.0,0.008175291121006012
104.0,0.007316909730434418
112.0,0.006398356519639492
120.0,0.005536300130188465
128.0,0.004799807909876108
144.0,0.0034521797206252813
160.0,0.002487741643562913
176.0,0.0017365263774991035
192.0,0.0009702171664685011
208.0,0.00045692885760217905
224.0,0.00021166700753383338
240.0,0.00033092740341089666
256.0,0.0003510864044073969
288.0,-2.4783654225757346e-05
320.0,0.0002584762405604124
352.0,0.00038275576662272215
384.0,0.00029232248198240995
416.0,0.0002532090002205223
448.0,0.0005856523639522493
480.0,0.0010680821724236012
512.0,0.0016330406069755554
576.0,0.0004910141578875482
640.0,-0.00026671099476516247
704.0,1.3878005120204762e-05
768.0,0.0008887972799129784
832.0,0.0010635884245857596
896.0,0.0008189872605726123
960.0,-0.0002590662334114313
1024.0,-0.001111679943278432
1152.0,-2.843560287146829e-05
1280.0,-0.0014324703952297568
1408.0,-0.0003398940898478031
1536.0,0.0005220407620072365
1664.0,0.0013719210401177406
1792.0,0.0006662106025032699
1920.0,0.0018434086814522743
2048.0,0.0013001833576709032
2304.0,-0.0006113925483077765
2560.0,-0.0034082334022969007
2816.0,-0.0011108460603281856
3072.0,1.7562644643476233e-05
3328.0,-0.00034679521922953427
3584.0,9.404267620993778e-05
3840.0,-0.003512274008244276
4096.0,-0.0025875712744891644
4608.0,-0.00281699956394732
5120.0,0.0003674068721011281
5632.0,-0.0008939445251598954
6144.0,-4.720264769275673e-05
6656.0,-0.0002965541498269886
7168.0,0.0020109149627387524
7680.0,0.0013364393962547183
8192.0,0.002425380051136017
9216.0,-0.002057686448097229
10240.0,0.0019238685490563512
11264.0,-0.0009616478346288204
12288.0,-0.0011857450008392334
13312.0,0.0024560538586229086
14336.0,-0.0017059383681043983
end
