version,3.0
numOfCh,1
type,point
parent_name,100-cuts
ch_type,1_1
kcount,1
numberNandB,1
brightnessNandB,1
carpet pos,0
pc,0
Time (ms),CH1 Auto-Correlation
1.0,0.054545722901821136
2.0,0.0530063696205616
3.0,0.05147816613316536
4.0,0.04995705932378769
5.0,0.04855407401919365
6.0,0.04721270129084587
7.0,0.045944005250930786
8.0,0.044761233031749725
9.0,0.043563272804021835
10.0,0.04238530248403549
11.0,0.04124978184700012
12.0,0.04013160243630409
13.0,0.03902743011713028
14.0,0.037934694439172745
15.0,0.03684334084391594
16.0,0.035852618515491486
18.0,0.03402839973568916
20.0,0.03241253271698952
22.0,0.030891330912709236
24.0,0.029388144612312317
26.0,0.02797907032072544
28.0,0.02669040486216545
30.0,0.025540383532643318
32.0,0.024475116282701492
36.0,0.022442186251282692
40.0,0.02037843130528927
44.0,0.018528888002038002
48.0,0.017012106254696846
52.0,0.015838271006941795
56.0,0.01473693922162056
60.0,0.01383904181420803
64.0,0.0132246483117342
72.0,0.011779162101447582
80.0,0.01045103371143341
88.0,0.009281253442168236
96.0,0.008517248556017876
104.0,0.008236302994191647
112.0,0.007799130864441395
120.0,0.007369210943579674
128.0,0.007112498395144939
144.0,0.005480208899825811
160.0,0.0020277858711779118
176.0,-0.0007470810087397695
192.0,-0.0025726091116666794
208.0,-0.002596681471914053
224.0,-0.002106085419654846
240.0,-0.001409155665896833
256.0,-0.00038786637014709413
288.0,-0.000668627442792058
320.0,-0.0005329784471541643
352.0,0.001256956602446735
384.0,0.0015567197697237134
416.0,0.0010842675110325217
448.0,0.0018072777893394232
480.0,0.003729452146217227
512.0,0.0040250965394079685
576.0,0.0033736557234078646
640.0,0.003390263067558408
704.0,-0.00039841586840339005
768.0,-0.0026291680987924337
832.0,-0.00797357875853777
896.0,-0.0015815674560144544
960.0,-0.0033277124166488647
1024.0,-0.00019995392358396202
1152.0,-0.0005165960174053907
1280.0,-0.003410316538065672
1408.0,0.0005562174483202398
1536.0,-0.00010912525613093749
1664.0,0.0013703472213819623
1792.0,-0.0020044080447405577
1920.0,-0.0028809555806219578
2048.0,-3.054149783565663e-05
2304.0,0.00039814552292227745
2560.0,0.0005942451534792781
2816.0,0.00032763861236162484
3072.0,-0.0026631958317011595
3328.0,-0.0015941925812512636
3584.0,-0.0029319024179130793
3840.0,0.0004827699449378997
4096.0,-0.00032805741648189723
4608.0,-4.405598883749917e-05
5120.0,-0.0013170220190659165
5632.0,-0.0014702503103762865
6144.0,-0.0008518192917108536
6656.0,0.0017050858587026596
7168.0,0.00017600606952328235
7680.0,-3.0676706956001e-05
8192.0,0.0022615171037614346
9216.0,0.0018073396058753133
10240.0,-8.224864723160863e-05
11264.0,0.0017772720893844962
12288.0,-0.007835255935788155
13312.0,0.003829607041552663
14336.0,0.0019224208081141114
end
