version,3.0
numOfCh,1
type,point
parent_name,100-cuts
ch_type,1_1
kcount,1
numberNandB,1
brightnessNandB,1
carpet pos,0
pc,0
Time (ms),CH1 Auto-Correlation
1.0,0.032896943390369415
2.0,0.032053302973508835
3.0,0.03123527020215988
4.0,0.03045068122446537
5.0,0.02970207668840885
6.0,0.028963249176740646
7.0,0.028276018798351288
8.0,0.027609169483184814
9.0,0.02695227600634098
10.0,0.02633557841181755
11.0,0.025723105296492577
12.0,0.025113258510828018
13.0,0.024527018889784813
14.0,0.02396470122039318
15.0,0.023416860029101372
16.0,0.02289990708231926
18.0,0.021889209747314453
20.0,0.02090464159846306
22.0,0.019976969808340073
24.0,0.01907201297581196
26.0,0.01820058934390545
28.0,0.01736416481435299
30.0,0.016596369445323944
32.0,0.015909096226096153
36.0,0.0146943349391222
40.0,0.01367492601275444
44.0,0.012778695672750473
48.0,0.012023182585835457
52.0,0.011348654516041279
56.0,0.010825133882462978
60.0,0.010460454039275646
64.0,0.009980956092476845
72.0,0.008959564380347729
80.0,0.008042136207222939
88.0,0.007158856838941574
96.0,0.00641839811578393
104.0,0.0057716635055840015
112.0,0.004926964640617371
120.0,0.003958566579967737
128.0,0.0030939350835978985
144.0,0.0025553659070283175
160.0,0.0026071893516927958
176.0,0.0028282995335757732
192.0,0.0031386830378323793
208.0,0.004039211664348841
224.0,0.0040147872641682625
240.0,0.00343815004453063
256.0,0.002759072929620743
288.0,0.00038983230479061604
320.0,-0.00031844829209148884
352.0,-0.0014011241728439927
384.0,-0.0018546315841376781
416.0,-0.0011649285443127155
448.0,0.00012453185627236962
480.0,0.0009438823326490819
512.0,0.0008932684431783855
576.0,-0.000415660731960088
640.0,-0.0007868612301535904
704.0,0.00038592691998928785
768.0,0.0008275894797407091
832.0,-0.0012989649549126625
896.0,-0.0011467261938378215
960.0,0.0009798527462407947
1024.0,0.0014678771840408444
1152.0,-0.001326952246017754
1280.0,9.485568443778902e-05
1408.0,-0.0015940561424940825
1536.0,-0.00028474730788730085
1664.0,-0.0022210460156202316
1792.0,-0.0018763345433399081
1920.0,-0.0013378537259995937
2048.0,-0.00012740329839289188
2304.0,-0.0034777503460645676
2560.0,-0.0031740826088935137
2816.0,-0.001165421330370009
3072.0,-0.0007224261062219739
3328.0,0.002532527083531022
3584.0,0.001634265761822462
3840.0,0.0005616793059743941
4096.0,1.0861488135560649e-06
4608.0,-0.000291046395432204
5120.0,0.0002975816314574331
5632.0,-0.0010182580444961786
6144.0,0.00011507415183587
6656.0,0.0029990151524543762
7168.0,0.0008853656472638249
7680.0,-0.0005039871903136373
8192.0,-0.0014186186017468572
9216.0,-0.002958212047815323
10240.0,0.0021912697702646255
11264.0,0.001593031920492649
12288.0,-0.0014114497462287545
13312.0,0.0006994953728280962
14336.0,0.0016131220618262887
end
