version,3.0
numOfCh,1
type,point
parent_name,100-cuts
ch_type,1_1
kcount,1
numberNandB,1
brightnessNandB,1
carpet pos,0
pc,0
Time (ms),CH1 Auto-Correlation
1.0,0.03702889382839203
2.0,0.03612617775797844
3.0,0.03526242449879646
4.0,0.034415025264024734
5.0,0.03358656167984009
6.0,0.03278759494423866
7.0,0.032029975205659866
8.0,0.03130462393164635
9.0,0.03061021864414215
10.0,0.0299371425062418
11.0,0.029321007430553436
12.0,0.02875375933945179
13.0,0.028200224041938782
14.0,0.027694091200828552
15.0,0.02719852514564991
16.0,0.026730675250291824
18.0,0.025786252692341805
20.0,0.024923933669924736
22.0,0.024062905460596085
24.0,0.023200001567602158
26.0,0.022367296740412712
28.0,0.021655747666954994
30.0,0.020979024469852448
32.0,0.020322110503911972
36.0,0.01915120705962181
40.0,0.017985833808779716
44.0,0.016837289556860924
48.0,0.015802893787622452
52.0,0.014830014668405056
56.0,0.013917858712375164
60.0,0.0131002739071846
64.0,0.012324215844273567
72.0,0.010705159977078438
80.0,0.009199443273246288
88.0,0.007980236783623695
96.0,0.007165717426687479
104.0,0.006517897825688124
112.0,0.005868008825927973
120.0,0.005093580111861229
128.0,0.004469459410756826
144.0,0.003439171239733696
160.0,0.0025193418841809034
176.0,0.0021055061370134354
192.0,0.0022081206552684307
208.0,0.002493208274245262
224.0,0.0027778479270637035
240.0,0.0028844145126640797
256.0,0.0033513796515762806
288.0,0.0036586651112884283
320.0,0.0024791646283119917
352.0,0.0019344002939760685
384.0,0.0007437685853801668
416.0,0.0006948364898562431
448.0,0.0012545472709462047
480.0,0.0019511148566380143
512.0,0.0018734871409833431
576.0,0.0013344211038202047
640.0,-0.000666096166241914
704.0,-0.0022799328435212374
768.0,-0.0011596056865528226
832.0,0.0006356534431688488
896.0,0.0013657361268997192
960.0,0.0004241153656039387
1024.0,0.0006383125437423587
1152.0,0.0037831419613212347
1280.0,0.002661460777744651
1408.0,0.000301498657790944
1536.0,-0.0007810877868905663
1664.0,-0.0026676722336560488
1792.0,-0.0011424822732806206
1920.0,-0.0012083423789590597
2048.0,-0.0010152710601687431
2304.0,-0.0004312638775445521
2560.0,-0.00040629503200761974
2816.0,-0.0034285106230527163
3072.0,-0.005006471183151007
3328.0,-0.003652916755527258
3584.0,-0.0006582143832929432
3840.0,-0.00047588127199560404
4096.0,0.00011642486060736701
4608.0,4.084442480234429e-05
5120.0,0.001106831943616271
5632.0,-0.001048069796524942
6144.0,0.0010327082127332687
6656.0,-0.003136955900117755
7168.0,-0.00022065825760364532
7680.0,-0.00041966643766500056
8192.0,0.0019169084262102842
9216.0,0.00017887544527184218
10240.0,0.001802639802917838
11264.0,-0.0022911112755537033
12288.0,-0.0001331368403043598
13312.0,-0.0011242738692089915
14336.0,0.0011563559528440237
end
