version,3.0
numOfCh,1
type,point
parent_name,100-cuts
ch_type,1_1
kcount,1
numberNandB,1
brightnessNandB,1
carpet pos,0
pc,0
Time (ms),CH1 Auto-Correlation
1.0,0.0207716915756464
2.0,0.020248515531420708
3.0,0.019757486879825592
4.0,0.01926792412996292
5.0,0.01879013516008854
6.0,0.018332745879888535
7.0,0.017879163846373558
8.0,0.017448587343096733
9.0,0.017052287235856056
10.0,0.016664210706949234
11.0,0.016287868842482567
12.0,0.015910077840089798
13.0,0.01554329227656126
14.0,0.01517786830663681
15.0,0.014823436737060547
16.0,0.014489350840449333
18.0,0.013853971846401691
20.0,0.013227998279035091
22.0,0.01265716552734375
24.0,0.012152635492384434
26.0,0.011693575419485569
28.0,0.011265766806900501
30.0,0.010847373865544796
32.0,0.010455436073243618
36.0,0.009874526411294937
40.0,0.00935378111898899
44.0,0.008843183517456055
48.0,0.008366459049284458
52.0,0.007921159267425537
56.0,0.007510154973715544
60.0,0.007120536174625158
64.0,0.006757379975169897
72.0,0.005924347322434187
80.0,0.005156385246664286
88.0,0.004577502142637968
96.0,0.004093439318239689
104.0,0.003705022158101201
112.0,0.003346528159454465
120.0,0.0029887717682868242
128.0,0.00260938866995275
144.0,0.00197778781875968
160.0,0.001548548461869359
176.0,0.0009250080329366028
192.0,0.0002648848749231547
208.0,6.473529356298968e-05
224.0,0.00010847707017092034
240.0,0.00011315241135889664
256.0,-0.00017033204494509846
288.0,-0.0006495810812339187
320.0,-0.0009778373641893268
352.0,-0.0012499793665483594
384.0,-0.001745195360854268
416.0,-0.002245091600343585
448.0,-0.0021761103998869658
480.0,-0.0018530117813497782
512.0,-0.0010851692641153932
576.0,-0.00029550131876021624
640.0,-0.0002693541464395821
704.0,-0.0010661680717021227
768.0,-0.0004290368524380028
832.0,0.0002746250538621098
896.0,0.00022434943821281195
960.0,-0.0001645013107918203
1024.0,4.67447389382869e-05
1152.0,-0.00018782996630761772
1280.0,0.0002506048185750842
1408.0,0.00033072041696868837
1536.0,-0.0009788924362510443
1664.0,0.0006580448243767023
1792.0,-0.0012530831154435873
1920.0,-0.0026068356819450855
2048.0,-0.0029123651329427958
2304.0,0.0004797494038939476
2560.0,0.0006008227937854826
2816.0,-0.0011987024918198586
3072.0,-0.0005867474828846753
3328.0,0.0002367911220062524
3584.0,-0.0005813606549054384
3840.0,0.0004195772635284811
4096.0,0.0015848164912313223
4608.0,-0.0003984255890827626
5120.0,-5.424941991805099e-05
5632.0,0.00047099459334276617
6144.0,-0.00032672073575668037
6656.0,0.00048563804011791945
7168.0,-0.00027391474577598274
7680.0,-0.0005165108013898134
8192.0,0.0008895017090253532
9216.0,-0.0003463210887275636
10240.0,-5.6432836572639644e-05
11264.0,-0.00025429722154513
12288.0,0.0005013620248064399
13312.0,-0.001347098732367158
14336.0,0.00238232989795506
end
