version,3.0
numOfCh,1
type,point
parent_name,100-cuts
ch_type,1_1
kcount,1
numberNandB,1
brightnessNandB,1
carpet pos,0
pc,0
Time (ms),CH1 Auto-Correlation
1.0,0.023462792858481407
2.0,0.02294405736029148
3.0,0.022447999566793442
4.0,0.021969875320792198
5.0,0.02150903455913067
6.0,0.02106252871453762
7.0,0.02062954567372799
8.0,0.020199568942189217
9.0,0.019787300378084183
10.0,0.019385820254683495
11.0,0.019007688388228416
12.0,0.018641451373696327
13.0,0.01827632263302803
14.0,0.01792379841208458
15.0,0.017578203231096268
16.0,0.01725742034614086
18.0,0.016680298373103142
20.0,0.01611224375665188
22.0,0.015581917017698288
24.0,0.015073386020958424
26.0,0.014608550816774368
28.0,0.014129036106169224
30.0,0.013668105006217957
32.0,0.013244924135506153
36.0,0.012417101301252842
40.0,0.01160685159265995
44.0,0.010820833966135979
48.0,0.01008604932576418
52.0,0.009459713473916054
56.0,0.008899935521185398
60.0,0.008355816826224327
64.0,0.007872662506997585
72.0,0.00705893337726593
80.0,0.006361613981425762
88.0,0.005747520364820957
96.0,0.005160242319107056
104.0,0.004637584555894136
112.0,0.004314348101615906
120.0,0.0040452261455357075
128.0,0.0037516215816140175
144.0,0.003497497644275427
160.0,0.003283553058281541
176.0,0.003224609885364771
192.0,0.0029000104404985905
208.0,0.002251862082630396
224.0,0.001961696892976761
240.0,0.0019850011449307203
256.0,0.0017830654978752136
288.0,0.0017741227056831121
320.0,0.0008726089145056903
352.0,0.00046639773063361645
384.0,0.00017482094699516892
416.0,0.0002726759703364223
448.0,0.0006035429541952908
480.0,0.000871063326485455
512.0,0.001027507591061294
576.0,0.0007584330742247403
640.0,0.0011524257715791464
704.0,-0.00016579311341047287
768.0,-0.0010693668154999614
832.0,-0.0008642126340419054
896.0,-0.0016635196516290307
960.0,-0.0025661613326519728
1024.0,-0.0032341547776013613
1152.0,-0.001735985279083252
1280.0,-0.00034728943137452006
1408.0,-0.0007279404089786112
1536.0,-0.001877813134342432
1664.0,-0.0009685895056463778
1792.0,-0.0007113299216143787
1920.0,-0.00013618655793834478
2048.0,-0.0008851088932715356
2304.0,-0.00011134857777506113
2560.0,0.001335064065642655
2816.0,-0.0011113942600786686
3072.0,-0.0014503500424325466
3328.0,0.00023861753288656473
3584.0,-0.0005951757775619626
3840.0,-0.0006283528637140989
4096.0,-0.0009087449871003628
4608.0,-0.00016771444643381983
5120.0,0.0011630775406956673
5632.0,0.0021224659867584705
6144.0,0.0014456905191764235
6656.0,-0.0009165402734652162
7168.0,-0.002647356828674674
7680.0,-0.0024520165752619505
8192.0,5.4232627007877454e-05
9216.0,0.00029899130458943546
10240.0,0.001211274415254593
11264.0,0.0011924183927476406
12288.0,-0.000594288925640285
13312.0,-0.0033272088039666414
14336.0,0.0007818524609319866
end
