version,3.0
numOfCh,1
type,point
parent_name,100-cuts
ch_type,1_1
kcount,1
numberNandB,1
brightnessNandB,1
carpet pos,0
pc,0
Time (ms),CH1 Auto-Correlation
1.0,0.03792767599225044
2.0,0.037102874368429184
3.0,0.036314308643341064
4.0,0.03555535897612572
5.0,0.03480516001582146
6.0,0.03408605232834816
7.0,0.03337752819061279
8.0,0.0326782763004303
9.0,0.031999263912439346
10.0,0.03136831894516945
11.0,0.030725769698619843
12.0,0.030103424564003944
13.0,0.029486561194062233
14.0,0.028889847919344902
15.0,0.02831561304628849
16.0,0.027764881029725075
18.0,0.026707343757152557
20.0,0.025711391121149063
22.0,0.024757640436291695
24.0,0.023857256397604942
26.0,0.022984446957707405
28.0,0.022154349833726883
30.0,0.02135792374610901
32.0,0.02061699517071247
36.0,0.019242238253355026
40.0,0.01795966736972332
44.0,0.016813619062304497
48.0,0.015741247683763504
52.0,0.014780028723180294
56.0,0.013866597786545753
60.0,0.012949880212545395
64.0,0.012093166820704937
72.0,0.010743042454123497
80.0,0.009418612346053123
88.0,0.008039471693336964
96.0,0.00686378451064229
104.0,0.005869101267307997
112.0,0.005112204235047102
120.0,0.004292241297662258
128.0,0.0034584030508995056
144.0,0.002351691946387291
160.0,0.0018873014487326145
176.0,0.000988170737400651
192.0,3.917856520274654e-05
208.0,-0.0008174718823283911
224.0,-0.0009106672368943691
240.0,-0.0010235016234219074
256.0,-0.0012964088236913085
288.0,-0.001203141175210476
320.0,-0.001060820184648037
352.0,-0.0022965206298977137
384.0,-0.003087056102231145
416.0,-0.0011686378857120872
448.0,9.772854537004605e-05
480.0,0.0006766442093066871
512.0,0.0014399387873709202
576.0,0.0031257288064807653
640.0,0.003224099986255169
704.0,0.0025516836903989315
768.0,0.001856618095189333
832.0,-0.00040409507346339524
896.0,-0.0003946486976929009
960.0,-0.0014167162589728832
1024.0,-0.000300657149637118
1152.0,0.0007868962129577994
1280.0,-0.0025961315259337425
1408.0,-0.0011255204444751143
1536.0,6.210123683558777e-05
1664.0,0.0004204210126772523
1792.0,-0.004148830194026232
1920.0,-0.005239428952336311
2048.0,-0.0018554546404629946
2304.0,0.0009140803595073521
2560.0,-0.0016724290326237679
2816.0,0.00032328118686564267
3072.0,-0.0017538430402055383
3328.0,-0.0013768876669928432
3584.0,-0.0006163799553178251
3840.0,-0.001171163166873157
4096.0,-0.0015919579891487956
4608.0,-0.0011531809577718377
5120.0,0.0015299207298085093
5632.0,0.0023272489197552204
6144.0,0.0016814700793474913
6656.0,0.0015834369696676731
7168.0,-0.001688578980974853
7680.0,-0.0009721611859276891
8192.0,-0.00046503942576237023
9216.0,-0.0010532736778259277
10240.0,-0.002011870499700308
11264.0,0.0023399621713906527
12288.0,0.0017088624881580472
13312.0,-0.0006424420280382037
14336.0,-0.0012821254786103964
end
