version,3.0
numOfCh,1
type,point
parent_name,100-cuts
ch_type,1_1
kcount,1
numberNandB,1
brightnessNandB,1
carpet pos,0
pc,0
Time (ms),CH1 Auto-Correlation
1.0,0.019325511530041695
2.0,0.018825966864824295
3.0,0.018357576802372932
4.0,0.017910625785589218
5.0,0.01747049018740654
6.0,0.017054123803973198
7.0,0.016667049378156662
8.0,0.01628858782351017
9.0,0.015912268310785294
10.0,0.015558076091110706
11.0,0.015215269289910793
12.0,0.014883956871926785
13.0,0.01456271018832922
14.0,0.014242594130337238
15.0,0.0139309111982584
16.0,0.01364732813090086
18.0,0.013119407929480076
20.0,0.01262262649834156
22.0,0.01215972751379013
24.0,0.011723145842552185
26.0,0.011320751160383224
28.0,0.010949029587209225
30.0,0.010580125264823437
32.0,0.010217981413006783
36.0,0.009596703574061394
40.0,0.009031900204718113
44.0,0.008579705841839314
48.0,0.008148635737597942
52.0,0.007706476375460625
56.0,0.007310457527637482
60.0,0.006905217655003071
64.0,0.0065188417211174965
72.0,0.005929109640419483
80.0,0.005616318434476852
88.0,0.0054137068800628185
96.0,0.0052083199843764305
104.0,0.004932914860546589
112.0,0.004677041433751583
120.0,0.004507067147642374
128.0,0.004331177566200495
144.0,0.0037034840788692236
160.0,0.0031866554636508226
176.0,0.0028063219506293535
192.0,0.002465767553076148
208.0,0.0022467393428087234
224.0,0.0018999617313966155
240.0,0.0015215330058708787
256.0,0.0012308190343901515
288.0,0.0011039277305826545
320.0,0.0013615324860438704
352.0,0.001128954580053687
384.0,0.001153313904069364
416.0,0.000423637218773365
448.0,0.00030240925843827426
480.0,0.0006111158872954547
512.0,0.00047450271085835993
576.0,0.0009089033701457083
640.0,0.000627138011623174
704.0,-0.0003919030714314431
768.0,-0.00019642736879177392
832.0,-0.000351977301761508
896.0,-0.000759245129302144
960.0,-0.001213833107613027
1024.0,-0.0007327432977035642
1152.0,-0.0013955160975456238
1280.0,-0.0012431546347215772
1408.0,-0.0009126655641011894
1536.0,0.00031285666045732796
1664.0,-0.00027226717793382704
1792.0,-0.00104423554148525
1920.0,-0.0010213323403149843
2048.0,0.0005545601597987115
2304.0,0.00040136324241757393
2560.0,0.0001260542485397309
2816.0,0.0008442493854090571
3072.0,0.0007603390258736908
3328.0,0.0008736367453821003
3584.0,0.0006598839536309242
3840.0,-6.765685247955844e-05
4096.0,0.0005848946748301387
4608.0,-0.0009306984138675034
5120.0,1.3630668945552316e-05
5632.0,0.0012740639504045248
6144.0,-0.0003755704965442419
6656.0,-0.0017742749769240618
7168.0,-0.002044153166934848
7680.0,0.0008066032314673066
8192.0,0.000990292988717556
9216.0,-0.0006597800529561937
10240.0,-0.0015957891009747982
11264.0,-0.00016383040929213166
12288.0,-0.0002416106144664809
13312.0,0.0010980487568303943
14336.0,-0.0011362596414983273
end
