version,3.0
numOfCh,1
type,point
parent_name,100-cuts
ch_type,1_1
kcount,1
numberNandB,1
brightnessNandB,1
carpet pos,0
pc,0
Time (ms),CH1 Auto-Correlation
1.0,0.023045621812343597
2.0,0.022485172376036644
3.0,0.02194160223007202
4.0,0.021429933607578278
5.0,0.02092341147363186
6.0,0.020428543910384178
7.0,0.019961291924118996
8.0,0.019518597051501274
9.0,0.01910836063325405
10.0,0.018713070079684258
11.0,0.01834101974964142
12.0,0.01797972247004509
13.0,0.01762818545103073
14.0,0.017285523936152458
15.0,0.016947515308856964
16.0,0.016615277156233788
18.0,0.01601354219019413
20.0,0.015436498448252678
22.0,0.014882171526551247
24.0,0.014340583235025406
26.0,0.013825671747326851
28.0,0.013323844410479069
30.0,0.012855235487222672
32.0,0.012386840768158436
36.0,0.011456459760665894
40.0,0.010618883185088634
44.0,0.00982307642698288
48.0,0.009083895944058895
52.0,0.008367029018700123
56.0,0.007755096070468426
60.0,0.007219717837870121
64.0,0.006663250271230936
72.0,0.005717680789530277
80.0,0.004915595520287752
88.0,0.004209709819406271
96.0,0.0035352790728211403
104.0,0.002986370585858822
112.0,0.0026318677701056004
120.0,0.002389653120189905
128.0,0.002076793694868684
144.0,0.0015780313406139612
160.0,0.0010487041436135769
176.0,0.0004901521024294198
192.0,-2.930915798060596e-05
208.0,-0.00035847167600877583
224.0,-0.0005678065354004502
240.0,-0.0007859687320888042
256.0,-0.0008960065897554159
288.0,-0.0015758208464831114
320.0,-0.0016824959311634302
352.0,-0.0021795067004859447
384.0,-0.0019556786864995956
416.0,-0.0009705632110126317
448.0,-0.0003681817906908691
480.0,-0.0003351595951244235
512.0,-0.00033025769516825676
576.0,-0.0007088504498824477
640.0,-0.000848489988129586
704.0,0.00036248096148483455
768.0,-0.0003722254477906972
832.0,-0.0002971233625430614
896.0,-0.0010564042022451758
960.0,-0.001040082541294396
1024.0,-0.0007841712795197964
1152.0,-0.0010696002282202244
1280.0,-0.000813057238701731
1408.0,0.00010919661144725978
1536.0,-0.001124097965657711
1664.0,-0.0010499445488676429
1792.0,-0.001381081179715693
1920.0,-0.0005375937325879931
2048.0,0.0008640832384116948
2304.0,0.00195939838886261
2560.0,0.00021359635866247118
2816.0,0.0006466095801442862
3072.0,0.000782991002779454
3328.0,-0.0020751242991536856
3584.0,-0.0010033210273832083
3840.0,-0.0012396229431033134
4096.0,-0.00021330676099751145
4608.0,0.0013771862722933292
5120.0,0.00026606363826431334
5632.0,-0.0013386592036113143
6144.0,-0.0009706561686471105
6656.0,0.0014359626220539212
7168.0,0.0011850270675495267
7680.0,-0.00031682010740041733
8192.0,-0.0005712313577532768
9216.0,0.0014393869787454605
10240.0,-0.0005725120427086949
11264.0,2.728945946728345e-05
12288.0,-0.0010301254224032164
13312.0,0.0010176297510042787
14336.0,-0.00038917831261642277
end
