version,3.0
numOfCh,1
type,point
parent_name,100-cuts
ch_type,1_1
kcount,1
numberNandB,1
brightnessNandB,1
carpet pos,0
pc,0
Time (ms),CH1 Auto-Correlation
1.0,0.020238781347870827
2.0,0.019743843004107475
3.0,0.019251365214586258
4.0,0.0187719464302063
5.0,0.018319427967071533
6.0,0.017883282154798508
7.0,0.01744958572089672
8.0,0.01704312488436699
9.0,0.016646208241581917
10.0,0.01625666953623295
11.0,0.015886995941400528
12.0,0.015537056140601635
13.0,0.015197565779089928
14.0,0.014865467324852943
15.0,0.014552808366715908
16.0,0.014265869744122028
18.0,0.013711937703192234
20.0,0.013193327002227306
22.0,0.01271610427647829
24.0,0.012285757809877396
26.0,0.011864912696182728
28.0,0.011470649391412735
30.0,0.011088638566434383
32.0,0.010744920931756496
36.0,0.01011879276484251
40.0,0.009446460753679276
44.0,0.00878523662686348
48.0,0.008189482614398003
52.0,0.007655232213437557
56.0,0.007168651558458805
60.0,0.006815699860453606
64.0,0.006502017378807068
72.0,0.0056778183206915855
80.0,0.004971884191036224
88.0,0.004362048581242561
96.0,0.003813919611275196
104.0,0.0033668403048068285
112.0,0.0026873976457864046
120.0,0.002116309478878975
128.0,0.001782044186256826
144.0,0.0013752880040556192
160.0,0.001054253545589745
176.0,0.0007610389147885144
192.0,0.00033557135611772537
208.0,0.00032221144647337496
224.0,0.00021100578305777162
240.0,0.00013901421334594488
256.0,0.0001843790669227019
288.0,0.0007360111339949071
320.0,0.0013055156450718641
352.0,0.0013401942560449243
384.0,0.0012651324504986405
416.0,0.0017283117631450295
448.0,0.0018238122574985027
480.0,0.0011646097991615534
512.0,0.00037720214459113777
576.0,-0.0001819078461267054
640.0,-0.00038475857581943274
704.0,-0.001011876156553626
768.0,-0.0014265432255342603
832.0,-0.0006187776452861726
896.0,-0.0005212340038269758
960.0,-0.00020503532141447067
1024.0,6.071995449019596e-05
1152.0,-0.0004059501807205379
1280.0,0.0007165921851992607
1408.0,0.000839829386677593
1536.0,0.0015395245281979442
1664.0,0.0014132880605757236
1792.0,0.0014552850043401122
1920.0,0.0017935276264324784
2048.0,0.001140913343988359
2304.0,2.7194913855055347e-05
2560.0,-0.00029830876155756414
2816.0,-0.0015517063438892365
3072.0,-0.001123465015552938
3328.0,-0.00024842031416483223
3584.0,0.0006657767225988209
3840.0,-7.399031892418861e-05
4096.0,-0.0003223108360543847
4608.0,-0.0014350630808621645
5120.0,-0.0007461004424840212
5632.0,-0.00030111204250715673
6144.0,-0.0009324933052994311
6656.0,-0.0020517255179584026
7168.0,-0.000331574963638559
7680.0,0.00020228608627803624
8192.0,-0.0013342658057808876
9216.0,0.0008452030015178025
10240.0,0.0006670360453426838
11264.0,0.0014335219748318195
12288.0,0.0004271638172212988
13312.0,-0.00021937517158221453
14336.0,-0.0010485871462151408
end
