version,3.0
numOfCh,1
type,point
parent_name,100-cuts
ch_type,1_1
kcount,1
numberNandB,1
brightnessNandB,1
carpet pos,0
pc,0
Time (ms),CH1 Auto-Correlation
1.0,0.018332097679376602
2.0,0.017798056825995445
3.0,0.017280424013733864
4.0,0.016788972541689873
5.0,0.016312342137098312
6.0,0.01586315967142582
7.0,0.015437988564372063
8.0,0.015010441653430462
9.0,0.01459527388215065
10.0,0.014193999581038952
11.0,0.01379239372909069
12.0,0.013395830988883972
13.0,0.01299343816936016
14.0,0.012616094201803207
15.0,0.012262873351573944
16.0,0.01191654335707426
18.0,0.011300714686512947
20.0,0.010770088993012905
22.0,0.010257048532366753
24.0,0.009777791798114777
26.0,0.009323098696768284
28.0,0.00889213103801012
30.0,0.008510987274348736
32.0,0.00815476756542921
36.0,0.007473231293261051
40.0,0.0068604350090026855
44.0,0.006275375373661518
48.0,0.005786896217614412
52.0,0.005379077512770891
56.0,0.005022482946515083
60.0,0.0046846093609929085
64.0,0.004315855912864208
72.0,0.003566016675904393
80.0,0.002898113103583455
88.0,0.002285031834617257
96.0,0.0018169385148212314
104.0,0.001353088184259832
112.0,0.001008967636153102
120.0,0.0007718058186583221
128.0,0.0005011585308238864
144.0,2.2302598154055886e-05
160.0,-0.0004516096960287541
176.0,-0.0003043878823518753
192.0,-0.0003602742508519441
208.0,-0.0002563615271355957
224.0,6.309722812147811e-05
240.0,0.0002509546757210046
256.0,0.0003958048764616251
288.0,0.0016369207296520472
320.0,0.0021572918631136417
352.0,0.0016284565208479762
384.0,0.0005999537534080446
416.0,-0.00011517295934027061
448.0,-0.0009051585802808404
480.0,-0.0013541460502892733
512.0,-0.0010164137929677963
576.0,7.703086885157973e-05
640.0,5.244933345238678e-05
704.0,-0.00042298270273022354
768.0,-0.00044845661614090204
832.0,0.0006999704637564719
896.0,0.00020088438759557903
960.0,-0.0009939247975125909
1024.0,-0.0006791493506170809
1152.0,0.0007337390561588109
1280.0,-0.0006946154753677547
1408.0,0.0016221540281549096
1536.0,0.001025136443786323
1664.0,-0.0002156719274353236
1792.0,0.0008876810898073018
1920.0,0.0004376269644126296
2048.0,-0.0007787903887219727
2304.0,-0.001011648215353489
2560.0,-0.0015602747444063425
2816.0,-0.00043774815276265144
3072.0,0.0001478127669543028
3328.0,0.0007836068980395794
3584.0,0.0002672011323738843
3840.0,0.00013660750119015574
4096.0,8.309278928209096e-05
4608.0,0.00010102231317432597
5120.0,0.0007074608583934605
5632.0,-0.000844689435325563
6144.0,-0.0011785015230998397
6656.0,-0.0006734338239766657
7168.0,0.0001393151469528675
7680.0,-0.001211710274219513
8192.0,0.00020236564159858972
9216.0,-6.294847116805613e-05
10240.0,-5.163251989870332e-05
11264.0,-0.00029601153801195323
12288.0,0.00014047317381482571
13312.0,0.0012987895170226693
14336.0,0.00028903575730510056
end
