version,3.0
numOfCh,1
type,point
parent_name,100-cuts
ch_type,1_1
kcount,1
numberNandB,1
brightnessNandB,1
carpet pos,0
pc,0
Time (ms),CH1 Auto-Correlation
1.0,0.01938789337873459
2.0,0.018892165273427963
3.0,0.01842433400452137
4.0,0.017980633303523064
5.0,0.01754046231508255
6.0,0.017117995768785477
7.0,0.0167149119079113
8.0,0.016343818977475166
9.0,0.01598397269845009
10.0,0.015635084360837936
11.0,0.015294322744011879
12.0,0.014945545233786106
13.0,0.014604896306991577
14.0,0.014285183511674404
15.0,0.01397924404591322
16.0,0.013690424151718616
18.0,0.013149663805961609
20.0,0.01265982910990715
22.0,0.012184448540210724
24.0,0.01172823179513216
26.0,0.011312964372336864
28.0,0.010924260132014751
30.0,0.010550993494689465
32.0,0.010209506377577782
36.0,0.009570513851940632
40.0,0.008964198641479015
44.0,0.00834367424249649
48.0,0.007723803631961346
52.0,0.007172677665948868
56.0,0.006650249473750591
60.0,0.0061686038970947266
64.0,0.005726903676986694
72.0,0.0049699111841619015
80.0,0.004343418870121241
88.0,0.003815458156168461
96.0,0.0034314121585339308
104.0,0.0032698356080800295
112.0,0.003212997457012534
120.0,0.0029508876614272594
128.0,0.0026055758353322744
144.0,0.0020923514384776354
160.0,0.0019655602518469095
176.0,0.0017060202080756426
192.0,0.0012676274636760354
208.0,0.0012390591436997056
224.0,0.0013057609321549535
240.0,0.0014314970467239618
256.0,0.0013031272683292627
288.0,0.0005363448872230947
320.0,0.0003471622185315937
352.0,0.0009700508089736104
384.0,0.001304247765801847
416.0,0.0013143104733899236
448.0,0.0007495294557884336
480.0,5.608778155874461e-05
512.0,-0.00013447589299175888
576.0,-0.0004197422822471708
640.0,-6.82971440255642e-05
704.0,0.0005433961632661521
768.0,-0.0014669583179056644
832.0,-0.0029385245870798826
896.0,-0.002994073089212179
960.0,-0.0021379098761826754
1024.0,-0.0023230682127177715
1152.0,-0.0008590700454078615
1280.0,-0.0009760032990016043
1408.0,-0.0004561375535558909
1536.0,0.0005132560036145151
1664.0,0.0007919688359834254
1792.0,0.0008916410151869059
1920.0,0.0006894980324432254
2048.0,-0.001031064777635038
2304.0,0.00031732706702314317
2560.0,-0.00040600390639156103
2816.0,0.0005907945451326668
3072.0,-0.0004751723899971694
3328.0,-0.000630234950222075
3584.0,-0.0004338006838224828
3840.0,-0.0005996150430291891
4096.0,0.0009126850636675954
4608.0,-0.0007128971628844738
5120.0,-0.0014176077675074339
5632.0,0.00013955617032479495
6144.0,-0.0012434344971552491
6656.0,-0.00036175636341795325
7168.0,0.0014839963987469673
7680.0,0.0007678473484702408
8192.0,-0.0004423633508849889
9216.0,0.0001443920482415706
10240.0,0.00014136290701571852
11264.0,0.0006973571726121008
12288.0,-0.0005652726977132261
13312.0,-0.0014259779127314687
14336.0,0.00039386365097016096
end
