version,3.0
numOfCh,1
type,point
parent_name,100-cuts
ch_type,1_1
kcount,1
numberNandB,1
brightnessNandB,1
carpet pos,0
pc,0
Time (ms),CH1 Auto-Correlation
1.0,0.029082976281642914
2.0,0.028339680284261703
3.0,0.027624482288956642
4.0,0.026936257258057594
5.0,0.026272112503647804
6.0,0.025626929476857185
7.0,0.02502174861729145
8.0,0.02445593662559986
9.0,0.02391395904123783
10.0,0.023403674364089966
11.0,0.02291017957031727
12.0,0.022418521344661713
13.0,0.021941501647233963
14.0,0.021476861089468002
15.0,0.021014142781496048
16.0,0.020586958155035973
18.0,0.01979678124189377
20.0,0.019062943756580353
22.0,0.018370812758803368
24.0,0.017698153853416443
26.0,0.017037423327565193
28.0,0.016390683129429817
30.0,0.015789126977324486
32.0,0.015200902707874775
36.0,0.014060810208320618
40.0,0.012967042624950409
44.0,0.011968648992478848
48.0,0.011122259311378002
52.0,0.010347108356654644
56.0,0.009611218236386776
60.0,0.009002601727843285
64.0,0.008482886478304863
72.0,0.007675553672015667
80.0,0.007121176924556494
88.0,0.006864448543637991
96.0,0.006560857407748699
104.0,0.0062632933259010315
112.0,0.005877579562366009
120.0,0.00520730298012495
128.0,0.004498252645134926
144.0,0.003504092339426279
160.0,0.0031720243860036135
176.0,0.0029770496767014265
192.0,0.002774745225906372
208.0,0.002654369454830885
224.0,0.0019451810512691736
240.0,0.0016466513043269515
256.0,0.0012906993506476283
288.0,0.0002659448073245585
320.0,-0.0007028827094472945
352.0,-0.0013244475703686476
384.0,-0.001139889587648213
416.0,-0.0008804314420558512
448.0,-0.0014622686430811882
480.0,-0.0015609976835548878
512.0,-0.0016376161947846413
576.0,-0.0016911675920709968
640.0,-0.0010939296334981918
704.0,-0.0017947664018720388
768.0,-0.0028947771061211824
832.0,-0.0016714673256501555
896.0,-0.0002176694106310606
960.0,-0.00010758471034932882
1024.0,-0.0007372369291260839
1152.0,0.00047565632849000394
1280.0,0.00017822372319642454
1408.0,0.00031503025093115866
1536.0,0.0019848544616252184
1664.0,-0.00045912936911918223
1792.0,0.00034744120785035193
1920.0,5.937688547419384e-05
2048.0,0.0005152871017344296
2304.0,-0.0010809373343363404
2560.0,0.0013555418699979782
2816.0,-7.77375025791116e-05
3072.0,-0.0010596011998131871
3328.0,-0.0004059062630403787
3584.0,0.0017193270614370704
3840.0,0.0022070875857025385
4096.0,0.00040444621117785573
4608.0,-0.002279379405081272
5120.0,-0.0008968474576249719
5632.0,-0.0002435535134281963
6144.0,-0.001383068854920566
6656.0,-0.0002483777061570436
7168.0,-1.811887887015473e-05
7680.0,0.00025415827985852957
8192.0,-0.0021385441068559885
9216.0,0.00139180151745677
10240.0,-0.000453770044259727
11264.0,0.0010009766556322575
12288.0,0.00031804622267372906
13312.0,-0.0003187111869920045
14336.0,0.002118209144100547
end
