version,3.0
numOfCh,1
type,point
parent_name,100-cuts
ch_type,1_1
kcount,1
numberNandB,1
brightnessNandB,1
carpet pos,0
pc,0
Time (ms),CH1 Auto-Correlation
1.0,0.07056637108325958
2.0,0.06897251307964325
3.0,0.06743884086608887
4.0,0.06598153710365295
5.0,0.06457170844078064
6.0,0.06320411711931229
7.0,0.06191866472363472
8.0,0.06070677563548088
9.0,0.05950656160712242
10.0,0.05832203850150108
11.0,0.05717727914452553
12.0,0.05604630708694458
13.0,0.054943013936281204
14.0,0.05391416326165199
15.0,0.0529586598277092
16.0,0.05203239247202873
18.0,0.05022740736603737
20.0,0.04854555428028107
22.0,0.04702076315879822
24.0,0.04561779648065567
26.0,0.04425617307424545
28.0,0.04295213520526886
30.0,0.041716113686561584
32.0,0.04052005335688591
36.0,0.03819524869322777
40.0,0.0361209437251091
44.0,0.0343477800488472
48.0,0.03285432606935501
52.0,0.03156600520014763
56.0,0.03055504709482193
60.0,0.0294268149882555
64.0,0.02829277515411377
72.0,0.026179496198892593
80.0,0.024275919422507286
88.0,0.022668935358524323
96.0,0.021105019375681877
104.0,0.01971432752907276
112.0,0.018419373780488968
120.0,0.017161527648568153
128.0,0.01604720763862133
144.0,0.013867916539311409
160.0,0.011912895366549492
176.0,0.009711516089737415
192.0,0.007741434965282679
208.0,0.006506954785436392
224.0,0.004839980974793434
240.0,0.0032170391641557217
256.0,0.001687701791524887
288.0,0.0006513491971418262
320.0,-0.001071009086444974
352.0,-0.00022407220967579633
384.0,-0.0010567620629444718
416.0,-0.0023441030643880367
448.0,-0.001683088019490242
480.0,-0.0030563827604055405
512.0,-0.002100349171087146
576.0,-0.0016103714006021619
640.0,1.6923066141316667e-05
704.0,0.0013620235258713365
768.0,-0.00020804032101295888
832.0,0.00024309183936566114
896.0,-0.0015966653591021895
960.0,-0.004734754096716642
1024.0,-0.0033317680936306715
1152.0,-0.002544446848332882
1280.0,-0.005418435204774141
1408.0,-0.006258714944124222
1536.0,-0.005099129397422075
1664.0,-0.006689427886158228
1792.0,-0.005058052018284798
1920.0,-0.0028816815465688705
2048.0,-0.001109884469769895
2304.0,0.0011109572369605303
2560.0,-0.0009409995400346816
2816.0,0.0011847966816276312
3072.0,-0.0029675059486180544
3328.0,0.0020254175178706646
3584.0,0.0018086176132783294
3840.0,0.00039320203359238803
4096.0,0.005102555267512798
4608.0,0.002187086269259453
5120.0,0.0008642466855235398
5632.0,-0.004074867349117994
6144.0,-0.006802196614444256
6656.0,-0.0021923508029431105
7168.0,0.002327805384993553
7680.0,0.002523251576349139
8192.0,0.00014227739302441478
9216.0,0.00017758156172931194
10240.0,-0.0058658733032643795
11264.0,0.004114667419344187
12288.0,0.00038804937503300607
13312.0,-0.0005377387278713286
14336.0,0.005751303397119045
end
