version,3.0
numOfCh,1
type,point
parent_name,100-cuts
ch_type,1_1
kcount,1
numberNandB,1
brightnessNandB,1
carpet pos,0
pc,0
Time (ms),CH1 Auto-Correlation
1.0,0.03384651616215706
2.0,0.03303971886634827
3.0,0.032278116792440414
4.0,0.03154289349913597
5.0,0.030832858756184578
6.0,0.03016022965312004
7.0,0.02948937378823757
8.0,0.028866445645689964
9.0,0.028257841244339943
10.0,0.02766735665500164
11.0,0.027094639837741852
12.0,0.02653512917459011
13.0,0.025970786809921265
14.0,0.025437355041503906
15.0,0.02492029219865799
16.0,0.024439973756670952
18.0,0.023551292717456818
20.0,0.022682035341858864
22.0,0.021853744983673096
24.0,0.021080192178487778
26.0,0.02028830721974373
28.0,0.019518684595823288
30.0,0.018747827038168907
32.0,0.018017802387475967
36.0,0.016741767525672913
40.0,0.015531453303992748
44.0,0.014458260498940945
48.0,0.013471935875713825
52.0,0.012571435421705246
56.0,0.011810674332082272
60.0,0.011057293973863125
64.0,0.010285250842571259
72.0,0.008877989836037159
80.0,0.007688975892961025
88.0,0.00685725687071681
96.0,0.006093771196901798
104.0,0.005625878926366568
112.0,0.005359824746847153
120.0,0.004932407755404711
128.0,0.004543379880487919
144.0,0.003826666856184602
160.0,0.0034746734891086817
176.0,0.002767265075817704
192.0,0.0022079702466726303
208.0,0.001703311805613339
224.0,0.0015763061819598079
240.0,0.0015612971037626266
256.0,0.0011410822626203299
288.0,-0.00028181931702420115
320.0,-0.0019062799401581287
352.0,-0.0027248600963503122
384.0,-0.0024716246407479048
416.0,-0.0012784641003236175
448.0,-0.0009148304234258831
480.0,-0.0007059393683448434
512.0,-0.0005833128816448152
576.0,-0.0014758037868887186
640.0,-0.0016025067307054996
704.0,-0.0009713519248180091
768.0,-0.0009265043190680444
832.0,0.0019654997158795595
896.0,0.003297993680462241
960.0,0.002114928560331464
1024.0,0.0009060270967893302
1152.0,-0.0029839978087693453
1280.0,-0.003677132073789835
1408.0,-0.0034600254148244858
1536.0,-0.000761148170568049
1664.0,0.0011569092748686671
1792.0,0.0016726459143683314
1920.0,0.00043426177580840886
2048.0,0.0008363027009181678
2304.0,-0.0005738470354117453
2560.0,0.0010666332673281431
2816.0,0.0023256237618625164
3072.0,-0.0018850585911422968
3328.0,-0.0017399044008925557
3584.0,0.00025091765564866364
3840.0,-0.0007978329667821527
4096.0,-0.0030179820023477077
4608.0,-0.0003478291619103402
5120.0,-0.00042397918878123164
5632.0,2.3624399545951746e-05
6144.0,-0.0016008149832487106
6656.0,-0.0018801206024363637
7168.0,0.0010912263533100486
7680.0,0.00011261991312494501
8192.0,-7.27983278920874e-05
9216.0,0.0017306628869846463
10240.0,0.0007007673266343772
11264.0,-0.0005734728183597326
12288.0,0.00022451631957665086
13312.0,-0.003603905439376831
14336.0,0.0035889893770217896
end
