version,3.0
numOfCh,1
type,point
parent_name,100-cuts
ch_type,1_1
kcount,1
numberNandB,1
brightnessNandB,1
carpet pos,0
pc,0
Time (ms),CH1 Auto-Correlation
1.0,0.02197299897670746
2.0,0.021466819569468498
3.0,0.02097414992749691
4.0,0.02049962803721428
5.0,0.020030060783028603
6.0,0.019573766738176346
7.0,0.01913250796496868
8.0,0.018699347972869873
9.0,0.018291426822543144
10.0,0.0178888738155365
11.0,0.01750197820365429
12.0,0.017123883590102196
13.0,0.016756543889641762
14.0,0.016395095735788345
15.0,0.01604059897363186
16.0,0.015693629160523415
18.0,0.015051414258778095
20.0,0.014474175870418549
22.0,0.013948893174529076
24.0,0.01341774221509695
26.0,0.01290148962289095
28.0,0.012425098568201065
30.0,0.012000675313174725
32.0,0.011627617292106152
36.0,0.010992944240570068
40.0,0.010381217114627361
44.0,0.009747465141117573
48.0,0.009124716743826866
52.0,0.008513076230883598
56.0,0.007896901108324528
60.0,0.007279166020452976
64.0,0.0067711868323385715
72.0,0.0061445776373147964
80.0,0.005657894071191549
88.0,0.005184485111385584
96.0,0.004709405824542046
104.0,0.004405492916703224
112.0,0.004279447253793478
120.0,0.004069966729730368
128.0,0.0036306544207036495
144.0,0.002594715915620327
160.0,0.0017695855349302292
176.0,0.0014184152241796255
192.0,0.0010147321736440063
208.0,0.0005547308828681707
224.0,0.00015749511658214033
240.0,-5.641071038553491e-05
256.0,-0.0005248022498562932
288.0,-0.0016866907244548202
320.0,-0.002469378989189863
352.0,-0.002361780032515526
384.0,-0.0017804214730858803
416.0,-0.0013304195599630475
448.0,-0.0012325491989031434
480.0,-0.0007982186507433653
512.0,0.0001244308368768543
576.0,0.0009252296877093613
640.0,1.908996819111053e-05
704.0,-0.0013613078044727445
768.0,-0.0012713790638372302
832.0,-0.0006811891798861325
896.0,-0.0005872262408956885
960.0,0.00011989313497906551
1024.0,0.0013237333623692393
1152.0,0.0008225756464526057
1280.0,-0.0009084427729249001
1408.0,-0.001437127124518156
1536.0,0.0005171869997866452
1664.0,0.0015327456640079618
1792.0,7.579835801152512e-05
1920.0,0.0003681353700812906
2048.0,0.001809493056498468
2304.0,-0.00038486646371893585
2560.0,-0.0005591118824668229
2816.0,0.000455421773949638
3072.0,0.00017215945990756154
3328.0,-0.0014157036785036325
3584.0,-0.0001121108653023839
3840.0,0.0023511943873018026
4096.0,-0.0006934714620001614
4608.0,-0.0011783487861976027
5120.0,-0.0014101588167250156
5632.0,0.0007968299323692918
6144.0,-0.0005804821848869324
6656.0,-0.0005535194650292397
7168.0,0.0006414494127966464
7680.0,8.644577610539272e-05
8192.0,-0.0011224201880395412
9216.0,0.0006614891462959349
10240.0,-0.0004808848607353866
11264.0,0.0005426440620794892
12288.0,-0.0009290481684729457
13312.0,0.0012871759245172143
14336.0,-0.000742114323657006
end
