version,3.0
numOfCh,1
type,point
parent_name,100-cuts
ch_type,1_1
kcount,1
numberNandB,1
brightnessNandB,1
carpet pos,0
pc,0
Time (ms),CH1 Auto-Correlation
1.0,0.0609680712223053
2.0,0.0594412237405777
3.0,0.057977430522441864
4.0,0.05656316876411438
5.0,0.055214256048202515
6.0,0.05389918386936188
7.0,0.05262210965156555
8.0,0.051421210169792175
9.0,0.05025088042020798
10.0,0.04910558834671974
11.0,0.047982752323150635
12.0,0.046886809170246124
13.0,0.04584086313843727
14.0,0.04485788941383362
15.0,0.04392072930932045
16.0,0.04299718141555786
18.0,0.041233308613300323
20.0,0.039651427417993546
22.0,0.038261380046606064
24.0,0.036970678716897964
26.0,0.03569776937365532
28.0,0.03446158021688461
30.0,0.03327527269721031
32.0,0.0321548692882061
36.0,0.03001309558749199
40.0,0.028050191700458527
44.0,0.026076113805174828
48.0,0.024135692045092583
52.0,0.022182706743478775
56.0,0.020352961495518684
60.0,0.018728185445070267
64.0,0.01724029891192913
72.0,0.014436868950724602
80.0,0.011806145310401917
88.0,0.009582193568348885
96.0,0.007836216129362583
104.0,0.0068003470078110695
112.0,0.005997051019221544
120.0,0.00537220248952508
128.0,0.004921630024909973
144.0,0.004666408523917198
160.0,0.004517486318945885
176.0,0.004313409328460693
192.0,0.004142679274082184
208.0,0.004525249358266592
224.0,0.0044726599007844925
240.0,0.002724235877394676
256.0,0.0006195866735652089
288.0,-0.003344756318256259
320.0,-0.005119450856000185
352.0,-0.0029430382419377565
384.0,-0.0005549530033022165
416.0,-0.0015461628790944815
448.0,-0.0027873681392520666
480.0,-0.004739632364362478
512.0,-0.004796740133315325
576.0,-0.0017694373382255435
640.0,-0.0028897752054035664
704.0,-0.0022893978748470545
768.0,0.0006925270427018404
832.0,0.00609644316136837
896.0,0.003058460308238864
960.0,-0.00032296014251187444
1024.0,-0.0002361989754717797
1152.0,-0.002841709414497018
1280.0,-0.0009961934993043542
1408.0,-0.002778964815661311
1536.0,-0.0008326799725182354
1664.0,0.00183019635733217
1792.0,0.004426879808306694
1920.0,0.004350680857896805
2048.0,-5.2621391660068184e-05
2304.0,-0.001298629678785801
2560.0,-0.0037283184938132763
2816.0,-0.0066992491483688354
3072.0,-0.0038681968580931425
3328.0,0.0013057412579655647
3584.0,0.0017314496217295527
3840.0,0.00016231309564318508
4096.0,0.003220050362870097
4608.0,-0.000733430846594274
5120.0,0.0013600378297269344
5632.0,0.0014867930440232158
6144.0,-0.0016465737717226148
6656.0,-0.00095767603488639
7168.0,-0.001229194807820022
7680.0,-0.000540461391210556
8192.0,-0.004696230869740248
9216.0,0.0008770775748416781
10240.0,0.003195495344698429
11264.0,5.6089076679199934e-05
12288.0,5.410061567090452e-05
13312.0,-0.0027667840477079153
14336.0,0.0021709830034524202
end
