version,3.0
numOfCh,1
type,point
parent_name,100-cuts
ch_type,1_1
kcount,1
numberNandB,1
brightnessNandB,1
carpet pos,0
pc,0
Time (ms),CH1 Auto-Correlation
1.0,0.039557140320539474
2.0,0.038764581084251404
3.0,0.03799746558070183
4.0,0.03726990520954132
5.0,0.03654875606298447
6.0,0.03586798906326294
7.0,0.03519183024764061
8.0,0.034567274153232574
9.0,0.033960625529289246
10.0,0.033360954374074936
11.0,0.03276683762669563
12.0,0.03219005838036537
13.0,0.031633246690034866
14.0,0.03110283426940441
15.0,0.03056970052421093
16.0,0.030038943514227867
18.0,0.029074089601635933
20.0,0.02814016491174698
22.0,0.02722489833831787
24.0,0.026347659528255463
26.0,0.025517357513308525
28.0,0.02475057914853096
30.0,0.024076929315924644
32.0,0.023440241813659668
36.0,0.022175220772624016
40.0,0.020940328016877174
44.0,0.019780876114964485
48.0,0.018712585791945457
52.0,0.01773599162697792
56.0,0.016935143619775772
60.0,0.016238834708929062
64.0,0.015510991215705872
72.0,0.014094349928200245
80.0,0.012539668940007687
88.0,0.011221366003155708
96.0,0.010293724946677685
104.0,0.009642262011766434
112.0,0.009010497480630875
120.0,0.008636931888759136
128.0,0.008332302793860435
144.0,0.007228758651763201
160.0,0.005890926346182823
176.0,0.00512017821893096
192.0,0.004995469003915787
208.0,0.005330522079020739
224.0,0.005380471237003803
240.0,0.005657949950546026
256.0,0.005315027199685574
288.0,0.004633837845176458
320.0,0.004472510889172554
352.0,0.003382540075108409
384.0,0.0027016547974199057
416.0,0.002499687485396862
448.0,0.004058642778545618
480.0,0.004254844505339861
512.0,0.00472956383600831
576.0,0.004547874443233013
640.0,0.0032602683641016483
704.0,0.0004729749052785337
768.0,0.0002639276208356023
832.0,0.00072330521652475
896.0,0.0024093459360301495
960.0,0.0018144939094781876
1024.0,-0.0006818235269747674
1152.0,-0.0017222620081156492
1280.0,0.0007125343545340002
1408.0,0.00194317486602813
1536.0,0.004708100110292435
1664.0,0.0028854787815362215
1792.0,0.002112187445163727
1920.0,0.0038164660800248384
2048.0,0.0028680358082056046
2304.0,0.0004971681046299636
2560.0,-0.0024425091687589884
2816.0,-0.004111307207494974
3072.0,-0.004252379760146141
3328.0,-0.004121525213122368
3584.0,-0.002030409639701247
3840.0,0.002682804362848401
4096.0,-0.00037031929241493344
4608.0,-0.0017362047219648957
5120.0,-0.001800654223188758
5632.0,0.0011065566213801503
6144.0,-0.0005849820445291698
6656.0,-0.0026784653309732676
7168.0,-0.004585330840200186
7680.0,3.513391857268289e-05
8192.0,0.0031244370620697737
9216.0,0.001992991892620921
10240.0,0.0041150194592773914
11264.0,-0.002689364366233349
12288.0,-0.007239405065774918
13312.0,-0.00521786417812109
14336.0,-0.0051059415563941
end
