version,3.0
numOfCh,1
type,point
parent_name,100-cuts
ch_type,1_1
kcount,1
numberNandB,1
brightnessNandB,1
carpet pos,0
pc,0
Time (ms),CH1 Auto-Correlation
1.0,0.041696906089782715
2.0,0.04084380716085434
3.0,0.03999612107872963
4.0,0.0391644723713398
5.0,0.03835383430123329
6.0,0.03758648410439491
7.0,0.036856759339571
8.0,0.03614090010523796
9.0,0.035446807742118835
10.0,0.03477213531732559
11.0,0.03411678597331047
12.0,0.03346787765622139
13.0,0.032842203974723816
14.0,0.03223041072487831
15.0,0.031623825430870056
16.0,0.03103787824511528
18.0,0.02985323779284954
20.0,0.02872733771800995
22.0,0.027671249583363533
24.0,0.0267202015966177
26.0,0.02582225203514099
28.0,0.025005949661135674
30.0,0.024255873635411263
32.0,0.0234905444085598
36.0,0.02206202782690525
40.0,0.020764129236340523
44.0,0.01956036686897278
48.0,0.018436795100569725
52.0,0.01746303029358387
56.0,0.01654212735593319
60.0,0.015696294605731964
64.0,0.014917031861841679
72.0,0.013380014337599277
80.0,0.012004736810922623
88.0,0.010686512105166912
96.0,0.009525851346552372
104.0,0.008488737978041172
112.0,0.007415494881570339
120.0,0.0064621008932590485
128.0,0.005709717515856028
144.0,0.005492696072906256
160.0,0.005103676579892635
176.0,0.004255492705851793
192.0,0.0035174358636140823
208.0,0.00312470318749547
224.0,0.002813531318679452
240.0,0.00202709692530334
256.0,0.0018307332647964358
288.0,0.0020132274366915226
320.0,0.000931713730096817
352.0,0.0010084786918014288
384.0,0.0012000016868114471
416.0,-0.00026275982963852584
448.0,-0.0021631657145917416
480.0,-0.002037227852270007
512.0,-0.0007826463552191854
576.0,-0.0002528820768930018
640.0,-0.0014204488834366202
704.0,-0.002118553500622511
768.0,-0.0008591534569859505
832.0,0.002843372290953994
896.0,0.005376884248107672
960.0,0.0037552560679614544
1024.0,0.0038325306959450245
1152.0,0.004207337275147438
1280.0,0.004826992284506559
1408.0,0.0010775114642456174
1536.0,-0.0002769665152300149
1664.0,-0.0015358107630163431
1792.0,-0.004345775581896305
1920.0,0.0012907566269859672
2048.0,0.0029464075341820717
2304.0,0.0007283936720341444
2560.0,0.0007049088599160314
2816.0,0.0006268658908084035
3072.0,0.0018455656245350838
3328.0,0.0023428339045494795
3584.0,0.0024097810965031385
3840.0,-0.0007765165064483881
4096.0,-0.001112425234168768
4608.0,-0.0006070039817132056
5120.0,-0.004762930795550346
5632.0,-0.0019893478602170944
6144.0,-0.0035015083849430084
6656.0,-0.0028022078331559896
7168.0,-0.00108975893817842
7680.0,-0.0024650462437421083
8192.0,-0.003002818673849106
9216.0,-0.0030304593965411186
10240.0,-0.0007051800494082272
11264.0,0.0029105949215590954
12288.0,0.0009986615041270852
13312.0,0.005349781364202499
14336.0,0.0005104503943584859
end
