version,3.0
numOfCh,1
type,point
parent_name,100-cuts
ch_type,1_1
kcount,1
numberNandB,1
brightnessNandB,1
carpet pos,0
pc,0
Time (ms),CH1 Auto-Correlation
1.0,0.019093729555606842
2.0,0.018643220886588097
3.0,0.01821252331137657
4.0,0.017806170508265495
5.0,0.017409613355994225
6.0,0.017025252804160118
7.0,0.016658993437886238
8.0,0.016314608976244926
9.0,0.01598270796239376
10.0,0.015666568651795387
11.0,0.015352488495409489
12.0,0.015051914379000664
13.0,0.014760177582502365
14.0,0.014476737007498741
15.0,0.01419750601053238
16.0,0.013933371752500534
18.0,0.013432461768388748
20.0,0.012981575913727283
22.0,0.01258213259279728
24.0,0.012207438237965107
26.0,0.011874559335410595
28.0,0.011552395299077034
30.0,0.011256169527769089
32.0,0.010995610617101192
36.0,0.010447550565004349
40.0,0.009871957823634148
44.0,0.009285083040595055
48.0,0.008755631744861603
52.0,0.008282219059765339
56.0,0.00787141639739275
60.0,0.007449778728187084
64.0,0.007036620285362005
72.0,0.006356516387313604
80.0,0.005824488587677479
88.0,0.0052498746663331985
96.0,0.004645624663680792
104.0,0.004123329184949398
112.0,0.0036706733517348766
120.0,0.0032062099780887365
128.0,0.002656836062669754
144.0,0.0018786871805787086
160.0,0.0014256825670599937
176.0,0.0013420257018879056
192.0,0.0012803537538275123
208.0,0.0009991059778258204
224.0,0.0007513977470807731
240.0,0.0008565585012547672
256.0,0.0010418043239042163
288.0,0.0018324627308174968
320.0,0.0022687201853841543
352.0,0.002467093989253044
384.0,0.0020413543097674847
416.0,0.0012404614826664329
448.0,0.00022661409457214177
480.0,-0.0008511332562193274
512.0,-0.0012675763573497534
576.0,-0.0013865422224625945
640.0,-0.0015018164413049817
704.0,-0.0012509593507274985
768.0,-0.0016948984703049064
832.0,-0.002200883813202381
896.0,-0.002185496734455228
960.0,-0.0017618313431739807
1024.0,-0.0017491739708930254
1152.0,-0.001965023111552
1280.0,-0.0007404728676192462
1408.0,-0.00027483588200993836
1536.0,4.101603553863242e-05
1664.0,-0.00023751979460939765
1792.0,-0.000406291161198169
1920.0,-0.0003137964231427759
2048.0,-0.00022787869966123253
2304.0,-7.843830644560512e-06
2560.0,-0.0006633235607296228
2816.0,-0.0010383446933701634
3072.0,-0.0003364334988873452
3328.0,0.00038085677078925073
3584.0,-0.000758980168029666
3840.0,0.0001983254769584164
4096.0,0.0010730396024882793
4608.0,0.0006920074811205268
5120.0,-0.00022100433125160635
5632.0,-0.0005725074443034828
6144.0,-0.0008202306344173849
6656.0,-0.0007720470312051475
7168.0,0.0012959103332832456
7680.0,0.0006816591485403478
8192.0,0.0017257229192182422
9216.0,0.0007009910186752677
10240.0,-0.001538638025522232
11264.0,0.0007615744252689183
12288.0,0.0004822357732336968
13312.0,-0.0005606529302895069
14336.0,7.852956332499161e-05
end
