version,3.0
numOfCh,1
type,point
parent_name,100-cuts
ch_type,1_1
kcount,1
numberNandB,1
brightnessNandB,1
carpet pos,0
pc,0
Time (ms),CH1 Auto-Correlation
1.0,0.06724857538938522
2.0,0.065663181245327
3.0,0.06412617117166519
4.0,0.0626600906252861
5.0,0.06121404841542244
6.0,0.059835873544216156
7.0,0.0584980733692646
8.0,0.05717571824789047
9.0,0.0559055432677269
10.0,0.05464712902903557
11.0,0.05346621572971344
12.0,0.05233734846115112
13.0,0.05126749351620674
14.0,0.05022382363677025
15.0,0.049247950315475464
16.0,0.048299696296453476
18.0,0.046456608921289444
20.0,0.04484066367149353
22.0,0.04329109564423561
24.0,0.0416676364839077
26.0,0.04003781080245972
28.0,0.038461096584796906
30.0,0.03701307997107506
32.0,0.03563316911458969
36.0,0.03289726749062538
40.0,0.030382420867681503
44.0,0.028033193200826645
48.0,0.025949519127607346
52.0,0.024054475128650665
56.0,0.022192109376192093
60.0,0.02063801698386669
64.0,0.019103294238448143
72.0,0.015845855697989464
80.0,0.012790953740477562
88.0,0.010680140927433968
96.0,0.00896898191422224
104.0,0.007764782756567001
112.0,0.006715396419167519
120.0,0.006017167586833239
128.0,0.005649692378938198
144.0,0.005892660468816757
160.0,0.005616131238639355
176.0,0.006325587164610624
192.0,0.007039745803922415
208.0,0.007435438688844442
224.0,0.007010681554675102
240.0,0.004935340024530888
256.0,0.0025413604453206062
288.0,-0.0013968492858111858
320.0,0.00012841024727094918
352.0,0.0029992004856467247
384.0,0.005970588885247707
416.0,0.007380398456007242
448.0,0.004664603155106306
480.0,0.0022142515517771244
512.0,0.0013549799332395196
576.0,0.0026065160054713488
640.0,0.002664850791916251
704.0,0.0015823801513761282
768.0,-0.0005268157692626119
832.0,0.0006640225765295327
896.0,-0.0019834004342556
960.0,-0.0007591331959702075
1024.0,0.00328140240162611
1152.0,0.0014902092516422272
1280.0,-0.0034921232145279646
1408.0,-0.006619678344577551
1536.0,-0.007842416875064373
1664.0,-0.005806258413940668
1792.0,-0.010133588686585426
1920.0,-0.0038583402056246996
2048.0,-0.006441617384552956
2304.0,-0.007109209895133972
2560.0,-0.003978782333433628
2816.0,-0.003893879009410739
3072.0,0.0009223935776390135
3328.0,0.0013752058148384094
3584.0,0.01045617088675499
3840.0,0.007040744181722403
4096.0,0.0064832293428480625
4608.0,0.0029786103405058384
5120.0,-0.0029071420431137085
5632.0,-0.005285939201712608
6144.0,-0.00609303405508399
6656.0,0.0010546636767685413
7168.0,0.005038861185312271
7680.0,0.0024166787043213844
8192.0,0.001964602619409561
9216.0,-0.0023628619965165854
10240.0,-7.83886862336658e-05
11264.0,0.00157256075181067
12288.0,0.000639067031443119
13312.0,-0.003742263652384281
14336.0,0.0037509824614971876
end
