version,3.0
numOfCh,1
type,point
parent_name,100-cuts
ch_type,1_1
kcount,1
numberNandB,1
brightnessNandB,1
carpet pos,0
pc,0
Time (ms),CH1 Auto-Correlation
1.0,0.030820559710264206
2.0,0.030084537342190742
3.0,0.029410315677523613
4.0,0.028753716498613358
5.0,0.02811473235487938
6.0,0.027505027130246162
7.0,0.026902472600340843
8.0,0.02632884681224823
9.0,0.025765277445316315
10.0,0.02521553449332714
11.0,0.024673011153936386
12.0,0.024159036576747894
13.0,0.023663675412535667
14.0,0.023176036775112152
15.0,0.02268858812749386
16.0,0.022205209359526634
18.0,0.02123832143843174
20.0,0.020354580134153366
22.0,0.01951504498720169
24.0,0.018753381446003914
26.0,0.018069546669721603
28.0,0.017458520829677582
30.0,0.016881505027413368
32.0,0.016335688531398773
36.0,0.015381178818643093
40.0,0.014571848325431347
44.0,0.013938972726464272
48.0,0.013336420990526676
52.0,0.012696979567408562
56.0,0.01200504507869482
60.0,0.011268596164882183
64.0,0.010565374977886677
72.0,0.00960917305201292
80.0,0.008955627679824829
88.0,0.008556915447115898
96.0,0.007896412163972855
104.0,0.007009139750152826
112.0,0.006120090372860432
120.0,0.00523948622867465
128.0,0.004349696449935436
144.0,0.0028928194660693407
160.0,0.0021835220977663994
176.0,0.0017913912888616323
192.0,0.0011641476303339005
208.0,0.000645989493932575
224.0,-0.00010398005542811006
240.0,-0.0006337364320643246
256.0,-0.0006617854814976454
288.0,-0.0014796426985412836
320.0,-0.001310061546973884
352.0,-0.001521843601949513
384.0,-0.0017661022720858455
416.0,-0.0009002071456052363
448.0,0.000910875853151083
480.0,0.002487675053998828
512.0,0.002956064185127616
576.0,0.0013088611885905266
640.0,4.570845703710802e-05
704.0,9.588972898200154e-05
768.0,-0.0002507927711121738
832.0,-0.0006015373510308564
896.0,-0.0013170851161703467
960.0,-0.001335718552581966
1024.0,-0.00041500729275867343
1152.0,0.0010943571105599403
1280.0,0.0038992876652628183
1408.0,0.0006625997484661639
1536.0,-0.0007771908422000706
1664.0,-0.0008091707131825387
1792.0,0.0006539502064697444
1920.0,-0.002386347856372595
2048.0,0.00011538847320480272
2304.0,-0.001374616171233356
2560.0,0.0008780659409239888
2816.0,-0.0010218562092632055
3072.0,8.870289093465544e-06
3328.0,-2.136456714652013e-05
3584.0,0.0010815068380907178
3840.0,0.0009774259524419904
4096.0,-2.9335922590689734e-05
4608.0,0.00025633792392909527
5120.0,0.0006812065257690847
5632.0,0.0005339557537809014
6144.0,-0.0004606135480571538
6656.0,-0.0026285764761269093
7168.0,-0.0010249154875054955
7680.0,-0.003954897169023752
8192.0,-0.0005514666554518044
9216.0,-0.0009676446788944304
10240.0,-0.0008338631014339626
11264.0,0.00015293741307687014
12288.0,-0.0007406820659525692
13312.0,0.0005081147537566721
14336.0,0.0032825474627316
end
