version,3.0
numOfCh,1
type,point
parent_name,100-cuts
ch_type,1_1
kcount,1
numberNandB,1
brightnessNandB,1
carpet pos,0
pc,0
Time (ms),CH1 Auto-Correlation
1.0,0.02284505032002926
2.0,0.022335313260555267
3.0,0.021838290616869926
4.0,0.02136615477502346
5.0,0.0209019985049963
6.0,0.020443793386220932
7.0,0.020004158839583397
8.0,0.019575586542487144
9.0,0.019157972186803818
10.0,0.018750658258795738
11.0,0.01836761087179184
12.0,0.017998965457081795
13.0,0.01763441413640976
14.0,0.017286261543631554
15.0,0.016944274306297302
16.0,0.01661165989935398
18.0,0.015964336693286896
20.0,0.015358111821115017
22.0,0.014803940430283546
24.0,0.014255832880735397
26.0,0.013725009746849537
28.0,0.013231656514108181
30.0,0.012781789526343346
32.0,0.012354686856269836
36.0,0.011587249115109444
40.0,0.01082606054842472
44.0,0.010142694227397442
48.0,0.009495459496974945
52.0,0.00886386539787054
56.0,0.008207108825445175
60.0,0.007666801102459431
64.0,0.007257234770804644
72.0,0.006648187059909105
80.0,0.006116264499723911
88.0,0.005522834602743387
96.0,0.0049108355306088924
104.0,0.00443833414465189
112.0,0.003926390781998634
120.0,0.003455585101619363
128.0,0.002963972045108676
144.0,0.0019487552344799042
160.0,0.0014039352536201477
176.0,0.001166745787486434
192.0,0.0008586913463659585
208.0,0.0007491438300348818
224.0,0.0006878911517560482
240.0,0.0006947650108486414
256.0,0.0003329728206153959
288.0,-2.787621269817464e-05
320.0,0.0003659469657577574
352.0,0.0006818094989284873
384.0,0.0003841436409857124
416.0,-0.0003131153935100883
448.0,-0.0008486704900860786
480.0,-0.0008162474841810763
512.0,-0.0007745015318505466
576.0,-0.0014536695089191198
640.0,-0.0007534308824688196
704.0,-0.0006373031064867973
768.0,-0.0007276466931216419
832.0,-0.0006318127270787954
896.0,-0.0007288124761544168
960.0,-0.0014822587836533785
1024.0,-0.00237573916092515
1152.0,-0.000782623013947159
1280.0,-0.0021238229237496853
1408.0,-0.002255562925711274
1536.0,0.0013451980194076896
1664.0,0.001784481224603951
1792.0,0.001404504757374525
1920.0,0.0007141490350477397
2048.0,0.0007278976845555007
2304.0,-0.0012677875347435474
2560.0,0.0009431029320694506
2816.0,-0.00100699660833925
3072.0,-0.00015622522914782166
3328.0,0.0024864282459020615
3584.0,0.0016040316550061107
3840.0,-0.0019024123903363943
4096.0,-0.0012777176452800632
4608.0,-0.0005777959013357759
5120.0,-0.0002869430754799396
5632.0,0.0007392289116978645
6144.0,0.0004673561779782176
6656.0,-0.0017566417809575796
7168.0,-0.0011365205282345414
7680.0,0.0009600293706171215
8192.0,-0.0012264136457815766
9216.0,-0.00010753321839729324
10240.0,2.7618661988526583e-05
11264.0,0.00039793484029360116
12288.0,-1.691946636128705e-05
13312.0,0.00041002765647135675
14336.0,-7.099504728103057e-05
end
