version,3.0
numOfCh,1
type,point
parent_name,100-cuts
ch_type,1_1
kcount,1
numberNandB,1
brightnessNandB,1
carpet pos,0
pc,0
Time (ms),CH1 Auto-Correlation
1.0,0.03546177223324776
2.0,0.03469685837626457
3.0,0.03395596519112587
4.0,0.03322070091962814
5.0,0.03248521313071251
6.0,0.03176793083548546
7.0,0.03107432834804058
8.0,0.03039378486573696
9.0,0.029761644080281258
10.0,0.029155012220144272
11.0,0.028570260852575302
12.0,0.028012730181217194
13.0,0.027488593012094498
14.0,0.026976993307471275
15.0,0.02647692896425724
16.0,0.02599414438009262
18.0,0.02507666125893593
20.0,0.024207163602113724
22.0,0.02341437339782715
24.0,0.022679733112454414
26.0,0.021947480738162994
28.0,0.021226845681667328
30.0,0.020539673045277596
32.0,0.019906042143702507
36.0,0.018777742981910706
40.0,0.017777714878320694
44.0,0.016853125765919685
48.0,0.01593792624771595
52.0,0.015043321996927261
56.0,0.014222103171050549
60.0,0.013520625419914722
64.0,0.012903415597975254
72.0,0.011604185216128826
80.0,0.01026398316025734
88.0,0.00899921078234911
96.0,0.0078008584678173065
104.0,0.007026358507573605
112.0,0.006174940150231123
120.0,0.005449873395264149
128.0,0.005039613228291273
144.0,0.0043084085918962955
160.0,0.0032320984173566103
176.0,0.002297226572409272
192.0,0.0018529548542574048
208.0,0.001561451586894691
224.0,0.0013729291968047619
240.0,0.001042543794028461
256.0,0.0004709080094471574
288.0,-8.557314868085086e-05
320.0,0.001056936103850603
352.0,0.0016052540158852935
384.0,0.0009983531199395657
416.0,0.0009827462490648031
448.0,0.0008523662691004574
480.0,0.0006241256487555802
512.0,-0.00013347284402698278
576.0,-0.0024635782465338707
640.0,-0.0013811496319249272
704.0,-0.0015595161821693182
768.0,-0.003429459175094962
832.0,-0.006295437458902597
896.0,-0.006405167747288942
960.0,-0.005606337450444698
1024.0,-0.0061351824551820755
1152.0,-0.004353574942797422
1280.0,-0.002690990222617984
1408.0,-0.0007921382202766836
1536.0,0.0023382508661597967
1664.0,0.0051263864152133465
1792.0,0.004594821482896805
1920.0,0.0031188400462269783
2048.0,0.001599086681380868
2304.0,-0.0010994061594828963
2560.0,-0.0032652944792062044
2816.0,-0.004832363687455654
3072.0,-0.0013842334738001227
3328.0,0.0013950879219919443
3584.0,0.0028855563141405582
3840.0,0.0015968274092301726
4096.0,0.0002591654774732888
4608.0,-0.002683471655473113
5120.0,-0.0004159768868703395
5632.0,0.00238427915610373
6144.0,0.0006032991805113852
6656.0,-0.0022304998710751534
7168.0,6.447765190387145e-05
7680.0,0.0018627134850248694
8192.0,-0.0003296400827821344
9216.0,0.000963829574175179
10240.0,-0.0009413509978912771
11264.0,0.0007249239715747535
12288.0,-0.00042115343967452645
13312.0,0.000730734842363745
14336.0,-0.00033504414022900164
end
