version,3.0
numOfCh,1
type,point
parent_name,100-cuts
ch_type,1_1
kcount,1
numberNandB,1
brightnessNandB,1
carpet pos,0
pc,0
Time (ms),CH1 Auto-Correlation
1.0,0.062383733689785004
2.0,0.06085357815027237
3.0,0.059394583106040955
4.0,0.05800018832087517
5.0,0.05667687952518463
6.0,0.0554160550236702
7.0,0.054175831377506256
8.0,0.05297470837831497
9.0,0.05186666548252106
10.0,0.05082092806696892
11.0,0.049767788499593735
12.0,0.04874005168676376
13.0,0.04769773781299591
14.0,0.046667616814374924
15.0,0.04567300155758858
16.0,0.04474988207221031
18.0,0.042986053973436356
20.0,0.04133027419447899
22.0,0.03976788744330406
24.0,0.03833644092082977
26.0,0.03699138015508652
28.0,0.03552348539233208
30.0,0.03410825505852699
32.0,0.032805297523736954
36.0,0.030595766380429268
40.0,0.02880045399069786
44.0,0.02740662544965744
48.0,0.026147838681936264
52.0,0.02493741549551487
56.0,0.02355152554810047
60.0,0.021988587453961372
64.0,0.02045593224465847
72.0,0.017399944365024567
80.0,0.014887153171002865
88.0,0.012946774251759052
96.0,0.01158212311565876
104.0,0.010216621682047844
112.0,0.009195913560688496
120.0,0.008236047811806202
128.0,0.007304543163627386
144.0,0.006317625287920237
160.0,0.006031113676726818
176.0,0.004085840191692114
192.0,0.0026342624332755804
208.0,0.001185369910672307
224.0,-0.0005955764790996909
240.0,-0.0008698882884345949
256.0,0.0004388019151519984
288.0,0.0021100672893226147
320.0,0.0027301376685500145
352.0,0.002471184590831399
384.0,0.0009710199083201587
416.0,-0.0011226600036025047
448.0,-0.00048122796579264104
480.0,0.0008746382081881166
512.0,0.0020982378628104925
576.0,-0.002221104223281145
640.0,-0.0068709030747413635
704.0,-0.004414201248437166
768.0,-0.0014960772823542356
832.0,0.004201131407171488
896.0,0.003868674859404564
960.0,-0.0008202469907701015
1024.0,-0.0002596189151518047
1152.0,-0.0006140084005892277
1280.0,0.001894985674880445
1408.0,-0.002324917586520314
1536.0,-0.006593926809728146
1664.0,-0.0018779436359182
1792.0,-0.0017175341490656137
1920.0,-0.0015169426333159208
2048.0,0.0010272235376760364
2304.0,-1.2264693395991344e-05
2560.0,-0.003781871637329459
2816.0,-0.004531617276370525
3072.0,0.002618847880512476
3328.0,-0.0011580681893974543
3584.0,-0.0016003623604774475
3840.0,-0.004572753794491291
4096.0,-0.004498195368796587
4608.0,0.00040432013338431716
5120.0,0.004904414992779493
5632.0,-0.0034306130837649107
6144.0,-0.0013430825201794505
6656.0,-0.0006199604831635952
7168.0,-0.002604411682114005
7680.0,0.0016830943059176207
8192.0,0.006019594147801399
9216.0,0.00047811257536523044
10240.0,0.0023028580471873283
11264.0,-0.004578674677759409
12288.0,-0.0018035686807706952
13312.0,0.0006763282581232488
14336.0,-0.0004017568426206708
end
