version,3.0
numOfCh,1
type,point
parent_name,100-cuts
ch_type,1_1
kcount,1
numberNandB,1
brightnessNandB,1
carpet pos,0
pc,0
Time (ms),CH1 Auto-Correlation
1.0,0.024178478866815567
2.0,0.023627668619155884
3.0,0.02308371104300022
4.0,0.022551650181412697
5.0,0.022035975009202957
6.0,0.02153448946774006
7.0,0.02105966955423355
8.0,0.020599501207470894
9.0,0.020135847851634026
10.0,0.019690142944455147
11.0,0.019250785931944847
12.0,0.01882215030491352
13.0,0.018397854641079903
14.0,0.01799224130809307
15.0,0.017593683674931526
16.0,0.017240384593605995
18.0,0.016596848145127296
20.0,0.015982983633875847
22.0,0.015397137962281704
24.0,0.014862677082419395
26.0,0.014367561787366867
28.0,0.01391584798693657
30.0,0.013472260907292366
32.0,0.013057941570878029
36.0,0.012349762953817844
40.0,0.011697651818394661
44.0,0.01110029686242342
48.0,0.010595642030239105
52.0,0.010188205167651176
56.0,0.009804113768041134
60.0,0.009400321170687675
64.0,0.008981218561530113
72.0,0.00833385344594717
80.0,0.007878469303250313
88.0,0.007460745982825756
96.0,0.006966616027057171
104.0,0.006517578382045031
112.0,0.006008465308696032
120.0,0.005422966554760933
128.0,0.004830069839954376
144.0,0.003547404194250703
160.0,0.0026412804145365953
176.0,0.002030630363151431
192.0,0.001676894840784371
208.0,0.0015032176161184907
224.0,0.0016098774503916502
240.0,0.0017007075948640704
256.0,0.001166977104730904
288.0,0.00037091539707034826
320.0,-0.00015100078599061817
352.0,-0.0008661487954668701
384.0,-0.001736778300255537
416.0,-0.002088467124849558
448.0,-0.002387740882113576
480.0,-0.002478052396327257
512.0,-0.0013439968461170793
576.0,0.0005207502981647849
640.0,0.001465478097088635
704.0,0.0012731075985357165
768.0,0.0015366505831480026
832.0,0.001991576049476862
896.0,0.0017981560667976737
960.0,-0.00016630558820907027
1024.0,-0.00024771905736997724
1152.0,-0.0010406069923192263
1280.0,9.12219038582407e-05
1408.0,-0.00033359293593093753
1536.0,-0.0019122820813208818
1664.0,-0.001112180296331644
1792.0,0.0015166486846283078
1920.0,0.002544218208640814
2048.0,0.0019914244767278433
2304.0,-0.0008536011446267366
2560.0,0.0008096830570138991
2816.0,0.0013143421383574605
3072.0,-0.0007449374534189701
3328.0,0.0005429289885796607
3584.0,0.0007209061877802014
3840.0,-0.0010628114687278867
4096.0,-0.0010169018059968948
4608.0,-0.0005565111641772091
5120.0,0.0007484869565814734
5632.0,-0.0007575736381113529
6144.0,0.0005307882092893124
6656.0,-0.0011584059102460742
7168.0,0.00030909114866517484
7680.0,-0.0017959940014407039
8192.0,-0.0018659146735444665
9216.0,-0.00043378162081353366
10240.0,2.6046029233839363e-05
11264.0,-0.0006382205174304545
12288.0,0.0002305845555383712
13312.0,-0.000743586802855134
14336.0,-0.0005353190936148167
end
