version,3.0
numOfCh,1
type,point
parent_name,100-cuts
ch_type,1_1
kcount,1
numberNandB,1
brightnessNandB,1
carpet pos,0
pc,0
Time (ms),CH1 Auto-Correlation
1.0,0.05372031778097153
2.0,0.052219171077013016
3.0,0.05075981840491295
4.0,0.04935486614704132
5.0,0.04797673970460892
6.0,0.04665541276335716
7.0,0.04539785534143448
8.0,0.04417208209633827
9.0,0.04303112253546715
10.0,0.041943203657865524
11.0,0.0408836267888546
12.0,0.03984573483467102
13.0,0.0388372428715229
14.0,0.03789971396327019
15.0,0.037003304809331894
16.0,0.0361628457903862
18.0,0.03455694764852524
20.0,0.03307127207517624
22.0,0.03155957907438278
24.0,0.030055632814764977
26.0,0.028633398935198784
28.0,0.027352500706911087
30.0,0.026170868426561356
32.0,0.025081556290388107
36.0,0.023072687909007072
40.0,0.021143009886145592
44.0,0.019499147310853004
48.0,0.018071413040161133
52.0,0.01667097583413124
56.0,0.015513822436332703
60.0,0.014431516639888287
64.0,0.013523035682737827
72.0,0.011709358543157578
80.0,0.010480157099664211
88.0,0.009565300308167934
96.0,0.009093164466321468
104.0,0.008354348130524158
112.0,0.007686687167733908
120.0,0.007217708509415388
128.0,0.006812892854213715
144.0,0.006113069131970406
160.0,0.005048920400440693
176.0,0.003235110081732273
192.0,0.001727607217617333
208.0,0.0005889470921829343
224.0,3.7364284253271762e-06
240.0,0.0002498134854249656
256.0,-0.0002802215749397874
288.0,-0.0014899912057444453
320.0,-0.0023330687545239925
352.0,-0.0030205051880329847
384.0,-0.0018537822179496288
416.0,0.0004322735476307571
448.0,0.002476687775924802
480.0,0.0036114538088440895
512.0,0.002519183559343219
576.0,0.0021709033753722906
640.0,0.00039196497527882457
704.0,-0.0008059562533162534
768.0,-0.0029180366545915604
832.0,-0.002643873682245612
896.0,8.935808000387624e-05
960.0,-0.0007983769755810499
1024.0,-0.003950744401663542
1152.0,0.001279277727007866
1280.0,-0.000592147174756974
1408.0,-0.0019063388463109732
1536.0,-0.005138452630490065
1664.0,-0.0004704215098172426
1792.0,0.0023865411058068275
1920.0,-0.0020102548878639936
2048.0,-0.004440999124199152
2304.0,0.0022793924435973167
2560.0,-0.0018007996259257197
2816.0,0.0027920391876250505
3072.0,0.004004651680588722
3328.0,-0.0006195573951117694
3584.0,-0.002360921585932374
3840.0,-0.0033265831880271435
4096.0,-0.004417786840349436
4608.0,-8.891887409845367e-05
5120.0,-0.0013348964275792241
5632.0,0.001889716717414558
6144.0,-0.0020813520532101393
6656.0,-0.002236864762380719
7168.0,-0.0016893718857318163
7680.0,0.0022706841118633747
8192.0,0.0035085806157439947
9216.0,-0.0007945168763399124
10240.0,-0.0004213560023345053
11264.0,0.0038471054285764694
12288.0,0.0014642048627138138
13312.0,-0.0009467862546443939
14336.0,-0.0028983657248318195
end
