version,3.0
numOfCh,1
type,point
parent_name,100-cuts
ch_type,1_1
kcount,1
numberNandB,1
brightnessNandB,1
carpet pos,0
pc,0
Time (ms),CH1 Auto-Correlation
1.0,0.018448906019330025
2.0,0.018001146614551544
3.0,0.01757213845849037
4.0,0.017140282317996025
5.0,0.016720978543162346
6.0,0.01630726456642151
7.0,0.01591878943145275
8.0,0.01554114744067192
9.0,0.015177294611930847
10.0,0.014825934544205666
11.0,0.014486150816082954
12.0,0.014166002161800861
13.0,0.013841580599546432
14.0,0.013514380902051926
15.0,0.01319066435098648
16.0,0.012885358184576035
18.0,0.01234083715826273
20.0,0.0118345832452178
22.0,0.011357473209500313
24.0,0.010921967215836048
26.0,0.010501626878976822
28.0,0.010094717144966125
30.0,0.009714005514979362
32.0,0.009343519806861877
36.0,0.00872267596423626
40.0,0.00822489894926548
44.0,0.00782355573028326
48.0,0.007459038402885199
52.0,0.007136518135666847
56.0,0.006837072782218456
60.0,0.006491946056485176
64.0,0.006140992511063814
72.0,0.005548002198338509
80.0,0.0049935802817344666
88.0,0.004432494752109051
96.0,0.003928929567337036
104.0,0.0035020248033106327
112.0,0.0031787692569196224
120.0,0.003055785782635212
128.0,0.002935025840997696
144.0,0.0025125225074589252
160.0,0.0020255662966519594
176.0,0.0018133767880499363
192.0,0.0017070412868633866
208.0,0.0013622192200273275
224.0,0.0010229672770947218
240.0,0.0004734984540846199
256.0,6.017466148477979e-05
288.0,-0.0005862519610673189
320.0,-0.0006199566414579749
352.0,-0.0008208585786633193
384.0,-0.001148283714428544
416.0,-0.0008966663735918701
448.0,-0.001083162846043706
480.0,-0.0005928527098149061
512.0,-4.491328581934795e-05
576.0,0.0009322374244220555
640.0,0.0014335975283756852
704.0,0.002201787894591689
768.0,0.0016402885084971786
832.0,0.0011145889293402433
896.0,0.001054371939972043
960.0,0.00035267259227111936
1024.0,-0.0006318181985989213
1152.0,-0.00021731648303102702
1280.0,-0.0009858914418146014
1408.0,-0.0010162920225411654
1536.0,5.4563029152632225e-06
1664.0,0.0002896565420087427
1792.0,-0.0004259031848050654
1920.0,-8.660520688863471e-05
2048.0,-0.0010184067068621516
2304.0,-0.001661041402257979
2560.0,-0.0014646658673882484
2816.0,-0.00015017110854387283
3072.0,-0.0017118763644248247
3328.0,0.00015511141100432724
3584.0,-0.0012472554808482528
3840.0,0.0006015810067765415
4096.0,0.0002682019548956305
4608.0,0.00023673572286497802
5120.0,-0.0001107694479287602
5632.0,0.000194345906493254
6144.0,0.00016368097567465156
6656.0,6.992364797042683e-05
7168.0,-0.0013691773638129234
7680.0,-6.903147550474387e-06
8192.0,-0.0005810854490846395
9216.0,0.000970591267105192
10240.0,0.0009613936999812722
11264.0,-0.0008090356714092195
12288.0,-0.0003555403964128345
13312.0,-0.0008533240761607885
14336.0,0.0010176579235121608
end
