version,3.0
numOfCh,1
type,point
parent_name,100-cuts
ch_type,1_1
kcount,1
numberNandB,1
brightnessNandB,1
carpet pos,0
pc,0
Time (ms),CH1 Auto-Correlation
1.0,0.07285565137863159
2.0,0.07139553129673004
3.0,0.06997372210025787
4.0,0.06857598572969437
5.0,0.0672130435705185
6.0,0.06586138159036636
7.0,0.06452380865812302
8.0,0.06322470307350159
9.0,0.0619727298617363
10.0,0.06076471135020256
11.0,0.05961700528860092
12.0,0.05846913531422615
13.0,0.05733489990234375
14.0,0.05623393505811691
15.0,0.055157288908958435
16.0,0.054124221205711365
18.0,0.05214002728462219
20.0,0.05023205652832985
22.0,0.048399828374385834
24.0,0.046615488827228546
26.0,0.044956423342227936
28.0,0.043527599424123764
30.0,0.04228891432285309
32.0,0.04108479246497154
36.0,0.03881224989891052
40.0,0.036768075078725815
44.0,0.034967247396707535
48.0,0.03333507478237152
52.0,0.031718090176582336
56.0,0.030070839449763298
60.0,0.028487809002399445
64.0,0.027128692716360092
72.0,0.02458597533404827
80.0,0.022339798510074615
88.0,0.020171333104372025
96.0,0.018602455034852028
104.0,0.01690615341067314
112.0,0.015486781485378742
120.0,0.014409431256353855
128.0,0.013436578214168549
144.0,0.012115171179175377
160.0,0.009989058598876
176.0,0.0081564886495471
192.0,0.007005185354501009
208.0,0.005797220394015312
224.0,0.004014999605715275
240.0,0.0021726188715547323
256.0,0.0011684736236929893
288.0,-0.0009036612464115024
320.0,-0.0026491901371628046
352.0,-0.00324997422285378
384.0,-0.005738807842135429
416.0,-0.006580504588782787
448.0,-0.006702158600091934
480.0,-0.005456454120576382
512.0,-0.006092385854572058
576.0,-0.0029018830973654985
640.0,0.001912359264679253
704.0,0.0010901754721999168
768.0,0.0025394458789378405
832.0,0.005134696140885353
896.0,6.127290544100106e-05
960.0,-0.004940598271787167
1024.0,-0.006667768117040396
1152.0,-0.004320225212723017
1280.0,-0.0005973607185296714
1408.0,0.0012579604517668486
1536.0,-0.0025864592753350735
1664.0,-0.00034323649015277624
1792.0,-0.0024881092831492424
1920.0,0.0005657991860061884
2048.0,0.002942400984466076
2304.0,2.0661300368374214e-05
2560.0,-0.00010353625839343295
2816.0,0.004959417507052422
3072.0,0.002991079818457365
3328.0,0.0010179448872804642
3584.0,0.0001322517782682553
3840.0,-0.0012747310101985931
4096.0,-0.00807997491210699
4608.0,-0.0016645542345941067
5120.0,0.0003614445449784398
5632.0,0.0012683516833931208
6144.0,0.001013770466670394
6656.0,0.0006140745826996863
7168.0,-0.008465398102998734
7680.0,0.0023043989203870296
8192.0,0.005180557258427143
9216.0,-2.9438022465910763e-05
10240.0,-0.004309606738388538
11264.0,0.0011678803712129593
12288.0,-0.004660072270780802
13312.0,0.006256055552512407
14336.0,-0.005748526193201542
end
