version,3.0
numOfCh,1
type,point
parent_name,100-cuts
ch_type,1_1
kcount,1
numberNandB,1
brightnessNandB,1
carpet pos,0
pc,0
Time (ms),CH1 Auto-Correlation
1.0,0.03310587257146835
2.0,0.03237272799015045
3.0,0.03166063502430916
4.0,0.0309625081717968
5.0,0.030292339622974396
6.0,0.02963373437523842
7.0,0.029009444639086723
8.0,0.028407316654920578
9.0,0.027822498232126236
10.0,0.027240503579378128
11.0,0.0266595296561718
12.0,0.02608884498476982
13.0,0.02553386613726616
14.0,0.024980153888463974
15.0,0.024411851540207863
16.0,0.023850958794355392
18.0,0.02276187762618065
20.0,0.021736178547143936
22.0,0.020769139751791954
24.0,0.019876128062605858
26.0,0.019007643684744835
28.0,0.0181930810213089
30.0,0.017402008175849915
32.0,0.01661488227546215
36.0,0.015147702768445015
40.0,0.01386259589344263
44.0,0.01265129167586565
48.0,0.01160275749862194
52.0,0.010663259774446487
56.0,0.009763029403984547
60.0,0.008955581113696098
64.0,0.008387399837374687
72.0,0.00747905857861042
80.0,0.006855332758277655
88.0,0.0062624868005514145
96.0,0.005785676185041666
104.0,0.005346010439097881
112.0,0.005095911677926779
120.0,0.004949724767357111
128.0,0.004940936807543039
144.0,0.004761268384754658
160.0,0.005159284453839064
176.0,0.005396468099206686
192.0,0.005069236736744642
208.0,0.004127556923776865
224.0,0.00339467148296535
240.0,0.0029763849452137947
256.0,0.0021081690210849047
288.0,0.0006352399941533804
320.0,0.00045197331928648055
352.0,-0.0016246531158685684
384.0,-0.0021602942142635584
416.0,-0.0010633162455633283
448.0,-0.000681004545185715
480.0,-0.002356531098484993
512.0,-0.003635755740106106
576.0,-0.002731839194893837
640.0,-0.0019076254684478045
704.0,2.714467336772941e-05
768.0,0.0014118647668510675
832.0,0.00045172430691309273
896.0,6.314628262771294e-05
960.0,0.0006636125617660582
1024.0,0.001874623354524374
1152.0,0.0010808600345626473
1280.0,-0.00020503639825619757
1408.0,-0.0012647013645619154
1536.0,-0.0014540001284331083
1664.0,-0.0009280486847274005
1792.0,0.0010387201327830553
1920.0,0.0008996850810945034
2048.0,0.00027846614830195904
2304.0,-0.000640401616692543
2560.0,-0.000573554600123316
2816.0,0.0020077405497431755
3072.0,-0.002866191091015935
3328.0,-0.0028332266956567764
3584.0,0.002680812031030655
3840.0,0.0014233257388696074
4096.0,-0.002883083652704954
4608.0,-0.000558103434741497
5120.0,-0.0002974556409753859
5632.0,0.0017980328993871808
6144.0,-0.0024438058026134968
6656.0,-0.0004118740325793624
7168.0,0.0018349451711401343
7680.0,-0.0013738827547058463
8192.0,0.0011119145201519132
9216.0,-7.610459579154849e-05
10240.0,-0.0010460151825100183
11264.0,-0.0021050095092505217
12288.0,-0.0016593057662248611
13312.0,0.0012740253005176783
14336.0,0.0006529577658511698
end
