version,3.0
numOfCh,1
type,point
parent_name,100-cuts
ch_type,1_1
kcount,1
numberNandB,1
brightnessNandB,1
carpet pos,0
pc,0
Time (ms),CH1 Auto-Correlation
1.0,0.043329112231731415
2.0,0.042460206896066666
3.0,0.04160882532596588
4.0,0.040780890733003616
5.0,0.03996371850371361
6.0,0.039176348596811295
7.0,0.038407471030950546
8.0,0.03767211735248566
9.0,0.03695613890886307
10.0,0.03627309948205948
11.0,0.035608358681201935
12.0,0.034943971782922745
13.0,0.034287650138139725
14.0,0.03364333510398865
15.0,0.03300975263118744
16.0,0.032395217567682266
18.0,0.0312579870223999
20.0,0.030153866857290268
22.0,0.029039645567536354
24.0,0.02796906605362892
26.0,0.02699257992208004
28.0,0.02608402445912361
30.0,0.025206327438354492
32.0,0.024368591606616974
36.0,0.022766487672924995
40.0,0.02144189551472664
44.0,0.020305592566728592
48.0,0.019300149753689766
52.0,0.018436843529343605
56.0,0.01754830963909626
60.0,0.016691608354449272
64.0,0.015842175111174583
72.0,0.014375641942024231
80.0,0.01342218928039074
88.0,0.01249904278665781
96.0,0.011793464422225952
104.0,0.011177646927535534
112.0,0.010584228672087193
120.0,0.010081400163471699
128.0,0.009625917300581932
144.0,0.009081229567527771
160.0,0.0076613649725914
176.0,0.006299115251749754
192.0,0.005637467373162508
208.0,0.00536682503297925
224.0,0.005735435988754034
240.0,0.006150578614324331
256.0,0.006210363935679197
288.0,0.007330352906137705
320.0,0.007392037659883499
352.0,0.006292785983532667
384.0,0.004558709915727377
416.0,0.0034802777227014303
448.0,0.0023301320616155863
480.0,0.0011579955462366343
512.0,-0.0003004895697813481
576.0,0.0008094614604488015
640.0,0.0011499790707603097
704.0,0.00043363048462197185
768.0,0.0004405676736496389
832.0,0.0021553407423198223
896.0,0.0016725133173167706
960.0,-0.0011131006758660078
1024.0,-0.0015327821020036936
1152.0,-0.0026364976074546576
1280.0,-0.004927947651594877
1408.0,-0.004435518756508827
1536.0,-0.0036350830923765898
1664.0,-0.004594928584992886
1792.0,-0.0009993831627070904
1920.0,-0.00030250046984292567
2048.0,-0.0023527294397354126
2304.0,-0.0015360203105956316
2560.0,-0.0003413653466850519
2816.0,0.0048111905343830585
3072.0,0.0028674479108303785
3328.0,0.0009381428244523704
3584.0,0.0005084510776214302
3840.0,0.0029501495882868767
4096.0,0.0013475472806021571
4608.0,-0.001920777838677168
5120.0,-0.0020024210680276155
5632.0,0.0013142303796485066
6144.0,0.002576293656602502
6656.0,-0.0006532099796459079
7168.0,0.0006318904343061149
7680.0,-0.00024663045769557357
8192.0,-0.005125255789607763
9216.0,0.000505875505041331
10240.0,0.0031338150147348642
11264.0,-0.007721276953816414
12288.0,0.001868326566182077
13312.0,0.002264083595946431
14336.0,-0.011103496886789799
end
