version,3.0
numOfCh,1
type,point
parent_name,100-cuts
ch_type,1_1
kcount,1
numberNandB,1
brightnessNandB,1
carpet pos,0
pc,0
Time (ms),CH1 Auto-Correlation
1.0,0.03473077341914177
2.0,0.03391308709979057
3.0,0.033117130398750305
4.0,0.03232573717832565
5.0,0.0315699577331543
6.0,0.030847789719700813
7.0,0.030142666772007942
8.0,0.02946631982922554
9.0,0.0288113821297884
10.0,0.02817399427294731
11.0,0.02756229043006897
12.0,0.0269708763808012
13.0,0.026419930160045624
14.0,0.025890663266181946
15.0,0.02537926472723484
16.0,0.024905530735850334
18.0,0.023942891508340836
20.0,0.023006409406661987
22.0,0.022071117535233498
24.0,0.021156368777155876
26.0,0.02032485418021679
28.0,0.019544918090105057
30.0,0.018790746107697487
32.0,0.018034864217042923
36.0,0.01675545983016491
40.0,0.015740055590867996
44.0,0.01478266716003418
48.0,0.013915617018938065
52.0,0.013106423430144787
56.0,0.012417826801538467
60.0,0.011855685152113438
64.0,0.011271328665316105
72.0,0.010081262327730656
80.0,0.00904846005141735
88.0,0.008112053386867046
96.0,0.007119419053196907
104.0,0.0062393248081207275
112.0,0.005466488189995289
120.0,0.004719575401395559
128.0,0.004223302938044071
144.0,0.002986162668094039
160.0,0.001855319831520319
176.0,0.000691344088409096
192.0,0.00015699220239184797
208.0,0.0005194550612941384
224.0,0.0008252934203483164
240.0,0.00021478238340932876
256.0,-0.0003047769423574209
288.0,-0.0005337654729373753
320.0,-0.0013192467158660293
352.0,-0.00031348937773145735
384.0,-0.0007697350811213255
416.0,-0.0018062916351482272
448.0,-0.0019522353541105986
480.0,-0.0016350680962204933
512.0,-0.00017448081052862108
576.0,0.002076027449220419
640.0,0.0035846654791384935
704.0,0.002941194223240018
768.0,-0.00012748161680065095
832.0,-0.0005964827141724527
896.0,0.00010169318557018414
960.0,-0.00014165020547807217
1024.0,-0.0023378089535981417
1152.0,-0.0005439032684080303
1280.0,0.0004577857907861471
1408.0,-0.00125048344489187
1536.0,0.0010876093292608857
1664.0,9.601884812582284e-05
1792.0,0.001112844329327345
1920.0,0.00040263583650812507
2048.0,-0.0019085366511717439
2304.0,0.0029289121739566326
2560.0,0.0022131737787276506
2816.0,-0.0010731532238423824
3072.0,0.0003231533628422767
3328.0,4.770857412950136e-05
3584.0,-0.00261696963571012
3840.0,0.00042991971713490784
4096.0,-0.00047478117630816996
4608.0,-0.002560093067586422
5120.0,-0.0001298358547501266
5632.0,-0.0013781865127384663
6144.0,-0.0015686439583078027
6656.0,0.0010758485877886415
7168.0,-0.0003242252569179982
7680.0,-0.0007072045700624585
8192.0,-0.002302412409335375
9216.0,-0.00022089554113335907
10240.0,0.0009373634238727391
11264.0,-0.0012053372338414192
12288.0,0.0017663553589954972
13312.0,0.002209527650848031
14336.0,0.001327859703451395
end
