version,3.0
numOfCh,1
type,point
parent_name,100-cuts
ch_type,1_1
kcount,1
numberNandB,1
brightnessNandB,1
carpet pos,0
pc,0
Time (ms),CH1 Auto-Correlation
1.0,0.02083965577185154
2.0,0.02031891793012619
3.0,0.01981031894683838
4.0,0.01931423507630825
5.0,0.01882922649383545
6.0,0.01836795173585415
7.0,0.017919789999723434
8.0,0.01748678646981716
9.0,0.017075804993510246
10.0,0.01669069193303585
11.0,0.01632057875394821
12.0,0.015961552038788795
13.0,0.015612227842211723
14.0,0.015270942822098732
15.0,0.014931748621165752
16.0,0.01459567155689001
18.0,0.013925761915743351
20.0,0.01330698560923338
22.0,0.012713596224784851
24.0,0.012125820852816105
26.0,0.01155395433306694
28.0,0.010988831520080566
30.0,0.010431048460304737
32.0,0.00989985279738903
36.0,0.008918738923966885
40.0,0.008040148764848709
44.0,0.007285306230187416
48.0,0.006616832222789526
52.0,0.006067408248782158
56.0,0.005585578735917807
60.0,0.0052242702804505825
64.0,0.00490580452606082
72.0,0.004436651710420847
80.0,0.003978706896305084
88.0,0.0035420891363173723
96.0,0.0032572029158473015
104.0,0.0030629264656454325
112.0,0.0027359852101653814
120.0,0.0025232022162526846
128.0,0.002357244724407792
144.0,0.002221323549747467
160.0,0.0019669686444103718
176.0,0.0016094958409667015
192.0,0.0011644925689324737
208.0,0.0007315925322473049
224.0,0.0004264752205926925
240.0,1.3870632074031164e-06
256.0,-0.00044871337013319135
288.0,0.00010884001676458865
320.0,0.0006805358571000397
352.0,0.0003645448014140129
384.0,-0.0004148424486629665
416.0,-0.0010877633467316628
448.0,-0.0008899535750970244
480.0,-0.00034645365667529404
512.0,0.0002895310753956437
576.0,-0.0002898072707466781
640.0,-0.0007748206262476742
704.0,-0.0014109957264736295
768.0,-0.0014070578617975116
832.0,-0.0007003074279054999
896.0,-0.0007002507336437702
960.0,-0.000849183474201709
1024.0,-0.0003221507649868727
1152.0,-0.0002958234690595418
1280.0,-0.0011325790546834469
1408.0,8.766240352997556e-05
1536.0,0.0001102510723285377
1664.0,0.00018656611791811883
1792.0,0.0002461161056999117
1920.0,-0.00011947516759391874
2048.0,0.000380380661226809
2304.0,0.0008281123009510338
2560.0,-0.0014828852145001292
2816.0,-0.0022316360846161842
3072.0,-0.0011137094115838408
3328.0,6.0376776673365384e-05
3584.0,-0.0011993974912911654
3840.0,0.0008483645506203175
4096.0,0.0008531738421879709
4608.0,0.00021628051763400435
5120.0,-0.0007599637610837817
5632.0,0.0007500574574805796
6144.0,0.0012100072344765067
6656.0,-0.0005009298329241574
7168.0,-0.0017901499522849917
7680.0,-0.0003596288152039051
8192.0,0.0012442019069567323
9216.0,-0.0016160819213837385
10240.0,0.0024721247609704733
11264.0,-0.0009836045792326331
12288.0,0.0009277843637391925
13312.0,-0.0021444305311888456
14336.0,0.000936181575525552
end
