version,3.0
numOfCh,1
type,point
parent_name,100-cuts
ch_type,1_1
kcount,1
numberNandB,1
brightnessNandB,1
carpet pos,0
pc,0
Time (ms),CH1 Auto-Correlation
1.0,0.030139852315187454
2.0,0.029350731521844864
3.0,0.028583301231265068
4.0,0.0278171319514513
5.0,0.027077950537204742
6.0,0.026371745392680168
7.0,0.025701899081468582
8.0,0.025080440565943718
9.0,0.0244781281799078
10.0,0.023888180032372475
11.0,0.023295912891626358
12.0,0.02272914908826351
13.0,0.022167304530739784
14.0,0.02159724570810795
15.0,0.021033212542533875
16.0,0.020485876128077507
18.0,0.01945394091308117
20.0,0.018509630113840103
22.0,0.01760300248861313
24.0,0.01672988571226597
26.0,0.01589973457157612
28.0,0.015070080757141113
30.0,0.01428188756108284
32.0,0.013537581078708172
36.0,0.012312449514865875
40.0,0.011289194226264954
44.0,0.010283057577908039
48.0,0.009445938281714916
52.0,0.008852765895426273
56.0,0.008432148024439812
60.0,0.00798890832811594
64.0,0.007569135166704655
72.0,0.006889918819069862
80.0,0.0064509278163313866
88.0,0.005894625559449196
96.0,0.0053967637941241264
104.0,0.004771634936332703
112.0,0.004131663125008345
120.0,0.0037911611143499613
128.0,0.0036666803061962128
144.0,0.002854353981092572
160.0,0.0022710629273205996
176.0,0.0018487429479137063
192.0,0.0017098269890993834
208.0,0.001715489779599011
224.0,0.001845580292865634
240.0,0.001811527763493359
256.0,0.0014035077765583992
288.0,0.00036913345684297383
320.0,0.00012144169886596501
352.0,0.0005967810284346342
384.0,0.00011499172978801653
416.0,-0.001240357174538076
448.0,-0.001153213786892593
480.0,-0.0012319220695644617
512.0,-0.0010195813374593854
576.0,-0.0014634651597589254
640.0,-0.0006688141147606075
704.0,1.8392113076970418e-07
768.0,-0.002080113161355257
832.0,-0.0012690454022958875
896.0,-0.0012768440647050738
960.0,-0.0018612348940223455
1024.0,-0.0003768657334148884
1152.0,-3.366406599525362e-05
1280.0,-0.0006295954226516187
1408.0,0.0012669645948335528
1536.0,-8.183420140994713e-05
1664.0,-5.9992675232933834e-05
1792.0,0.0001707940682535991
1920.0,0.0017450947780162096
2048.0,0.002359451027587056
2304.0,-0.0016155889024958014
2560.0,-9.194792801281437e-05
2816.0,-0.0009971096878871322
3072.0,-0.0012242436641827226
3328.0,-0.0026756778825074434
3584.0,8.371621515834704e-05
3840.0,0.0011819828068837523
4096.0,0.0007352230022661388
4608.0,0.0002904848661273718
5120.0,-0.002382042584940791
5632.0,-0.0010394571581855416
6144.0,0.0002088953333441168
6656.0,0.001175451441667974
7168.0,0.00015324490959756076
7680.0,-0.00034274134668521583
8192.0,0.0009265374392271042
9216.0,-0.0016756190452724695
10240.0,0.0017617172561585903
11264.0,0.00018892063235398382
12288.0,7.32688931748271e-05
13312.0,-0.0023921204265207052
14336.0,0.0003319409443065524
end
