version,3.0
numOfCh,1
type,point
parent_name,100-cuts
ch_type,1_1
kcount,1
numberNandB,1
brightnessNandB,1
carpet pos,0
pc,0
Time (ms),CH1 Auto-Correlation
1.0,0.07574374228715897
2.0,0.07405228912830353
3.0,0.07238593697547913
4.0,0.07077298313379288
5.0,0.06921491771936417
6.0,0.0677424967288971
7.0,0.0663522258400917
8.0,0.06499718874692917
9.0,0.06368152797222137
10.0,0.06240086257457733
11.0,0.06116682291030884
12.0,0.059954676777124405
13.0,0.0587296262383461
14.0,0.05755790323019028
15.0,0.05643439665436745
16.0,0.055342596024274826
18.0,0.05321180075407028
20.0,0.05118241161108017
22.0,0.0492415726184845
24.0,0.0473465770483017
26.0,0.045536696910858154
28.0,0.04384583979845047
30.0,0.04218445345759392
32.0,0.04055354744195938
36.0,0.03762219846248627
40.0,0.034922171384096146
44.0,0.03241695463657379
48.0,0.030153881758451462
52.0,0.027942143380641937
56.0,0.026066595688462257
60.0,0.024515550583600998
64.0,0.02307451143860817
72.0,0.020126115530729294
80.0,0.018030840903520584
88.0,0.016589105129241943
96.0,0.01573406159877777
104.0,0.014772799797356129
112.0,0.013386664912104607
120.0,0.01255533006042242
128.0,0.01219492219388485
144.0,0.010502207092940807
160.0,0.008511190302670002
176.0,0.007389233913272619
192.0,0.0063452706672251225
208.0,0.005213039927184582
224.0,0.004020864609628916
240.0,0.002904979744926095
256.0,0.0009053639369085431
288.0,-0.0023697896394878626
320.0,-0.004653858486562967
352.0,-0.004895196761935949
384.0,-0.0034242586698383093
416.0,-0.0027700660284608603
448.0,-0.0045007565058767796
480.0,-0.00392792746424675
512.0,-0.0031759028788655996
576.0,-0.004786401521414518
640.0,-0.00425344193354249
704.0,-5.657734436681494e-05
768.0,0.0014980700798332691
832.0,0.001771705923601985
896.0,-0.0004018190666101873
960.0,-0.0022089527919888496
1024.0,-0.0011663729092106223
1152.0,-0.004158837255090475
1280.0,-0.005099793896079063
1408.0,-0.003735493402928114
1536.0,-0.002253888873383403
1664.0,0.0033328032586723566
1792.0,0.010094661265611649
1920.0,0.008396978490054607
2048.0,0.003918159287422895
2304.0,-0.0033715814352035522
2560.0,-0.004247654695063829
2816.0,-0.002853592624887824
3072.0,-0.0009621446370147169
3328.0,-0.0059137833304703236
3584.0,-0.0017770467093214393
3840.0,0.004304104950278997
4096.0,-0.0012307284632697701
4608.0,0.00048742175567895174
5120.0,-0.0057899500243365765
5632.0,0.004275349900126457
6144.0,0.0014004738768562675
6656.0,0.0034914053976535797
7168.0,-0.0010500452481210232
7680.0,0.005547970999032259
8192.0,-0.0054703583009541035
9216.0,-0.004429880063980818
10240.0,0.0003893997927661985
11264.0,-0.0010240242118015885
12288.0,0.0001407134550390765
13312.0,0.00772718945518136
14336.0,-0.00113557034637779
end
