version,3.0
numOfCh,1
type,point
parent_name,100-cuts
ch_type,1_1
kcount,1
numberNandB,1
brightnessNandB,1
carpet pos,0
pc,0
Time (ms),CH1 Auto-Correlation
1.0,0.06096769496798515
2.0,0.05950648710131645
3.0,0.0580657497048378
4.0,0.056684013456106186
5.0,0.055396951735019684
6.0,0.05414659529924393
7.0,0.05296261981129646
8.0,0.05179107189178467
9.0,0.050666067749261856
10.0,0.04954839125275612
11.0,0.04848227649927139
12.0,0.04744932800531387
13.0,0.0464642271399498
14.0,0.045521218329668045
15.0,0.04463104531168938
16.0,0.04378592595458031
18.0,0.04222125560045242
20.0,0.04081418365240097
22.0,0.039518315345048904
24.0,0.03831787034869194
26.0,0.037102699279785156
28.0,0.03587227687239647
30.0,0.0346558541059494
32.0,0.033475857228040695
36.0,0.03129400312900543
40.0,0.02919953688979149
44.0,0.027294045314192772
48.0,0.02548758126795292
52.0,0.02393394336104393
56.0,0.022500518709421158
60.0,0.02120177447795868
64.0,0.020102206617593765
72.0,0.018160587176680565
80.0,0.016511505469679832
88.0,0.015425343997776508
96.0,0.014447680674493313
104.0,0.013324280269443989
112.0,0.012549253180623055
120.0,0.011346952058374882
128.0,0.01037201751023531
144.0,0.00848508533090353
160.0,0.005809006281197071
176.0,0.00377081916667521
192.0,0.0019281358690932393
208.0,-0.0005079188267700374
224.0,-0.002088033827021718
240.0,-0.0028633337933570147
256.0,-0.00245302589610219
288.0,-0.0014106874587014318
320.0,-0.002045050263404846
352.0,-0.0012279547518119216
384.0,0.00027573315310291946
416.0,-0.00028823784668929875
448.0,0.0009461516165174544
480.0,0.004844995215535164
512.0,0.005172723438590765
576.0,0.002320808358490467
640.0,0.0018775745993480086
704.0,-0.001050854567438364
768.0,-0.0047889333218336105
832.0,-0.003983146511018276
896.0,-0.005540989339351654
960.0,-0.004940148908644915
1024.0,-0.003164486261084676
1152.0,0.00017633935203775764
1280.0,-0.000497642089612782
1408.0,-0.006936976686120033
1536.0,-0.005552025977522135
1664.0,0.0029021496884524822
1792.0,0.0012644313974305987
1920.0,0.00028207010473124683
2048.0,-0.003957377281039953
2304.0,-0.0029812254942953587
2560.0,-0.0004748366482090205
2816.0,0.000541703135240823
3072.0,0.000640789745375514
3328.0,0.001730093383230269
3584.0,-0.00036996978451497853
3840.0,0.002825195901095867
4096.0,0.0025130745489150286
4608.0,0.0010694421362131834
5120.0,-0.0014691937249153852
5632.0,-0.0001308989740209654
6144.0,-0.0009626870159991086
6656.0,0.0008591124205850065
7168.0,0.0018866590689867735
7680.0,0.0029751802794635296
8192.0,-0.003067757235839963
9216.0,-2.2369215002981946e-05
10240.0,-0.0026677001733332872
11264.0,0.00017511255282443017
12288.0,0.0037405439652502537
13312.0,-0.010224462486803532
14336.0,0.01051779743283987
end
