version,3.0
numOfCh,1
type,point
parent_name,100-cuts
ch_type,1_1
kcount,1
numberNandB,1
brightnessNandB,1
carpet pos,0
pc,0
Time (ms),CH1 Auto-Correlation
1.0,0.018371831625699997
2.0,0.017879942432045937
3.0,0.01740925945341587
4.0,0.016952143982052803
5.0,0.016512054949998856
6.0,0.016067340970039368
7.0,0.015642406418919563
8.0,0.015236685052514076
9.0,0.014850887469947338
10.0,0.0144782904535532
11.0,0.014110980555415154
12.0,0.01375888753682375
13.0,0.013425847515463829
14.0,0.013092081062495708
15.0,0.012775689363479614
16.0,0.012487567961215973
18.0,0.011927060782909393
20.0,0.011420701630413532
22.0,0.010939806699752808
24.0,0.01047472469508648
26.0,0.010057448409497738
28.0,0.009693548083305359
30.0,0.009362813085317612
32.0,0.009048189967870712
36.0,0.008443635888397694
40.0,0.007886811159551144
44.0,0.007342751137912273
48.0,0.006799883209168911
52.0,0.006262166891247034
56.0,0.00578155554831028
60.0,0.0053718979470431805
64.0,0.0050035882741212845
72.0,0.004302063956856728
80.0,0.0036682160571217537
88.0,0.0032287307549268007
96.0,0.002851159544661641
104.0,0.0026255242992192507
112.0,0.002542417962104082
120.0,0.002507355995476246
128.0,0.002239066641777754
144.0,0.0017493930645287037
160.0,0.0015087636420503259
176.0,0.0010855186264961958
192.0,0.0008293644059449434
208.0,0.0006070639356039464
224.0,0.00033470572088845074
240.0,0.00027931801741942763
256.0,0.000436185859143734
288.0,0.000500077148899436
320.0,0.0007488479022867978
352.0,0.0002966787142213434
384.0,0.0001431826240150258
416.0,6.86397761455737e-05
448.0,0.00026045148842968047
480.0,-2.185288849432254e-06
512.0,-0.0003647420962806791
576.0,-0.0011995555832982063
640.0,-0.0012829063925892115
704.0,-0.001463111606426537
768.0,-0.002180313691496849
832.0,-0.0020373256411403418
896.0,-0.0015356315998360515
960.0,-0.0011474339989945292
1024.0,-0.00036218794411979616
1152.0,-0.00047411280684173107
1280.0,0.0015930968802422285
1408.0,0.0015130073297768831
1536.0,-0.00019252173660788685
1664.0,-0.00023841764777898788
1792.0,0.0004768833168782294
1920.0,-0.0007193231722339988
2048.0,-0.0017348185647279024
2304.0,0.00016147321730386466
2560.0,0.00011472863116068766
2816.0,1.244094437424792e-05
3072.0,6.269208097364753e-05
3328.0,-0.0010479817865416408
3584.0,0.0011582719162106514
3840.0,-7.011662819422781e-05
4096.0,-0.0007497263723053038
4608.0,-0.0003711742756422609
5120.0,6.694842886645347e-05
5632.0,0.0002447712467983365
6144.0,-0.0005627249483950436
6656.0,-0.00019207481818739325
7168.0,0.0002732322318479419
7680.0,-0.00044713704846799374
8192.0,0.00022228954185266048
9216.0,0.00015019503189250827
10240.0,0.0007560731028206646
11264.0,-0.00028199414373375475
12288.0,0.001380163710564375
13312.0,-0.0011936720693483949
14336.0,-0.0027808190789073706
end
