version,3.0
numOfCh,1
type,point
parent_name,100-cuts
ch_type,1_1
kcount,1
numberNandB,1
brightnessNandB,1
carpet pos,0
pc,0
Time (ms),CH1 Auto-Correlation
1.0,0.01775769516825676
2.0,0.01726951263844967
3.0,0.01679893769323826
4.0,0.016342666000127792
5.0,0.01590665429830551
6.0,0.015475248917937279
7.0,0.015061715617775917
8.0,0.014664262533187866
9.0,0.014274862594902515
10.0,0.01388465240597725
11.0,0.013509229756891727
12.0,0.013158662244677544
13.0,0.012825877405703068
14.0,0.01250668428838253
15.0,0.012194703333079815
16.0,0.011893786489963531
18.0,0.01131322979927063
20.0,0.010777176357805729
22.0,0.010256100445985794
24.0,0.00973535142838955
26.0,0.009233835153281689
28.0,0.008734792470932007
30.0,0.008271511644124985
32.0,0.007823077030479908
36.0,0.0069944607093930244
40.0,0.006258781999349594
44.0,0.00562675017863512
48.0,0.005031527020037174
52.0,0.004515312612056732
56.0,0.0040437644347548485
60.0,0.003671959275379777
64.0,0.0033199263270944357
72.0,0.002604834269732237
80.0,0.002096214797347784
88.0,0.0018910962389782071
96.0,0.001850269385613501
104.0,0.0018994440324604511
112.0,0.0018674226012080908
120.0,0.0019163800170645118
128.0,0.0017203111201524734
144.0,0.0014702187618240714
160.0,0.0014717064332216978
176.0,0.001280184369534254
192.0,0.0008707849774509668
208.0,0.00048549153143540025
224.0,0.0006894503021612763
240.0,0.0006967118824832141
256.0,0.0006164325750432909
288.0,0.0006105179199948907
320.0,0.0001978321379283443
352.0,-0.0005904880817979574
384.0,-0.0011941661359742284
416.0,-0.001531715039163828
448.0,-0.0010943067027255893
480.0,-0.00060130754718557
512.0,-0.0008892072946764529
576.0,-0.0013669227482751012
640.0,-0.0005733306752517819
704.0,-0.0009504606132395566
768.0,-0.0009683178504928946
832.0,-0.0001794505660654977
896.0,0.00024418174871243536
960.0,-0.00038700582808814943
1024.0,-0.0007104613468982279
1152.0,0.0005582697340287268
1280.0,0.0009078577859327197
1408.0,-0.00016798375872895122
1536.0,0.0004718923883046955
1664.0,0.0004504168755374849
1792.0,-3.363826181157492e-05
1920.0,5.044554563937709e-05
2048.0,0.0011764903319999576
2304.0,-0.0004895758465863764
2560.0,-0.0012070919619873166
2816.0,-0.00034184064134024084
3072.0,0.0007588224834762514
3328.0,0.0014894051710143685
3584.0,-0.0002788485726341605
3840.0,-0.00020605770987458527
4096.0,-9.848755871644244e-05
4608.0,-0.0005922766285948455
5120.0,0.00013575244520325214
5632.0,-0.0006116487202234566
6144.0,0.0003708656004164368
6656.0,-0.00026762302150018513
7168.0,-0.00045924546429887414
7680.0,-0.0004700229619629681
8192.0,-0.00025045228539966047
9216.0,7.37315058358945e-05
10240.0,0.000482388015370816
11264.0,-1.4104499541645055e-06
12288.0,-0.0006615744787268341
13312.0,0.0004461565986275673
14336.0,-0.0001620700495550409
end
