version,3.0
numOfCh,1
type,point
parent_name,100-cuts
ch_type,1_1
kcount,1
numberNandB,1
brightnessNandB,1
carpet pos,0
pc,0
Time (ms),CH1 Auto-Correlation
1.0,0.030423717573285103
2.0,0.02968113124370575
3.0,0.028969215229153633
4.0,0.028278809040784836
5.0,0.027606628835201263
6.0,0.026982523500919342
7.0,0.026390952989459038
8.0,0.02580311894416809
9.0,0.02525211125612259
10.0,0.024730829522013664
11.0,0.02421046607196331
12.0,0.02369541861116886
13.0,0.02318916842341423
14.0,0.022701960057020187
15.0,0.022220607846975327
16.0,0.02176632359623909
18.0,0.020841479301452637
20.0,0.019944703206419945
22.0,0.019144689664244652
24.0,0.018420817330479622
26.0,0.01776997558772564
28.0,0.01717514730989933
30.0,0.016590887680649757
32.0,0.01603608764708042
36.0,0.014972078613936901
40.0,0.01400662586092949
44.0,0.013178016990423203
48.0,0.012454528361558914
52.0,0.011845146305859089
56.0,0.011282285675406456
60.0,0.010658670216798782
64.0,0.009978344663977623
72.0,0.00870944932103157
80.0,0.007752298377454281
88.0,0.007248086389154196
96.0,0.006876718252897263
104.0,0.006489397492259741
112.0,0.0061198631301522255
120.0,0.005805883556604385
128.0,0.005305372644215822
144.0,0.0043337089009583
160.0,0.0036836275830864906
176.0,0.002818574197590351
192.0,0.002631382318213582
208.0,0.0029577109962701797
224.0,0.00281730480492115
240.0,0.0024041887372732162
256.0,0.0022213568445295095
288.0,0.0015246036928147078
320.0,0.0008102603605948389
352.0,0.00010788896179292351
384.0,-0.0012879177229478955
416.0,-0.0014946958981454372
448.0,-0.0027327477000653744
480.0,-0.004364885855466127
512.0,-0.004373827483505011
576.0,-0.003588767722249031
640.0,-0.0034541126806288958
704.0,-0.0034680799581110477
768.0,-0.003641498275101185
832.0,-0.0027453219518065453
896.0,-0.00024233425210695714
960.0,-0.00027977550053037703
1024.0,-0.0018765273271128535
1152.0,0.00043374032247811556
1280.0,0.0008471082546748221
1408.0,0.00146437285002321
1536.0,0.0020145706366747618
1664.0,0.00279834377579391
1792.0,0.002454017288982868
1920.0,0.002947605215013027
2048.0,0.002087203785777092
2304.0,-0.0018919840222224593
2560.0,-0.002153074834495783
2816.0,-0.0010550178121775389
3072.0,-0.00016580938245169818
3328.0,0.002138125477358699
3584.0,0.001852415851317346
3840.0,0.000587601971346885
4096.0,-0.0014806222170591354
4608.0,-0.0007995006162673235
5120.0,0.0019239679677411914
5632.0,-0.0005346431862562895
6144.0,-0.0024088313803076744
6656.0,0.0006498242728412151
7168.0,0.0020927409641444683
7680.0,-0.0022286453749984503
8192.0,-0.00011140245624119416
9216.0,-0.0007594965863972902
10240.0,-0.0007883643265813589
11264.0,-0.0005216332501731813
12288.0,0.0017274082638323307
13312.0,-0.001980372006073594
14336.0,0.0015238579362630844
end
