version,3.0
numOfCh,1
type,point
parent_name,100-cuts
ch_type,1_1
kcount,1
numberNandB,1
brightnessNandB,1
carpet pos,0
pc,0
Time (ms),CH1 Auto-Correlation
1.0,0.023706959560513496
2.0,0.023194996640086174
3.0,0.022692395374178886
4.0,0.02218930795788765
5.0,0.021699169650673866
6.0,0.021233560517430305
7.0,0.020793063566088676
8.0,0.020377550274133682
9.0,0.019969040527939796
10.0,0.019566506147384644
11.0,0.019179880619049072
12.0,0.01880056783556938
13.0,0.01843838207423687
14.0,0.01809145323932171
15.0,0.01775200292468071
16.0,0.017421679571270943
18.0,0.01678006537258625
20.0,0.016192708164453506
22.0,0.015640592202544212
24.0,0.015089440159499645
26.0,0.014527527615427971
28.0,0.013965709134936333
30.0,0.013422708958387375
32.0,0.012927226722240448
36.0,0.01202308852225542
40.0,0.011252610944211483
44.0,0.010617287829518318
48.0,0.01001546811312437
52.0,0.009427705779671669
56.0,0.00893219094723463
60.0,0.00851559080183506
64.0,0.008109305053949356
72.0,0.0073336088098585606
80.0,0.006519865244626999
88.0,0.005553710274398327
96.0,0.004586219787597656
104.0,0.003615384688600898
112.0,0.00276349694468081
120.0,0.002070348709821701
128.0,0.0013955907197669148
144.0,0.0006883445894345641
160.0,0.00019232930208090693
176.0,-0.00035767085500992835
192.0,-0.0011966717429459095
208.0,-0.0021550506353378296
224.0,-0.0023124103900045156
240.0,-0.002043955260887742
256.0,-0.0015932616079226136
288.0,-0.0012373809004202485
320.0,-0.0010158430086448789
352.0,-0.0013464910443872213
384.0,-0.0011384406825527549
416.0,-0.0010808550287038088
448.0,-0.000693388341460377
480.0,-0.00019492971478030086
512.0,0.00021719183132518083
576.0,0.0012025185860693455
640.0,0.0006938465521670878
704.0,-0.0007963229436427355
768.0,-0.001845759921707213
832.0,-0.0009983897907659411
896.0,0.0009447160409763455
960.0,0.0029047797434031963
1024.0,0.0024079217109829187
1152.0,-0.0003420800785534084
1280.0,-0.0010624739807099104
1408.0,-0.001291367458179593
1536.0,-0.00043517854646779597
1664.0,-0.0015934428665786982
1792.0,-0.002292306860908866
1920.0,0.0001064671014319174
2048.0,0.0004880609340034425
2304.0,-0.0013689283514395356
2560.0,0.0007582748658023775
2816.0,-0.0014495369978249073
3072.0,0.0017037726938724518
3328.0,-0.001971151679754257
3584.0,0.00225874874740839
3840.0,-0.0005325823440216482
4096.0,0.001954462146386504
4608.0,1.2140788385295309e-05
5120.0,0.0005968643818050623
5632.0,0.0005123168812133372
6144.0,-0.00024163296620827168
6656.0,-0.00043555526644922793
7168.0,-0.0009931321255862713
7680.0,0.00018792174523696303
8192.0,8.34134937122144e-07
9216.0,8.165172403096221e-06
10240.0,-0.0009332328336313367
11264.0,0.00044288206845521927
12288.0,-0.00028427806682884693
13312.0,-0.0006080642342567444
14336.0,-0.0013177184155210853
end
