version,3.0
numOfCh,1
type,point
parent_name,100-cuts
ch_type,1_1
kcount,1
numberNandB,1
brightnessNandB,1
carpet pos,0
pc,0
Time (ms),CH1 Auto-Correlation
1.0,0.036164410412311554
2.0,0.035422250628471375
3.0,0.03469858318567276
4.0,0.03397823125123978
5.0,0.03328549116849899
6.0,0.03261116147041321
7.0,0.03196011483669281
8.0,0.03133177012205124
9.0,0.030743470415472984
10.0,0.03017311543226242
11.0,0.029639331623911858
12.0,0.02911468967795372
13.0,0.028622491285204887
14.0,0.02815861813724041
15.0,0.02769910916686058
16.0,0.027248753234744072
18.0,0.026412319391965866
20.0,0.025642089545726776
22.0,0.02489958144724369
24.0,0.024210887029767036
26.0,0.02353513427078724
28.0,0.022885633632540703
30.0,0.022253435105085373
32.0,0.02162243239581585
36.0,0.020433759316802025
40.0,0.019322674721479416
44.0,0.018352052196860313
48.0,0.01737527921795845
52.0,0.016440438106656075
56.0,0.015521028079092503
60.0,0.01463177241384983
64.0,0.013920550234615803
72.0,0.012839245609939098
80.0,0.011780730448663235
88.0,0.010763239115476608
96.0,0.009933318942785263
104.0,0.009133769199252129
112.0,0.008435601368546486
120.0,0.00799555890262127
128.0,0.007442905567586422
144.0,0.005975360982120037
160.0,0.004979769699275494
176.0,0.004350710194557905
192.0,0.004300921224057674
208.0,0.004217454232275486
224.0,0.004473164677619934
240.0,0.004549328237771988
256.0,0.004352099262177944
288.0,0.0034650780726224184
320.0,0.0031772423535585403
352.0,0.0036953664384782314
384.0,0.004640358034521341
416.0,0.004971460904926062
448.0,0.003691397374495864
480.0,0.003239348530769348
512.0,0.003375960746780038
576.0,0.0031673884950578213
640.0,0.002710882108658552
704.0,0.002482845215126872
768.0,0.0028789436910301447
832.0,0.0020650026854127645
896.0,0.0021119217853993177
960.0,0.0012717752251774073
1024.0,-0.0008404689724557102
1152.0,-0.00027454490191303194
1280.0,-0.0005662856856361032
1408.0,0.0009813511278480291
1536.0,-0.0004178316448815167
1664.0,-0.0018946967320516706
1792.0,-0.0001304133329540491
1920.0,0.0010285840835422277
2048.0,-0.0017073233611881733
2304.0,-0.0050099994987249374
2560.0,-0.003570722183212638
2816.0,-0.0038749570958316326
3072.0,-0.0046332040801644325
3328.0,-0.002237186534330249
3584.0,-0.004181407392024994
3840.0,0.0008339898195117712
4096.0,-0.0019932545255869627
4608.0,0.0011704389471560717
5120.0,-0.0008456245996057987
5632.0,0.002336884383112192
6144.0,0.0032846613321453333
6656.0,0.0036345517728477716
7168.0,0.00046612528967671096
7680.0,-0.001405334216542542
8192.0,-0.0035179106052964926
9216.0,-0.0045575108379125595
10240.0,-0.0010129858274012804
11264.0,0.0010600925888866186
12288.0,0.002355483826249838
13312.0,0.001494893804192543
14336.0,0.0016205381834879518
end
