version,3.0
numOfCh,1
type,point
parent_name,100-cuts
ch_type,1_1
kcount,1
numberNandB,1
brightnessNandB,1
carpet pos,0
pc,0
Time (ms),CH1 Auto-Correlation
1.0,0.03203028067946434
2.0,0.03122328780591488
3.0,0.030466577038168907
4.0,0.02973972074687481
5.0,0.02904917113482952
6.0,0.02839096263051033
7.0,0.027760904282331467
8.0,0.027169710025191307
9.0,0.026597656309604645
10.0,0.02604266256093979
11.0,0.02548295632004738
12.0,0.024960733950138092
13.0,0.024465035647153854
14.0,0.023989470675587654
15.0,0.02351035736501217
16.0,0.023036038503050804
18.0,0.02211800031363964
20.0,0.02126963995397091
22.0,0.020516959950327873
24.0,0.019802607595920563
26.0,0.019110772758722305
28.0,0.01843317039310932
30.0,0.0177895650267601
32.0,0.017213165760040283
36.0,0.01606152020394802
40.0,0.014956528320908546
44.0,0.013968211598694324
48.0,0.013034817762672901
52.0,0.01206726860255003
56.0,0.011261413805186749
60.0,0.01053136307746172
64.0,0.009833091869950294
72.0,0.00861200038343668
80.0,0.007705064956098795
88.0,0.00716447876766324
96.0,0.006903806235641241
104.0,0.00672359112650156
112.0,0.0063660042360424995
120.0,0.0057696383446455
128.0,0.0050774491392076015
144.0,0.0038867967668920755
160.0,0.002801025751978159
176.0,0.0021421138662844896
192.0,0.0018109488300979137
208.0,0.0016121327644214034
224.0,0.0014999358681961894
240.0,0.0013391185784712434
256.0,0.001121686422266066
288.0,0.0001567670697113499
320.0,-0.0012102514738216996
352.0,-0.0011996753746643662
384.0,-0.000761035771574825
416.0,-0.001539330231025815
448.0,-0.0013168738223612309
480.0,-0.0009100790484808385
512.0,0.0003660570946522057
576.0,0.0011661197058856487
640.0,0.00045570768998004496
704.0,0.00017326284432783723
768.0,0.0006994936265982687
832.0,-0.0011068840976804495
896.0,-0.002502788556739688
960.0,-0.0023251918610185385
1024.0,-0.002120640594512224
1152.0,-0.001146637718193233
1280.0,0.001375818159431219
1408.0,0.000579369137994945
1536.0,0.00017647432105150074
1664.0,-0.002397573320195079
1792.0,-0.0007202981505542994
1920.0,0.0007575859781354666
2048.0,0.001807615626603365
2304.0,0.0008903454872779548
2560.0,-0.0011016316711902618
2816.0,-0.0005356303881853819
3072.0,-0.0028468542732298374
3328.0,-0.001376445172354579
3584.0,0.00026650639483705163
3840.0,-0.0001999611995415762
4096.0,0.0027301223017275333
4608.0,0.0012458424316719174
5120.0,0.0003980135952588171
5632.0,-0.0001854870206443593
6144.0,-0.0017518772510811687
6656.0,2.7687203328241594e-05
7168.0,0.0003090157697442919
7680.0,-0.0008042206754907966
8192.0,-0.0015386331360787153
9216.0,6.740890057699289e-06
10240.0,-0.0012862597359344363
11264.0,0.0005254874704405665
12288.0,-0.00033034911029972136
13312.0,0.0003028802457265556
14336.0,5.428206713986583e-05
end
