version,3.0
numOfCh,1
type,point
parent_name,100-cuts
ch_type,1_1
kcount,1
numberNandB,1
brightnessNandB,1
carpet pos,0
pc,0
Time (ms),CH1 Auto-Correlation
1.0,0.06457162648439407
2.0,0.06303588300943375
3.0,0.06154070049524307
4.0,0.06013988330960274
5.0,0.058798011392354965
6.0,0.05747012048959732
7.0,0.056172214448451996
8.0,0.05490073561668396
9.0,0.05370615795254707
10.0,0.05250641703605652
11.0,0.05136428028345108
12.0,0.05026349052786827
13.0,0.04919798672199249
14.0,0.04813331365585327
15.0,0.047137271612882614
16.0,0.046199023723602295
18.0,0.044454507529735565
20.0,0.04290648549795151
22.0,0.0414179302752018
24.0,0.03994760289788246
26.0,0.03857635334134102
28.0,0.037274766713380814
30.0,0.0361064113676548
32.0,0.03499644994735718
36.0,0.0328400582075119
40.0,0.03081819973886013
44.0,0.02908509038388729
48.0,0.0278776865452528
52.0,0.02681826427578926
56.0,0.0255831740796566
60.0,0.0241734366863966
64.0,0.022885238751769066
72.0,0.02050023153424263
80.0,0.01892513409256935
88.0,0.01797727309167385
96.0,0.017165763303637505
104.0,0.015669142827391624
112.0,0.013752616941928864
120.0,0.012038234621286392
128.0,0.010458912700414658
144.0,0.008125580847263336
160.0,0.005453299265354872
176.0,0.003247107844799757
192.0,0.0019332963274791837
208.0,0.0009908912470564246
224.0,0.0003324634744785726
240.0,0.00011859735968755558
256.0,-0.00010363541514379904
288.0,0.001318038091994822
320.0,0.0030947707127779722
352.0,0.00202898564748466
384.0,0.0010958763305097818
416.0,-0.0012878273846581578
448.0,-0.0017308342503383756
480.0,-0.0020587288308888674
512.0,-0.0026509847957640886
576.0,-0.0022761637810617685
640.0,-0.000880019913893193
704.0,-0.0012252358719706535
768.0,-0.001590972300618887
832.0,-0.0023301534820348024
896.0,0.003260204568505287
960.0,0.008459455333650112
1024.0,0.008579961024224758
1152.0,0.0007873234571889043
1280.0,0.0003926516801584512
1408.0,-0.000859878899063915
1536.0,-0.0033591727260500193
1664.0,-0.003918650560081005
1792.0,-0.0038449130952358246
1920.0,-0.004027851857244968
2048.0,-0.005787963513284922
2304.0,-0.003313987050205469
2560.0,-0.005066064186394215
2816.0,-0.0012354101054370403
3072.0,0.002249336801469326
3328.0,0.003313950728625059
3584.0,0.0006059243460185826
3840.0,-0.003627327736467123
4096.0,0.004355686251074076
4608.0,0.0034920331090688705
5120.0,-0.0003837901458609849
5632.0,-0.0017212318489328027
6144.0,0.002051403047516942
6656.0,-0.0021201029885560274
7168.0,-0.002491903956979513
7680.0,0.0014816527254879475
8192.0,-0.0032786447554826736
9216.0,0.001330978819169104
10240.0,0.004036514554172754
11264.0,-0.003417125903069973
12288.0,-0.008985502645373344
13312.0,-0.0007548456778749824
14336.0,0.008134971372783184
end
