version,3.0
numOfCh,1
type,point
parent_name,100-cuts
ch_type,1_1
kcount,1
numberNandB,1
brightnessNandB,1
carpet pos,0
pc,0
Time (ms),CH1 Auto-Correlation
1.0,0.07576996088027954
2.0,0.07412390410900116
3.0,0.07251714915037155
4.0,0.07093238085508347
5.0,0.06936278939247131
6.0,0.0678601786494255
7.0,0.06639622896909714
8.0,0.0650082379579544
9.0,0.06365931779146194
10.0,0.06235972419381142
11.0,0.06110037863254547
12.0,0.059865474700927734
13.0,0.05863132327795029
14.0,0.057398464530706406
15.0,0.056173261255025864
16.0,0.05496227741241455
18.0,0.05252847075462341
20.0,0.050184447318315506
22.0,0.04786309599876404
24.0,0.04568040370941162
26.0,0.04367341846227646
28.0,0.04187386855483055
30.0,0.04025249928236008
32.0,0.03885342553257942
36.0,0.03618485853075981
40.0,0.03365394100546837
44.0,0.031420592218637466
48.0,0.029405010864138603
52.0,0.02751094102859497
56.0,0.02568860910832882
60.0,0.023961002007126808
64.0,0.022236183285713196
72.0,0.01885148510336876
80.0,0.01592778041958809
88.0,0.01342101115733385
96.0,0.011413821950554848
104.0,0.010163653641939163
112.0,0.00895937904715538
120.0,0.007062113378196955
128.0,0.005196031648665667
144.0,0.0030457796528935432
160.0,0.0032616076059639454
176.0,0.004154703579843044
192.0,0.005631367675960064
208.0,0.007059380412101746
224.0,0.008854326792061329
240.0,0.00999600812792778
256.0,0.010229555889964104
288.0,0.007826491259038448
320.0,0.0049392967484891415
352.0,0.002022725995630026
384.0,0.001915697823278606
416.0,0.0037858581636101007
448.0,0.004106142092496157
480.0,0.0023311192635446787
512.0,-0.001265537808649242
576.0,-0.0022943629883229733
640.0,0.0013005066430196166
704.0,0.005755578633397818
768.0,0.0035038150381296873
832.0,-0.0017421754309907556
896.0,0.0028705059085041285
960.0,0.009938569739460945
1024.0,0.008712495677173138
1152.0,-0.0017611379735171795
1280.0,-0.0016307284822687507
1408.0,0.0014616514090448618
1536.0,-0.001722616609185934
1664.0,0.0039035864174365997
1792.0,0.0030676100868731737
1920.0,0.0018285750411450863
2048.0,-0.0017048765439540148
2304.0,-0.002186195459216833
2560.0,-0.0005963938310742378
2816.0,-0.003237659577280283
3072.0,-0.005180105566978455
3328.0,-0.004141401965171099
3584.0,-0.002729358384385705
3840.0,0.0011163249146193266
4096.0,-0.007179178297519684
4608.0,-0.002745487028732896
5120.0,-0.008416586555540562
5632.0,-0.0015764071140438318
6144.0,-0.003407946089282632
6656.0,0.002934529911726713
7168.0,0.0007531847222708166
7680.0,0.00777855422347784
8192.0,0.002295749494805932
9216.0,0.0029292728286236525
10240.0,0.0024146190844476223
11264.0,-0.003149856347590685
12288.0,-0.0047880420461297035
13312.0,-0.006287463009357452
14336.0,0.0028153869789093733
end
