version,3.0
numOfCh,1
type,point
parent_name,100-cuts
ch_type,1_1
kcount,1
numberNandB,1
brightnessNandB,1
carpet pos,0
pc,0
Time (ms),CH1 Auto-Correlation
1.0,0.04155775532126427
2.0,0.040710385888814926
3.0,0.03988470509648323
4.0,0.03905917704105377
5.0,0.03825024515390396
6.0,0.03745107352733612
7.0,0.03667553514242172
8.0,0.035916440188884735
9.0,0.03518078848719597
10.0,0.034455556422472
11.0,0.033746495842933655
12.0,0.03305216506123543
13.0,0.032384347170591354
14.0,0.03172941505908966
15.0,0.031113015487790108
16.0,0.030508538708090782
18.0,0.029366759583353996
20.0,0.028292451053857803
22.0,0.027272596955299377
24.0,0.026277050375938416
26.0,0.025378309190273285
28.0,0.024511203169822693
30.0,0.02368427999317646
32.0,0.0229134913533926
36.0,0.021588383242487907
40.0,0.020350925624370575
44.0,0.019197169691324234
48.0,0.018194768577814102
52.0,0.017219921573996544
56.0,0.016233909875154495
60.0,0.015322895720601082
64.0,0.014587697573006153
72.0,0.013330914080142975
80.0,0.011872248724102974
88.0,0.010185561142861843
96.0,0.008716544136404991
104.0,0.0075640808790922165
112.0,0.006464392878115177
120.0,0.005608776118606329
128.0,0.00512729724869132
144.0,0.005034866277128458
160.0,0.005101390648633242
176.0,0.004549204837530851
192.0,0.0031881192699074745
208.0,0.0020654737018048763
224.0,0.0014199551660567522
240.0,0.0010877884924411774
256.0,0.0009998943423852324
288.0,0.000967745145317167
320.0,0.0013307774206623435
352.0,0.0008407151326537132
384.0,0.0002580832224339247
416.0,0.0003009480133187026
448.0,0.00037353610969148576
480.0,0.002372399205341935
512.0,0.0028712479397654533
576.0,0.0018259350908920169
640.0,-6.745437713107094e-05
704.0,0.0007303690654225647
768.0,0.0007360246963799
832.0,-0.0014440659433603287
896.0,-0.0025697716046124697
960.0,-0.001562106073834002
1024.0,-0.0009527768706902862
1152.0,0.002000147243961692
1280.0,0.0017163450829684734
1408.0,-0.00019910724950022995
1536.0,-0.0032003794331103563
1664.0,-0.0014796315226703882
1792.0,-0.002711489098146558
1920.0,-0.004885971080511808
2048.0,-0.004234671127051115
2304.0,-0.0008807106642052531
2560.0,0.0003115326398983598
2816.0,0.0010531061561778188
3072.0,-0.0027733801398426294
3328.0,-8.314471779158339e-05
3584.0,-0.0005190343945287168
3840.0,0.003562828293070197
4096.0,0.0012016386026516557
4608.0,0.0022395593114197254
5120.0,0.0026948945596814156
5632.0,0.00015716359484940767
6144.0,-0.0007981024100445211
6656.0,-0.0027814791537821293
7168.0,0.0006762423436157405
7680.0,-0.0023036254569888115
8192.0,-0.0017206347547471523
9216.0,-0.0017016864148899913
10240.0,0.0015839330153539777
11264.0,0.0005003212718293071
12288.0,-0.00337823829613626
13312.0,-0.003000763477757573
14336.0,0.0014386109542101622
end
