version,3.0
numOfCh,1
type,point
parent_name,100-cuts
ch_type,1_1
kcount,1
numberNandB,1
brightnessNandB,1
carpet pos,0
pc,0
Time (ms),CH1 Auto-Correlation
1.0,0.0715777724981308
2.0,0.07017809897661209
3.0,0.06882703304290771
4.0,0.06751714646816254
5.0,0.06624698638916016
6.0,0.06501935422420502
7.0,0.06380506604909897
8.0,0.06266184896230698
9.0,0.061528921127319336
10.0,0.06040945276618004
11.0,0.059303171932697296
12.0,0.05819113552570343
13.0,0.05709878355264664
14.0,0.05601390451192856
15.0,0.054953642189502716
16.0,0.05392661318182945
18.0,0.05196462199091911
20.0,0.05010303854942322
22.0,0.048281602561473846
24.0,0.046542663127183914
26.0,0.04487118870019913
28.0,0.04333905503153801
30.0,0.04186138138175011
32.0,0.04047045484185219
36.0,0.03788250312209129
40.0,0.0355064831674099
44.0,0.03338002786040306
48.0,0.03149142116308212
52.0,0.029749339446425438
56.0,0.028096161782741547
60.0,0.026343684643507004
64.0,0.024545054882764816
72.0,0.020943043753504753
80.0,0.018082691356539726
88.0,0.015712928026914597
96.0,0.013508741743862629
104.0,0.011465534567832947
112.0,0.009760688990354538
120.0,0.008187372237443924
128.0,0.0065220934338867664
144.0,0.0040640076622366905
160.0,0.001826639287173748
176.0,-8.03519506007433e-05
192.0,-0.0021231474820524454
208.0,-0.003136741928756237
224.0,-0.003045586636289954
240.0,-0.0018458588747307658
256.0,-0.0006739582167938352
288.0,0.0023068615701049566
320.0,0.00202958844602108
352.0,-0.0007584522827528417
384.0,-0.0014270208775997162
416.0,0.0004470490966923535
448.0,0.0013021583436056972
480.0,0.003544856095686555
512.0,0.007280092220753431
576.0,0.010371183045208454
640.0,0.009138848632574081
704.0,0.004979791585355997
768.0,0.006277729291468859
832.0,0.0029583389405161142
896.0,0.00026556942611932755
960.0,-0.0021943359170109034
1024.0,-0.004544372204691172
1152.0,-0.000609188515227288
1280.0,0.0015412706416100264
1408.0,0.0004275362880434841
1536.0,0.0004309188516344875
1664.0,-0.0026334344875067472
1792.0,-0.004666456952691078
1920.0,-0.0035906266421079636
2048.0,-0.005940484814345837
2304.0,-0.002385410014539957
2560.0,-0.008880352601408958
2816.0,-0.0040054889395833015
3072.0,-0.005349129904061556
3328.0,-0.001978720771148801
3584.0,-0.0022890486288815737
3840.0,-0.003959220834076405
4096.0,0.0019562544766813517
4608.0,-0.0014343548100441694
5120.0,-0.0009284258703701198
5632.0,0.0023816453758627176
6144.0,0.003590878564864397
6656.0,0.0029235968831926584
7168.0,0.001361178932711482
7680.0,0.0028212699107825756
8192.0,-0.002728561172261834
9216.0,-0.003312064101919532
10240.0,-0.0002033673954429105
11264.0,0.00497131422162056
12288.0,0.0008332597208209336
13312.0,-0.004208368249237537
14336.0,-0.004744371864944696
end
