version,3.0
numOfCh,1
type,point
parent_name,100-cuts
ch_type,1_1
kcount,1
numberNandB,1
brightnessNandB,1
carpet pos,0
pc,0
Time (ms),CH1 Auto-Correlation
1.0,0.03109738789498806
2.0,0.030366068705916405
3.0,0.029678795486688614
4.0,0.028997469693422318
5.0,0.028332609683275223
6.0,0.02771417424082756
7.0,0.02710808999836445
8.0,0.026517750695347786
9.0,0.02596232108771801
10.0,0.025427168235182762
11.0,0.024937152862548828
12.0,0.02445140853524208
13.0,0.023979227989912033
14.0,0.023510592058300972
15.0,0.023060627281665802
16.0,0.02261313796043396
18.0,0.02175493724644184
20.0,0.020963329821825027
22.0,0.02021997608244419
24.0,0.019534138962626457
26.0,0.01890277862548828
28.0,0.018354693427681923
30.0,0.01781061291694641
32.0,0.01724185422062874
36.0,0.016178064048290253
40.0,0.015100615099072456
44.0,0.014058072119951248
48.0,0.013112002052366734
52.0,0.012209653854370117
56.0,0.01123199611902237
60.0,0.010318203829228878
64.0,0.009639926254749298
72.0,0.008535024709999561
80.0,0.007322228979319334
88.0,0.00603123614564538
96.0,0.005036536604166031
104.0,0.004368630237877369
112.0,0.003748109098523855
120.0,0.0032368027605116367
128.0,0.002739634132012725
144.0,0.001781600876711309
160.0,0.0013055115705356002
176.0,0.0013737189583480358
192.0,0.001051644911058247
208.0,0.0005057886592112482
224.0,-3.196834950358607e-05
240.0,0.00016960504581220448
256.0,0.0002829432487487793
288.0,0.0008133756928145885
320.0,0.001469520735554397
352.0,0.00051907729357481
384.0,0.0003359844849910587
416.0,-0.00018734672630671412
448.0,-0.0008149921777658165
480.0,-0.0019386785570532084
512.0,-0.0024588420055806637
576.0,-0.0021482137963175774
640.0,0.0003629446146078408
704.0,0.001956327585503459
768.0,0.002829740522429347
832.0,0.0015123457415029407
896.0,-3.408177144592628e-05
960.0,-0.0013936861651018262
1024.0,-0.0009707566350698471
1152.0,-0.0032044239342212677
1280.0,-0.003154605394229293
1408.0,0.0002899761020671576
1536.0,0.0011866609565913677
1664.0,0.0010479167103767395
1792.0,0.0012006000615656376
1920.0,0.00023764287470839918
2048.0,-0.0002789666468743235
2304.0,-0.0008532768115401268
2560.0,-0.0012267092242836952
2816.0,-0.00035322317853569984
3072.0,0.0005103101138956845
3328.0,-0.0005071698687970638
3584.0,-0.0009089129162020981
3840.0,-0.0011925364378839731
4096.0,-0.001900749746710062
4608.0,-0.0013221310218796134
5120.0,0.0003511912073008716
5632.0,0.001192949479445815
6144.0,-0.0001857010938692838
6656.0,-0.0011023738188669086
7168.0,0.0010543845128268003
7680.0,0.0015325037529692054
8192.0,-0.0012423446169123054
9216.0,0.0011461200192570686
10240.0,0.0017692538676783442
11264.0,-0.0029891228768974543
12288.0,0.0017825982067734003
13312.0,-0.002568785334005952
14336.0,0.0005614960100501776
end
