version,3.0
numOfCh,1
type,point
parent_name,100-cuts
ch_type,1_1
kcount,1
numberNandB,1
brightnessNandB,1
carpet pos,0
pc,0
Time (ms),CH1 Auto-Correlation
1.0,0.06951860338449478
2.0,0.06788010895252228
3.0,0.06630458682775497
4.0,0.06477687507867813
5.0,0.0632881298661232
6.0,0.06185249984264374
7.0,0.060451921075582504
8.0,0.05910986289381981
9.0,0.05777527764439583
10.0,0.056500066071748734
11.0,0.05524780601263046
12.0,0.05406680703163147
13.0,0.05292106047272682
14.0,0.05183564871549606
15.0,0.05075463280081749
16.0,0.0496775321662426
18.0,0.047581348568201065
20.0,0.04563576728105545
22.0,0.043814778327941895
24.0,0.04200514778494835
26.0,0.0402500294148922
28.0,0.0386112816631794
30.0,0.03712913766503334
32.0,0.035799916833639145
36.0,0.0333089604973793
40.0,0.03105166181921959
44.0,0.029202785342931747
48.0,0.02762170135974884
52.0,0.026143942028284073
56.0,0.024572832509875298
60.0,0.023084500804543495
64.0,0.02156439982354641
72.0,0.01888180337846279
80.0,0.01608102396130562
88.0,0.013436366803944111
96.0,0.011550167575478554
104.0,0.010509379208087921
112.0,0.009565891698002815
120.0,0.008722382597625256
128.0,0.00784354843199253
144.0,0.006303266156464815
160.0,0.0054664998315274715
176.0,0.005566815845668316
192.0,0.0061553968116641045
208.0,0.005985089112073183
224.0,0.005133762024343014
240.0,0.005614272318780422
256.0,0.006536984816193581
288.0,0.005316951312124729
320.0,0.0032036351040005684
352.0,5.572363988903817e-06
384.0,-0.0011577161494642496
416.0,-0.0036924947053194046
448.0,-0.0036288034170866013
480.0,-0.0009412372019141912
512.0,0.0017365040257573128
576.0,0.0014780755154788494
640.0,0.001737436163239181
704.0,0.0011504491558298469
768.0,0.0018041672883555293
832.0,0.0033092210069298744
896.0,0.003830642905086279
960.0,0.0025419427547603846
1024.0,0.0006263323011808097
1152.0,0.0030101004522293806
1280.0,0.0004957116907462478
1408.0,-0.0033737949561327696
1536.0,0.0006876641418784857
1664.0,0.003888586303219199
1792.0,0.0031929071992635727
1920.0,-0.0012547083897516131
2048.0,-0.006143278907984495
2304.0,0.0008769838022999465
2560.0,-0.006017445120960474
2816.0,-0.0036927987821400166
3072.0,-0.0009605270461179316
3328.0,0.003451425116509199
3584.0,-0.002682727063074708
3840.0,-0.0043157185427844524
4096.0,-0.0044105034321546555
4608.0,-0.004812934435904026
5120.0,-0.00032649870263412595
5632.0,-0.005326231941580772
6144.0,-0.005894017871469259
6656.0,0.0014457602519541979
7168.0,0.0038939721416682005
7680.0,0.003889327170327306
8192.0,0.0020285588689148426
9216.0,0.0004144754202570766
10240.0,0.005469757132232189
11264.0,-0.0011246084468439221
12288.0,-0.006800626404583454
13312.0,-0.0035789995454251766
14336.0,0.0008436284260824323
end
