version,3.0
numOfCh,1
type,point
parent_name,100-cuts
ch_type,1_1
kcount,1
numberNandB,1
brightnessNandB,1
carpet pos,0
pc,0
Time (ms),CH1 Auto-Correlation
1.0,0.02724541537463665
2.0,0.026487817987799644
3.0,0.025765283033251762
4.0,0.025053933262825012
5.0,0.024354273453354836
6.0,0.0236897524446249
7.0,0.023053692653775215
8.0,0.022416891530156136
9.0,0.021826982498168945
10.0,0.02127569541335106
11.0,0.020721392706036568
12.0,0.020173875615000725
13.0,0.01963481865823269
14.0,0.01910785585641861
15.0,0.018597211688756943
16.0,0.018110178411006927
18.0,0.017154671251773834
20.0,0.0163140669465065
22.0,0.01558398362249136
24.0,0.014884375967085361
26.0,0.014226734638214111
28.0,0.013597848825156689
30.0,0.012999146245419979
32.0,0.012439815327525139
36.0,0.011405703611671925
40.0,0.010488104075193405
44.0,0.009763523004949093
48.0,0.009187735617160797
52.0,0.008687504567205906
56.0,0.00817964132875204
60.0,0.0076984502375125885
64.0,0.007160088047385216
72.0,0.006282678339630365
80.0,0.005742954555898905
88.0,0.0052253082394599915
96.0,0.004497759975492954
104.0,0.0035450479481369257
112.0,0.0026928528677672148
120.0,0.002232647966593504
128.0,0.001951668644323945
144.0,0.0019501455826684833
160.0,0.0019322845619171858
176.0,0.0011669046944007277
192.0,0.00032057345379143953
208.0,-0.00025305160670541227
224.0,-0.00040161836659535766
240.0,-5.5269796575885266e-05
256.0,-0.00025575896142981946
288.0,-0.0005477484664879739
320.0,-0.0008205334306694567
352.0,-0.00033952377270907164
384.0,0.0002456307120155543
416.0,0.0006775583606213331
448.0,0.0011792912846431136
480.0,0.0016667877789586782
512.0,0.0010663048597052693
576.0,0.0007833185372874141
640.0,0.0007802981417626143
704.0,-0.0009644536767154932
768.0,-0.0013079544296488166
832.0,0.0008388493442907929
896.0,0.0014440759550780058
960.0,0.0014936848310753703
1024.0,0.002137776929885149
1152.0,0.0007641736883670092
1280.0,0.00029422403895296156
1408.0,0.001500472892075777
1536.0,-1.0636805200192612e-05
1664.0,-0.00022415269631892443
1792.0,0.0017491258913651109
1920.0,0.0014149851631373167
2048.0,0.0007634893408976495
2304.0,-2.7222115477343323e-06
2560.0,0.000143395212944597
2816.0,0.0012305979616940022
3072.0,-0.0008738728938624263
3328.0,-0.0022341276053339243
3584.0,-0.0003697490901686251
3840.0,-0.0017552751814946532
4096.0,-0.0007766641792841256
4608.0,-0.0008988673216663301
5120.0,-0.0017952227499336004
5632.0,-0.0016647308366373181
6144.0,-0.002187128411605954
6656.0,-0.0006222717347554862
7168.0,-0.0004931768635287881
7680.0,-0.0006361964624375105
8192.0,0.0008635816629976034
9216.0,0.0017462054966017604
10240.0,0.0007942457450553775
11264.0,0.0012260752264410257
12288.0,0.00018124215421266854
13312.0,0.000576019985601306
14336.0,-0.0009776480728760362
end
