version,3.0
numOfCh,1
type,point
parent_name,100-cuts
ch_type,1_1
kcount,1
numberNandB,1
brightnessNandB,1
carpet pos,0
pc,0
Time (ms),CH1 Auto-Correlation
1.0,0.06466253846883774
2.0,0.06317900866270065
3.0,0.06172393634915352
4.0,0.06030584126710892
5.0,0.058975543826818466
6.0,0.05769861862063408
7.0,0.056446462869644165
8.0,0.0552535280585289
9.0,0.05408724024891853
10.0,0.052938345819711685
11.0,0.05181178078055382
12.0,0.050693079829216
13.0,0.04963090270757675
14.0,0.04859897121787071
15.0,0.047585517168045044
16.0,0.0465850867331028
18.0,0.044629476964473724
20.0,0.042747605592012405
22.0,0.040927477180957794
24.0,0.039239488542079926
26.0,0.037713076919317245
28.0,0.03629586100578308
30.0,0.03493154048919678
32.0,0.033651839941740036
36.0,0.031371112912893295
40.0,0.029422501102089882
44.0,0.027723748236894608
48.0,0.02605612948536873
52.0,0.024516599252820015
56.0,0.023076510056853294
60.0,0.02177777700126171
64.0,0.0205482617020607
72.0,0.01845686510205269
80.0,0.016235610470175743
88.0,0.01454169675707817
96.0,0.013324856758117676
104.0,0.012569074518978596
112.0,0.012002440169453621
120.0,0.011263398453593254
128.0,0.010540206916630268
144.0,0.009826603345572948
160.0,0.009564414620399475
176.0,0.00830874778330326
192.0,0.00544049683958292
208.0,0.002332315081730485
224.0,-0.00031870926613919437
240.0,-0.001892292289994657
256.0,-0.0031129526905715466
288.0,-0.003895812900736928
320.0,-0.00215093232691288
352.0,-0.0017332237912341952
384.0,-0.0048598493449389935
416.0,-0.007346713915467262
448.0,-0.005259012803435326
480.0,-0.00041458260966464877
512.0,0.001843850826844573
576.0,-0.0003153914585709572
640.0,0.0021750812884420156
704.0,-0.0005676514119841158
768.0,-0.0031207313295453787
832.0,-0.004365574102848768
896.0,-0.006051401142030954
960.0,-0.00337733281776309
1024.0,-0.0005375450127758086
1152.0,0.0011780307395383716
1280.0,-0.0004054562596138567
1408.0,-0.0009106273646466434
1536.0,0.0006450967048294842
1664.0,0.002585050882771611
1792.0,0.002589264651760459
1920.0,0.0019158050417900085
2048.0,0.0016163847176358104
2304.0,0.0017882885877043009
2560.0,0.0016113914316520095
2816.0,-0.0017509113531559706
3072.0,-0.0031398809514939785
3328.0,0.0037804993335157633
3584.0,0.0030091076623648405
3840.0,-0.00037266730214469135
4096.0,-0.0008749164408072829
4608.0,-0.0028232033364474773
5120.0,0.00356119591742754
5632.0,0.0008834734326228499
6144.0,-0.003877480048686266
6656.0,0.002905027475208044
7168.0,0.0035593751817941666
7680.0,-0.0010583034018054605
8192.0,-0.0018495763652026653
9216.0,0.0007310077780857682
10240.0,-0.0019489888800308108
11264.0,-0.0035946310963481665
12288.0,-0.002636363497003913
13312.0,-0.003996510989964008
14336.0,-0.002952689304947853
end
