version,3.0
numOfCh,1
type,point
parent_name,100-cuts
ch_type,1_1
kcount,1
numberNandB,1
brightnessNandB,1
carpet pos,0
pc,0
Time (ms),CH1 Auto-Correlation
1.0,0.05928998067975044
2.0,0.05785135552287102
3.0,0.0565015971660614
4.0,0.05519001558423042
5.0,0.05393105000257492
6.0,0.052720390260219574
7.0,0.05156976357102394
8.0,0.05045166611671448
9.0,0.04939275234937668
10.0,0.04838069528341293
11.0,0.04739350825548172
12.0,0.04645194858312607
13.0,0.045557212084531784
14.0,0.04471278563141823
15.0,0.043888822197914124
16.0,0.043063051998615265
18.0,0.0414944589138031
20.0,0.04003824666142464
22.0,0.038625169545412064
24.0,0.03726129233837128
26.0,0.03599092736840248
28.0,0.034805040806531906
30.0,0.03370783105492592
32.0,0.032654788345098495
36.0,0.030681932345032692
40.0,0.028913140296936035
44.0,0.02726447954773903
48.0,0.025673188269138336
52.0,0.024159574881196022
56.0,0.022563818842172623
60.0,0.020980605855584145
64.0,0.019464559853076935
72.0,0.01739504002034664
80.0,0.015409709885716438
88.0,0.013763382099568844
96.0,0.012331856414675713
104.0,0.010509414598345757
112.0,0.008588922210037708
120.0,0.0070524257607758045
128.0,0.0055091301910579205
144.0,0.0035317507572472095
160.0,0.002258123829960823
176.0,0.0010045949602499604
192.0,-0.00027077319100499153
208.0,-0.0015008941991254687
224.0,-0.0014288767706602812
240.0,-0.0014759525656700134
256.0,-0.0021383403800427914
288.0,-0.0033703367225825787
320.0,-0.003115931060165167
352.0,-0.002184982178732753
384.0,-0.0003689552831929177
416.0,-0.0008602099842391908
448.0,-0.000519829336553812
480.0,0.00033464940497651696
512.0,-0.0010296646505594254
576.0,-0.00016303587472066283
640.0,0.0015306578716263175
704.0,0.0021674009039998055
768.0,0.0020477203652262688
832.0,0.0014539514668285847
896.0,-0.0019558819476515055
960.0,-0.004720259923487902
1024.0,-0.0036964286118745804
1152.0,-0.004653691314160824
1280.0,-0.0017055966891348362
1408.0,-0.002830073470249772
1536.0,-0.001036092173308134
1664.0,-0.0010633452329784632
1792.0,0.0025991492439061403
1920.0,0.00384996528737247
2048.0,0.003084094263613224
2304.0,-0.00146732316352427
2560.0,0.0010386013891547918
2816.0,-0.002272538375109434
3072.0,-0.0005876704817637801
3328.0,0.00016560078074689955
3584.0,-0.0026543866842985153
3840.0,-0.0014336181338876486
4096.0,-0.0005354027380235493
4608.0,-0.001142827095463872
5120.0,0.0009905054466798902
5632.0,0.001192758558318019
6144.0,-0.0010730117792263627
6656.0,-0.0005128735792823136
7168.0,-0.0009262594394385815
7680.0,0.0022528842091560364
8192.0,-0.0006287982687354088
9216.0,0.00016402282926719636
10240.0,0.00028770562494173646
11264.0,0.001855058828368783
12288.0,-0.000988628133200109
13312.0,0.0015895894030109048
14336.0,-0.0015364172868430614
end
