version,3.0
numOfCh,1
type,point
parent_name,100-cuts
ch_type,1_1
kcount,1
numberNandB,1
brightnessNandB,1
carpet pos,0
pc,0
Time (ms),CH1 Auto-Correlation
1.0,0.018085669726133347
2.0,0.01761818677186966
3.0,0.017170574516057968
4.0,0.016745971515774727
5.0,0.01634530909359455
6.0,0.015949133783578873
7.0,0.01557458471506834
8.0,0.015194443985819817
9.0,0.0148300901055336
10.0,0.01447436772286892
11.0,0.014123853296041489
12.0,0.013783687725663185
13.0,0.013451457023620605
14.0,0.013120399788022041
15.0,0.012798210605978966
16.0,0.012484239414334297
18.0,0.011882123537361622
20.0,0.011311091482639313
22.0,0.010770099237561226
24.0,0.010291611775755882
26.0,0.009843933396041393
28.0,0.009460154920816422
30.0,0.009096549823880196
32.0,0.008754719980061054
36.0,0.008091457188129425
40.0,0.007477318402379751
44.0,0.0069753797724843025
48.0,0.006518732290714979
52.0,0.006056011654436588
56.0,0.005682607647031546
60.0,0.005382800009101629
64.0,0.0050735510885715485
72.0,0.004472225438803434
80.0,0.003947278950363398
88.0,0.003509028349071741
96.0,0.0031397342681884766
104.0,0.0029029070865362883
112.0,0.0026825466193258762
120.0,0.0025643836706876755
128.0,0.0024164775386452675
144.0,0.002369527006521821
160.0,0.00216516456566751
176.0,0.0021039738785475492
192.0,0.002025758381932974
208.0,0.0021157681476324797
224.0,0.0021864816080778837
240.0,0.002123587066307664
256.0,0.001996241509914398
288.0,0.0017264975467696786
320.0,0.0016974215395748615
352.0,0.0015687071718275547
384.0,0.0013710627099499106
416.0,0.001278753043152392
448.0,0.0014996929094195366
480.0,0.0016125120455399156
512.0,0.0014947045128792524
576.0,0.0006625077803619206
640.0,0.0012510502710938454
704.0,0.0005199809675104916
768.0,0.0004521849623415619
832.0,0.00020952557679265738
896.0,0.0004979958757758141
960.0,0.00037912666448391974
1024.0,-5.9207370213698596e-05
1152.0,-0.0010269019985571504
1280.0,-0.0012672381708398461
1408.0,-0.0013013881398364902
1536.0,-0.0006831737118773162
1664.0,-0.0011595144169405103
1792.0,-0.002508435631170869
1920.0,-0.0026904491242021322
2048.0,-0.002314435550943017
2304.0,5.153091933607357e-06
2560.0,-0.000477035588119179
2816.0,0.0005781699437648058
3072.0,0.00019740377319976687
3328.0,0.0011270263930782676
3584.0,0.0009621341014280915
3840.0,0.0010907965479418635
4096.0,0.00010780034062918276
4608.0,0.0008406139677390456
5120.0,-0.00013571295130532235
5632.0,-0.0010506149847060442
6144.0,-0.0008607635973021388
6656.0,-0.0008655538549646735
7168.0,-0.00017217907588928938
7680.0,0.0005443582776933908
8192.0,-0.0002945453452412039
9216.0,-0.0015255161561071873
10240.0,0.00045396844507195055
11264.0,0.0013456097804009914
12288.0,-0.0015561690088361502
13312.0,0.00020885463163722306
14336.0,0.002553304424509406
end
