version,3.0
numOfCh,1
type,point
parent_name,100-cuts
ch_type,1_1
kcount,1
numberNandB,1
brightnessNandB,1
carpet pos,0
pc,0
Time (ms),CH1 Auto-Correlation
1.0,0.022052014246582985
2.0,0.021553993225097656
3.0,0.02108827233314514
4.0,0.020630672574043274
5.0,0.020192701369524002
6.0,0.01977246068418026
7.0,0.019362837076187134
8.0,0.018955329433083534
9.0,0.01855599880218506
10.0,0.018161900341510773
11.0,0.017773907631635666
12.0,0.01740231178700924
13.0,0.017035584896802902
14.0,0.016671475023031235
15.0,0.016302963718771935
16.0,0.01593703031539917
18.0,0.01523226872086525
20.0,0.014595381915569305
22.0,0.014001534320414066
24.0,0.013415341265499592
26.0,0.0128498375415802
28.0,0.01231757178902626
30.0,0.011826657690107822
32.0,0.011343331076204777
36.0,0.010439927689731121
40.0,0.009611428715288639
44.0,0.008873607963323593
48.0,0.008185268379747868
52.0,0.00753088528290391
56.0,0.006850261241197586
60.0,0.006172207184135914
64.0,0.005487577524036169
72.0,0.004307860042899847
80.0,0.0034410739317536354
88.0,0.0029440918006002903
96.0,0.002684263978153467
104.0,0.002579434309154749
112.0,0.0025716086383908987
120.0,0.002228998811915517
128.0,0.001821307116188109
144.0,0.0013586606364697218
160.0,0.0008568387129344046
176.0,0.00033202889608219266
192.0,0.0001407914242008701
208.0,0.0003936016873922199
224.0,0.0005567699554376304
240.0,0.0007979408255778253
256.0,0.0010671508498489857
288.0,0.0018342438852414489
320.0,0.0032665079925209284
352.0,0.0032009121496230364
384.0,0.0022089993581175804
416.0,0.0011245554778724909
448.0,0.0007650271290913224
480.0,0.0004060480569023639
512.0,0.00027301337104290724
576.0,0.00033895994420163333
640.0,0.00013224642316345125
704.0,-4.1187606257153675e-05
768.0,-0.0011366551043465734
832.0,-0.0011600980069488287
896.0,-0.0005707058007828891
960.0,-0.00011731618724297732
1024.0,0.0005695786094292998
1152.0,-0.0001006920138024725
1280.0,0.0006972376722842455
1408.0,0.00012740698002744466
1536.0,0.00021558591106440872
1664.0,-0.000543264439329505
1792.0,-0.0011069743195548654
1920.0,0.00027730147121474147
2048.0,0.0003180452040396631
2304.0,0.0010396671714261174
2560.0,0.00015380809782072902
2816.0,0.0004615895450115204
3072.0,0.0002764963428489864
3328.0,0.0011519038816913962
3584.0,0.0004169965104665607
3840.0,6.743869744241238e-05
4096.0,-0.0013190320460125804
4608.0,-0.001688535325229168
5120.0,-0.0009573240531608462
5632.0,-0.0010328877251595259
6144.0,0.0010441715130582452
6656.0,0.0007220724946819246
7168.0,-0.001677165855653584
7680.0,-0.0012346588773652911
8192.0,-0.0007698723929934204
9216.0,-0.00022364901087712497
10240.0,0.00039094651583582163
11264.0,-0.0003683988470584154
12288.0,0.0009767943993210793
13312.0,0.0003838356351479888
14336.0,-0.0018062228336930275
end
