version,3.0
numOfCh,1
type,point
parent_name,100-cuts
ch_type,1_1
kcount,1
numberNandB,1
brightnessNandB,1
carpet pos,0
pc,0
Time (ms),CH1 Auto-Correlation
1.0,0.07295935600996017
2.0,0.0711287409067154
3.0,0.06937791407108307
4.0,0.06773223727941513
5.0,0.06618931889533997
6.0,0.0646635890007019
7.0,0.06321071833372116
8.0,0.06185395270586014
9.0,0.06057238206267357
10.0,0.05930871143937111
11.0,0.05808419734239578
12.0,0.05684952437877655
13.0,0.05565393343567848
14.0,0.054484087973833084
15.0,0.05333808436989784
16.0,0.05221430957317352
18.0,0.050023820251226425
20.0,0.04802176356315613
22.0,0.04619646444916725
24.0,0.04445379972457886
26.0,0.0427943617105484
28.0,0.04119529202580452
30.0,0.03965894877910614
32.0,0.03821025788784027
36.0,0.03565109893679619
40.0,0.033166270703077316
44.0,0.03085176832973957
48.0,0.028782356530427933
52.0,0.026861494407057762
56.0,0.025060463696718216
60.0,0.02348514273762703
64.0,0.021632475778460503
72.0,0.018414800986647606
80.0,0.01562478207051754
88.0,0.013128452003002167
96.0,0.011359553784132004
104.0,0.009907407686114311
112.0,0.00878941547125578
120.0,0.007951823994517326
128.0,0.007567000109702349
144.0,0.008241797797381878
160.0,0.009777172468602657
176.0,0.010323196649551392
192.0,0.009244329296052456
208.0,0.008106223307549953
224.0,0.007126139011234045
240.0,0.006872506812214851
256.0,0.005771218799054623
288.0,0.003876420669257641
320.0,0.004180672578513622
352.0,0.00278856442309916
384.0,-0.001449102652259171
416.0,-0.00016092552687041461
448.0,0.0006418969132937491
480.0,-0.00211811950430274
512.0,-0.006986736319959164
576.0,-0.007647050078958273
640.0,-0.004316144157201052
704.0,-0.005945560988038778
768.0,-0.008061829023063183
832.0,-0.007972252555191517
896.0,-0.0034907341469079256
960.0,-0.00014465890126302838
1024.0,0.0008372563752345741
1152.0,-0.00516979955136776
1280.0,-0.003616559552028775
1408.0,-0.001567884930409491
1536.0,-0.004861924331635237
1664.0,-0.0005219678860157728
1792.0,0.0016380100278183818
1920.0,0.0021618937607854605
2048.0,0.004520167596638203
2304.0,0.004755321890115738
2560.0,-0.0006334998179227114
2816.0,-0.002194069791585207
3072.0,-0.0003032671520486474
3328.0,-0.0036889309994876385
3584.0,-0.003102394985035062
3840.0,-0.005556635558605194
4096.0,0.0001795100688468665
4608.0,0.0012374114012345672
5120.0,-0.0028452298138290644
5632.0,-0.000439162744442001
6144.0,0.003126518102362752
6656.0,0.0031978015322238207
7168.0,-0.003579067764803767
7680.0,0.0033752648159861565
8192.0,0.004149742890149355
9216.0,-0.007240057457238436
10240.0,0.003667714074254036
11264.0,-0.006680826190859079
12288.0,0.0016030181432142854
13312.0,0.002050523180514574
14336.0,-0.00012766025611199439
end
