version,3.0
numOfCh,1
type,point
parent_name,100-cuts
ch_type,1_1
kcount,1
numberNandB,1
brightnessNandB,1
carpet pos,0
pc,0
Time (ms),CH1 Auto-Correlation
1.0,0.03279723599553108
2.0,0.03203725069761276
3.0,0.03128639608621597
4.0,0.03056865744292736
5.0,0.029875554144382477
6.0,0.02922612987458706
7.0,0.028609726577997208
8.0,0.02800772339105606
9.0,0.027431458234786987
10.0,0.026880592107772827
11.0,0.026332363486289978
12.0,0.025785822421312332
13.0,0.025260424241423607
14.0,0.024763159453868866
15.0,0.024293914437294006
16.0,0.023828445002436638
18.0,0.02295682393014431
20.0,0.022161385044455528
22.0,0.021448364481329918
24.0,0.020750174298882484
26.0,0.020073486492037773
28.0,0.01941710151731968
30.0,0.018763769418001175
32.0,0.018127046525478363
36.0,0.01702303998172283
40.0,0.015991393476724625
44.0,0.014997276477515697
48.0,0.014070955105125904
52.0,0.01326171588152647
56.0,0.012580360285937786
60.0,0.0119496900588274
64.0,0.011290902271866798
72.0,0.009996747598052025
80.0,0.008890249766409397
88.0,0.007703996729105711
96.0,0.006570322439074516
104.0,0.005765586160123348
112.0,0.005244474392384291
120.0,0.004518983885645866
128.0,0.0038984951097518206
144.0,0.0031254682689905167
160.0,0.0023057085927575827
176.0,0.0008460197714157403
192.0,0.00032580617698840797
208.0,-9.633766603656113e-05
224.0,-0.0003099829482380301
240.0,-0.0006187445251271129
256.0,-0.0011290181428194046
288.0,-0.0014974272344261408
320.0,-0.0011717856395989656
352.0,-0.0006309241871349514
384.0,-0.0001746156922308728
416.0,8.400047227041796e-05
448.0,-0.0007398445159196854
480.0,-0.00135688460431993
512.0,-0.0007094913744367659
576.0,0.0016851014224812388
640.0,0.001764888409525156
704.0,0.000955908210016787
768.0,-0.0006528205703943968
832.0,-0.001260749064385891
896.0,-0.0018522414611652493
960.0,-0.0010882783681154251
1024.0,-6.962683255551383e-05
1152.0,-0.0002510944614186883
1280.0,0.00015570713730994612
1408.0,-0.001376328058540821
1536.0,-0.0012847825419157743
1664.0,0.0007587753934785724
1792.0,0.00022973783779889345
1920.0,-0.0015972355613484979
2048.0,-0.0015466160839423537
2304.0,0.0009207283146679401
2560.0,-0.0006710843881592155
2816.0,-7.865962834330276e-05
3072.0,0.000615528435446322
3328.0,0.0006174059817567468
3584.0,-0.002488767961040139
3840.0,-0.002858012216165662
4096.0,-5.957999746897258e-05
4608.0,-0.0031363950110971928
5120.0,0.0025504238437861204
5632.0,-0.0008012444013729692
6144.0,0.00247157528065145
6656.0,-0.0036643045023083687
7168.0,-0.000858161598443985
7680.0,0.0009110458195209503
8192.0,0.002580508589744568
9216.0,0.0006195633905008435
10240.0,0.0012540161842480302
11264.0,-0.0005278916214592755
12288.0,-0.0043887547217309475
13312.0,0.0009502495522610843
14336.0,0.0015907628694549203
end
