version,3.0
numOfCh,1
type,point
parent_name,100-cuts
ch_type,1_1
kcount,1
numberNandB,1
brightnessNandB,1
carpet pos,0
pc,0
Time (ms),CH1 Auto-Correlation
1.0,0.06586840003728867
2.0,0.06418128311634064
3.0,0.06257376074790955
4.0,0.06101470813155174
5.0,0.059459902346134186
6.0,0.057940926402807236
7.0,0.05649510771036148
8.0,0.05508805811405182
9.0,0.05373276770114899
10.0,0.05239689350128174
11.0,0.051055703312158585
12.0,0.049786198884248734
13.0,0.04861154034733772
14.0,0.04743439331650734
15.0,0.04633059725165367
16.0,0.04527971148490906
18.0,0.04318024218082428
20.0,0.04112301021814346
22.0,0.03912196680903435
24.0,0.03721863403916359
26.0,0.03548698127269745
28.0,0.033897340297698975
30.0,0.03237835690379143
32.0,0.030959205701947212
36.0,0.028291339054703712
40.0,0.025975452736020088
44.0,0.023891521617770195
48.0,0.021819062530994415
52.0,0.019962981343269348
56.0,0.01826147921383381
60.0,0.01667548343539238
64.0,0.014944399707019329
72.0,0.012102887034416199
80.0,0.009650491178035736
88.0,0.0077800811268389225
96.0,0.006324542220681906
104.0,0.0052561950869858265
112.0,0.004832356236875057
120.0,0.0044427900575101376
128.0,0.004131023306399584
144.0,0.0024280413053929806
160.0,0.0015745009295642376
176.0,0.0006557248998433352
192.0,-0.0007952979649417102
208.0,-0.002560690511018038
224.0,-0.003407189389690757
240.0,-0.0034661334939301014
256.0,-0.0035168698523193598
288.0,-0.003276860574260354
320.0,-0.0009050352382473648
352.0,-0.0008748875115998089
384.0,-0.003663458628579974
416.0,-0.0070512378588318825
448.0,-0.009090649895370007
480.0,-0.008543838746845722
512.0,-0.005391015205532312
576.0,0.00125016737729311
640.0,0.0024328017607331276
704.0,0.0038024350069463253
768.0,0.0017733003478497267
832.0,0.0013108800631016493
896.0,0.006033293902873993
960.0,0.004662211053073406
1024.0,-0.0002578362764324993
1152.0,-0.0009170282282866538
1280.0,-0.0019398366566747427
1408.0,-0.004700106102973223
1536.0,0.0004828634555451572
1664.0,-0.0024583465419709682
1792.0,0.0005274845170788467
1920.0,-0.0018738718936219811
2048.0,0.002573814243078232
2304.0,-0.0009849652415141463
2560.0,0.0022878474555909634
2816.0,0.002243389841169119
3072.0,-0.0014122044667601585
3328.0,0.0015910784713923931
3584.0,0.002723467303439975
3840.0,-0.00034588060225360096
4096.0,0.0038917292840778828
4608.0,-0.0023886379785835743
5120.0,-0.0009343235869891942
5632.0,-0.0019205218413844705
6144.0,0.00315025239251554
6656.0,0.00031697365920990705
7168.0,0.0010254201479256153
7680.0,-0.0021412628702819347
8192.0,-0.0017500834073871374
9216.0,-0.0007020647753961384
10240.0,0.0009696191409602761
11264.0,-0.0026718450244516134
12288.0,-0.0009476495906710625
13312.0,-0.002134394831955433
14336.0,-0.002850391436368227
end
