version,3.0
numOfCh,1
type,point
parent_name,100-cuts
ch_type,1_1
kcount,1
numberNandB,1
brightnessNandB,1
carpet pos,0
pc,0
Time (ms),CH1 Auto-Correlation
1.0,0.03346563130617142
2.0,0.03268902748823166
3.0,0.0319538414478302
4.0,0.031227847561240196
5.0,0.030524473637342453
6.0,0.02985091507434845
7.0,0.0291975699365139
8.0,0.02859455719590187
9.0,0.02800910547375679
10.0,0.027435051277279854
11.0,0.02687549591064453
12.0,0.02633015438914299
13.0,0.025802897289395332
14.0,0.025283047929406166
15.0,0.024770133197307587
16.0,0.024278976023197174
18.0,0.02333499677479267
20.0,0.0224588792771101
22.0,0.02160557545721531
24.0,0.02076045237481594
26.0,0.019975196570158005
28.0,0.019250277429819107
30.0,0.01856178045272827
32.0,0.017895689234137535
36.0,0.01675020158290863
40.0,0.01572163589298725
44.0,0.014795233495533466
48.0,0.013904818333685398
52.0,0.013194636441767216
56.0,0.012584480457007885
60.0,0.012086637318134308
64.0,0.011544781737029552
72.0,0.01036055851727724
80.0,0.00943048857152462
88.0,0.008721493184566498
96.0,0.008091423660516739
104.0,0.007479365915060043
112.0,0.006696194410324097
120.0,0.005919483955949545
128.0,0.005261235870420933
144.0,0.0046661291271448135
160.0,0.0044557685032486916
176.0,0.004247384145855904
192.0,0.0032608855981379747
208.0,0.0026188481133431196
224.0,0.001835656468756497
240.0,0.0017254858976230025
256.0,0.0014210812514647841
288.0,0.0011974222725257277
320.0,0.0017245778581127524
352.0,0.0013331212103366852
384.0,0.0015086636412888765
416.0,0.001282510464079678
448.0,0.0013741066213697195
480.0,0.002589023904874921
512.0,0.0021011577919125557
576.0,-0.0006984201609157026
640.0,-0.001727071008644998
704.0,-0.002702934667468071
768.0,-0.001870283274911344
832.0,-0.0013065730454400182
896.0,-0.0016521743964403868
960.0,-0.0016707931645214558
1024.0,-0.000301545747788623
1152.0,-0.0015818849205970764
1280.0,0.001083688111975789
1408.0,0.003029246348887682
1536.0,0.0037254777271300554
1664.0,0.0038957770448178053
1792.0,0.0019037526799365878
1920.0,0.00018237090262118727
2048.0,0.00042199480230920017
2304.0,-0.0032610564958304167
2560.0,-0.0007676958339288831
2816.0,-0.0014181346632540226
3072.0,0.00044766240171156824
3328.0,0.0019055473385378718
3584.0,0.0010151772294193506
3840.0,-0.0017615975812077522
4096.0,0.00020242956816218793
4608.0,0.0010888971155509353
5120.0,0.00156639632768929
5632.0,0.0007754486869089305
6144.0,-0.0004006439703516662
6656.0,-0.0007424332434311509
7168.0,-0.003116498002782464
7680.0,-0.002174845663830638
8192.0,-0.0015767033910378814
9216.0,0.0017319538164883852
10240.0,-0.0015318130608648062
11264.0,-0.00222788960672915
12288.0,-0.0008840146474540234
13312.0,-0.002753515960648656
14336.0,0.0015541577013209462
end
