version,3.0
numOfCh,1
type,point
parent_name,100-cuts
ch_type,1_1
kcount,1
numberNandB,1
brightnessNandB,1
carpet pos,0
pc,0
Time (ms),CH1 Auto-Correlation
1.0,0.06447643041610718
2.0,0.06288176774978638
3.0,0.061316750943660736
4.0,0.05981680005788803
5.0,0.05840233713388443
6.0,0.05704678222537041
7.0,0.05574867129325867
8.0,0.05455890670418739
9.0,0.053417060524225235
10.0,0.05227648466825485
11.0,0.051186855882406235
12.0,0.05009830743074417
13.0,0.04905771091580391
14.0,0.048083897680044174
15.0,0.04711373150348663
16.0,0.04620140418410301
18.0,0.04449746757745743
20.0,0.04291468858718872
22.0,0.04147716984152794
24.0,0.04008166491985321
26.0,0.03881353139877319
28.0,0.03764227032661438
30.0,0.03649992495775223
32.0,0.03535939007997513
36.0,0.03321322426199913
40.0,0.031076448038220406
44.0,0.029093604534864426
48.0,0.027410725131630898
52.0,0.026110615581274033
56.0,0.02463497966527939
60.0,0.02312888391315937
64.0,0.021839018911123276
72.0,0.019845735281705856
80.0,0.01831621490418911
88.0,0.016288915649056435
96.0,0.013960473239421844
104.0,0.011955819092690945
112.0,0.010505612939596176
120.0,0.009044257923960686
128.0,0.008280906826257706
144.0,0.008179089054465294
160.0,0.007614737842231989
176.0,0.006981566082686186
192.0,0.007366579957306385
208.0,0.00638274010270834
224.0,0.0045801857486367226
240.0,0.003579979296773672
256.0,0.003480684943497181
288.0,0.0032395015005022287
320.0,0.002048964612185955
352.0,0.001080300542525947
384.0,-0.00042569366632960737
416.0,-0.00046052385005168617
448.0,-0.001142439665272832
480.0,-0.0007977189379744232
512.0,-0.0016153334872797132
576.0,-2.301894028278184e-06
640.0,0.002383788349106908
704.0,0.002970620756968856
768.0,0.002655438147485256
832.0,-0.001256613410077989
896.0,-0.0021955566480755806
960.0,0.002556435065343976
1024.0,0.0009829207556322217
1152.0,-0.005261342041194439
1280.0,-0.007740610744804144
1408.0,-0.008907019160687923
1536.0,-0.0018441482679918408
1664.0,0.0023678834550082684
1792.0,0.0012457076227292418
1920.0,0.0023549888283014297
2048.0,-0.0009960548486560583
2304.0,0.0006122422055341303
2560.0,-0.0011012948816642165
2816.0,0.0022512180730700493
3072.0,-0.0004998795920982957
3328.0,0.0030327034182846546
3584.0,-0.0009776079095900059
3840.0,0.0031114360317587852
4096.0,0.002715325215831399
4608.0,-0.0029029850848019123
5120.0,-0.001704320078715682
5632.0,-0.002211193786934018
6144.0,-0.00046476032002829015
6656.0,0.0018499816069379449
7168.0,0.004311694297939539
7680.0,-0.002319811610504985
8192.0,-0.0066858818754553795
9216.0,-0.0017227294156327844
10240.0,-0.00029447561246342957
11264.0,-0.0048577673733234406
12288.0,-0.0017444444820284843
13312.0,0.0029789528343826532
14336.0,0.0019647881854325533
end
