version,3.0
numOfCh,1
type,point
parent_name,100-cuts
ch_type,1_1
kcount,1
numberNandB,1
brightnessNandB,1
carpet pos,0
pc,0
Time (ms),CH1 Auto-Correlation
1.0,0.03177225962281227
2.0,0.03099522925913334
3.0,0.030236035585403442
4.0,0.02949007786810398
5.0,0.02875189296901226
6.0,0.028044607490301132
7.0,0.027354029938578606
8.0,0.026695985347032547
9.0,0.026048747822642326
10.0,0.02542280964553356
11.0,0.024838155135512352
12.0,0.0242764912545681
13.0,0.023716984316706657
14.0,0.023190122097730637
15.0,0.022691315039992332
16.0,0.02219584211707115
18.0,0.02124224416911602
20.0,0.020328020676970482
22.0,0.019454309716820717
24.0,0.018590129911899567
26.0,0.017830705270171165
28.0,0.017124926671385765
30.0,0.016472401097416878
32.0,0.015925131738185883
36.0,0.015083998441696167
40.0,0.014207885600626469
44.0,0.01333772111684084
48.0,0.012445366941392422
52.0,0.011669417843222618
56.0,0.010954789817333221
60.0,0.010330253280699253
64.0,0.00975789688527584
72.0,0.008667890913784504
80.0,0.007802707143127918
88.0,0.00694692088291049
96.0,0.0059915874153375626
104.0,0.005101020447909832
112.0,0.0042812335304915905
120.0,0.00377686507999897
128.0,0.0035628206096589565
144.0,0.0030119516886770725
160.0,0.002775326371192932
176.0,0.0019218275556340814
192.0,0.0008583503658883274
208.0,0.00011382210504962131
224.0,-0.00045032831258140504
240.0,-0.0011886165011674166
256.0,-0.0019317611586302519
288.0,-0.002826443174853921
320.0,-0.002866370603442192
352.0,-0.003190018469467759
384.0,-0.0032078924123197794
416.0,-0.0027230754494667053
448.0,-0.0023912640754133463
480.0,-0.0013365318300202489
512.0,-0.001052533509209752
576.0,0.0004077585763297975
640.0,0.0006099250167608261
704.0,-0.0008537254761904478
768.0,-0.00030227095703594387
832.0,-0.0012466611806303263
896.0,-0.001209955895319581
960.0,0.0009412554791197181
1024.0,0.0015381152043119073
1152.0,0.0005999298300594091
1280.0,-0.0005657107685692608
1408.0,-0.0007014854927547276
1536.0,0.00013118149945512414
1664.0,-0.00043911562534049153
1792.0,-0.00163261650595814
1920.0,-0.002577146515250206
2048.0,-0.00012404000153765082
2304.0,0.00032470529549755156
2560.0,0.001292004599235952
2816.0,-0.0011192506644874811
3072.0,-9.581969061400741e-05
3328.0,-0.0013689388288185
3584.0,-0.00157112383749336
3840.0,-0.0009404043084941804
4096.0,-0.0019392598187550902
4608.0,0.0018815217772498727
5120.0,0.0009912835666909814
5632.0,-0.0002909962786361575
6144.0,0.00026287283981218934
6656.0,0.00021765497513115406
7168.0,-0.00024232490977738053
7680.0,-0.0006011280347593129
8192.0,-0.0014308240497484803
9216.0,8.852609607856721e-05
10240.0,0.00025221711257472634
11264.0,-3.6592919059330598e-06
12288.0,0.0005801816587336361
13312.0,-0.0024145091883838177
14336.0,0.0018876608228310943
end
