version,3.0
numOfCh,1
type,point
parent_name,100-cuts
ch_type,1_1
kcount,1
numberNandB,1
brightnessNandB,1
carpet pos,0
pc,0
Time (ms),CH1 Auto-Correlation
1.0,0.06821433454751968
2.0,0.06660828739404678
3.0,0.06505011022090912
4.0,0.06355380266904831
5.0,0.06210138648748398
6.0,0.06072776019573212
7.0,0.05938233807682991
8.0,0.058104079216718674
9.0,0.05684962868690491
10.0,0.05564840883016586
11.0,0.05441389977931976
12.0,0.05323111638426781
13.0,0.052043378353118896
14.0,0.05089492350816727
15.0,0.04978290945291519
16.0,0.048731476068496704
18.0,0.04680835083127022
20.0,0.0450764000415802
22.0,0.0434807613492012
24.0,0.04196576774120331
26.0,0.04050757363438606
28.0,0.03908951207995415
30.0,0.037804510444402695
32.0,0.036527108401060104
36.0,0.034045103937387466
40.0,0.031714603304862976
44.0,0.02961667999625206
48.0,0.02761945314705372
52.0,0.025969110429286957
56.0,0.024658584967255592
60.0,0.02382671646773815
64.0,0.023177608847618103
72.0,0.022023772820830345
80.0,0.020865775644779205
88.0,0.019731516018509865
96.0,0.01873798295855522
104.0,0.017853019759058952
112.0,0.01697522960603237
120.0,0.015610875561833382
128.0,0.014120792970061302
144.0,0.01101208571344614
160.0,0.009433059953153133
176.0,0.009167931042611599
192.0,0.008250749669969082
208.0,0.007149083074182272
224.0,0.007433202583342791
240.0,0.007423883303999901
256.0,0.0062987613491714
288.0,0.003921587485820055
320.0,0.0021632446441799402
352.0,0.002971248934045434
384.0,0.003943680785596371
416.0,0.0040887161158025265
448.0,0.007023302838206291
480.0,0.0076786819845438
512.0,0.007371009327471256
576.0,0.010172056965529919
640.0,0.011002185754477978
704.0,0.007297664415091276
768.0,0.007452954072505236
832.0,0.007176675833761692
896.0,0.0074395849369466305
960.0,0.005250922404229641
1024.0,0.0038438085466623306
1152.0,0.006238167639821768
1280.0,0.009444422088563442
1408.0,0.007355916313827038
1536.0,0.001968523021787405
1664.0,-0.0011248805094510317
1792.0,0.0005102746654301882
1920.0,0.0012551227118819952
2048.0,0.003556220792233944
2304.0,-0.004092761315405369
2560.0,-0.005780004896223545
2816.0,-0.00040173731395043433
3072.0,-0.008806386962532997
3328.0,-0.007475709542632103
3584.0,-0.0084702642634511
3840.0,-0.003971543163061142
4096.0,-0.003524316009134054
4608.0,-0.003100550500676036
5120.0,-0.0033268423285335302
5632.0,-0.0032059024088084698
6144.0,-0.0019196702633053064
6656.0,-0.0008899939130060375
7168.0,-0.0042077600955963135
7680.0,-0.0037889424711465836
8192.0,-0.007069359999150038
9216.0,-0.0007277535041794181
10240.0,0.004184029530733824
11264.0,0.011430353857576847
12288.0,0.009484282694756985
13312.0,0.0004471404536161572
14336.0,-0.011013480834662914
end
