version,3.0
numOfCh,1
type,point
parent_name,0cd20_10dot0-0dot1
ch_type,1_1
kcount,1
numberNandB,1
brightnessNandB,1
carpet pos,0
pc,0
Time (ms),CH1 Auto-Correlation
1.0,0.04478505253791809
2.0,0.03695482388138771
3.0,0.032277148216962814
4.0,0.02899494767189026
5.0,0.026605337858200073
6.0,0.025263754650950432
7.0,0.023730402812361717
8.0,0.02304004691541195
9.0,0.022420573979616165
10.0,0.021547047421336174
11.0,0.021021747961640358
12.0,0.020699258893728256
13.0,0.0200927946716547
14.0,0.0195628609508276
15.0,0.018747247755527496
16.0,0.018064189702272415
18.0,0.01659076288342476
20.0,0.015577264130115509
22.0,0.014831428416073322
24.0,0.014430241659283638
26.0,0.013996418565511703
28.0,0.012919855304062366
30.0,0.012274316512048244
32.0,0.012300952337682247
36.0,0.010353530757129192
40.0,0.009025931358337402
44.0,0.0077584534883499146
48.0,0.007148008793592453
52.0,0.005670249927788973
56.0,0.004982445854693651
60.0,0.003932191990315914
64.0,0.003302305703982711
72.0,0.0020661756861954927
80.0,0.0004951360751874745
88.0,0.0008802682859823108
96.0,0.0018143513007089496
104.0,0.003065264318138361
112.0,0.003668905468657613
120.0,0.0044464231468737125
128.0,0.0061524854972958565
144.0,0.006308902520686388
160.0,0.005296740680932999
176.0,0.004183140583336353
192.0,0.0036285154055804014
208.0,0.0020912166219204664
224.0,2.312925789738074e-05
240.0,-0.0008043721900321543
256.0,-0.0019289168994873762
288.0,0.000287541130091995
320.0,0.0020838589407503605
352.0,0.001290398882701993
384.0,-0.0008947451715357602
416.0,-0.0013908444670960307
448.0,-0.001833199174143374
480.0,-0.0008097763056866825
512.0,-0.0003219045465812087
576.0,-0.0006668469286523759
640.0,-0.000781406881287694
704.0,0.0022304735612124205
768.0,0.0037671285681426525
832.0,0.003073503263294697
896.0,0.0029647396877408028
960.0,0.001018367474898696
1024.0,0.0008075541700236499
1152.0,0.00042575038969516754
1280.0,-0.00012637100007850677
1408.0,-0.00016177300130948424
1536.0,0.0007012623245827854
1664.0,0.0014279924798756838
1792.0,0.0003148989344481379
1920.0,-0.00022320753487292677
2048.0,-0.00015134816931094974
2304.0,-0.0005310383858159184
2560.0,-0.00017498410306870937
2816.0,-0.00033044861629605293
3072.0,-0.0003107836237177253
3328.0,-0.0006268059951253235
3584.0,-0.0013336024712771177
3840.0,-0.0003614348534028977
4096.0,0.0003428191121201962
4608.0,-0.0005194414989091456
5120.0,0.0003636070468928665
5632.0,0.0005314865265972912
6144.0,-0.0025650125462561846
6656.0,0.0006394110387191176
7168.0,-0.0029425909742712975
7680.0,-0.0018924588803201914
8192.0,-0.0011393270688131452
end
