version,3.0
numOfCh,1
type,point
parent_name,0cd20_10dot0-0dot1
ch_type,1_1
kcount,1
numberNandB,1
brightnessNandB,1
carpet pos,0
pc,0
Time (ms),CH1 Auto-Correlation
1.0,0.026784123852849007
2.0,0.01941004768013954
3.0,0.014956106431782246
4.0,0.012688547372817993
5.0,0.010956406593322754
6.0,0.00917039904743433
7.0,0.0076225451193749905
8.0,0.006282161455601454
9.0,0.005691122729331255
10.0,0.005371701903641224
11.0,0.004851474426686764
12.0,0.004763349890708923
13.0,0.0044542718678712845
14.0,0.004274450708180666
15.0,0.0036370952147990465
16.0,0.0030612144619226456
18.0,0.0029667287599295378
20.0,0.0026652736123651266
22.0,0.0024335188791155815
24.0,0.0025348938070237637
26.0,0.002369076246395707
28.0,0.0016718260012567043
30.0,0.0010606682626530528
32.0,0.0006214582244865596
36.0,0.0007727866759523749
40.0,0.000339494610670954
44.0,0.0004615392826963216
48.0,0.000858037150464952
52.0,-2.372546987317037e-05
56.0,-0.0008745373925194144
60.0,-0.0004072642477694899
64.0,0.00031235921778716147
72.0,0.0008363185916095972
80.0,0.00034554838202893734
88.0,0.00025857530999928713
96.0,0.000250316719757393
104.0,-0.0004503116069827229
112.0,0.0002758762857411057
120.0,-0.00024617501185275614
128.0,6.923839100636542e-05
144.0,-0.0004985079285688698
160.0,-0.00034009679802693427
176.0,0.0005937172099947929
192.0,0.0005097422399558127
208.0,0.00030010007321834564
224.0,-0.00017891255265567452
240.0,-1.7477828805567697e-05
256.0,-6.843033042969182e-05
288.0,0.00036410745815373957
320.0,0.00040403372258879244
352.0,7.932406151667237e-05
384.0,-0.0007579372031614184
416.0,-0.00055913400137797
448.0,-0.00013617321383208036
480.0,0.00013638018572237343
512.0,8.740295743336901e-05
576.0,0.0004100736987311393
640.0,0.0005976488464511931
704.0,0.00043701566755771637
768.0,0.00014157140685711056
832.0,-0.00038427257095463574
896.0,-0.00013378671428654343
960.0,0.0003541402402333915
1024.0,0.00025185226695612073
1152.0,0.0005929058534093201
1280.0,0.0005264445208013058
1408.0,-0.00020198069978505373
1536.0,-2.2809574602433713e-06
1664.0,-0.0005621342570520937
1792.0,0.00013928920088801533
1920.0,-2.0421908629941754e-05
2048.0,-0.00022873333364259452
2304.0,-3.475444464129396e-05
2560.0,-2.622478496050462e-05
2816.0,-0.0003353965876158327
3072.0,-0.00016459541802760214
3328.0,-0.00021217028552200645
3584.0,-0.0003519577730912715
3840.0,-0.00029302449547685683
4096.0,-8.95787452463992e-05
4608.0,-0.00017699477029964328
5120.0,0.00019230590260121971
5632.0,0.0002461945405229926
6144.0,-0.00013038938050158322
6656.0,0.00012718663492705673
7168.0,-0.0002837315551005304
7680.0,-4.9967242375714704e-05
8192.0,4.923580490867607e-05
end
