version,3.0
numOfCh,1
type,point
parent_name,dirty_1dot0-0dot1
ch_type,1_1
kcount,1
numberNandB,1
brightnessNandB,1
carpet pos,0
pc,0
Time (ms),CH1 Auto-Correlation
1.0,0.7796032428741455
2.0,0.7661586999893188
3.0,0.7536265254020691
4.0,0.7409332394599915
5.0,0.7294445037841797
6.0,0.7189905047416687
7.0,0.7091116309165955
8.0,0.6990357637405396
9.0,0.6894869208335876
10.0,0.6809248924255371
11.0,0.6729294657707214
12.0,0.6654108166694641
13.0,0.6579791307449341
14.0,0.6509702801704407
15.0,0.644049346446991
16.0,0.635723352432251
18.0,0.6208177208900452
20.0,0.6085240244865417
22.0,0.5991408824920654
24.0,0.5915223360061646
26.0,0.5840207934379578
28.0,0.5782088041305542
30.0,0.5702947378158569
32.0,0.5598052740097046
36.0,0.5389200448989868
40.0,0.5177552700042725
44.0,0.49557825922966003
48.0,0.47243037819862366
52.0,0.44893842935562134
56.0,0.42631664872169495
60.0,0.40644702315330505
64.0,0.39108020067214966
72.0,0.3628581166267395
80.0,0.3336717188358307
88.0,0.30271387100219727
96.0,0.2903232276439667
104.0,0.2835162878036499
112.0,0.2748185992240906
120.0,0.2576649487018585
128.0,0.2390512079000473
144.0,0.20965540409088135
160.0,0.1804814487695694
176.0,0.1395576149225235
192.0,0.09787756949663162
208.0,0.07180966436862946
224.0,0.05860358849167824
240.0,0.03782401978969574
256.0,0.03299732506275177
288.0,0.023906374350190163
320.0,0.02590932697057724
352.0,0.039841387420892715
384.0,0.07227471470832825
416.0,0.09903975576162338
448.0,0.10633740574121475
480.0,0.09196200966835022
512.0,0.061567094177007675
576.0,0.03389433026313782
640.0,0.06183062493801117
704.0,0.06078484281897545
768.0,0.039823178201913834
832.0,0.02891114540398121
896.0,0.06113877519965172
960.0,0.0659312829375267
1024.0,0.04858161136507988
1152.0,0.033529140055179596
1280.0,0.019012950360774994
1408.0,0.012675372883677483
1536.0,-0.03131834790110588
1664.0,-0.027362899854779243
1792.0,0.01479556318372488
1920.0,0.0003486044588498771
2048.0,0.00560688367113471
2304.0,0.07616808265447617
2560.0,0.10935798287391663
2816.0,0.033609092235565186
3072.0,0.007945469580590725
3328.0,0.0005532106151804328
3584.0,-0.001044470234774053
3840.0,-0.028545603156089783
4096.0,0.018485762178897858
4608.0,0.1043674573302269
5120.0,0.07398201525211334
5632.0,0.05201045796275139
6144.0,-0.03781720995903015
6656.0,-0.042864371091127396
7168.0,-0.054306287318468094
7680.0,-0.044639844447374344
8192.0,-0.054967232048511505
9216.0,-0.06983039528131485
10240.0,-0.10443724691867828
11264.0,-0.07990270853042603
12288.0,-0.0854271724820137
13312.0,-0.05088236927986145
14336.0,-0.13845571875572205
end
