version,3.0
numOfCh,1
type,point
parent_name,dirty_1dot0-0dot1
ch_type,1_1
kcount,1
numberNandB,1
brightnessNandB,1
carpet pos,0
pc,0
Time (ms),CH1 Auto-Correlation
1.0,1.5594691038131714
2.0,1.5440621376037598
3.0,1.528058648109436
4.0,1.5121904611587524
5.0,1.4965049028396606
6.0,1.481449842453003
7.0,1.4671590328216553
8.0,1.4534257650375366
9.0,1.4400708675384521
10.0,1.4271409511566162
11.0,1.4147694110870361
12.0,1.4033863544464111
13.0,1.3919651508331299
14.0,1.3809797763824463
15.0,1.370277762413025
16.0,1.3593065738677979
18.0,1.337031364440918
20.0,1.31346595287323
22.0,1.2898343801498413
24.0,1.2679922580718994
26.0,1.2478716373443604
28.0,1.228459119796753
30.0,1.208968997001648
32.0,1.1881338357925415
36.0,1.1459133625030518
40.0,1.1028400659561157
44.0,1.062470555305481
48.0,1.0256552696228027
52.0,0.9893972873687744
56.0,0.9543670415878296
60.0,0.9179506897926331
64.0,0.8854040503501892
72.0,0.8302105069160461
80.0,0.7778699994087219
88.0,0.7298875451087952
96.0,0.6817260384559631
104.0,0.6475304365158081
112.0,0.6084811091423035
120.0,0.5727635622024536
128.0,0.5311267375946045
144.0,0.4600217640399933
160.0,0.39215222001075745
176.0,0.3309406638145447
192.0,0.29800745844841003
208.0,0.2894713580608368
224.0,0.2993326485157013
240.0,0.31355082988739014
256.0,0.32932689785957336
288.0,0.32765740156173706
320.0,0.3387278616428375
352.0,0.32573434710502625
384.0,0.30734649300575256
416.0,0.2901807427406311
448.0,0.26417285203933716
480.0,0.2513832449913025
512.0,0.22661228477954865
576.0,0.10874494165182114
640.0,0.03620055690407753
704.0,-0.03218022361397743
768.0,-0.06660345941781998
832.0,-0.11027586460113525
896.0,-0.11954952031373978
960.0,-0.13270187377929688
1024.0,-0.05293974652886391
1152.0,0.0190426018089056
1280.0,-0.043821852654218674
1408.0,-0.1440621316432953
1536.0,-0.07296625524759293
1664.0,-0.06810660660266876
1792.0,-0.07898653298616409
1920.0,-0.03760796785354614
2048.0,-0.012963497079908848
2304.0,-0.013250000774860382
2560.0,0.010431507602334023
2816.0,-0.05467718467116356
3072.0,-0.07152021676301956
3328.0,-0.051591310650110245
3584.0,-0.10560134798288345
3840.0,-0.08185416460037231
4096.0,-0.019522855058312416
4608.0,0.15212509036064148
5120.0,-0.02602328173816204
5632.0,0.110997274518013
6144.0,0.185597762465477
6656.0,-0.12043820321559906
7168.0,-0.27730512619018555
7680.0,-0.22492371499538422
8192.0,0.031071651726961136
9216.0,-0.1290440708398819
10240.0,-0.0436554029583931
11264.0,0.07863575220108032
12288.0,-0.2187395989894867
13312.0,0.012893956154584885
14336.0,0.22755874693393707
end
