version,3.0
numOfCh,1
type,point
parent_name,dirty_1dot0-0dot1
ch_type,1_1
kcount,1
numberNandB,1
brightnessNandB,1
carpet pos,0
pc,0
Time (ms),CH1 Auto-Correlation
1.0,1.774651050567627
2.0,1.758948802947998
3.0,1.7430309057235718
4.0,1.7274625301361084
5.0,1.7121723890304565
6.0,1.6965243816375732
7.0,1.6820284128189087
8.0,1.6679120063781738
9.0,1.6544359922409058
10.0,1.6414992809295654
11.0,1.6278767585754395
12.0,1.614628553390503
13.0,1.6018739938735962
14.0,1.5889055728912354
15.0,1.576831340789795
16.0,1.5651673078536987
18.0,1.5441538095474243
20.0,1.5237544775009155
22.0,1.5020235776901245
24.0,1.479588508605957
26.0,1.4559588432312012
28.0,1.4330934286117554
30.0,1.4113359451293945
32.0,1.390428900718689
36.0,1.3508306741714478
40.0,1.3176219463348389
44.0,1.2832651138305664
48.0,1.2458809614181519
52.0,1.2063193321228027
56.0,1.1658754348754883
60.0,1.1305060386657715
64.0,1.0960495471954346
72.0,1.0314459800720215
80.0,0.9688204526901245
88.0,0.9157288670539856
96.0,0.8742485046386719
104.0,0.8347375988960266
112.0,0.8031348586082458
120.0,0.782076895236969
128.0,0.7631127238273621
144.0,0.730015218257904
160.0,0.6910489201545715
176.0,0.656704843044281
192.0,0.61971515417099
208.0,0.5898616313934326
224.0,0.5534236431121826
240.0,0.5207897424697876
256.0,0.47822514176368713
288.0,0.4127037227153778
320.0,0.3752339482307434
352.0,0.3551233112812042
384.0,0.33046072721481323
416.0,0.30643561482429504
448.0,0.2840147614479065
480.0,0.26964810490608215
512.0,0.2882783114910126
576.0,0.33668744564056396
640.0,0.3150075674057007
704.0,0.25751516222953796
768.0,0.20839571952819824
832.0,0.17376543581485748
896.0,0.16718000173568726
960.0,0.21738190948963165
1024.0,0.28294119238853455
1152.0,0.3072405457496643
1280.0,0.16630898416042328
1408.0,0.12829580903053284
1536.0,0.05434088036417961
1664.0,-0.0033962668385356665
1792.0,-0.05602337419986725
1920.0,-0.06495386362075806
2048.0,-0.05159342288970947
2304.0,-0.027025481685996056
2560.0,-0.23513083159923553
2816.0,-0.29833555221557617
3072.0,-0.42835497856140137
3328.0,-0.4510517716407776
3584.0,-0.39806902408599854
3840.0,-0.34495964646339417
4096.0,-0.30741965770721436
4608.0,-0.3232000768184662
5120.0,-0.037671174854040146
5632.0,0.16618673503398895
6144.0,0.2386244535446167
6656.0,0.17567096650600433
7168.0,0.32823580503463745
7680.0,0.533690333366394
8192.0,0.23435969650745392
9216.0,-0.09719893336296082
10240.0,-0.36091428995132446
11264.0,-0.49447396397590637
12288.0,-0.31049761176109314
13312.0,0.08514725416898727
14336.0,0.32646411657333374
end
