version,3.0
numOfCh,1
type,point
parent_name,dirty_1dot0-0dot1
ch_type,1_1
kcount,1
numberNandB,1
brightnessNandB,1
carpet pos,0
pc,0
Time (ms),CH1 Auto-Correlation
1.0,0.48098430037498474
2.0,0.46720999479293823
3.0,0.4540650248527527
4.0,0.44318175315856934
5.0,0.43258047103881836
6.0,0.42097342014312744
7.0,0.4106513261795044
8.0,0.399750292301178
9.0,0.39019790291786194
10.0,0.3803640305995941
11.0,0.36982306838035583
12.0,0.3592231571674347
13.0,0.3492942154407501
14.0,0.33886975049972534
15.0,0.32892611622810364
16.0,0.3198460638523102
18.0,0.3040483593940735
20.0,0.2887047529220581
22.0,0.2732886075973511
24.0,0.25941935181617737
26.0,0.247152641415596
28.0,0.23728111386299133
30.0,0.2285403311252594
32.0,0.2214374840259552
36.0,0.21178510785102844
40.0,0.2064049243927002
44.0,0.20050062239170074
48.0,0.1941460222005844
52.0,0.1874387413263321
56.0,0.18053162097930908
60.0,0.17266196012496948
64.0,0.1624363511800766
72.0,0.13794758915901184
80.0,0.1213311031460762
88.0,0.11327245086431503
96.0,0.10736610740423203
104.0,0.10536740720272064
112.0,0.10573823750019073
120.0,0.09386339783668518
128.0,0.07876534759998322
144.0,0.06661783903837204
160.0,0.07783470302820206
176.0,0.07990390062332153
192.0,0.06711352616548538
208.0,0.0816587507724762
224.0,0.08831173926591873
240.0,0.05968248099088669
256.0,0.03753383457660675
288.0,0.025327401235699654
320.0,0.002747755264863372
352.0,-0.005267494358122349
384.0,-0.004521179478615522
416.0,-0.004777348600327969
448.0,0.00210034241899848
480.0,0.007403818890452385
512.0,-0.006691500078886747
576.0,-0.007425687741488218
640.0,-0.006240407936275005
704.0,-0.019150635227560997
768.0,-0.02525133267045021
832.0,-0.025783687829971313
896.0,-0.002077812096104026
960.0,-0.011884606443345547
1024.0,-0.01874966360628605
1152.0,-0.018738506361842155
1280.0,-0.02546287700533867
1408.0,-0.018281586468219757
1536.0,-0.023237379267811775
1664.0,-0.010859721340239048
1792.0,-0.018568750470876694
1920.0,-0.005626902915537357
2048.0,0.018633021041750908
2304.0,0.014656643383204937
2560.0,0.009012456052005291
2816.0,-0.008125515654683113
3072.0,-0.014692428521811962
3328.0,-0.016507821157574654
3584.0,-0.025053972378373146
3840.0,-0.005525261163711548
4096.0,0.008887427859008312
4608.0,0.04140578955411911
5120.0,-0.002182272495701909
5632.0,-0.0253677386790514
6144.0,-0.019345717504620552
6656.0,0.022156262770295143
7168.0,0.015280471183359623
7680.0,-0.02725118026137352
8192.0,-0.018439672887325287
9216.0,0.009135467931628227
10240.0,-0.010140730999410152
11264.0,-0.00799067784100771
12288.0,-0.04408564046025276
13312.0,0.043017614632844925
14336.0,0.003948752302676439
end
