version,3.0
numOfCh,1
type,point
parent_name,dirty_1dot0-0dot1
ch_type,1_1
kcount,1
numberNandB,1
brightnessNandB,1
carpet pos,0
pc,0
Time (ms),CH1 Auto-Correlation
1.0,1.4710335731506348
2.0,1.451720118522644
3.0,1.433074712753296
4.0,1.4141231775283813
5.0,1.3962370157241821
6.0,1.3797755241394043
7.0,1.3642642498016357
8.0,1.3489402532577515
9.0,1.3321720361709595
10.0,1.315434217453003
11.0,1.299384355545044
12.0,1.2840728759765625
13.0,1.2691326141357422
14.0,1.2548545598983765
15.0,1.24065363407135
16.0,1.2271193265914917
18.0,1.2025004625320435
20.0,1.1780974864959717
22.0,1.15422785282135
24.0,1.1315668821334839
26.0,1.1094061136245728
28.0,1.0874406099319458
30.0,1.0678611993789673
32.0,1.0498366355895996
36.0,1.0171046257019043
40.0,0.9896107912063599
44.0,0.9656939506530762
48.0,0.9428544044494629
52.0,0.9207794666290283
56.0,0.9014615416526794
60.0,0.8837255835533142
64.0,0.8683975338935852
72.0,0.8330029845237732
80.0,0.7928532958030701
88.0,0.7537952065467834
96.0,0.717090904712677
104.0,0.6854904890060425
112.0,0.658153235912323
120.0,0.6317824125289917
128.0,0.6056137084960938
144.0,0.5318117141723633
160.0,0.45432615280151367
176.0,0.40819746255874634
192.0,0.38020801544189453
208.0,0.37302860617637634
224.0,0.3386361002922058
240.0,0.2918008267879486
256.0,0.26613926887512207
288.0,0.22143253684043884
320.0,0.14478333294391632
352.0,0.11349012702703476
384.0,0.11818104982376099
416.0,0.10555645823478699
448.0,0.09033183008432388
480.0,0.10425411909818649
512.0,0.08190272003412247
576.0,0.08943915367126465
640.0,0.159002423286438
704.0,0.25770339369773865
768.0,0.25834327936172485
832.0,0.2630952000617981
896.0,0.2954544126987457
960.0,0.3719600439071655
1024.0,0.34832870960235596
1152.0,0.19940835237503052
1280.0,0.08979568630456924
1408.0,0.0061848401091992855
1536.0,-0.08813108503818512
1664.0,-0.08022689819335938
1792.0,0.01677333004772663
1920.0,0.05254111438989639
2048.0,0.11004222929477692
2304.0,-0.09573153406381607
2560.0,-0.0916794016957283
2816.0,0.04861865192651749
3072.0,0.10111448168754578
3328.0,-0.02521447464823723
3584.0,0.03378253057599068
3840.0,0.0525839664041996
4096.0,0.12702356278896332
4608.0,0.039063919335603714
5120.0,0.004813485313206911
5632.0,-0.08818180859088898
6144.0,-0.1704035997390747
6656.0,-0.21796594560146332
7168.0,-0.24875189363956451
7680.0,-0.09835722297430038
8192.0,0.048857931047677994
9216.0,0.06705870479345322
10240.0,-0.03867129981517792
11264.0,-0.21506911516189575
12288.0,-0.0660250261425972
13312.0,0.07663191854953766
14336.0,-0.4986479580402374
end
