version,3.0
numOfCh,1
type,point
parent_name,dirty_1dot0-0dot1
ch_type,1_1
kcount,1
numberNandB,1
brightnessNandB,1
carpet pos,0
pc,0
Time (ms),CH1 Auto-Correlation
1.0,1.5458896160125732
2.0,1.5291305780410767
3.0,1.5127230882644653
4.0,1.4961305856704712
5.0,1.4807015657424927
6.0,1.4662587642669678
7.0,1.4504505395889282
8.0,1.4352492094039917
9.0,1.4202731847763062
10.0,1.4065693616867065
11.0,1.3934509754180908
12.0,1.3794631958007812
13.0,1.3653693199157715
14.0,1.3498395681381226
15.0,1.3340396881103516
16.0,1.3196189403533936
18.0,1.289077877998352
20.0,1.257416009902954
22.0,1.2282849550247192
24.0,1.2009233236312866
26.0,1.1758968830108643
28.0,1.1518489122390747
30.0,1.1248775720596313
32.0,1.097370982170105
36.0,1.0421932935714722
40.0,0.9882574081420898
44.0,0.9321390986442566
48.0,0.8804940581321716
52.0,0.836205244064331
56.0,0.7986219525337219
60.0,0.7657102942466736
64.0,0.7361985445022583
72.0,0.6816403269767761
80.0,0.6284518241882324
88.0,0.5887241363525391
96.0,0.5547619462013245
104.0,0.5290793180465698
112.0,0.5108091235160828
120.0,0.5000633001327515
128.0,0.49060073494911194
144.0,0.48320814967155457
160.0,0.4866076409816742
176.0,0.4589405357837677
192.0,0.4146803915500641
208.0,0.3799992799758911
224.0,0.3538118898868561
240.0,0.31238889694213867
256.0,0.2971802055835724
288.0,0.3645603060722351
320.0,0.43816840648651123
352.0,0.4573059678077698
384.0,0.3721083402633667
416.0,0.25369688868522644
448.0,0.11612436175346375
480.0,0.07636162638664246
512.0,0.07871628552675247
576.0,0.06330688297748566
640.0,0.04975730553269386
704.0,0.014687677845358849
768.0,-0.03493814170360565
832.0,-0.07866447418928146
896.0,-0.09546802937984467
960.0,-0.0708099901676178
1024.0,-0.06417769938707352
1152.0,-0.09023752063512802
1280.0,-0.0988212376832962
1408.0,-0.11592395603656769
1536.0,-0.1263892650604248
1664.0,-0.12446075677871704
1792.0,-0.10227027535438538
1920.0,-0.10211697220802307
2048.0,-0.08417890220880508
2304.0,-0.005754141602665186
2560.0,-0.017042867839336395
2816.0,-0.07543954998254776
3072.0,-0.07765685766935349
3328.0,-0.07271785289049149
3584.0,-0.09531031548976898
3840.0,-0.13372766971588135
4096.0,-0.12808622419834137
4608.0,-0.08992824703454971
5120.0,-0.01082970667630434
5632.0,0.0018298343056812882
6144.0,-0.014124584384262562
6656.0,-0.05053779110312462
7168.0,-0.0699034035205841
7680.0,0.08273335546255112
8192.0,0.4186019003391266
9216.0,-0.07969141751527786
10240.0,-0.10060635209083557
11264.0,-0.13668537139892578
12288.0,-0.06520311534404755
13312.0,0.05259307846426964
14336.0,0.08508329093456268
end
