version,3.0
numOfCh,1
type,point
parent_name,dirty_1dot0-0dot1
ch_type,1_1
kcount,1
numberNandB,1
brightnessNandB,1
carpet pos,0
pc,0
Time (ms),CH1 Auto-Correlation
1.0,1.8532954454421997
2.0,1.8308851718902588
3.0,1.807631254196167
4.0,1.7837305068969727
5.0,1.759488821029663
6.0,1.734885334968567
7.0,1.711307406425476
8.0,1.6885353326797485
9.0,1.6669491529464722
10.0,1.645155668258667
11.0,1.6238266229629517
12.0,1.6048885583877563
13.0,1.5858452320098877
14.0,1.5681896209716797
15.0,1.5513194799423218
16.0,1.535353422164917
18.0,1.5069010257720947
20.0,1.4800841808319092
22.0,1.4542359113693237
24.0,1.4284253120422363
26.0,1.4062409400939941
28.0,1.3835675716400146
30.0,1.361342191696167
32.0,1.3392046689987183
36.0,1.2995884418487549
40.0,1.2610812187194824
44.0,1.2254573106765747
48.0,1.2050087451934814
52.0,1.1834324598312378
56.0,1.1611055135726929
60.0,1.1384458541870117
64.0,1.119163990020752
72.0,1.0729469060897827
80.0,1.0216641426086426
88.0,0.9718172550201416
96.0,0.9284776449203491
104.0,0.8805242776870728
112.0,0.8342018127441406
120.0,0.8098301887512207
128.0,0.7887318730354309
144.0,0.7247222065925598
160.0,0.6615827083587646
176.0,0.6033506393432617
192.0,0.5810712575912476
208.0,0.5686242580413818
224.0,0.570233166217804
240.0,0.5796066522598267
256.0,0.5735366344451904
288.0,0.5690239667892456
320.0,0.5476954579353333
352.0,0.5183985233306885
384.0,0.4695948362350464
416.0,0.3905448615550995
448.0,0.3227449953556061
480.0,0.2717133164405823
512.0,0.24580447375774384
576.0,0.24930639564990997
640.0,0.26845791935920715
704.0,0.21060015261173248
768.0,0.10406965762376785
832.0,0.062046539038419724
896.0,0.09278378635644913
960.0,0.22392983734607697
1024.0,0.2419961541891098
1152.0,0.18635664880275726
1280.0,0.19546876847743988
1408.0,0.25563034415245056
1536.0,0.021111099049448967
1664.0,-0.03151490539312363
1792.0,-0.09790083765983582
1920.0,-0.12125204503536224
2048.0,-0.08993129432201385
2304.0,-0.07811347395181656
2560.0,-0.12304233014583588
2816.0,-0.12603086233139038
3072.0,-0.09913665801286697
3328.0,-0.02793342061340809
3584.0,0.042689140886068344
3840.0,-0.010807747952640057
4096.0,-0.10873322933912277
4608.0,0.0507965125143528
5120.0,-0.007061935029923916
5632.0,-0.23278725147247314
6144.0,-0.13601478934288025
6656.0,-0.1678277552127838
7168.0,-0.20097969472408295
7680.0,-0.23296351730823517
8192.0,-0.26675698161125183
9216.0,-0.049288857728242874
10240.0,0.14572645723819733
11264.0,0.013965358026325703
12288.0,-0.06397726386785507
13312.0,-0.043529264628887177
14336.0,0.020939359441399574
end
