version,3.0
numOfCh,1
type,point
parent_name,dirty_1dot0-0dot1
ch_type,1_1
kcount,1
numberNandB,1
brightnessNandB,1
carpet pos,0
pc,0
Time (ms),CH1 Auto-Correlation
1.0,0.7788308262825012
2.0,0.7661195397377014
3.0,0.753284752368927
4.0,0.7406167387962341
5.0,0.7288063764572144
6.0,0.717658281326294
7.0,0.7071390748023987
8.0,0.6978411674499512
9.0,0.688764214515686
10.0,0.6797647476196289
11.0,0.6711330413818359
12.0,0.6624555587768555
13.0,0.6546635627746582
14.0,0.6479203104972839
15.0,0.641272783279419
16.0,0.6348342299461365
18.0,0.6195915341377258
20.0,0.6040527820587158
22.0,0.588502049446106
24.0,0.5729473233222961
26.0,0.5590159296989441
28.0,0.5445923805236816
30.0,0.5306824445724487
32.0,0.5175072550773621
36.0,0.4915534555912018
40.0,0.46713122725486755
44.0,0.44316235184669495
48.0,0.42317214608192444
52.0,0.41074439883232117
56.0,0.39924800395965576
60.0,0.38715171813964844
64.0,0.377197265625
72.0,0.3544068932533264
80.0,0.330618292093277
88.0,0.30518898367881775
96.0,0.2778317928314209
104.0,0.26228320598602295
112.0,0.2543709874153137
120.0,0.2489626556634903
128.0,0.24374665319919586
144.0,0.22112016379833221
160.0,0.17804072797298431
176.0,0.14283186197280884
192.0,0.1174849197268486
208.0,0.10262244939804077
224.0,0.09141748398542404
240.0,0.08388405293226242
256.0,0.09391950070858002
288.0,0.06923980265855789
320.0,0.013296042568981647
352.0,-0.007606349419802427
384.0,-0.017355220392346382
416.0,-0.02452804148197174
448.0,-0.03248970955610275
480.0,-0.0316302590072155
512.0,-0.030923478305339813
576.0,-0.023665916174650192
640.0,-0.01568482629954815
704.0,-0.018762432038784027
768.0,-0.02254250831902027
832.0,-0.02669798955321312
896.0,-0.023246828466653824
960.0,-0.020503610372543335
1024.0,-0.001769491471350193
1152.0,-0.028880661353468895
1280.0,-0.050495583564043045
1408.0,-0.03909260407090187
1536.0,-0.032575368881225586
1664.0,-0.03840119019150734
1792.0,-0.05370369553565979
1920.0,-0.0510326586663723
2048.0,-0.04849640652537346
2304.0,-0.04077757149934769
2560.0,-0.017857525497674942
2816.0,-0.014088953845202923
3072.0,-0.020867254585027695
3328.0,-0.04154107719659805
3584.0,-0.05153564736247063
3840.0,-0.011215119622647762
4096.0,-0.022415868937969208
4608.0,-0.008676156401634216
5120.0,0.04711906611919403
5632.0,0.09454911202192307
6144.0,0.0761047825217247
6656.0,-0.04200068861246109
7168.0,-0.03609611839056015
7680.0,-0.06519245356321335
8192.0,-0.041162677109241486
9216.0,-0.013949206098914146
10240.0,-0.00631551630795002
11264.0,0.15258435904979706
12288.0,-0.07329896837472916
13312.0,-0.06527063995599747
14336.0,0.03127981349825859
end
