version,3.0
numOfCh,1
type,point
parent_name,dirty_1dot0-0dot1
ch_type,1_1
kcount,1
numberNandB,1
brightnessNandB,1
carpet pos,0
pc,0
Time (ms),CH1 Auto-Correlation
1.0,2.0513246059417725
2.0,2.036060094833374
3.0,2.0212185382843018
4.0,2.006072998046875
5.0,1.991675615310669
6.0,1.9776935577392578
7.0,1.9646427631378174
8.0,1.9518133401870728
9.0,1.9394837617874146
10.0,1.9280548095703125
11.0,1.917007565498352
12.0,1.9064890146255493
13.0,1.8963828086853027
14.0,1.8853490352630615
15.0,1.8743083477020264
16.0,1.8627071380615234
18.0,1.840450644493103
20.0,1.8187510967254639
22.0,1.7965034246444702
24.0,1.7769758701324463
26.0,1.7589739561080933
28.0,1.7426177263259888
30.0,1.724577784538269
32.0,1.706252098083496
36.0,1.675305724143982
40.0,1.6459976434707642
44.0,1.6196672916412354
48.0,1.5961918830871582
52.0,1.5727301836013794
56.0,1.5489667654037476
60.0,1.5245745182037354
64.0,1.498394250869751
72.0,1.4533709287643433
80.0,1.4091538190841675
88.0,1.3665382862091064
96.0,1.3309640884399414
104.0,1.2901297807693481
112.0,1.2451629638671875
120.0,1.2002918720245361
128.0,1.1551278829574585
144.0,1.07102370262146
160.0,1.0102767944335938
176.0,0.9574640989303589
192.0,0.950184166431427
208.0,0.9393507242202759
224.0,0.9076663851737976
240.0,0.8783749938011169
256.0,0.8330804705619812
288.0,0.7001921534538269
320.0,0.5755383372306824
352.0,0.4598504900932312
384.0,0.33666399121284485
416.0,0.2840128242969513
448.0,0.2292775958776474
480.0,0.2295893281698227
512.0,0.21266035735607147
576.0,0.18487262725830078
640.0,0.16743741929531097
704.0,0.17552034556865692
768.0,0.2015371471643448
832.0,0.24206404387950897
896.0,0.26267632842063904
960.0,0.24753212928771973
1024.0,0.25868549942970276
1152.0,0.1828261911869049
1280.0,0.17553956806659698
1408.0,0.2819158732891083
1536.0,0.2142796814441681
1664.0,0.16785292327404022
1792.0,0.0918942242860794
1920.0,-0.05408739671111107
2048.0,-0.17147715389728546
2304.0,-0.17661137878894806
2560.0,-0.026370586827397346
2816.0,0.07671475410461426
3072.0,0.05074630305171013
3328.0,-0.1596544235944748
3584.0,-0.42422524094581604
3840.0,-0.4241988956928253
4096.0,-0.11063108593225479
4608.0,-0.36331605911254883
5120.0,-0.19231823086738586
5632.0,0.27054354548454285
6144.0,0.1331872045993805
6656.0,-0.3233516812324524
7168.0,-0.31730446219444275
7680.0,-0.3030247390270233
8192.0,-0.31777989864349365
9216.0,-0.21362417936325073
10240.0,-0.2040589302778244
11264.0,0.10834527015686035
12288.0,0.3005896210670471
13312.0,0.29864561557769775
14336.0,0.28435686230659485
end
