version,3.0
numOfCh,1
type,point
parent_name,dirty_1dot0-0dot1
ch_type,1_1
kcount,1
numberNandB,1
brightnessNandB,1
carpet pos,0
pc,0
Time (ms),CH1 Auto-Correlation
1.0,2.298483371734619
2.0,2.2792551517486572
3.0,2.260615587234497
4.0,2.2424540519714355
5.0,2.2255687713623047
6.0,2.2095015048980713
7.0,2.1949782371520996
8.0,2.1811516284942627
9.0,2.168570041656494
10.0,2.1565136909484863
11.0,2.145122528076172
12.0,2.135148763656616
13.0,2.123537063598633
14.0,2.111947536468506
15.0,2.100250720977783
16.0,2.08862042427063
18.0,2.0661168098449707
20.0,2.044916868209839
22.0,2.0242526531219482
24.0,2.005610466003418
26.0,1.989366888999939
28.0,1.974838137626648
30.0,1.9620211124420166
32.0,1.9495387077331543
36.0,1.9242740869522095
40.0,1.892651081085205
44.0,1.8533300161361694
48.0,1.809444785118103
52.0,1.7701690196990967
56.0,1.731782078742981
60.0,1.693631649017334
64.0,1.6544474363327026
72.0,1.5832362174987793
80.0,1.5098592042922974
88.0,1.4342422485351562
96.0,1.363908052444458
104.0,1.2928097248077393
112.0,1.2268764972686768
120.0,1.1733980178833008
128.0,1.1358568668365479
144.0,1.0763577222824097
160.0,1.0206400156021118
176.0,0.9651299118995667
192.0,0.898714005947113
208.0,0.8119432926177979
224.0,0.7292634844779968
240.0,0.6451759338378906
256.0,0.5555725693702698
288.0,0.3574843108654022
320.0,0.17472387850284576
352.0,0.04817638918757439
384.0,-0.06507421284914017
416.0,-0.13550016283988953
448.0,-0.1707933396100998
480.0,-0.1977880597114563
512.0,-0.21155694127082825
576.0,-0.23103344440460205
640.0,-0.2264816015958786
704.0,-0.22707442939281464
768.0,-0.2034449428319931
832.0,-0.16692782938480377
896.0,-0.1284598559141159
960.0,-0.135329931974411
1024.0,-0.17452313005924225
1152.0,-0.20468124747276306
1280.0,-0.2537981867790222
1408.0,-0.2557089030742645
1536.0,-0.25998395681381226
1664.0,-0.24213019013404846
1792.0,-0.23429390788078308
1920.0,-0.22335846722126007
2048.0,-0.1712433397769928
2304.0,-0.1960146576166153
2560.0,-0.21241948008537292
2816.0,-0.11773918569087982
3072.0,0.039561010897159576
3328.0,0.16289275884628296
3584.0,0.631618082523346
3840.0,0.1892085075378418
4096.0,-0.18062114715576172
4608.0,-0.08947290480136871
5120.0,0.23649750649929047
5632.0,-0.15834781527519226
6144.0,-0.1994389295578003
6656.0,-0.12573985755443573
7168.0,-0.08013158291578293
7680.0,-0.04337066411972046
8192.0,0.36986061930656433
9216.0,0.1615077704191208
10240.0,-0.15832918882369995
11264.0,-0.06317494809627533
12288.0,0.14306606352329254
13312.0,-0.2440088540315628
14336.0,0.028481248766183853
end
