version,3.0
numOfCh,1
type,point
parent_name,dirty_1dot0-0dot1
ch_type,1_1
kcount,1
numberNandB,1
brightnessNandB,1
carpet pos,0
pc,0
Time (ms),CH1 Auto-Correlation
1.0,0.1594633311033249
2.0,0.15176458656787872
3.0,0.14499346911907196
4.0,0.1388997882604599
5.0,0.13358351588249207
6.0,0.12880787253379822
7.0,0.12437576055526733
8.0,0.12024369835853577
9.0,0.116533063352108
10.0,0.11303723603487015
11.0,0.1094726175069809
12.0,0.10592006146907806
13.0,0.10259602218866348
14.0,0.09939002245664597
15.0,0.096148282289505
16.0,0.09319490939378738
18.0,0.08783839643001556
20.0,0.08258682489395142
22.0,0.07766725867986679
24.0,0.07307233661413193
26.0,0.06878446042537689
28.0,0.06508266925811768
30.0,0.06144707277417183
32.0,0.05795468017458916
36.0,0.05396442860364914
40.0,0.05149008706212044
44.0,0.05007901042699814
48.0,0.04901883378624916
52.0,0.047639135271310806
56.0,0.0461677722632885
60.0,0.04477469250559807
64.0,0.041308045387268066
72.0,0.033802296966314316
80.0,0.026970168575644493
88.0,0.021338000893592834
96.0,0.018199488520622253
104.0,0.017200948670506477
112.0,0.0174470916390419
120.0,0.016360603272914886
128.0,0.010866086930036545
144.0,0.002088200068101287
160.0,-1.9290237105451524e-05
176.0,-0.0002378591598244384
192.0,-0.0004976551863364875
208.0,-0.0009195098537020385
224.0,0.0012295058695599437
240.0,0.0016445644432678819
256.0,-0.0006062813336029649
288.0,0.0007370292441919446
320.0,0.0019906703382730484
352.0,0.0062622567638754845
384.0,0.005362178664654493
416.0,0.004415988922119141
448.0,-0.002439237665385008
480.0,-0.0005953744985163212
512.0,0.003545209765434265
576.0,0.006375395227223635
640.0,0.009836617857217789
704.0,0.005260413978248835
768.0,0.001475187367759645
832.0,4.09353815484792e-05
896.0,0.001725205802358687
960.0,0.007661039941012859
1024.0,-0.0008944669971242547
1152.0,-0.009662413969635963
1280.0,-0.005411188118159771
1408.0,-0.0017381596844643354
1536.0,-0.0021183921489864588
1664.0,-1.1624842045421246e-05
1792.0,-0.004692540038377047
1920.0,-0.0023947786539793015
2048.0,0.002149784006178379
2304.0,0.005791031755506992
2560.0,0.006061186082661152
2816.0,0.0035969370510429144
3072.0,0.0027220516931265593
3328.0,-0.0013523433590307832
3584.0,-0.0028406581841409206
3840.0,-0.0016708056209608912
4096.0,-0.002369700698181987
4608.0,-0.002845239592716098
5120.0,-0.002626163652166724
5632.0,0.0033349688164889812
6144.0,0.00402824766933918
6656.0,0.0005973682855255902
7168.0,-0.003971141763031483
7680.0,-0.003715915372595191
8192.0,-0.004339250270277262
9216.0,-0.003648569108918309
10240.0,-0.0073352959007024765
11264.0,-0.0028455769643187523
12288.0,0.0014729395043104887
13312.0,0.00034203872201032937
14336.0,0.006046697497367859
end
