version,3.0
numOfCh,1
type,point
parent_name,dirty_1dot0-0dot1
ch_type,1_1
kcount,1
numberNandB,1
brightnessNandB,1
carpet pos,0
pc,0
Time (ms),CH1 Auto-Correlation
1.0,0.12018579244613647
2.0,0.11267413198947906
3.0,0.10575692355632782
4.0,0.09974482655525208
5.0,0.09447114914655685
6.0,0.08936425298452377
7.0,0.08480402082204819
8.0,0.08039845526218414
9.0,0.07634374499320984
10.0,0.07301997393369675
11.0,0.07019569724798203
12.0,0.06733022630214691
13.0,0.06461282074451447
14.0,0.06195094808936119
15.0,0.05928600952029228
16.0,0.05658236891031265
18.0,0.05113852396607399
20.0,0.04595251381397247
22.0,0.04115990176796913
24.0,0.0371362678706646
26.0,0.0338575653731823
28.0,0.030568769201636314
30.0,0.02746676467359066
32.0,0.02492573857307434
36.0,0.02110150083899498
40.0,0.018651988357305527
44.0,0.017071310430765152
48.0,0.01663479581475258
52.0,0.01565183699131012
56.0,0.013869186863303185
60.0,0.012155873700976372
64.0,0.010598092339932919
72.0,0.009229974821209908
80.0,0.008338860236108303
88.0,0.007693599443882704
96.0,0.006861116271466017
104.0,0.0062113874591887
112.0,0.006338245701044798
120.0,0.007546352222561836
128.0,0.008001134730875492
144.0,0.0059651886112987995
160.0,-0.0008447390864603221
176.0,-0.004139239434152842
192.0,-0.0028038881719112396
208.0,0.0013172681210562587
224.0,0.0029761565383523703
240.0,0.0015149747487157583
256.0,0.002087877131998539
288.0,0.005127870012074709
320.0,0.00021026712784077972
352.0,0.0013107083505019546
384.0,0.0037380363792181015
416.0,0.005775111261755228
448.0,5.296404196997173e-05
480.0,-0.002305209869518876
512.0,-0.0015136703150346875
576.0,-0.007101882714778185
640.0,-0.007533283904194832
704.0,0.000566771486774087
768.0,-0.0019914652220904827
832.0,-0.00030188134405761957
896.0,-0.0030128960497677326
960.0,-0.0053540561348199844
1024.0,-0.004874143749475479
1152.0,0.002863910747691989
1280.0,-0.002356130164116621
1408.0,0.0012560671893879771
1536.0,0.0008593270322307944
1664.0,0.002627979964017868
1792.0,-0.0014776891330257058
1920.0,-0.004610428586602211
2048.0,-0.0006682600942440331
2304.0,0.002302825218066573
2560.0,0.00472433352842927
2816.0,-0.0009978427551686764
3072.0,-0.0007166838040575385
3328.0,-0.0008036916260607541
3584.0,-0.002268844284117222
3840.0,-0.0005846241838298738
4096.0,0.005261746700853109
4608.0,-0.000383532780688256
5120.0,-0.0009990468388423324
5632.0,-0.0007923236698843539
6144.0,0.0023486276622861624
6656.0,0.0024021959397941828
7168.0,0.0010100326035171747
7680.0,-0.0008026845171116292
8192.0,-0.003127544652670622
9216.0,0.00011707189696608111
10240.0,-0.002316773869097233
11264.0,-0.0021389229223132133
12288.0,-0.0002279410691699013
13312.0,8.648641960462555e-05
14336.0,-0.00024375943758059293
end
