version,3.0
numOfCh,1
type,point
parent_name,dirty_1dot0-0dot1
ch_type,1_1
kcount,1
numberNandB,1
brightnessNandB,1
carpet pos,0
pc,0
Time (ms),CH1 Auto-Correlation
1.0,1.4990720748901367
2.0,1.4831688404083252
3.0,1.4681472778320312
4.0,1.4532122611999512
5.0,1.4380916357040405
6.0,1.423102855682373
7.0,1.4079816341400146
8.0,1.3924840688705444
9.0,1.3765380382537842
10.0,1.3606159687042236
11.0,1.3450813293457031
12.0,1.3297584056854248
13.0,1.3144491910934448
14.0,1.2988165616989136
15.0,1.283311128616333
16.0,1.2683902978897095
18.0,1.2383619546890259
20.0,1.2106751203536987
22.0,1.1839356422424316
24.0,1.1598650217056274
26.0,1.1386263370513916
28.0,1.116563320159912
30.0,1.0949217081069946
32.0,1.0740394592285156
36.0,1.0339206457138062
40.0,0.9962013363838196
44.0,0.9600209593772888
48.0,0.9268012642860413
52.0,0.8966718912124634
56.0,0.8708261847496033
60.0,0.8473886847496033
64.0,0.8199841380119324
72.0,0.7627273797988892
80.0,0.7103127837181091
88.0,0.668997049331665
96.0,0.6274762153625488
104.0,0.5855435132980347
112.0,0.5560252666473389
120.0,0.543260395526886
128.0,0.5360246300697327
144.0,0.5420446395874023
160.0,0.5640969276428223
176.0,0.5828911066055298
192.0,0.599308431148529
208.0,0.5907530188560486
224.0,0.5488724708557129
240.0,0.5109022259712219
256.0,0.494951069355011
288.0,0.3733588457107544
320.0,0.22299905121326447
352.0,0.11141970008611679
384.0,0.07388018816709518
416.0,0.05355207249522209
448.0,0.0635397881269455
480.0,0.09230741113424301
512.0,0.11139459908008575
576.0,0.057232774794101715
640.0,0.04194412752985954
704.0,0.10688578337430954
768.0,0.1089346706867218
832.0,0.14165478944778442
896.0,0.21075592935085297
960.0,0.24689999222755432
1024.0,0.26017406582832336
1152.0,0.2792053520679474
1280.0,0.18025147914886475
1408.0,0.03946702554821968
1536.0,-0.07690565288066864
1664.0,-0.07364959269762039
1792.0,-0.07327131927013397
1920.0,-0.07622500509023666
2048.0,-0.12472452223300934
2304.0,-0.07719973474740982
2560.0,-0.06435530632734299
2816.0,-0.10349445044994354
3072.0,-0.1782788187265396
3328.0,-0.09611853212118149
3584.0,-0.003730474505573511
3840.0,-0.017098022624850273
4096.0,0.0899510309100151
4608.0,-0.06464339792728424
5120.0,0.047980986535549164
5632.0,-0.0117824487388134
6144.0,-0.1106037124991417
6656.0,-0.12302529811859131
7168.0,-0.12256088107824326
7680.0,-0.11791525036096573
8192.0,-0.1027476117014885
9216.0,-0.056661151349544525
10240.0,0.02650073543190956
11264.0,0.015754275023937225
12288.0,-0.024686766788363457
13312.0,-0.10839875787496567
14336.0,0.01601315103471279
end
