version,3.0
numOfCh,1
type,point
parent_name,dirty_1dot0-0dot1
ch_type,1_1
kcount,1
numberNandB,1
brightnessNandB,1
carpet pos,0
pc,0
Time (ms),CH1 Auto-Correlation
1.0,2.5385541915893555
2.0,2.5196895599365234
3.0,2.5012736320495605
4.0,2.482745409011841
5.0,2.46341872215271
6.0,2.4441959857940674
7.0,2.425255537033081
8.0,2.405719757080078
9.0,2.385934352874756
10.0,2.367595911026001
11.0,2.3499796390533447
12.0,2.333249092102051
13.0,2.3152291774749756
14.0,2.29848575592041
15.0,2.2828569412231445
16.0,2.267552614212036
18.0,2.2362442016601562
20.0,2.2061121463775635
22.0,2.1759984493255615
24.0,2.144780397415161
26.0,2.1144983768463135
28.0,2.0890469551086426
30.0,2.063617706298828
32.0,2.039055824279785
36.0,1.9947887659072876
40.0,1.9528993368148804
44.0,1.9163000583648682
48.0,1.8849117755889893
52.0,1.8571572303771973
56.0,1.8301879167556763
60.0,1.8045110702514648
64.0,1.778603434562683
72.0,1.7462595701217651
80.0,1.7180947065353394
88.0,1.692149043083191
96.0,1.6593289375305176
104.0,1.6036559343338013
112.0,1.5418702363967896
120.0,1.4894435405731201
128.0,1.4474066495895386
144.0,1.3730955123901367
160.0,1.350009560585022
176.0,1.345604419708252
192.0,1.294661283493042
208.0,1.2160669565200806
224.0,1.1537281274795532
240.0,1.0999091863632202
256.0,1.0354992151260376
288.0,0.9099075794219971
320.0,0.7842546701431274
352.0,0.6908257007598877
384.0,0.591339111328125
416.0,0.4865017831325531
448.0,0.41040194034576416
480.0,0.40823230147361755
512.0,0.45843935012817383
576.0,0.4454852044582367
640.0,0.3644351065158844
704.0,0.26447954773902893
768.0,0.18907856941223145
832.0,0.10465256869792938
896.0,-0.06716866791248322
960.0,-0.18081361055374146
1024.0,-0.23805002868175507
1152.0,-0.2678743898868561
1280.0,-0.27146658301353455
1408.0,-0.23050090670585632
1536.0,-0.2321237325668335
1664.0,-0.2500194013118744
1792.0,-0.23513163626194
1920.0,-0.20331129431724548
2048.0,-0.15561334788799286
2304.0,-0.09281272441148758
2560.0,0.13417670130729675
2816.0,0.5086023807525635
3072.0,0.5249282717704773
3328.0,0.4878886640071869
3584.0,0.4422670900821686
3840.0,0.08451052010059357
4096.0,-0.12105761468410492
4608.0,-0.16856376826763153
5120.0,-0.1570410430431366
5632.0,-0.18802320957183838
6144.0,-0.2082301378250122
6656.0,-0.26141786575317383
7168.0,-0.292550653219223
7680.0,-0.340288907289505
8192.0,-0.3545829951763153
9216.0,-0.4306953251361847
10240.0,0.2867787778377533
11264.0,-0.21548470854759216
12288.0,-0.6363898515701294
13312.0,1.1408761739730835
14336.0,-0.2063547521829605
end
