version,3.0
numOfCh,1
type,point
parent_name,dirty_1dot0-0dot1
ch_type,1_1
kcount,1
numberNandB,1
brightnessNandB,1
carpet pos,0
pc,0
Time (ms),CH1 Auto-Correlation
1.0,1.0466217994689941
2.0,1.0345383882522583
3.0,1.0228078365325928
4.0,1.0127229690551758
5.0,1.0034924745559692
6.0,0.9945713877677917
7.0,0.9858323335647583
8.0,0.977385938167572
9.0,0.9691908955574036
10.0,0.9618648290634155
11.0,0.9549405574798584
12.0,0.9486832618713379
13.0,0.9430112838745117
14.0,0.9373672008514404
15.0,0.9317561388015747
16.0,0.926446259021759
18.0,0.9152510166168213
20.0,0.9052204489707947
22.0,0.8964015245437622
24.0,0.8880375623703003
26.0,0.8811559081077576
28.0,0.8754007816314697
30.0,0.8681133985519409
32.0,0.8611195087432861
36.0,0.8500758409500122
40.0,0.8390782475471497
44.0,0.8238738775253296
48.0,0.8084045052528381
52.0,0.7954285740852356
56.0,0.7824032306671143
60.0,0.7682100534439087
64.0,0.7561704516410828
72.0,0.738419771194458
80.0,0.7118834257125854
88.0,0.6902453303337097
96.0,0.6675338745117188
104.0,0.6349950432777405
112.0,0.6009305119514465
120.0,0.5718052983283997
128.0,0.5513217449188232
144.0,0.5125731825828552
160.0,0.4658384323120117
176.0,0.4390869140625
192.0,0.4149370491504669
208.0,0.3955305218696594
224.0,0.3903801143169403
240.0,0.3951376974582672
256.0,0.39628058671951294
288.0,0.40993210673332214
320.0,0.4209384024143219
352.0,0.4222932755947113
384.0,0.3792881965637207
416.0,0.3315008282661438
448.0,0.28194624185562134
480.0,0.2323327362537384
512.0,0.18199360370635986
576.0,0.1519964188337326
640.0,0.15590845048427582
704.0,0.15472152829170227
768.0,0.14988598227500916
832.0,0.16836024820804596
896.0,0.2206733226776123
960.0,0.2893669009208679
1024.0,0.3714348077774048
1152.0,0.29927828907966614
1280.0,0.2263645976781845
1408.0,0.217508465051651
1536.0,0.09041241556406021
1664.0,-0.044868502765893936
1792.0,-0.05460648238658905
1920.0,-0.050147611647844315
2048.0,-0.05395219102501869
2304.0,-0.05459509417414665
2560.0,-0.06078173592686653
2816.0,-0.06503471732139587
3072.0,-0.07549680769443512
3328.0,-0.07668982446193695
3584.0,-0.11301007866859436
3840.0,-0.11816125363111496
4096.0,-0.10447576642036438
4608.0,-0.08066049963235855
5120.0,-0.0705798789858818
5632.0,-0.02857479453086853
6144.0,-0.04796867445111275
6656.0,-0.04918017238378525
7168.0,-0.042297665029764175
7680.0,-0.06791356205940247
8192.0,-0.05734982714056969
9216.0,-0.11776319891214371
10240.0,-0.15724657475948334
11264.0,-0.13018406927585602
12288.0,-0.00901429820805788
13312.0,0.06593481451272964
14336.0,0.0912175253033638
end
