version,3.0
numOfCh,1
type,point
parent_name,dirty_1dot0-0dot1
ch_type,1_1
kcount,1
numberNandB,1
brightnessNandB,1
carpet pos,0
pc,0
Time (ms),CH1 Auto-Correlation
1.0,1.5867655277252197
2.0,1.568551778793335
3.0,1.5518720149993896
4.0,1.5362197160720825
5.0,1.521287441253662
6.0,1.5057222843170166
7.0,1.49081289768219
8.0,1.4767053127288818
9.0,1.462144374847412
10.0,1.4476221799850464
11.0,1.4325755834579468
12.0,1.4176422357559204
13.0,1.4021363258361816
14.0,1.3876575231552124
15.0,1.3737146854400635
16.0,1.3602511882781982
18.0,1.3335118293762207
20.0,1.3053919076919556
22.0,1.2796944379806519
24.0,1.2566606998443604
26.0,1.236302375793457
28.0,1.216673731803894
30.0,1.1967854499816895
32.0,1.180025339126587
36.0,1.1535629034042358
40.0,1.13270103931427
44.0,1.1120556592941284
48.0,1.0870566368103027
52.0,1.0602549314498901
56.0,1.0364972352981567
60.0,1.0167938470840454
64.0,0.997972846031189
72.0,0.9728506803512573
80.0,0.9655138254165649
88.0,0.9596192836761475
96.0,0.9523990750312805
104.0,0.9421396851539612
112.0,0.9314218163490295
120.0,0.9159797430038452
128.0,0.8990680575370789
144.0,0.8576557636260986
160.0,0.7827674150466919
176.0,0.6997482776641846
192.0,0.6585826277732849
208.0,0.670803964138031
224.0,0.7054092884063721
240.0,0.7180805206298828
256.0,0.7285533547401428
288.0,0.7202481031417847
320.0,0.7229188084602356
352.0,0.7761392593383789
384.0,0.7709977626800537
416.0,0.7092630863189697
448.0,0.6420902013778687
480.0,0.5849121809005737
512.0,0.5289188623428345
576.0,0.4177425503730774
640.0,0.40268799662590027
704.0,0.38596323132514954
768.0,0.4043686091899872
832.0,0.3577634394168854
896.0,0.3539903461933136
960.0,0.3562857508659363
1024.0,0.3507210314273834
1152.0,0.23514415323734283
1280.0,0.2250492423772812
1408.0,0.22265788912773132
1536.0,0.1332847625017166
1664.0,0.08600706607103348
1792.0,0.08183140307664871
1920.0,-0.020801516249775887
2048.0,0.0009313107584603131
2304.0,-0.05998469889163971
2560.0,-0.13057009875774384
2816.0,-0.21721839904785156
3072.0,-0.24386215209960938
3328.0,-0.28001952171325684
3584.0,-0.32492977380752563
3840.0,-0.31335195899009705
4096.0,-0.3141465485095978
4608.0,-0.23336799442768097
5120.0,-0.21566183865070343
5632.0,-0.2809103727340698
6144.0,-0.023063015192747116
6656.0,-0.017292695119976997
7168.0,-0.10050716251134872
7680.0,-0.235539048910141
8192.0,-0.23764976859092712
9216.0,0.008325912989675999
10240.0,0.11933446675539017
11264.0,0.10029833763837814
12288.0,0.06701097637414932
13312.0,0.02486221119761467
14336.0,0.17998284101486206
end
