version,3.0
numOfCh,1
type,point
parent_name,dirty_1dot0-0dot1
ch_type,1_1
kcount,1
numberNandB,1
brightnessNandB,1
carpet pos,0
pc,0
Time (ms),CH1 Auto-Correlation
1.0,1.027448058128357
2.0,1.0117477178573608
3.0,0.9966854453086853
4.0,0.9823199510574341
5.0,0.9686817526817322
6.0,0.9553388953208923
7.0,0.9423359036445618
8.0,0.929172933101654
9.0,0.916527271270752
10.0,0.9043963551521301
11.0,0.8934755921363831
12.0,0.8816573619842529
13.0,0.8712010979652405
14.0,0.86151522397995
15.0,0.8522010445594788
16.0,0.8427655100822449
18.0,0.8234257102012634
20.0,0.8044435977935791
22.0,0.7832556962966919
24.0,0.7626568078994751
26.0,0.7440236210823059
28.0,0.7236597537994385
30.0,0.700488269329071
32.0,0.6788727045059204
36.0,0.6375634670257568
40.0,0.6033183336257935
44.0,0.5718669891357422
48.0,0.5397972464561462
52.0,0.5011136531829834
56.0,0.46155843138694763
60.0,0.424380362033844
64.0,0.3883216977119446
72.0,0.3274642825126648
80.0,0.28555619716644287
88.0,0.24955898523330688
96.0,0.22229187190532684
104.0,0.1963973343372345
112.0,0.17153139412403107
120.0,0.14892727136611938
128.0,0.13089728355407715
144.0,0.11291316151618958
160.0,0.0930076390504837
176.0,0.059024397283792496
192.0,0.0395670086145401
208.0,0.03572143241763115
224.0,0.03279806673526764
240.0,0.02629317343235016
256.0,0.021100113168358803
288.0,0.048779409378767014
320.0,0.09727700799703598
352.0,0.0971807911992073
384.0,0.1292218565940857
416.0,0.22897474467754364
448.0,0.2670001983642578
480.0,0.22105763852596283
512.0,0.10903054475784302
576.0,0.031144840642809868
640.0,0.012407425791025162
704.0,0.0026273515541106462
768.0,-0.0076407636515796185
832.0,-0.009094401262700558
896.0,-0.002686150372028351
960.0,-0.00465087266638875
1024.0,-0.02093401551246643
1152.0,-0.018667912110686302
1280.0,-0.02171117253601551
1408.0,0.14239726960659027
1536.0,0.1261918991804123
1664.0,0.020682791247963905
1792.0,0.004005728755146265
1920.0,0.17760831117630005
2048.0,0.0598115511238575
2304.0,-0.03948051482439041
2560.0,-0.005586960352957249
2816.0,-0.036610156297683716
3072.0,-0.04597892984747887
3328.0,-0.04025875777006149
3584.0,-0.06664541363716125
3840.0,-0.06297451257705688
4096.0,-0.04461212083697319
4608.0,-0.03664947673678398
5120.0,-0.02446538209915161
5632.0,-0.030962098389863968
6144.0,-0.027105234563350677
6656.0,0.00774295162409544
7168.0,-0.014228438958525658
7680.0,-0.0338132344186306
8192.0,-0.013286598026752472
9216.0,-0.029971130192279816
10240.0,-0.027803555130958557
11264.0,-0.0036631040275096893
12288.0,-0.03700587898492813
13312.0,0.019916454330086708
14336.0,0.024627579376101494
end
