version,3.0
numOfCh,1
type,point
parent_name,dirty_1dot0-0dot1
ch_type,1_1
kcount,1
numberNandB,1
brightnessNandB,1
carpet pos,0
pc,0
Time (ms),CH1 Auto-Correlation
1.0,1.661445140838623
2.0,1.6448609828948975
3.0,1.628962516784668
4.0,1.612274408340454
5.0,1.5953630208969116
6.0,1.5788096189498901
7.0,1.5623608827590942
8.0,1.5458027124404907
9.0,1.5294439792633057
10.0,1.5133633613586426
11.0,1.4974199533462524
12.0,1.4820009469985962
13.0,1.4659755229949951
14.0,1.45024836063385
15.0,1.4347171783447266
16.0,1.4193353652954102
18.0,1.3897733688354492
20.0,1.3629504442214966
22.0,1.3393890857696533
24.0,1.318960428237915
26.0,1.2979620695114136
28.0,1.2759642601013184
30.0,1.254980206489563
32.0,1.2364171743392944
36.0,1.2047806978225708
40.0,1.1734095811843872
44.0,1.135606050491333
48.0,1.0971548557281494
52.0,1.058512568473816
56.0,1.0222996473312378
60.0,0.9873561263084412
64.0,0.9591464400291443
72.0,0.9094350337982178
80.0,0.8619001507759094
88.0,0.8201572895050049
96.0,0.775944173336029
104.0,0.720287561416626
112.0,0.6665581464767456
120.0,0.6248201131820679
128.0,0.5945364236831665
144.0,0.5449214577674866
160.0,0.4419655501842499
176.0,0.37018883228302
192.0,0.3115158975124359
208.0,0.24928808212280273
224.0,0.23920218646526337
240.0,0.24331903457641602
256.0,0.24827779829502106
288.0,0.2499638795852661
320.0,0.24530024826526642
352.0,0.23093067109584808
384.0,0.20096491277217865
416.0,0.15481717884540558
448.0,0.1034788116812706
480.0,0.05257178470492363
512.0,0.014927196316421032
576.0,-0.048883844166994095
640.0,-0.086268350481987
704.0,-0.0707165002822876
768.0,-0.006124397739768028
832.0,0.06756924837827682
896.0,0.05722193792462349
960.0,0.017553003504872322
1024.0,0.0491880439221859
1152.0,0.18903140723705292
1280.0,0.2082224190235138
1408.0,0.07338075339794159
1536.0,0.10804647207260132
1664.0,0.029845010489225388
1792.0,-0.1572464555501938
1920.0,-0.08334577083587646
2048.0,0.017002834007143974
2304.0,0.028389856219291687
2560.0,-0.017088089138269424
2816.0,0.030459662899374962
3072.0,0.07366429269313812
3328.0,-0.1013602614402771
3584.0,-0.05385188013315201
3840.0,-0.22222942113876343
4096.0,-0.1646893471479416
4608.0,-0.07870370894670486
5120.0,-0.2084980607032776
5632.0,-0.26569831371307373
6144.0,-0.11094759404659271
6656.0,-0.08583031594753265
7168.0,-0.05548794940114021
7680.0,0.40922605991363525
8192.0,-0.12936553359031677
9216.0,-0.036201074719429016
10240.0,0.0323205441236496
11264.0,-0.017388485372066498
12288.0,0.01105399802327156
13312.0,0.0008742938516661525
14336.0,0.18389351665973663
end
