version,3.0
numOfCh,1
type,point
parent_name,dirty_1dot0-0dot1
ch_type,1_1
kcount,1
numberNandB,1
brightnessNandB,1
carpet pos,0
pc,0
Time (ms),CH1 Auto-Correlation
1.0,1.0366828441619873
2.0,1.025170922279358
3.0,1.0137969255447388
4.0,1.002819538116455
5.0,0.9917994141578674
6.0,0.9810225367546082
7.0,0.9704062938690186
8.0,0.9598721265792847
9.0,0.9494621157646179
10.0,0.9401053786277771
11.0,0.9305559396743774
12.0,0.9215644598007202
13.0,0.9124212861061096
14.0,0.9039925336837769
15.0,0.8964523673057556
16.0,0.8888469934463501
18.0,0.8738877773284912
20.0,0.8586280941963196
22.0,0.844409704208374
24.0,0.8302444815635681
26.0,0.8166924118995667
28.0,0.8035410046577454
30.0,0.7899400591850281
32.0,0.7761834859848022
36.0,0.7497673630714417
40.0,0.7253468036651611
44.0,0.7056025266647339
48.0,0.6900327205657959
52.0,0.6768037676811218
56.0,0.6654107570648193
60.0,0.6543524265289307
64.0,0.6426404118537903
72.0,0.6266707181930542
80.0,0.6017574667930603
88.0,0.5734858512878418
96.0,0.548792839050293
104.0,0.5274251699447632
112.0,0.505303680896759
120.0,0.48347777128219604
128.0,0.4653952419757843
144.0,0.42362284660339355
160.0,0.3807806968688965
176.0,0.3368711769580841
192.0,0.31380701065063477
208.0,0.30201536417007446
224.0,0.30614447593688965
240.0,0.30473223328590393
256.0,0.30237680673599243
288.0,0.2947205603122711
320.0,0.2760162949562073
352.0,0.24805836379528046
384.0,0.22703464329242706
416.0,0.2103068083524704
448.0,0.20862872898578644
480.0,0.2164481282234192
512.0,0.23011253774166107
576.0,0.2162475436925888
640.0,0.17261983454227448
704.0,0.10417353361845016
768.0,0.08151388168334961
832.0,0.08254048228263855
896.0,0.08708576112985611
960.0,0.10242711752653122
1024.0,0.12754422426223755
1152.0,0.15572822093963623
1280.0,0.21583539247512817
1408.0,0.21318212151527405
1536.0,0.1418803185224533
1664.0,0.1436023712158203
1792.0,0.14195016026496887
1920.0,0.03746241703629494
2048.0,-0.04521246626973152
2304.0,0.004793447442352772
2560.0,-0.0686415359377861
2816.0,0.03386572748422623
3072.0,-0.019575944170355797
3328.0,0.036939315497875214
3584.0,0.04258006438612938
3840.0,0.010185076855123043
4096.0,0.0945252776145935
4608.0,0.13784003257751465
5120.0,0.04650856554508209
5632.0,0.05937206745147705
6144.0,-0.10781455039978027
6656.0,-0.18807964026927948
7168.0,-0.20079044997692108
7680.0,-0.3004021644592285
8192.0,-0.2273077815771103
9216.0,-0.12215747684240341
10240.0,-0.10113998502492905
11264.0,-0.14412060379981995
12288.0,-0.19219960272312164
13312.0,-0.09160689264535904
14336.0,-0.04570528492331505
end
