version,3.0
numOfCh,1
type,point
parent_name,dirty_1dot0-0dot1
ch_type,1_1
kcount,1
numberNandB,1
brightnessNandB,1
carpet pos,0
pc,0
Time (ms),CH1 Auto-Correlation
1.0,1.5135051012039185
2.0,1.4955557584762573
3.0,1.4777758121490479
4.0,1.4606215953826904
5.0,1.4433609247207642
6.0,1.4264483451843262
7.0,1.4097636938095093
8.0,1.3936280012130737
9.0,1.3777819871902466
10.0,1.361470103263855
11.0,1.3451215028762817
12.0,1.3303290605545044
13.0,1.315346598625183
14.0,1.299819827079773
15.0,1.2852909564971924
16.0,1.2715530395507812
18.0,1.2465479373931885
20.0,1.2220381498336792
22.0,1.1973718404769897
24.0,1.1728318929672241
26.0,1.1485482454299927
28.0,1.12249755859375
30.0,1.097662091255188
32.0,1.074931263923645
36.0,1.0322116613388062
40.0,0.9946576952934265
44.0,0.9617098569869995
48.0,0.9321998357772827
52.0,0.9040400385856628
56.0,0.8757704496383667
60.0,0.8497993350028992
64.0,0.8227623701095581
72.0,0.7749225497245789
80.0,0.7336930632591248
88.0,0.6905097961425781
96.0,0.6404197216033936
104.0,0.6000971794128418
112.0,0.5720854997634888
120.0,0.5556889176368713
128.0,0.5476737022399902
144.0,0.5639832615852356
160.0,0.589566707611084
176.0,0.61970055103302
192.0,0.6552566885948181
208.0,0.7009612321853638
224.0,0.7249628901481628
240.0,0.6911748647689819
256.0,0.6566173434257507
288.0,0.601966381072998
320.0,0.5341041088104248
352.0,0.44039589166641235
384.0,0.3842567503452301
416.0,0.3128218948841095
448.0,0.28138551115989685
480.0,0.2966083586215973
512.0,0.2552260160446167
576.0,0.21168816089630127
640.0,0.1369399130344391
704.0,0.08967557549476624
768.0,0.10330245643854141
832.0,0.06974485516548157
896.0,0.019010772928595543
960.0,0.012762256897985935
1024.0,0.027748223394155502
1152.0,0.05086696892976761
1280.0,0.026080681011080742
1408.0,-0.011170580983161926
1536.0,-0.04018493741750717
1664.0,-0.06534342467784882
1792.0,-0.06734175235033035
1920.0,-0.06256403028964996
2048.0,-0.0556267611682415
2304.0,-0.049021996557712555
2560.0,-0.0477769710123539
2816.0,-0.05788175016641617
3072.0,-0.06042451411485672
3328.0,-0.06947043538093567
3584.0,-0.08530490845441818
3840.0,-0.07605600357055664
4096.0,-0.0578446127474308
4608.0,0.018594658002257347
5120.0,0.08149604499340057
5632.0,-0.011928238905966282
6144.0,-0.0320039801299572
6656.0,-0.0969756692647934
7168.0,-0.06639168411493301
7680.0,-0.0857887789607048
8192.0,-0.0825553834438324
9216.0,-0.14295946061611176
10240.0,-0.23825757205486298
11264.0,-0.2096414864063263
12288.0,0.024281563237309456
13312.0,0.1255536526441574
14336.0,0.41968008875846863
end
