version,3.0
numOfCh,1
type,point
parent_name,dirty_1dot0-0dot1
ch_type,1_1
kcount,1
numberNandB,1
brightnessNandB,1
carpet pos,0
pc,0
Time (ms),CH1 Auto-Correlation
1.0,1.490677833557129
2.0,1.4760864973068237
3.0,1.4612300395965576
4.0,1.446718454360962
5.0,1.4322518110275269
6.0,1.4178706407546997
7.0,1.4039126634597778
8.0,1.3903368711471558
9.0,1.3766772747039795
10.0,1.3628017902374268
11.0,1.348908543586731
12.0,1.3359097242355347
13.0,1.323448896408081
14.0,1.3110703229904175
15.0,1.2987580299377441
16.0,1.2867017984390259
18.0,1.2630683183670044
20.0,1.237578272819519
22.0,1.2107681035995483
24.0,1.1832717657089233
26.0,1.1581979990005493
28.0,1.1352096796035767
30.0,1.1140625476837158
32.0,1.0933911800384521
36.0,1.0601930618286133
40.0,1.0315183401107788
44.0,1.0050891637802124
48.0,0.9800668358802795
52.0,0.9561089277267456
56.0,0.9283111691474915
60.0,0.902051568031311
64.0,0.8779081702232361
72.0,0.8360967040061951
80.0,0.7906702160835266
88.0,0.7481858134269714
96.0,0.7088537216186523
104.0,0.6716169714927673
112.0,0.6484732627868652
120.0,0.6308081746101379
128.0,0.6196004748344421
144.0,0.6061959862709045
160.0,0.5539082884788513
176.0,0.48311784863471985
192.0,0.4547092616558075
208.0,0.4340410828590393
224.0,0.4066809117794037
240.0,0.3653796911239624
256.0,0.33056363463401794
288.0,0.28355586528778076
320.0,0.20448122918605804
352.0,0.16478919982910156
384.0,0.1324089765548706
416.0,0.08130772411823273
448.0,0.016897952184081078
480.0,-0.04163576662540436
512.0,-0.0878855511546135
576.0,-0.10447341948747635
640.0,-0.11471650749444962
704.0,-0.13460582494735718
768.0,-0.15641240775585175
832.0,-0.1433781385421753
896.0,-0.128102108836174
960.0,-0.09574782103300095
1024.0,-0.11258913576602936
1152.0,-0.09270938485860825
1280.0,-0.015210742130875587
1408.0,-0.06261423230171204
1536.0,0.1032009944319725
1664.0,0.09703041613101959
1792.0,-0.022978199645876884
1920.0,-0.002468202030286193
2048.0,-0.094291552901268
2304.0,-0.1346190869808197
2560.0,-0.12656493484973907
2816.0,0.008276945911347866
3072.0,0.2662104666233063
3328.0,0.3153097331523895
3584.0,0.14748620986938477
3840.0,0.1663893461227417
4096.0,0.09850256890058517
4608.0,-0.15147343277931213
5120.0,-0.25129058957099915
5632.0,-0.08836520463228226
6144.0,-0.08395983278751373
6656.0,0.027167409658432007
7168.0,0.08902952820062637
7680.0,-0.12584955990314484
8192.0,-0.1492144912481308
9216.0,-0.07149436324834824
10240.0,0.031756624579429626
11264.0,0.05053160339593887
12288.0,0.04187939316034317
13312.0,0.004356564488261938
14336.0,-0.013830660842359066
end
