version,3.0
numOfCh,1
type,point
parent_name,c1204_0dot4-1dot0
ch_type,1_1
kcount,1
numberNandB,1
brightnessNandB,1
carpet pos,0
pc,0
Time (ms),CH1 Auto-Correlation
1.0,0.09463045746088028
2.0,0.09081946313381195
3.0,0.08746828138828278
4.0,0.08430097997188568
5.0,0.0813058540225029
6.0,0.0785556510090828
7.0,0.07597164809703827
8.0,0.0734114944934845
9.0,0.07094693183898926
10.0,0.06867985427379608
11.0,0.0666167289018631
12.0,0.06464697420597076
13.0,0.06297571957111359
14.0,0.0612221322953701
15.0,0.059585027396678925
16.0,0.05818803608417511
18.0,0.05558557063341141
20.0,0.05304133892059326
22.0,0.05045362561941147
24.0,0.04797745868563652
26.0,0.04590647667646408
28.0,0.044035654515028
30.0,0.04224568232893944
32.0,0.04078007489442825
36.0,0.03844020888209343
40.0,0.03591640293598175
44.0,0.03337026387453079
48.0,0.030823687091469765
52.0,0.028464892879128456
56.0,0.02665906958281994
60.0,0.025205636397004128
64.0,0.023815330117940903
72.0,0.021535588428378105
80.0,0.02052438259124756
88.0,0.019139688462018967
96.0,0.01853562705218792
104.0,0.018188949674367905
112.0,0.018609507009387016
120.0,0.01836465671658516
128.0,0.017972160130739212
144.0,0.017970167100429535
160.0,0.01817362569272518
176.0,0.016832949593663216
192.0,0.014522497542202473
208.0,0.010294695384800434
224.0,0.0068681500852108
240.0,0.00518560828641057
256.0,0.004317849408835173
288.0,0.003539910539984703
320.0,0.00017528700118418783
352.0,-0.003128862241283059
384.0,-0.0013322586892172694
416.0,0.0004497968766372651
448.0,0.003095386316999793
480.0,0.004879160318523645
512.0,0.004366606008261442
576.0,0.003943054936826229
640.0,0.006343642249703407
704.0,0.0037375781685113907
768.0,0.001349495374597609
832.0,0.0002595983387436718
896.0,0.0008231186657212675
960.0,0.0009288085275329649
1024.0,0.002175189321860671
1152.0,-0.0014252818655222654
1280.0,-0.0021965408232063055
1408.0,-0.0010322334710508585
1536.0,-0.0033926405012607574
1664.0,-0.004816664848476648
1792.0,-0.006508396472781897
1920.0,-0.009075837209820747
2048.0,-0.003961349371820688
2304.0,0.0017952347407117486
2560.0,-0.0011778739280998707
2816.0,-0.00022550737776327878
3072.0,0.0034113076981157064
3328.0,0.0044593955390155315
3584.0,-0.0001962739770533517
3840.0,0.006156758405268192
4096.0,-0.0004487070837058127
4608.0,0.0017075137002393603
5120.0,-0.0011074161157011986
5632.0,-0.006842585746198893
6144.0,-0.004651527386158705
6656.0,-0.0007106115226633847
7168.0,-0.002887024777010083
7680.0,-0.006791380234062672
8192.0,-0.0038270289078354836
end
