version,3.0
numOfCh,1
type,point
parent_name,c1204_0dot4-1dot0
ch_type,1_1
kcount,1
numberNandB,1
brightnessNandB,1
carpet pos,0
pc,0
Time (ms),CH1 Auto-Correlation
1.0,0.1037469357252121
2.0,0.09923844039440155
3.0,0.09523630142211914
4.0,0.0917235016822815
5.0,0.08881131559610367
6.0,0.08598464727401733
7.0,0.08323101699352264
8.0,0.08067922294139862
9.0,0.07842244952917099
10.0,0.07609525322914124
11.0,0.07382041215896606
12.0,0.0718015730381012
13.0,0.0698530450463295
14.0,0.06831918656826019
15.0,0.0666448250412941
16.0,0.0649973601102829
18.0,0.06177648529410362
20.0,0.05876091867685318
22.0,0.056222837418317795
24.0,0.053965404629707336
26.0,0.05188572779297829
28.0,0.05014747753739357
30.0,0.048318009823560715
32.0,0.04648983106017113
36.0,0.04335050284862518
40.0,0.041286367923021317
44.0,0.03945375978946686
48.0,0.03770587220788002
52.0,0.03612653538584709
56.0,0.034888818860054016
60.0,0.03419952839612961
64.0,0.03380725905299187
72.0,0.03184804692864418
80.0,0.029516007751226425
88.0,0.026707977056503296
96.0,0.024769974872469902
104.0,0.023212138563394547
112.0,0.022566376253962517
120.0,0.022423790767788887
128.0,0.02185775339603424
144.0,0.019636232405900955
160.0,0.015949150547385216
176.0,0.013731108047068119
192.0,0.013394270092248917
208.0,0.01169644482433796
224.0,0.008431288413703442
240.0,0.008141539059579372
256.0,0.0052646747790277
288.0,0.0029503414407372475
320.0,0.007408567238599062
352.0,0.003616949776187539
384.0,0.0013189251767471433
416.0,0.0013021049089729786
448.0,-0.00225471006706357
480.0,-0.003993768244981766
512.0,-0.003103018971160054
576.0,-0.0016266311286017299
640.0,-0.003351388033479452
704.0,-0.0034630652517080307
768.0,-0.0031931018456816673
832.0,-0.0011672819964587688
896.0,-0.003971277270466089
960.0,0.00041188494651578367
1024.0,0.0011751591227948666
1152.0,0.0012778234668076038
1280.0,0.00912134163081646
1408.0,0.005422456655651331
1536.0,-0.004323816858232021
1664.0,-0.004700012039393187
1792.0,0.00032309608650393784
1920.0,0.005027634557336569
2048.0,0.0074021401815116405
2304.0,0.003506236942484975
2560.0,-0.005000392906367779
2816.0,-0.015785090625286102
3072.0,0.002235970925539732
3328.0,0.008895264938473701
3584.0,-0.0053525567054748535
3840.0,-0.0026767884846776724
4096.0,-0.00824808795005083
4608.0,-0.00010685039160307497
5120.0,-0.004743963945657015
5632.0,-0.003269875654950738
6144.0,-0.0032022222876548767
6656.0,0.007253717631101608
7168.0,-0.013280419632792473
7680.0,0.007372428197413683
8192.0,0.003955932334065437
end
