version,3.0
numOfCh,1
type,point
parent_name,c1204_0dot4-1dot0
ch_type,1_1
kcount,1
numberNandB,1
brightnessNandB,1
carpet pos,0
pc,0
Time (ms),CH1 Auto-Correlation
1.0,0.10698971152305603
2.0,0.10303620994091034
3.0,0.09941349178552628
4.0,0.096239373087883
5.0,0.09328904002904892
6.0,0.0905669778585434
7.0,0.08798429369926453
8.0,0.08545684814453125
9.0,0.08306356519460678
10.0,0.08075094223022461
11.0,0.0785791352391243
12.0,0.07659343630075455
13.0,0.07473860681056976
14.0,0.07295102626085281
15.0,0.07110749930143356
16.0,0.0693960189819336
18.0,0.06632659584283829
20.0,0.06344006955623627
22.0,0.06095635145902634
24.0,0.058693379163742065
26.0,0.05690953508019447
28.0,0.054915089160203934
30.0,0.052978064864873886
32.0,0.05106678605079651
36.0,0.04797379672527313
40.0,0.04493970051407814
44.0,0.04234594479203224
48.0,0.04014940932393074
52.0,0.03900598734617233
56.0,0.03813675045967102
60.0,0.03765324503183365
64.0,0.036916084587574005
72.0,0.03566358610987663
80.0,0.03412541002035141
88.0,0.032041583210229874
96.0,0.029936613515019417
104.0,0.027731934562325478
112.0,0.02635439857840538
120.0,0.02482554502785206
128.0,0.024359479546546936
144.0,0.023510705679655075
160.0,0.022032596170902252
176.0,0.020383082330226898
192.0,0.017765982076525688
208.0,0.017440058290958405
224.0,0.018504522740840912
240.0,0.01974806748330593
256.0,0.01698237471282482
288.0,0.016347063705325127
320.0,0.016488835215568542
352.0,0.016738852486014366
384.0,0.01597764529287815
416.0,0.012592384591698647
448.0,0.008541143499314785
480.0,0.0062938896007835865
512.0,0.0010032784193754196
576.0,-7.292986265383661e-05
640.0,0.00491349957883358
704.0,0.00596616743132472
768.0,0.0054264855571091175
832.0,-0.0011824480025097728
896.0,-0.00723342876881361
960.0,-0.0035292760003358126
1024.0,-0.007598298601806164
1152.0,-0.006140090059489012
1280.0,-0.008102938532829285
1408.0,-0.005408839322626591
1536.0,-0.005812876392155886
1664.0,-0.012491274625062943
1792.0,-0.012011578306555748
1920.0,-0.010543802753090858
2048.0,-0.005685476120561361
2304.0,-0.008508803322911263
2560.0,-7.0459398557432e-05
2816.0,-0.0017243026522919536
3072.0,-0.004294296260923147
3328.0,0.005080996546894312
3584.0,0.006038403604179621
3840.0,0.007868668995797634
4096.0,0.00978620070964098
4608.0,0.001570454565808177
5120.0,-0.003965859767049551
5632.0,0.006143941543996334
6144.0,0.0016860848991200328
6656.0,-0.013182053342461586
7168.0,-0.009085090830922127
7680.0,-0.005459196865558624
8192.0,-0.000311569485347718
end
