version,3.0
numOfCh,1
type,point
parent_name,c1204_0dot4-1dot0
ch_type,1_1
kcount,1
numberNandB,1
brightnessNandB,1
carpet pos,0
pc,0
Time (ms),CH1 Auto-Correlation
1.0,0.11177746206521988
2.0,0.1074143722653389
3.0,0.10346488654613495
4.0,0.09991850703954697
5.0,0.09663716703653336
6.0,0.0936611220240593
7.0,0.09093896299600601
8.0,0.08833935111761093
9.0,0.0857832208275795
10.0,0.0833045095205307
11.0,0.08112511038780212
12.0,0.07915613055229187
13.0,0.07719246298074722
14.0,0.07526169717311859
15.0,0.0733853131532669
16.0,0.07160945981740952
18.0,0.06831186264753342
20.0,0.06540600210428238
22.0,0.0627489909529686
24.0,0.06018383800983429
26.0,0.05779301002621651
28.0,0.05580984428524971
30.0,0.054106708616018295
32.0,0.05270684137940407
36.0,0.050059735774993896
40.0,0.04709235206246376
44.0,0.0437253899872303
48.0,0.04036564752459526
52.0,0.03768603876233101
56.0,0.03579924628138542
60.0,0.03420551121234894
64.0,0.03261281177401543
72.0,0.030863802880048752
80.0,0.029312077909708023
88.0,0.02727438509464264
96.0,0.026836615055799484
104.0,0.026161937043070793
112.0,0.025655552744865417
120.0,0.024944866076111794
128.0,0.023865122348070145
144.0,0.023333335295319557
160.0,0.023349551483988762
176.0,0.022260557860136032
192.0,0.02055683545768261
208.0,0.018641287460923195
224.0,0.01847374625504017
240.0,0.017089970409870148
256.0,0.013648058287799358
288.0,0.007894587703049183
320.0,0.003760968567803502
352.0,0.003140124026685953
384.0,0.00451008090749383
416.0,0.004133761860430241
448.0,0.001424069982022047
480.0,0.002196728251874447
512.0,0.005320696625858545
576.0,0.005966845899820328
640.0,0.0018362284172326326
704.0,0.0010698484256863594
768.0,0.003313989844173193
832.0,0.004951032809913158
896.0,-0.00023554176732432097
960.0,-0.0033897142857313156
1024.0,-0.0005839808145537972
1152.0,0.000434613146353513
1280.0,-0.001968458527699113
1408.0,-0.00393203878775239
1536.0,0.00011579773126868531
1664.0,-0.005551657173782587
1792.0,-0.00776906032115221
1920.0,-0.008893083781003952
2048.0,-0.00958289299160242
2304.0,0.00121202040463686
2560.0,0.004154830705374479
2816.0,0.006298785097897053
3072.0,0.01052657701075077
3328.0,-0.0012638248736038804
3584.0,-0.009811562485992908
3840.0,-0.0027169829700142145
4096.0,0.00015189852274488658
4608.0,-0.006838624365627766
5120.0,-0.006171126384288073
5632.0,0.00415226211771369
6144.0,-0.003268883563578129
6656.0,0.0010517435148358345
7168.0,0.004152659326791763
7680.0,0.0034708736930042505
8192.0,0.017055856063961983
end
