version,3.0
numOfCh,1
type,point
parent_name,c1204_0dot4-1dot0
ch_type,1_1
kcount,1
numberNandB,1
brightnessNandB,1
carpet pos,0
pc,0
Time (ms),CH1 Auto-Correlation
1.0,0.0981471985578537
2.0,0.09433957934379578
3.0,0.09074729681015015
4.0,0.08735404163599014
5.0,0.08413220196962357
6.0,0.08113120496273041
7.0,0.07824873924255371
8.0,0.07559968531131744
9.0,0.07324864715337753
10.0,0.07104175537824631
11.0,0.06907889246940613
12.0,0.06735266000032425
13.0,0.06580138951539993
14.0,0.06436476856470108
15.0,0.06307066231966019
16.0,0.061807531863451004
18.0,0.059505645185709
20.0,0.0572945810854435
22.0,0.055170971900224686
24.0,0.05325820669531822
26.0,0.05142584443092346
28.0,0.049840837717056274
30.0,0.04828466847538948
32.0,0.04682176932692528
36.0,0.04429503157734871
40.0,0.041912972927093506
44.0,0.03955913707613945
48.0,0.03748388960957527
52.0,0.03529282659292221
56.0,0.03356124833226204
60.0,0.03167540207505226
64.0,0.029195362702012062
72.0,0.025735650211572647
80.0,0.0242583267390728
88.0,0.02280278690159321
96.0,0.02081378363072872
104.0,0.019587315618991852
112.0,0.01863168552517891
120.0,0.017353573814034462
128.0,0.015685955062508583
144.0,0.010987275280058384
160.0,0.008334100246429443
176.0,0.006748215761035681
192.0,0.0063691954128444195
208.0,0.004701341036707163
224.0,0.0043053398840129375
240.0,0.004773544147610664
256.0,0.005006799940019846
288.0,0.0039683799259364605
320.0,0.001132689299993217
352.0,-0.002190773608162999
384.0,-0.0011448576115071774
416.0,-0.001727269496768713
448.0,-0.00274833757430315
480.0,-0.0028533271979540586
512.0,-0.003869578940793872
576.0,-0.000623636762611568
640.0,0.00038539423258043826
704.0,0.0032512673642486334
768.0,0.0007971823797561228
832.0,0.0047342353500425816
896.0,0.0043891980312764645
960.0,0.002619405509904027
1024.0,0.0006229463615454733
1152.0,0.0035390998236835003
1280.0,-0.0022544623352587223
1408.0,0.004273149184882641
1536.0,0.003893176792189479
1664.0,-0.0004813408595509827
1792.0,-0.010090166702866554
1920.0,-0.010129189118742943
2048.0,-0.0037189112044870853
2304.0,0.000259457592619583
2560.0,-0.0024515113327652216
2816.0,-0.009885973297059536
3072.0,-0.002691785804927349
3328.0,-0.005658045411109924
3584.0,0.0037230283487588167
3840.0,-0.0011663382174447179
4096.0,-0.008650283329188824
4608.0,-0.003033856861293316
5120.0,-0.005412705708295107
5632.0,0.0014268993400037289
6144.0,0.0015941283199936152
6656.0,0.0017926539294421673
7168.0,0.00020008139836136252
7680.0,0.0038392359856516123
8192.0,0.007466545328497887
end
