version,3.0
numOfCh,1
type,point
parent_name,c1204_0dot4-1dot0
ch_type,1_1
kcount,1
numberNandB,1
brightnessNandB,1
carpet pos,0
pc,0
Time (ms),CH1 Auto-Correlation
1.0,0.10921163856983185
2.0,0.10521864145994186
3.0,0.10148380696773529
4.0,0.09800660610198975
5.0,0.09482061862945557
6.0,0.09178127348423004
7.0,0.08900392800569534
8.0,0.08633275330066681
9.0,0.08366937935352325
10.0,0.08134911954402924
11.0,0.07920089364051819
12.0,0.07726036757230759
13.0,0.07533875107765198
14.0,0.0736938863992691
15.0,0.07209303230047226
16.0,0.07044218480587006
18.0,0.06731035560369492
20.0,0.06428101658821106
22.0,0.06184633821249008
24.0,0.059598397463560104
26.0,0.057243119925260544
28.0,0.0547858327627182
30.0,0.05260303616523743
32.0,0.05047643557190895
36.0,0.04694107174873352
40.0,0.04386783018708229
44.0,0.04045148938894272
48.0,0.03720629960298538
52.0,0.035174328833818436
56.0,0.033587004989385605
60.0,0.03189836069941521
64.0,0.030283771455287933
72.0,0.027195466682314873
80.0,0.02449878677725792
88.0,0.02271643653512001
96.0,0.02149655483663082
104.0,0.019860513508319855
112.0,0.017077822238206863
120.0,0.015902450308203697
128.0,0.015624011866748333
144.0,0.013000630773603916
160.0,0.011111400090157986
176.0,0.009731585159897804
192.0,0.0068022399209439754
208.0,0.004764464218169451
224.0,0.004938694182783365
240.0,0.00627782940864563
256.0,0.007608961779624224
288.0,0.006553876679390669
320.0,0.0034022291656583548
352.0,0.0013913213042542338
384.0,0.00014962005661800504
416.0,-0.002311240416020155
448.0,-0.002439928473904729
480.0,-0.010260100476443768
512.0,-0.013313029892742634
576.0,-0.009553825482726097
640.0,-0.0044913701713085175
704.0,-0.002953680930659175
768.0,-0.0018639847403392196
832.0,-0.003666990203782916
896.0,-0.012186442501842976
960.0,-0.010406323708593845
1024.0,-0.0014588750200346112
1152.0,0.00837868545204401
1280.0,0.0006755345384590328
1408.0,0.0023884600959718227
1536.0,0.007785995490849018
1664.0,0.0037258940283209085
1792.0,0.007427352014929056
1920.0,0.002377261407673359
2048.0,-0.006067958660423756
2304.0,-0.0026547638699412346
2560.0,0.002592273987829685
2816.0,-0.0010575858177617192
3072.0,-0.0003533878771122545
3328.0,0.00203267065808177
3584.0,0.0018039144342765212
3840.0,-0.001412703888490796
4096.0,-0.005260329693555832
4608.0,0.0018423687433823943
5120.0,-0.001355224521830678
5632.0,0.0023837790358811617
6144.0,-0.003106622723862529
6656.0,-0.007374422159045935
7168.0,0.0021480638533830643
7680.0,-0.0008905319846235216
8192.0,0.0007984206895343959
end
