version,3.0
numOfCh,1
type,point
parent_name,c1204_0dot4-1dot0
ch_type,1_1
kcount,1
numberNandB,1
brightnessNandB,1
carpet pos,0
pc,0
Time (ms),CH1 Auto-Correlation
1.0,0.11977138370275497
2.0,0.11562705785036087
3.0,0.11184324324131012
4.0,0.10837415605783463
5.0,0.10514800995588303
6.0,0.1020440012216568
7.0,0.09918185323476791
8.0,0.09650715440511703
9.0,0.09389723092317581
10.0,0.09150166064500809
11.0,0.08912089467048645
12.0,0.08685172349214554
13.0,0.08462804555892944
14.0,0.08258294314146042
15.0,0.0804940015077591
16.0,0.07850910723209381
18.0,0.07505417615175247
20.0,0.07191859930753708
22.0,0.06936469674110413
24.0,0.06716404855251312
26.0,0.0650937482714653
28.0,0.06321915239095688
30.0,0.06151609122753143
32.0,0.059893567115068436
36.0,0.05703217536211014
40.0,0.054428212344646454
44.0,0.05199068412184715
48.0,0.04931097850203514
52.0,0.04645853862166405
56.0,0.04380296915769577
60.0,0.04096204787492752
64.0,0.038200560957193375
72.0,0.033943336457014084
80.0,0.03070111945271492
88.0,0.029101504012942314
96.0,0.02848578244447708
104.0,0.027509916573762894
112.0,0.025920957326889038
120.0,0.02419748343527317
128.0,0.024192387238144875
144.0,0.02569173090159893
160.0,0.025462154299020767
176.0,0.022828679531812668
192.0,0.019815195351839066
208.0,0.019920505583286285
224.0,0.020085863769054413
240.0,0.02032330632209778
256.0,0.02066027745604515
288.0,0.017299966886639595
320.0,0.016153255477547646
352.0,0.010382591746747494
384.0,0.011371740140020847
416.0,0.011235005222260952
448.0,0.00878916960209608
480.0,0.0070579443126916885
512.0,0.00490975845605135
576.0,0.005636111833155155
640.0,0.0029439483769237995
704.0,0.00404312601312995
768.0,0.010282603092491627
832.0,0.012689003720879555
896.0,0.01419614814221859
960.0,0.010602463968098164
1024.0,0.00879121944308281
1152.0,0.008336007595062256
1280.0,0.006806568242609501
1408.0,0.013687807135283947
1536.0,0.012710112147033215
1664.0,0.01965140551328659
1792.0,0.019584890455007553
1920.0,0.01433669961988926
2048.0,0.01273941807448864
2304.0,0.002624103333801031
2560.0,0.005551627837121487
2816.0,0.013690609484910965
3072.0,0.003284923266619444
3328.0,0.00289556453935802
3584.0,0.006141504272818565
3840.0,0.003114384366199374
4096.0,0.0027427086606621742
4608.0,-1.5323126717703417e-05
5120.0,-0.0008286481024697423
5632.0,-0.001068271929398179
6144.0,-0.011484134942293167
6656.0,-0.009029792621731758
7168.0,-0.0110252620652318
7680.0,-0.010800712741911411
8192.0,-0.020991187542676926
end
