version,3.0
numOfCh,1
type,point
parent_name,c1204_0dot4-1dot0
ch_type,1_1
kcount,1
numberNandB,1
brightnessNandB,1
carpet pos,0
pc,0
Time (ms),CH1 Auto-Correlation
1.0,0.10129936039447784
2.0,0.09697505831718445
3.0,0.09317821264266968
4.0,0.08985858410596848
5.0,0.08664693683385849
6.0,0.08363518863916397
7.0,0.08099175244569778
8.0,0.07844191789627075
9.0,0.07607696205377579
10.0,0.07393359392881393
11.0,0.07186988741159439
12.0,0.07011263072490692
13.0,0.06824556738138199
14.0,0.06637884676456451
15.0,0.0647352859377861
16.0,0.06331949681043625
18.0,0.060403790324926376
20.0,0.057707324624061584
22.0,0.055157195776700974
24.0,0.052933745086193085
26.0,0.05079128220677376
28.0,0.048840854316949844
30.0,0.04713684692978859
32.0,0.04548362269997597
36.0,0.04203611984848976
40.0,0.038864605128765106
44.0,0.03585391864180565
48.0,0.03345721960067749
52.0,0.03080536052584648
56.0,0.02824731171131134
60.0,0.026123885065317154
64.0,0.02430277317762375
72.0,0.021639831364154816
80.0,0.02141941897571087
88.0,0.020388884469866753
96.0,0.018438247963786125
104.0,0.01665734127163887
112.0,0.015741994604468346
120.0,0.015245992690324783
128.0,0.015055348165333271
144.0,0.015389947220683098
160.0,0.015406819991767406
176.0,0.015677431598305702
192.0,0.01482494454830885
208.0,0.014688389375805855
224.0,0.011271204799413681
240.0,0.008383854292333126
256.0,0.006363429594784975
288.0,0.007358964532613754
320.0,0.0072776139713823795
352.0,0.004760211333632469
384.0,0.003224374260753393
416.0,0.0008876170613802969
448.0,-0.0007950965082272887
480.0,0.0007424287032335997
512.0,-0.0016190512105822563
576.0,-0.00511498749256134
640.0,-0.008766292594373226
704.0,-0.009334786795079708
768.0,-0.010869229212403297
832.0,-0.0058161173947155476
896.0,-0.004753468092530966
960.0,-0.005906636826694012
1024.0,-0.007153451442718506
1152.0,-0.0057268040254712105
1280.0,-0.004028020426630974
1408.0,0.003613916924223304
1536.0,0.006576002575457096
1664.0,0.0008913336787372828
1792.0,-0.00018331852334085852
1920.0,-0.0001568511506775394
2048.0,-0.0041153570637106895
2304.0,-0.004368747118860483
2560.0,-0.0014461497776210308
2816.0,0.003927442245185375
3072.0,0.0016368108335882425
3328.0,0.007752690464258194
3584.0,-0.0020943048875778913
3840.0,-0.011247404851019382
4096.0,-0.0019245630828663707
4608.0,-0.006282055284827948
5120.0,-0.0061009605415165424
5632.0,0.0001908441772684455
6144.0,0.0007889780681580305
6656.0,0.005376897286623716
7168.0,0.004145228769630194
7680.0,-0.0036721634678542614
8192.0,-0.0006482547614723444
end
