version,3.0
numOfCh,1
type,point
parent_name,c1204_0dot4-1dot0
ch_type,1_1
kcount,1
numberNandB,1
brightnessNandB,1
carpet pos,0
pc,0
Time (ms),CH1 Auto-Correlation
1.0,0.10538704693317413
2.0,0.10113878548145294
3.0,0.09735596925020218
4.0,0.09390231966972351
5.0,0.09079434722661972
6.0,0.08775962889194489
7.0,0.08480032533407211
8.0,0.08202523738145828
9.0,0.07947252690792084
10.0,0.07703166455030441
11.0,0.07460582256317139
12.0,0.07234054058790207
13.0,0.07016368955373764
14.0,0.06820017099380493
15.0,0.06636756658554077
16.0,0.06459275633096695
18.0,0.061553552746772766
20.0,0.058902475982904434
22.0,0.056520119309425354
24.0,0.05418062210083008
26.0,0.0519663468003273
28.0,0.04997556656599045
30.0,0.04832274466753006
32.0,0.046836432069540024
36.0,0.04401329532265663
40.0,0.041576970368623734
44.0,0.03896643966436386
48.0,0.035647034645080566
52.0,0.032251011580228806
56.0,0.029216846451163292
60.0,0.026668978855013847
64.0,0.02473832480609417
72.0,0.020960932597517967
80.0,0.01791839674115181
88.0,0.015931246802210808
96.0,0.015375198796391487
104.0,0.015285112895071507
112.0,0.015693334862589836
120.0,0.01592998392879963
128.0,0.015432664193212986
144.0,0.01521033514291048
160.0,0.015787238255143166
176.0,0.012911979109048843
192.0,0.00956534780561924
208.0,0.007864908315241337
224.0,0.007724334020167589
240.0,0.008299406617879868
256.0,0.008780318312346935
288.0,0.007007804233580828
320.0,0.004936510697007179
352.0,0.0013238212559372187
384.0,-0.004153309389948845
416.0,-0.00868154689669609
448.0,-0.006895642261952162
480.0,-0.004321345128118992
512.0,-0.004632233642041683
576.0,-0.0024551041424274445
640.0,-0.00046789104817435145
704.0,0.00396239198744297
768.0,0.004382679238915443
832.0,0.0036802124232053757
896.0,0.003929333761334419
960.0,0.0021138323936611414
1024.0,-0.002480471506714821
1152.0,-0.007432588841766119
1280.0,-0.008327450603246689
1408.0,-0.008432859554886818
1536.0,0.00017585267778486013
1664.0,0.00684566842392087
1792.0,0.0026694126427173615
1920.0,-0.00011394210014259443
2048.0,0.0014749587280675769
2304.0,0.002315474906936288
2560.0,0.004807999357581139
2816.0,-0.0051092104986310005
3072.0,-0.007182092405855656
3328.0,0.005538858473300934
3584.0,0.0016382058383896947
3840.0,-0.005093674641102552
4096.0,0.006774593610316515
4608.0,0.000540971290320158
5120.0,-0.010485724546015263
5632.0,-0.005573506932705641
6144.0,0.0013695377856492996
6656.0,0.0054944357834756374
7168.0,-0.002225268632173538
7680.0,0.010067189112305641
8192.0,0.004096013959497213
end
