version,3.0
numOfCh,1
type,point
parent_name,c1204_0dot4-1dot0
ch_type,1_1
kcount,1
numberNandB,1
brightnessNandB,1
carpet pos,0
pc,0
Time (ms),CH1 Auto-Correlation
1.0,0.11337290704250336
2.0,0.10946387052536011
3.0,0.10582736879587173
4.0,0.1023482158780098
5.0,0.0991431251168251
6.0,0.09624172747135162
7.0,0.0934184268116951
8.0,0.09069971740245819
9.0,0.0881289690732956
10.0,0.0858253613114357
11.0,0.08365212380886078
12.0,0.0815945416688919
13.0,0.07964356988668442
14.0,0.07790308445692062
15.0,0.07632319629192352
16.0,0.07484518736600876
18.0,0.07190071046352386
20.0,0.0691891759634018
22.0,0.066737100481987
24.0,0.06440673023462296
26.0,0.06210150569677353
28.0,0.05960242077708244
30.0,0.05721573531627655
32.0,0.05510104075074196
36.0,0.05082292482256889
40.0,0.047017451375722885
44.0,0.04421728849411011
48.0,0.04200892895460129
52.0,0.04064805060625076
56.0,0.040048982948064804
60.0,0.03985222801566124
64.0,0.038951676338911057
72.0,0.03781633451581001
80.0,0.03789309412240982
88.0,0.03840681165456772
96.0,0.0385013222694397
104.0,0.03812415152788162
112.0,0.03667879477143288
120.0,0.03426866978406906
128.0,0.03243981674313545
144.0,0.031057391315698624
160.0,0.029711442068219185
176.0,0.027553627267479897
192.0,0.024722978472709656
208.0,0.021956216543912888
224.0,0.017893793061375618
240.0,0.016597412526607513
256.0,0.018927471712231636
288.0,0.020038636401295662
320.0,0.01756220869719982
352.0,0.01816636137664318
384.0,0.019432304427027702
416.0,0.019636303186416626
448.0,0.014979047700762749
480.0,0.014814580790698528
512.0,0.015070638619363308
576.0,0.015036214143037796
640.0,0.01868588663637638
704.0,0.01828763447701931
768.0,0.015438996255397797
832.0,0.01349206455051899
896.0,0.013504489324986935
960.0,0.01489609107375145
1024.0,0.0101478211581707
1152.0,0.010189766995608807
1280.0,0.008577553555369377
1408.0,0.005252673290669918
1536.0,0.007049329578876495
1664.0,0.005404267925769091
1792.0,0.004037220496684313
1920.0,0.005338434595614672
2048.0,0.008554385043680668
2304.0,0.0004970675799995661
2560.0,-0.006190293934196234
2816.0,0.0008550695492886007
3072.0,-0.004667388740926981
3328.0,-0.007767779752612114
3584.0,-0.0038467268459498882
3840.0,-0.009009543806314468
4096.0,-0.01368633285164833
4608.0,-0.0023787906393408775
5120.0,0.001729266601614654
5632.0,-0.0019395272247493267
6144.0,-0.007906387560069561
6656.0,-0.01242733746767044
7168.0,-0.01876182295382023
7680.0,-0.017904415726661682
8192.0,-0.01770569384098053
end
