version,3.0
numOfCh,1
type,point
parent_name,c1204_0dot4-1dot0
ch_type,1_1
kcount,1
numberNandB,1
brightnessNandB,1
carpet pos,0
pc,0
Time (ms),CH1 Auto-Correlation
1.0,0.1169794425368309
2.0,0.11279986053705215
3.0,0.10903606563806534
4.0,0.10559622198343277
5.0,0.10245774686336517
6.0,0.09958168119192123
7.0,0.09681086987257004
8.0,0.09426342695951462
9.0,0.09173174202442169
10.0,0.08935510367155075
11.0,0.08696040511131287
12.0,0.08461720496416092
13.0,0.08237162977457047
14.0,0.08038094639778137
15.0,0.07854752242565155
16.0,0.07662604004144669
18.0,0.07285892963409424
20.0,0.0696464404463768
22.0,0.0666877031326294
24.0,0.06405812501907349
26.0,0.061478838324546814
28.0,0.05884689837694168
30.0,0.056468769907951355
32.0,0.0544624961912632
36.0,0.050732869654893875
40.0,0.04750630259513855
44.0,0.044950488954782486
48.0,0.04335463047027588
52.0,0.041825294494628906
56.0,0.03979281336069107
60.0,0.0377097949385643
64.0,0.03538829833269119
72.0,0.0319664441049099
80.0,0.02886604145169258
88.0,0.026169639080762863
96.0,0.023636553436517715
104.0,0.021243669092655182
112.0,0.018054695799946785
120.0,0.016074279323220253
128.0,0.014960994943976402
144.0,0.014078997075557709
160.0,0.012245879508554935
176.0,0.010035856626927853
192.0,0.0076352390460669994
208.0,0.0036124789621680975
224.0,-0.0006814504158683121
240.0,-0.0038419777993112803
256.0,-0.004250005818903446
288.0,-0.0037169705610722303
320.0,-0.003165134461596608
352.0,-0.00023073151533026248
384.0,0.00018781190738081932
416.0,0.0015633497387170792
448.0,0.0032031740993261337
480.0,0.0038924715481698513
512.0,0.005820755381137133
576.0,0.006209370214492083
640.0,0.001370542566291988
704.0,0.002764579141512513
768.0,-0.00033130421070382
832.0,-0.0010007313685491681
896.0,0.0016096496256068349
960.0,0.003971570637077093
1024.0,-8.926978625822812e-05
1152.0,-0.012500612996518612
1280.0,-0.01265594083815813
1408.0,0.005134809762239456
1536.0,0.005335421301424503
1664.0,0.0030718210618942976
1792.0,0.000348584697348997
1920.0,-0.0011723331408575177
2048.0,-0.000853830948472023
2304.0,0.006172931287437677
2560.0,-0.007425599731504917
2816.0,0.0013568054419010878
3072.0,-0.001937299151904881
3328.0,0.0007824202184565365
3584.0,-0.009541429579257965
3840.0,0.014928131364285946
4096.0,-0.006618070416152477
4608.0,-0.0026553692296147346
5120.0,-0.0024483944289386272
5632.0,0.003521405626088381
6144.0,0.0020333013962954283
6656.0,-0.0015708737773820758
7168.0,-0.007594984024763107
7680.0,-0.0006846056785434484
8192.0,-0.0005112639046274126
end
