version,3.0
numOfCh,1
type,point
parent_name,c1204_0dot4-1dot0
ch_type,1_1
kcount,1
numberNandB,1
brightnessNandB,1
carpet pos,0
pc,0
Time (ms),CH1 Auto-Correlation
1.0,0.10811156034469604
2.0,0.1043323501944542
3.0,0.10078729689121246
4.0,0.09759479016065598
5.0,0.09468375891447067
6.0,0.0918286070227623
7.0,0.08923453092575073
8.0,0.08689006417989731
9.0,0.08473175019025803
10.0,0.08275612443685532
11.0,0.0809154063463211
12.0,0.07902869582176208
13.0,0.07729987800121307
14.0,0.07561013847589493
15.0,0.0740608423948288
16.0,0.07259729504585266
18.0,0.06966421008110046
20.0,0.06710591167211533
22.0,0.06507336348295212
24.0,0.06326908618211746
26.0,0.06158589944243431
28.0,0.05984552577137947
30.0,0.057861972600221634
32.0,0.05607486516237259
36.0,0.05225725471973419
40.0,0.04857438802719116
44.0,0.04497522860765457
48.0,0.041923414915800095
52.0,0.03905321657657623
56.0,0.03617655485868454
60.0,0.033800188452005386
64.0,0.03163532540202141
72.0,0.028199318796396255
80.0,0.025793032720685005
88.0,0.02397715486586094
96.0,0.022573968395590782
104.0,0.021265191957354546
112.0,0.020204663276672363
120.0,0.018666526302695274
128.0,0.01697656512260437
144.0,0.015417605638504028
160.0,0.013286923989653587
176.0,0.010065228678286076
192.0,0.005879327189177275
208.0,0.0026532153133302927
224.0,-0.0009610904380679131
240.0,-0.0033460103441029787
256.0,-0.0031857285648584366
288.0,0.0006177494069561362
320.0,0.0031416898127645254
352.0,0.004408540204167366
384.0,0.00044134387280792
416.0,-0.0014778408221900463
448.0,-0.0003401157446205616
480.0,-0.0010869397083297372
512.0,-0.00011462542170193046
576.0,-0.0012807105667889118
640.0,-0.0032034977339208126
704.0,-0.004731214605271816
768.0,-0.007003519684076309
832.0,-0.004070347175002098
896.0,0.0027103833854198456
960.0,0.005426075775176287
1024.0,0.0025125930551439524
1152.0,-0.007289597298949957
1280.0,-0.0042607784271240234
1408.0,0.0012850950006395578
1536.0,-7.147289579734206e-06
1664.0,-0.0016006878577172756
1792.0,-0.0022936249151825905
1920.0,-0.0032852105796337128
2048.0,-0.003956983797252178
2304.0,-0.003778616664931178
2560.0,-0.005903698969632387
2816.0,-0.0009345688158646226
3072.0,0.00222488259896636
3328.0,0.0053857662715017796
3584.0,7.996709427970927e-07
3840.0,-0.002003920031711459
4096.0,0.0038647924084216356
4608.0,0.0021792170591652393
5120.0,0.0008403182146139443
5632.0,0.0016648228047415614
6144.0,-0.005046442616730928
6656.0,-0.004744060803204775
7168.0,0.0060224453918635845
7680.0,0.0035374765284359455
8192.0,-0.002117976313456893
end
