version,3.0
numOfCh,1
type,point
parent_name,c1204_0dot4-1dot0
ch_type,1_1
kcount,1
numberNandB,1
brightnessNandB,1
carpet pos,0
pc,0
Time (ms),CH1 Auto-Correlation
1.0,0.1125946044921875
2.0,0.10855735093355179
3.0,0.10493768006563187
4.0,0.1015954315662384
5.0,0.09849924594163895
6.0,0.09566200524568558
7.0,0.09316414594650269
8.0,0.09077566117048264
9.0,0.08840312063694
10.0,0.08606301248073578
11.0,0.0838906317949295
12.0,0.08185792714357376
13.0,0.07993324100971222
14.0,0.07808330655097961
15.0,0.07634574919939041
16.0,0.0747009813785553
18.0,0.07141344994306564
20.0,0.06863921880722046
22.0,0.06625775247812271
24.0,0.0640711784362793
26.0,0.06193731725215912
28.0,0.06005271524190903
30.0,0.058401837944984436
32.0,0.05666407570242882
36.0,0.05355694890022278
40.0,0.05089772492647171
44.0,0.04852597415447235
48.0,0.04596582427620888
52.0,0.0437890961766243
56.0,0.04176069796085358
60.0,0.040180906653404236
64.0,0.038644369691610336
72.0,0.03540419414639473
80.0,0.031984079629182816
88.0,0.02896103635430336
96.0,0.027086062356829643
104.0,0.025446612387895584
112.0,0.023915022611618042
120.0,0.022315548732876778
128.0,0.020611610263586044
144.0,0.015808535739779472
160.0,0.013361990451812744
176.0,0.012870610691606998
192.0,0.011567455716431141
208.0,0.01067811157554388
224.0,0.010322715155780315
240.0,0.00942529458552599
256.0,0.008038714528083801
288.0,0.004412552807480097
320.0,0.004910987801849842
352.0,0.007593968417495489
384.0,0.006214549299329519
416.0,0.002794527215883136
448.0,0.002330754417926073
480.0,0.003852208610624075
512.0,0.002287693554535508
576.0,-0.0023777084425091743
640.0,-0.004980477970093489
704.0,-0.004027837887406349
768.0,-0.0037186124827712774
832.0,-0.00745456712320447
896.0,-0.00777068268507719
960.0,-0.00639683473855257
1024.0,-0.01161726750433445
1152.0,-0.01200405415147543
1280.0,-0.007046452257782221
1408.0,-0.010064230300486088
1536.0,-0.009718061424791813
1664.0,-0.008509960025548935
1792.0,-0.0026718631852418184
1920.0,0.01473951991647482
2048.0,0.018573347479104996
2304.0,0.0003707699361257255
2560.0,-0.002274624537676573
2816.0,0.0005680095055140555
3072.0,-0.005453877616673708
3328.0,-0.0005411379388533533
3584.0,-0.0065496694296598434
3840.0,0.002485226606950164
4096.0,0.005094790365546942
4608.0,-0.0009897095151245594
5120.0,-0.0026621208526194096
5632.0,0.002031415468081832
6144.0,-0.0034847904462367296
6656.0,-0.00238272687420249
7168.0,-0.00503454077988863
7680.0,0.006372036412358284
8192.0,-0.00798551831394434
end
