version,3.0
numOfCh,1
type,point
parent_name,c1204_0dot4-1dot0
ch_type,1_1
kcount,1
numberNandB,1
brightnessNandB,1
carpet pos,0
pc,0
Time (ms),CH1 Auto-Correlation
1.0,0.10880006104707718
2.0,0.10455361753702164
3.0,0.10072686523199081
4.0,0.09724634885787964
5.0,0.09412060678005219
6.0,0.0911274254322052
7.0,0.08820265531539917
8.0,0.08546395599842072
9.0,0.08288060128688812
10.0,0.08058474957942963
11.0,0.07829298079013824
12.0,0.07615892589092255
13.0,0.07411955296993256
14.0,0.07236054539680481
15.0,0.07075518369674683
16.0,0.0692104697227478
18.0,0.06631157547235489
20.0,0.06366023421287537
22.0,0.06147189065814018
24.0,0.059495121240615845
26.0,0.0578460767865181
28.0,0.05624577775597572
30.0,0.05475117266178131
32.0,0.05317700281739235
36.0,0.050099942833185196
40.0,0.04746100306510925
44.0,0.044828690588474274
48.0,0.042195722460746765
52.0,0.03878730908036232
56.0,0.035549893975257874
60.0,0.03308882191777229
64.0,0.03147294372320175
72.0,0.029491016641259193
80.0,0.02823454886674881
88.0,0.026203442364931107
96.0,0.02505241148173809
104.0,0.02344241738319397
112.0,0.021077081561088562
120.0,0.019283737987279892
128.0,0.016562864184379578
144.0,0.01146925613284111
160.0,0.009346641600131989
176.0,0.0076310401782393456
192.0,0.00962818693369627
208.0,0.010743480175733566
224.0,0.010775652714073658
240.0,0.011693100444972515
256.0,0.011113075539469719
288.0,0.007869181223213673
320.0,0.005581659730523825
352.0,0.0053276061080396175
384.0,0.00477027939632535
416.0,0.004349765833467245
448.0,0.006177597679197788
480.0,0.009225117973983288
512.0,0.009558838792145252
576.0,0.011607786640524864
640.0,0.00914311595261097
704.0,0.005414827261120081
768.0,0.006573002319782972
832.0,0.010849989950656891
896.0,0.007976685650646687
960.0,0.008457313291728497
1024.0,0.006652534008026123
1152.0,0.007454907987266779
1280.0,0.006834155879914761
1408.0,0.004125276114791632
1536.0,0.003983973525464535
1664.0,0.014722700230777264
1792.0,0.012304135598242283
1920.0,0.00715062627568841
2048.0,6.749496969860047e-05
2304.0,0.0034851685632020235
2560.0,0.01374306995421648
2816.0,0.006331056356430054
3072.0,0.008188370615243912
3328.0,0.006674931850284338
3584.0,0.0073625179938972
3840.0,0.0006088686059229076
4096.0,-0.0034292081836611032
4608.0,0.0004403365892358124
5120.0,-0.004066902678459883
5632.0,-0.005492031574249268
6144.0,-0.0027989414520561695
6656.0,-0.008313924074172974
7168.0,-0.007355368696153164
7680.0,-0.013625330291688442
8192.0,-0.012214791029691696
end
