version,3.0
numOfCh,1
type,point
parent_name,c1204_0dot4-1dot0
ch_type,1_1
kcount,1
numberNandB,1
brightnessNandB,1
carpet pos,0
pc,0
Time (ms),CH1 Auto-Correlation
1.0,0.10260333120822906
2.0,0.09872099757194519
3.0,0.09497498720884323
4.0,0.09159856289625168
5.0,0.08839575946331024
6.0,0.0853496566414833
7.0,0.08239845931529999
8.0,0.07956774532794952
9.0,0.07696806639432907
10.0,0.07440135627985
11.0,0.07208999246358871
12.0,0.07001585513353348
13.0,0.06804956495761871
14.0,0.06610728800296783
15.0,0.06425140798091888
16.0,0.0626000314950943
18.0,0.059927746653556824
20.0,0.057427745312452316
22.0,0.05519280955195427
24.0,0.05308379977941513
26.0,0.05101323500275612
28.0,0.04908757656812668
30.0,0.047199901193380356
32.0,0.04546205699443817
36.0,0.04230112209916115
40.0,0.03984246030449867
44.0,0.03770434483885765
48.0,0.03603329509496689
52.0,0.034520991146564484
56.0,0.033410314470529556
60.0,0.032823964953422546
64.0,0.03225141763687134
72.0,0.0314413458108902
80.0,0.03092554211616516
88.0,0.028780147433280945
96.0,0.025962498039007187
104.0,0.02413693070411682
112.0,0.023264212533831596
120.0,0.021693922579288483
128.0,0.019816795364022255
144.0,0.015068182721734047
160.0,0.009482881985604763
176.0,0.006945385131984949
192.0,0.008512675762176514
208.0,0.008596894331276417
224.0,0.007019881159067154
240.0,0.006991757545620203
256.0,0.004866691771894693
288.0,0.0060251872055232525
320.0,0.006829621735960245
352.0,0.008444011211395264
384.0,0.007414951454848051
416.0,0.006296760868281126
448.0,0.00782861839979887
480.0,0.006761979311704636
512.0,0.003443867200985551
576.0,-0.0012765194987878203
640.0,-0.0020902445539832115
704.0,0.000389227265259251
768.0,-0.0018324797274544835
832.0,-0.0004856893210671842
896.0,-0.00408709654584527
960.0,-0.004319278988987207
1024.0,-0.012155176140367985
1152.0,-0.017148884013295174
1280.0,-0.012593844905495644
1408.0,-0.0019765745382755995
1536.0,-0.0006011863006278872
1664.0,-3.87625623261556e-05
1792.0,0.004760113079100847
1920.0,0.008167548105120659
2048.0,0.000791453174315393
2304.0,0.011178421787917614
2560.0,0.002499076770618558
2816.0,-0.007808533497154713
3072.0,-0.008512759581208229
3328.0,-0.006350011099129915
3584.0,-0.009792632423341274
3840.0,-0.0008406892884522676
4096.0,0.006074763834476471
4608.0,-0.0014569592894986272
5120.0,-0.0029550520703196526
5632.0,0.004308209288865328
6144.0,0.006560911890119314
6656.0,0.0012392931384965777
7168.0,-0.00324584380723536
7680.0,-0.008697801269590855
8192.0,-0.0039938464760780334
end
