version,3.0
numOfCh,1
type,point
parent_name,c1204_0dot4-1dot0
ch_type,1_1
kcount,1
numberNandB,1
brightnessNandB,1
carpet pos,0
pc,0
Time (ms),CH1 Auto-Correlation
1.0,0.10073211044073105
2.0,0.09677246958017349
3.0,0.09313042461872101
4.0,0.08986108005046844
5.0,0.08673088997602463
6.0,0.08386826515197754
7.0,0.08101242780685425
8.0,0.0784343034029007
9.0,0.07588913291692734
10.0,0.07354149222373962
11.0,0.07130499929189682
12.0,0.06927680969238281
13.0,0.06735280901193619
14.0,0.06567004323005676
15.0,0.06396771967411041
16.0,0.06237524002790451
18.0,0.05952441692352295
20.0,0.056716371327638626
22.0,0.05407871678471565
24.0,0.05153336003422737
26.0,0.04917505010962486
28.0,0.04708164185285568
30.0,0.045262016355991364
32.0,0.04358841851353645
36.0,0.04076951742172241
40.0,0.03845362365245819
44.0,0.03606751561164856
48.0,0.03435485064983368
52.0,0.0330326221883297
56.0,0.032004840672016144
60.0,0.03169254586100578
64.0,0.031031273305416107
72.0,0.030343035236001015
80.0,0.02987653948366642
88.0,0.030420931056141853
96.0,0.030605340376496315
104.0,0.030146557837724686
112.0,0.029186969622969627
120.0,0.028839923441410065
128.0,0.02852420136332512
144.0,0.02710098773241043
160.0,0.02512374147772789
176.0,0.023045040667057037
192.0,0.02006427012383938
208.0,0.019714413210749626
224.0,0.019470907747745514
240.0,0.01976526714861393
256.0,0.016058538109064102
288.0,0.00863914005458355
320.0,0.00553276389837265
352.0,0.003978298045694828
384.0,0.005806427448987961
416.0,0.003058370668441057
448.0,0.0018312224419787526
480.0,0.0006775190122425556
512.0,0.002065956126898527
576.0,-0.0027851639315485954
640.0,-0.007925158366560936
704.0,-0.005898404400795698
768.0,-0.006327343638986349
832.0,-0.00255802134051919
896.0,-0.010373735800385475
960.0,-0.005118927452713251
1024.0,-0.004110182635486126
1152.0,-0.004548751283437014
1280.0,-0.0019126699771732092
1408.0,-0.003248866181820631
1536.0,-0.0019573718309402466
1664.0,0.001960465917363763
1792.0,0.00734011409804225
1920.0,0.011278508231043816
2048.0,0.013132213614881039
2304.0,0.00614190986379981
2560.0,-0.0027570961974561214
2816.0,-0.011410079896450043
3072.0,-0.009850638918578625
3328.0,-0.008627052418887615
3584.0,-0.003326219506561756
3840.0,-0.004330122377723455
4096.0,-0.0019141333177685738
4608.0,0.0003966405929531902
5120.0,0.005271176807582378
5632.0,0.00024073402164503932
6144.0,-0.0027733989991247654
6656.0,0.006197079550474882
7168.0,0.00809414405375719
7680.0,-0.014801506884396076
8192.0,-0.008956841193139553
end
