version,3.0
numOfCh,1
type,point
parent_name,c1204_0dot4-1dot0
ch_type,1_1
kcount,1
numberNandB,1
brightnessNandB,1
carpet pos,0
pc,0
Time (ms),CH1 Auto-Correlation
1.0,0.10538209974765778
2.0,0.10148312151432037
3.0,0.0978822261095047
4.0,0.0945843905210495
5.0,0.09166970103979111
6.0,0.08892875164747238
7.0,0.08634021878242493
8.0,0.08391332626342773
9.0,0.08155998587608337
10.0,0.07930142432451248
11.0,0.07715007662773132
12.0,0.07510218769311905
13.0,0.07323699444532394
14.0,0.0714745745062828
15.0,0.0698118731379509
16.0,0.06830679625272751
18.0,0.06527642160654068
20.0,0.062405552715063095
22.0,0.05957556515932083
24.0,0.05723223835229874
26.0,0.05517485737800598
28.0,0.05304338410496712
30.0,0.05110824108123779
32.0,0.049334730952978134
36.0,0.045790836215019226
40.0,0.04293769225478172
44.0,0.040481772273778915
48.0,0.03786227107048035
52.0,0.035394370555877686
56.0,0.03335476666688919
60.0,0.03115852177143097
64.0,0.02892201766371727
72.0,0.025519054383039474
80.0,0.02249891497194767
88.0,0.019589867442846298
96.0,0.017670296132564545
104.0,0.017349833622574806
112.0,0.016692250967025757
120.0,0.01559409312903881
128.0,0.01450969185680151
144.0,0.014039631001651287
160.0,0.015163104981184006
176.0,0.015971828252077103
192.0,0.014792551286518574
208.0,0.0114558981731534
224.0,0.009924039244651794
240.0,0.008651540614664555
256.0,0.005663415417075157
288.0,-0.0011556650279089808
320.0,-0.004181946627795696
352.0,-0.0022083104122430086
384.0,-0.0011385175166651607
416.0,0.0030235350131988525
448.0,0.006732817739248276
480.0,0.005122859962284565
512.0,0.005835871212184429
576.0,0.0038517441134899855
640.0,0.004942392930388451
704.0,0.006359716411679983
768.0,0.0058404505252838135
832.0,0.000931060581933707
896.0,-0.001489861635491252
960.0,-0.0026154315564781427
1024.0,-0.005827952176332474
1152.0,0.001636567059904337
1280.0,0.00031381205189973116
1408.0,0.003942474257200956
1536.0,0.005246794316917658
1664.0,0.006694107316434383
1792.0,0.006107361521571875
1920.0,0.006093402858823538
2048.0,0.0057255602441728115
2304.0,0.004108821507543325
2560.0,-0.0008939850958995521
2816.0,0.0016206696163862944
3072.0,-0.006473606918007135
3328.0,0.0010826687794178724
3584.0,0.003315611509606242
3840.0,0.00033978905412368476
4096.0,0.005128221586346626
4608.0,-0.003503198269754648
5120.0,-0.0007203863933682442
5632.0,0.0004822633636649698
6144.0,-0.004053351003676653
6656.0,-0.008140888065099716
7168.0,-0.0021398914977908134
7680.0,-0.008139776065945625
8192.0,-0.00522822979837656
end
