version,3.0
numOfCh,1
type,point
parent_name,c1204_0dot4-1dot0
ch_type,1_1
kcount,1
numberNandB,1
brightnessNandB,1
carpet pos,0
pc,0
Time (ms),CH1 Auto-Correlation
1.0,0.09409844875335693
2.0,0.09001254290342331
3.0,0.08627493679523468
4.0,0.08300319314002991
5.0,0.07988138496875763
6.0,0.0770103856921196
7.0,0.07452759891748428
8.0,0.07211185246706009
9.0,0.06969047337770462
10.0,0.06755760312080383
11.0,0.06566043943166733
12.0,0.06375409662723541
13.0,0.061891742050647736
14.0,0.06005903333425522
15.0,0.058323442935943604
16.0,0.0566549152135849
18.0,0.053496796637773514
20.0,0.05055926740169525
22.0,0.048267122358083725
24.0,0.04597895219922066
26.0,0.04369638115167618
28.0,0.04140763729810715
30.0,0.039349328726530075
32.0,0.03725283592939377
36.0,0.03335511311888695
40.0,0.03064601868391037
44.0,0.028608078137040138
48.0,0.02683625929057598
52.0,0.02526123821735382
56.0,0.023803217336535454
60.0,0.022572306916117668
64.0,0.021496469154953957
72.0,0.0194818377494812
80.0,0.01755385659635067
88.0,0.015372955240309238
96.0,0.013517794199287891
104.0,0.013126302510499954
112.0,0.013494884595274925
120.0,0.012423417530953884
128.0,0.01161038875579834
144.0,0.010435003787279129
160.0,0.009265419095754623
176.0,0.00876337569206953
192.0,0.01048594806343317
208.0,0.010798618197441101
224.0,0.011770973913371563
240.0,0.013550172559916973
256.0,0.013449544087052345
288.0,0.006798600312322378
320.0,0.005973136052489281
352.0,0.0026796485763043165
384.0,0.0034785654861479998
416.0,0.00335567444562912
448.0,0.002913631498813629
480.0,0.0032727783545851707
512.0,0.0007903248188085854
576.0,-0.003572516841813922
640.0,-0.007603547070175409
704.0,-0.005548885557800531
768.0,-0.0019216752843931317
832.0,-0.0001753638352965936
896.0,-6.098792073316872e-05
960.0,-0.0009485104819759727
1024.0,0.0023801529314368963
1152.0,0.005755048245191574
1280.0,0.0029111122712492943
1408.0,0.0011013007024303079
1536.0,0.003012052271515131
1664.0,0.002161877928301692
1792.0,0.0021045675966888666
1920.0,-0.006650309078395367
2048.0,-0.0063598561100661755
2304.0,-0.011308340355753899
2560.0,-0.006864623166620731
2816.0,-0.0013281714636832476
3072.0,-0.003644859418272972
3328.0,-0.005469166673719883
3584.0,-0.009919361211359501
3840.0,-0.003929306287318468
4096.0,0.0017374575836583972
4608.0,0.006508166901767254
5120.0,0.002455366775393486
5632.0,-0.0016144735272973776
6144.0,0.005040964111685753
6656.0,0.0012883649906143546
7168.0,-0.002106329659000039
7680.0,0.0030488367192447186
8192.0,-0.007251365575939417
end
