version,3.0
numOfCh,1
type,point
parent_name,c1204_0dot4-1dot0
ch_type,1_1
kcount,1
numberNandB,1
brightnessNandB,1
carpet pos,0
pc,0
Time (ms),CH1 Auto-Correlation
1.0,0.09523370116949081
2.0,0.09128251671791077
3.0,0.08758269995450974
4.0,0.08422680199146271
5.0,0.08109652996063232
6.0,0.07834259420633316
7.0,0.07563084363937378
8.0,0.07324900478124619
9.0,0.07095825672149658
10.0,0.06875350326299667
11.0,0.06658323109149933
12.0,0.06457154452800751
13.0,0.06260623037815094
14.0,0.06095275282859802
15.0,0.0593818798661232
16.0,0.05786371976137161
18.0,0.05526433885097504
20.0,0.052651479840278625
22.0,0.05001748353242874
24.0,0.047848597168922424
26.0,0.04597402736544609
28.0,0.04392164573073387
30.0,0.04186181724071503
32.0,0.04008891433477402
36.0,0.03699294105172157
40.0,0.0340193510055542
44.0,0.031503017991781235
48.0,0.029427213594317436
52.0,0.02811657451093197
56.0,0.02707817777991295
60.0,0.026250513270497322
64.0,0.02583646960556507
72.0,0.02388043701648712
80.0,0.021792104467749596
88.0,0.020794231444597244
96.0,0.019527705386281013
104.0,0.017956439405679703
112.0,0.017183149233460426
120.0,0.017022931948304176
128.0,0.01768077351152897
144.0,0.019744819030165672
160.0,0.019248608499765396
176.0,0.0174561720341444
192.0,0.01357856672257185
208.0,0.013203959912061691
224.0,0.01373909879475832
240.0,0.012028172612190247
256.0,0.009467203170061111
288.0,0.008800472132861614
320.0,0.008224666118621826
352.0,0.009115715511143208
384.0,0.007496179081499577
416.0,0.0036359550431370735
448.0,0.0027800423558801413
480.0,0.003087893594056368
512.0,0.0034646871499717236
576.0,0.004708563908934593
640.0,0.006255572196096182
704.0,0.004791168496012688
768.0,0.006392451468855143
832.0,0.0033507421612739563
896.0,0.005166773684322834
960.0,0.006501736119389534
1024.0,0.0048433332704007626
1152.0,-0.00034689446329139173
1280.0,-0.0009080220479518175
1408.0,-0.003841996658593416
1536.0,0.0006134520517662168
1664.0,0.0013820602325722575
1792.0,-0.0041678533889353275
1920.0,-0.003907787147909403
2048.0,-0.009886929765343666
2304.0,-0.0070125344209373
2560.0,-0.013272399082779884
2816.0,-0.008368312381207943
3072.0,-0.0015157664893195033
3328.0,-0.005258491262793541
3584.0,-0.01131430547684431
3840.0,-0.005691473372280598
4096.0,-0.003170365234836936
4608.0,0.004774807952344418
5120.0,0.006625614129006863
5632.0,0.004646523855626583
6144.0,0.0068980492651462555
6656.0,-5.772781514679082e-05
7168.0,-0.005379207897931337
7680.0,-0.002776926849037409
8192.0,-0.005399687215685844
end
