version,3.0
numOfCh,1
type,point
parent_name,c1204_0dot4-1dot0
ch_type,1_1
kcount,1
numberNandB,1
brightnessNandB,1
carpet pos,0
pc,0
Time (ms),CH1 Auto-Correlation
1.0,0.09176070243120193
2.0,0.08801278471946716
3.0,0.08461686968803406
4.0,0.08149317651987076
5.0,0.0785134807229042
6.0,0.07580630481243134
7.0,0.07312487065792084
8.0,0.07062483578920364
9.0,0.06843434274196625
10.0,0.06622818112373352
11.0,0.06417908519506454
12.0,0.06227760389447212
13.0,0.060540929436683655
14.0,0.05892932787537575
15.0,0.05739733576774597
16.0,0.05590684339404106
18.0,0.05312315374612808
20.0,0.05040542408823967
22.0,0.047818221151828766
24.0,0.0452815517783165
26.0,0.04305073991417885
28.0,0.04106099531054497
30.0,0.03928111493587494
32.0,0.037660110741853714
36.0,0.03532153367996216
40.0,0.03317487984895706
44.0,0.03164026886224747
48.0,0.030345479026436806
52.0,0.029058802872896194
56.0,0.027790922671556473
60.0,0.026316745206713676
64.0,0.024668347090482712
72.0,0.022066695615649223
80.0,0.020100772380828857
88.0,0.017830083146691322
96.0,0.015325703658163548
104.0,0.01371779479086399
112.0,0.01266793254762888
120.0,0.011666815727949142
128.0,0.01110997423529625
144.0,0.010558049194514751
160.0,0.01144359540194273
176.0,0.013113714754581451
192.0,0.01377684623003006
208.0,0.012186386622488499
224.0,0.008504855446517467
240.0,0.006515758577734232
256.0,0.006034498102962971
288.0,0.0043823388405144215
320.0,0.005241213832050562
352.0,0.005308512598276138
384.0,0.009206959046423435
416.0,0.011306056752800941
448.0,0.014103556051850319
480.0,0.011937164701521397
512.0,0.005345351994037628
576.0,0.0010656300000846386
640.0,0.0014490445610135794
704.0,-0.00018635825836099684
768.0,0.00052691251039505
832.0,-0.0007332562236115336
896.0,-0.004222560208290815
960.0,-0.002751503372564912
1024.0,0.0007687326287850738
1152.0,-0.003428882919251919
1280.0,-0.0005387255805544555
1408.0,-0.0015398708637803793
1536.0,0.000586559996008873
1664.0,0.0019967807456851006
1792.0,-0.0002456864749547094
1920.0,0.0023494602646678686
2048.0,0.007005822844803333
2304.0,0.006708027329295874
2560.0,0.00624149851500988
2816.0,0.00024638426839374006
3072.0,-0.004128222353756428
3328.0,-0.003984095063060522
3584.0,-0.004920611158013344
3840.0,-0.003441054839640856
4096.0,-0.004303942434489727
4608.0,0.0042143939062952995
5120.0,-0.00023955081996973604
5632.0,-0.0065768263302743435
6144.0,-0.002680253703147173
6656.0,0.0016810601809993386
7168.0,0.004556968808174133
7680.0,-0.0028183809481561184
8192.0,-0.006378704681992531
end
