version,3.0
numOfCh,1
type,point
parent_name,c1204_0dot4-1dot0
ch_type,1_1
kcount,1
numberNandB,1
brightnessNandB,1
carpet pos,0
pc,0
Time (ms),CH1 Auto-Correlation
1.0,0.10152498632669449
2.0,0.09694654494524002
3.0,0.09287945926189423
4.0,0.08926331251859665
5.0,0.0859871655702591
6.0,0.08291853219270706
7.0,0.08003902435302734
8.0,0.07723163068294525
9.0,0.07464951276779175
10.0,0.07245080918073654
11.0,0.07035455107688904
12.0,0.06821495294570923
13.0,0.06632586568593979
14.0,0.06449070572853088
15.0,0.06271381676197052
16.0,0.06108153238892555
18.0,0.05840914696455002
20.0,0.05583922564983368
22.0,0.053532131016254425
24.0,0.051484115421772
26.0,0.049556490033864975
28.0,0.047809384763240814
30.0,0.04590417444705963
32.0,0.04411553218960762
36.0,0.041327331215143204
40.0,0.039525993168354034
44.0,0.03762524574995041
48.0,0.03605393320322037
52.0,0.03443711996078491
56.0,0.032372068613767624
60.0,0.029752235859632492
64.0,0.027363700792193413
72.0,0.02326052635908127
80.0,0.02168426476418972
88.0,0.020533215254545212
96.0,0.01829935424029827
104.0,0.015533092431724072
112.0,0.012334751896560192
120.0,0.00844638328999281
128.0,0.0060295043513178825
144.0,0.006378944963216782
160.0,0.0075307488441467285
176.0,0.0068988134153187275
192.0,0.005590805783867836
208.0,0.0057421294040977955
224.0,0.005680680274963379
240.0,0.005725095048546791
256.0,0.006078334525227547
288.0,0.00657172966748476
320.0,0.006366472225636244
352.0,0.0067505850456655025
384.0,0.005397658329457045
416.0,0.006314327009022236
448.0,0.009147404693067074
480.0,0.007885897532105446
512.0,0.009544006548821926
576.0,0.007297396194189787
640.0,0.005482648964971304
704.0,0.005321243777871132
768.0,0.008990335278213024
832.0,0.0068115307949483395
896.0,0.0032703818287700415
960.0,0.0010707947658374906
1024.0,0.0025008548982441425
1152.0,0.005079505033791065
1280.0,0.002280908403918147
1408.0,0.007018350064754486
1536.0,-0.0003631905128713697
1664.0,0.00036110650398768485
1792.0,0.005951644387096167
1920.0,-0.005474509205669165
2048.0,-0.004031450022011995
2304.0,-0.0025470778346061707
2560.0,-0.003624588716775179
2816.0,-0.0006178462062962353
3072.0,-0.0020010871812701225
3328.0,-0.004351596347987652
3584.0,-0.001530732843093574
3840.0,-0.00365570280700922
4096.0,-0.005747579503804445
4608.0,-0.006810271646827459
5120.0,-0.008787449449300766
5632.0,-0.007230165880173445
6144.0,-0.004759201779961586
6656.0,-0.008004363626241684
7168.0,-0.0019350023940205574
7680.0,-0.0015464628813788295
8192.0,0.004205415025353432
end
