version,3.0
numOfCh,1
type,point
parent_name,c1204_0dot4-1dot0
ch_type,1_1
kcount,1
numberNandB,1
brightnessNandB,1
carpet pos,0
pc,0
Time (ms),CH1 Auto-Correlation
1.0,0.09919704496860504
2.0,0.09549278020858765
3.0,0.09209039807319641
4.0,0.08897610753774643
5.0,0.08602836728096008
6.0,0.08319105207920074
7.0,0.08045371621847153
8.0,0.07784058153629303
9.0,0.07551123201847076
10.0,0.07329830527305603
11.0,0.07122012227773666
12.0,0.06918689608573914
13.0,0.06725010275840759
14.0,0.0653553456068039
15.0,0.06363982707262039
16.0,0.06213393807411194
18.0,0.05942867696285248
20.0,0.05686882510781288
22.0,0.05440866947174072
24.0,0.05194029584527016
26.0,0.04932888597249985
28.0,0.04673195630311966
30.0,0.04433339461684227
32.0,0.0420689694583416
36.0,0.03803194314241409
40.0,0.03464152663946152
44.0,0.03171144425868988
48.0,0.029114795848727226
52.0,0.026880353689193726
56.0,0.025144683197140694
60.0,0.023449284955859184
64.0,0.022376131266355515
72.0,0.02027939260005951
80.0,0.017572071403265
88.0,0.015329634770751
96.0,0.014332221820950508
104.0,0.012790948152542114
112.0,0.010777263902127743
120.0,0.009304466657340527
128.0,0.00866653025150299
144.0,0.005072209518402815
160.0,0.0007254132069647312
176.0,7.371080573648214e-05
192.0,-0.001549034146592021
208.0,-0.0009887790074571967
224.0,-0.00045002507977187634
240.0,2.6990866899723187e-05
256.0,0.00043344462756067514
288.0,0.0008363789529539645
320.0,0.00045322574442252517
352.0,-0.0018339506350457668
384.0,-0.0043283323757350445
416.0,-0.004074823576956987
448.0,-0.00515900831669569
480.0,-0.003605718957260251
512.0,-0.0030356221832334995
576.0,-0.004879720509052277
640.0,-0.0004863217181991786
704.0,-0.000571461976505816
768.0,0.003738467115908861
832.0,-0.006139175500720739
896.0,-0.01030817162245512
960.0,-0.0034228276927024126
1024.0,0.00611965311691165
1152.0,0.0038203091826289892
1280.0,-0.003966236487030983
1408.0,-0.0007595156785100698
1536.0,-0.0008830099832266569
1664.0,-0.002835405757650733
1792.0,-0.00029938353691250086
1920.0,-0.00469349417835474
2048.0,-0.006706211715936661
2304.0,-0.0028824051842093468
2560.0,-0.0018678918713703752
2816.0,0.0019806958734989166
3072.0,0.00799382384866476
3328.0,-6.144656799733639e-05
3584.0,-0.002177575370296836
3840.0,-0.00342707522213459
4096.0,0.006759668234735727
4608.0,-0.0028049570973962545
5120.0,-0.00239584525115788
5632.0,-0.0006061445455998182
6144.0,0.0023376555182039738
6656.0,0.0022153016179800034
7168.0,0.0014976843958720565
7680.0,0.0019666971638798714
8192.0,-0.0069139800034463406
end
