version,3.0
numOfCh,1
type,point
parent_name,c1204_0dot4-1dot0
ch_type,1_1
kcount,1
numberNandB,1
brightnessNandB,1
carpet pos,0
pc,0
Time (ms),CH1 Auto-Correlation
1.0,0.11281388998031616
2.0,0.1087178960442543
3.0,0.10515956580638885
4.0,0.10206367820501328
5.0,0.09905260056257248
6.0,0.09614791721105576
7.0,0.09346279501914978
8.0,0.09100054204463959
9.0,0.0885682925581932
10.0,0.08623750507831573
11.0,0.08410000801086426
12.0,0.08209824562072754
13.0,0.08020945638418198
14.0,0.07828199863433838
15.0,0.07656929641962051
16.0,0.07493896782398224
18.0,0.07157022505998611
20.0,0.06855044513940811
22.0,0.06567932665348053
24.0,0.06319455802440643
26.0,0.060984257608652115
28.0,0.05901272967457771
30.0,0.05724453181028366
32.0,0.05554284527897835
36.0,0.052450791001319885
40.0,0.04958302527666092
44.0,0.04706336557865143
48.0,0.04445325955748558
52.0,0.04196958243846893
56.0,0.03936981037259102
60.0,0.03734707087278366
64.0,0.03625030443072319
72.0,0.03362011909484863
80.0,0.030875202268362045
88.0,0.02849113754928112
96.0,0.02667189948260784
104.0,0.02423771843314171
112.0,0.02193760685622692
120.0,0.020985394716262817
128.0,0.020418277010321617
144.0,0.015740754082798958
160.0,0.013535356149077415
176.0,0.01124420203268528
192.0,0.007561977952718735
208.0,0.004624432884156704
224.0,0.0019017107551917434
240.0,0.004128182772547007
256.0,0.0055359285324811935
288.0,0.0077765872702002525
320.0,0.009002584964036942
352.0,0.007367927115410566
384.0,0.006821824703365564
416.0,0.009155607782304287
448.0,0.009274257346987724
480.0,0.005044468212872744
512.0,0.0011537882965058088
576.0,0.00029609829653054476
640.0,-0.004453379660844803
704.0,-0.008065653964877129
768.0,-0.0005080409464426339
832.0,0.0024839546531438828
896.0,0.0076172021217644215
960.0,0.007890873588621616
1024.0,-0.0005246741347946227
1152.0,-0.0047273761592805386
1280.0,-0.005311464890837669
1408.0,-0.003438609652221203
1536.0,-0.0018628522520884871
1664.0,-0.0008874360355548561
1792.0,0.0051384540274739265
1920.0,0.0015560598112642765
2048.0,-0.008350539952516556
2304.0,0.0010405986104160547
2560.0,0.004561545327305794
2816.0,0.004738891031593084
3072.0,-0.002358740894123912
3328.0,-0.006536839995533228
3584.0,-0.0007936956244520843
3840.0,-0.001965214964002371
4096.0,-0.0044396850280463696
4608.0,0.0053033712320029736
5120.0,-0.003565186867490411
5632.0,-0.0022615559864789248
6144.0,-0.010433315299451351
6656.0,-0.010265801101922989
7168.0,-0.0030672329012304544
7680.0,-0.002037223195657134
8192.0,0.0021491884253919125
end
