version,3.0
numOfCh,1
type,point
parent_name,c1204_0dot4-1dot0
ch_type,1_1
kcount,1
numberNandB,1
brightnessNandB,1
carpet pos,0
pc,0
Time (ms),CH1 Auto-Correlation
1.0,0.09345365315675735
2.0,0.08965688943862915
3.0,0.08626195788383484
4.0,0.08311904966831207
5.0,0.08028583228588104
6.0,0.07754175364971161
7.0,0.0749867707490921
8.0,0.0725724995136261
9.0,0.07022088021039963
10.0,0.06800377368927002
11.0,0.06586989760398865
12.0,0.06372435390949249
13.0,0.061746276915073395
14.0,0.059889402240514755
15.0,0.05810980126261711
16.0,0.056480202823877335
18.0,0.05339395999908447
20.0,0.05066504329442978
22.0,0.04830092191696167
24.0,0.04566044360399246
26.0,0.04335571080446243
28.0,0.041360192000865936
30.0,0.03946695104241371
32.0,0.03774888813495636
36.0,0.03497493639588356
40.0,0.03264649584889412
44.0,0.030837012454867363
48.0,0.029477044939994812
52.0,0.02843646891415119
56.0,0.027120599523186684
60.0,0.026141241192817688
64.0,0.025340918451547623
72.0,0.02408696711063385
80.0,0.022866496816277504
88.0,0.020742828026413918
96.0,0.019933583214879036
104.0,0.02002180926501751
112.0,0.02004915103316307
120.0,0.019950149580836296
128.0,0.018700256943702698
144.0,0.015026806853711605
160.0,0.013713930733501911
176.0,0.013340801000595093
192.0,0.011810846626758575
208.0,0.011347036808729172
224.0,0.010009226389229298
240.0,0.007698477245867252
256.0,0.0056679388508200645
288.0,0.004132234025746584
320.0,0.005196662619709969
352.0,0.003793608397245407
384.0,0.003711080178618431
416.0,0.001745911780744791
448.0,0.00475304014980793
480.0,0.0024560934398323298
512.0,0.0034506868105381727
576.0,0.005549311637878418
640.0,0.0005427584983408451
704.0,0.005586341023445129
768.0,0.0023026904091238976
832.0,0.0027818321250379086
896.0,0.008913204073905945
960.0,0.007206661626696587
1024.0,0.00936324056237936
1152.0,0.007669778540730476
1280.0,0.0001604008284630254
1408.0,-0.0006870108190923929
1536.0,0.003261114237830043
1664.0,0.0035244557075202465
1792.0,-0.00039450760232284665
1920.0,-0.0036623203195631504
2048.0,-0.0022966747637838125
2304.0,-0.002245977520942688
2560.0,-0.001800463069230318
2816.0,0.0012759562814608216
3072.0,-0.0013885443331673741
3328.0,0.0001395522995153442
3584.0,-0.0018658923218026757
3840.0,-0.006679787300527096
4096.0,-0.0035397165920585394
4608.0,0.000969613844063133
5120.0,-0.006616341415792704
5632.0,-0.006461023353040218
6144.0,-0.0035104562994092703
6656.0,-0.009722413495182991
7168.0,0.000983620062470436
7680.0,0.0012241605436429381
8192.0,0.0026470187585800886
end
