version,3.0
numOfCh,1
type,point
parent_name,c1204_0dot4-1dot0
ch_type,1_1
kcount,1
numberNandB,1
brightnessNandB,1
carpet pos,0
pc,0
Time (ms),CH1 Auto-Correlation
1.0,0.10296754539012909
2.0,0.09919606149196625
3.0,0.09580724686384201
4.0,0.09266353398561478
5.0,0.08986096829175949
6.0,0.08716313540935516
7.0,0.08467718958854675
8.0,0.08225826174020767
9.0,0.08001571148633957
10.0,0.07790982723236084
11.0,0.07587118446826935
12.0,0.0740373507142067
13.0,0.072191521525383
14.0,0.07035268098115921
15.0,0.06860058754682541
16.0,0.06691408157348633
18.0,0.06386672705411911
20.0,0.061318956315517426
22.0,0.0588902086019516
24.0,0.056397903710603714
26.0,0.05396752431988716
28.0,0.05157237872481346
30.0,0.0495368130505085
32.0,0.04755406454205513
36.0,0.043756287544965744
40.0,0.04062074422836304
44.0,0.03836605325341225
48.0,0.0368143729865551
52.0,0.03489216789603233
56.0,0.032877467572689056
60.0,0.03102271445095539
64.0,0.029005955904722214
72.0,0.025477079674601555
80.0,0.022141095250844955
88.0,0.019228968769311905
96.0,0.01753864623606205
104.0,0.016521787270903587
112.0,0.01613420993089676
120.0,0.015332197770476341
128.0,0.014239057898521423
144.0,0.01107120607048273
160.0,0.009217937476933002
176.0,0.007554139010608196
192.0,0.005169074982404709
208.0,0.0015140888281166553
224.0,0.0005883197300136089
240.0,0.003511662594974041
256.0,0.004163586534559727
288.0,0.00214900984428823
320.0,0.0030333721078932285
352.0,0.004138116724789143
384.0,0.00534822279587388
416.0,0.005888101179152727
448.0,0.007967259734869003
480.0,0.009452967904508114
512.0,0.0058310506865382195
576.0,0.0018470396753400564
640.0,-0.0004192105261608958
704.0,-0.0033642947673797607
768.0,-0.004931809846311808
832.0,-0.010166880674660206
896.0,-0.010932916775345802
960.0,-0.002103238832205534
1024.0,-5.27115844306536e-05
1152.0,0.0011320034973323345
1280.0,-0.005448243580758572
1408.0,-0.00018414322403259575
1536.0,-0.0004015896993223578
1664.0,0.00044267764315009117
1792.0,-0.0014583164593204856
1920.0,-0.007953575812280178
2048.0,-0.007943728938698769
2304.0,-0.004490407649427652
2560.0,-0.004331083502620459
2816.0,-0.004255853593349457
3072.0,-0.006185164209455252
3328.0,0.003270889399573207
3584.0,0.0023252253886312246
3840.0,0.011804617010056973
4096.0,0.005162827204912901
4608.0,0.0005240123718976974
5120.0,-0.004205300007015467
5632.0,-0.005133362021297216
6144.0,-0.006454650312662125
6656.0,-0.006348986644297838
7168.0,0.004487698432058096
7680.0,-0.001586309401318431
8192.0,0.0064293332397937775
end
