version,3.0
numOfCh,1
type,point
parent_name,c1204_0dot069-0dot1
ch_type,1_1
kcount,1
numberNandB,1
brightnessNandB,1
carpet pos,0
pc,0
Time (ms),CH1 Auto-Correlation
1.0,0.10500524938106537
2.0,0.10448404401540756
3.0,0.10398485511541367
4.0,0.10349461436271667
5.0,0.10301981121301651
6.0,0.10254527628421783
7.0,0.10209699720144272
8.0,0.10165423899888992
9.0,0.10121514648199081
10.0,0.10079147666692734
11.0,0.10036957263946533
12.0,0.09994608908891678
13.0,0.09953376650810242
14.0,0.09911991655826569
15.0,0.09870067983865738
16.0,0.09831929951906204
18.0,0.09759689122438431
20.0,0.0968983992934227
22.0,0.09622868150472641
24.0,0.09560492634773254
26.0,0.09498855471611023
28.0,0.09434738010168076
30.0,0.09370449185371399
32.0,0.09305624663829803
36.0,0.09180685877799988
40.0,0.09059867262840271
44.0,0.08937625586986542
48.0,0.08818083256483078
52.0,0.08695714175701141
56.0,0.08576923608779907
60.0,0.08467061072587967
64.0,0.08370254933834076
72.0,0.08200878649950027
80.0,0.08029113709926605
88.0,0.0784415453672409
96.0,0.07691406458616257
104.0,0.07574540376663208
112.0,0.074734166264534
120.0,0.07373569160699844
128.0,0.07272505760192871
144.0,0.07121531665325165
160.0,0.0696926862001419
176.0,0.0683869868516922
192.0,0.06728410720825195
208.0,0.06595353037118912
224.0,0.06477075815200806
240.0,0.06351236253976822
256.0,0.06239517405629158
288.0,0.06130798161029816
320.0,0.05983053520321846
352.0,0.058977603912353516
384.0,0.05755457654595375
416.0,0.05560818687081337
448.0,0.054477252066135406
480.0,0.05490996316075325
512.0,0.056191131472587585
576.0,0.05644882842898369
640.0,0.05649718642234802
704.0,0.05952521413564682
768.0,0.0609397254884243
832.0,0.05730243772268295
896.0,0.05500393360853195
960.0,0.050988830626010895
1024.0,0.04955057054758072
1152.0,0.04310634359717369
1280.0,0.038428742438554764
1408.0,0.03939015790820122
1536.0,0.04088463634252548
1664.0,0.03810996189713478
1792.0,0.03547882288694382
1920.0,0.03306033834815025
2048.0,0.02884429134428501
2304.0,0.028257010504603386
2560.0,0.02173723466694355
2816.0,0.011809076182544231
3072.0,0.015010441653430462
3328.0,0.011802065186202526
3584.0,0.00739938672631979
3840.0,0.010176220908761024
4096.0,0.006583402398973703
4608.0,-0.017244262620806694
5120.0,-0.024876922369003296
5632.0,-0.030592508614063263
6144.0,-0.040241315960884094
6656.0,-0.0502796471118927
7168.0,-0.04077357053756714
7680.0,-0.04319604113698006
8192.0,-0.04714704304933548
end
