version,3.0
numOfCh,1
type,point
parent_name,c1204_0dot069-0dot1
ch_type,1_1
kcount,1
numberNandB,1
brightnessNandB,1
carpet pos,0
pc,0
Time (ms),CH1 Auto-Correlation
1.0,0.1404440999031067
2.0,0.13965468108654022
3.0,0.13894128799438477
4.0,0.13823506236076355
5.0,0.13756465911865234
6.0,0.13697002828121185
7.0,0.13638989627361298
8.0,0.13581953942775726
9.0,0.13526569306850433
10.0,0.13471508026123047
11.0,0.13420060276985168
12.0,0.13367389142513275
13.0,0.13317090272903442
14.0,0.13266147673130035
15.0,0.1320987492799759
16.0,0.13159853219985962
18.0,0.13060341775417328
20.0,0.12968091666698456
22.0,0.12887950241565704
24.0,0.12806512415409088
26.0,0.12732115387916565
28.0,0.12671709060668945
30.0,0.12618447840213776
32.0,0.12564969062805176
36.0,0.12454253435134888
40.0,0.12347970902919769
44.0,0.1224110871553421
48.0,0.12125563621520996
52.0,0.12010851502418518
56.0,0.1189035177230835
60.0,0.11756636947393417
64.0,0.11618967354297638
72.0,0.11364588141441345
80.0,0.11110291630029678
88.0,0.10882239043712616
96.0,0.10647781938314438
104.0,0.10411062836647034
112.0,0.10191373527050018
120.0,0.09980111569166183
128.0,0.0973692536354065
144.0,0.09292659908533096
160.0,0.08869139850139618
176.0,0.08472426235675812
192.0,0.08064780384302139
208.0,0.0763077586889267
224.0,0.0716736912727356
240.0,0.06790570169687271
256.0,0.06362359970808029
288.0,0.05583622679114342
320.0,0.0491892471909523
352.0,0.04292219504714012
384.0,0.037539150565862656
416.0,0.03194808214902878
448.0,0.026518454775214195
480.0,0.022787822410464287
512.0,0.02086254209280014
576.0,0.02074422501027584
640.0,0.022717218846082687
704.0,0.029332943260669708
768.0,0.03676966577768326
832.0,0.044564612209796906
896.0,0.05175549164414406
960.0,0.060781169682741165
1024.0,0.0675363838672638
1152.0,0.07044724375009537
1280.0,0.05830981582403183
1408.0,0.036960482597351074
1536.0,0.02488485351204872
1664.0,0.022480390965938568
1792.0,0.024973565712571144
1920.0,0.03290241211652756
2048.0,0.04368017241358757
2304.0,0.03905666247010231
2560.0,0.01963210664689541
2816.0,0.012122279033064842
3072.0,0.016479650512337685
3328.0,0.014970945194363594
3584.0,0.007231536787003279
3840.0,-0.00017667234351392835
4096.0,-0.004334838129580021
4608.0,-0.01810229755938053
5120.0,-0.0193520225584507
5632.0,-0.041519295424222946
6144.0,-0.05462227016687393
6656.0,-0.05280469357967377
7168.0,-0.058225758373737335
7680.0,-0.05754610523581505
8192.0,-0.054070357233285904
end
