version,3.0
numOfCh,1
type,point
parent_name,c1204_0dot069-0dot1
ch_type,1_1
kcount,1
numberNandB,1
brightnessNandB,1
carpet pos,0
pc,0
Time (ms),CH1 Auto-Correlation
1.0,0.06203637644648552
2.0,0.06145787239074707
3.0,0.060902561992406845
4.0,0.060346148908138275
5.0,0.05977683141827583
6.0,0.05920404568314552
7.0,0.05865318700671196
8.0,0.058129794895648956
9.0,0.05762569233775139
10.0,0.05713224038481712
11.0,0.05665826052427292
12.0,0.05616866052150726
13.0,0.05568540468811989
14.0,0.0552053228020668
15.0,0.05472560226917267
16.0,0.05426473170518875
18.0,0.053311947733163834
20.0,0.052385278046131134
22.0,0.05150563642382622
24.0,0.05069218948483467
26.0,0.049916159361600876
28.0,0.04910130053758621
30.0,0.04825125262141228
32.0,0.04739949107170105
36.0,0.04587883502244949
40.0,0.044519782066345215
44.0,0.043232738971710205
48.0,0.04194674268364906
52.0,0.0407528318464756
56.0,0.039618171751499176
60.0,0.0384538397192955
64.0,0.03732597827911377
72.0,0.03523389622569084
80.0,0.03331567347049713
88.0,0.03157499060034752
96.0,0.02991550788283348
104.0,0.028155867010354996
112.0,0.026647964492440224
120.0,0.02539660967886448
128.0,0.02420208789408207
144.0,0.022070659324526787
160.0,0.020132828503847122
176.0,0.018127385526895523
192.0,0.016130343079566956
208.0,0.014279606752097607
224.0,0.013167926110327244
240.0,0.012089322321116924
256.0,0.010970128700137138
288.0,0.008701345883309841
320.0,0.008252296596765518
352.0,0.007329773157835007
384.0,0.005764463916420937
416.0,0.0053846267983317375
448.0,0.005358555354177952
480.0,0.006044850219041109
512.0,0.0052682929672300816
576.0,0.002551562851294875
640.0,-0.0010820793686434627
704.0,-0.0037641660310328007
768.0,-0.0021014674566686153
832.0,0.0006955816643312573
896.0,0.0038311227690428495
960.0,0.003744494402781129
1024.0,-0.0009935683337971568
1152.0,-0.01003214716911316
1280.0,-0.004576565232127905
1408.0,0.0031922878697514534
1536.0,-6.61591548123397e-05
1664.0,-0.0038837359752506018
1792.0,-0.0024681140203028917
1920.0,0.000389135122532025
2048.0,-0.0012126980582252145
2304.0,0.0031739375554025173
2560.0,0.0032908387947827578
2816.0,0.006817519199103117
3072.0,-0.0033987881615757942
3328.0,-0.006597096566110849
3584.0,-0.0008779494091868401
3840.0,0.004698571283370256
4096.0,-0.00172582792583853
4608.0,-0.0024235197342932224
5120.0,-0.005906791426241398
5632.0,-0.003053810680285096
6144.0,-0.004867673851549625
6656.0,-0.004743778146803379
7168.0,-0.008785413578152657
7680.0,-0.002720156917348504
8192.0,0.0055339704267680645
end
