version,3.0
numOfCh,1
type,point
parent_name,c1204_0dot069-0dot1
ch_type,1_1
kcount,1
numberNandB,1
brightnessNandB,1
carpet pos,0
pc,0
Time (ms),CH1 Auto-Correlation
1.0,0.05714356154203415
2.0,0.056715723127126694
3.0,0.05630090460181236
4.0,0.05589812621474266
5.0,0.055511508136987686
6.0,0.05512719973921776
7.0,0.054749518632888794
8.0,0.05436691269278526
9.0,0.05398279055953026
10.0,0.05358313396573067
11.0,0.0532115139067173
12.0,0.05283786356449127
13.0,0.052483804523944855
14.0,0.05214441940188408
15.0,0.051798462867736816
16.0,0.051455460488796234
18.0,0.05080053210258484
20.0,0.050186045467853546
22.0,0.04959943890571594
24.0,0.049023475497961044
26.0,0.04843752458691597
28.0,0.04785250127315521
30.0,0.04725679010152817
32.0,0.04667374864220619
36.0,0.045543938875198364
40.0,0.044540345668792725
44.0,0.04366179183125496
48.0,0.042843371629714966
52.0,0.04200107976794243
56.0,0.04124268516898155
60.0,0.040547601878643036
64.0,0.039879702031612396
72.0,0.038797762244939804
80.0,0.03786267712712288
88.0,0.036934465169906616
96.0,0.036060113459825516
104.0,0.03528386354446411
112.0,0.03453155234456062
120.0,0.03378448262810707
128.0,0.03308975324034691
144.0,0.03168250992894173
160.0,0.030097803100943565
176.0,0.028319600969552994
192.0,0.026850387454032898
208.0,0.025715762749314308
224.0,0.0243090633302927
240.0,0.022679580375552177
256.0,0.02123052440583706
288.0,0.019878482446074486
320.0,0.020011212676763535
352.0,0.01990423910319805
384.0,0.020590560510754585
416.0,0.02120933122932911
448.0,0.021158725023269653
480.0,0.020811285823583603
512.0,0.020242728292942047
576.0,0.018390096724033356
640.0,0.01768011972308159
704.0,0.016634445637464523
768.0,0.016610030084848404
832.0,0.016837993636727333
896.0,0.01593278907239437
960.0,0.014358172193169594
1024.0,0.01177290640771389
1152.0,0.009042368270456791
1280.0,0.00953750405460596
1408.0,0.008044183254241943
1536.0,0.0007614349597133696
1664.0,-0.004670305177569389
1792.0,-0.003706821007654071
1920.0,-0.0001256800751434639
2048.0,-0.0011638484429568052
2304.0,-0.0071600619703531265
2560.0,-0.009238715283572674
2816.0,-0.0077165463007986546
3072.0,-0.01043686829507351
3328.0,-0.005741259548813105
3584.0,-0.00351325748488307
3840.0,-0.004069045651704073
4096.0,-0.0010036616586148739
4608.0,0.0034226386342197657
5120.0,0.006655329372733831
5632.0,0.0034355914685875177
6144.0,-0.004462712910026312
6656.0,-0.010836786590516567
7168.0,-0.004712611436843872
7680.0,-0.010868176817893982
8192.0,-0.015938570722937584
end
