version,3.0
numOfCh,1
type,point
parent_name,c1204_0dot069-0dot1
ch_type,1_1
kcount,1
numberNandB,1
brightnessNandB,1
carpet pos,0
pc,0
Time (ms),CH1 Auto-Correlation
1.0,0.057148274034261703
2.0,0.05645773187279701
3.0,0.055824216455221176
4.0,0.05521931126713753
5.0,0.05465501919388771
6.0,0.054083749651908875
7.0,0.05357334390282631
8.0,0.05305717885494232
9.0,0.05255528911948204
10.0,0.05209639295935631
11.0,0.051635146141052246
12.0,0.05118977651000023
13.0,0.05073843523859978
14.0,0.0503079779446125
15.0,0.04987584054470062
16.0,0.04944152012467384
18.0,0.048590946942567825
20.0,0.04777476564049721
22.0,0.046984490007162094
24.0,0.04621569812297821
26.0,0.045512158423662186
28.0,0.044856537133455276
30.0,0.04417530819773674
32.0,0.04355425015091896
36.0,0.04254841059446335
40.0,0.04154078662395477
44.0,0.04050823673605919
48.0,0.03946617245674133
52.0,0.038509551435709
56.0,0.03754467889666557
60.0,0.0365995317697525
64.0,0.035805732011795044
72.0,0.03435767441987991
80.0,0.033065065741539
88.0,0.03199302405118942
96.0,0.030942559242248535
104.0,0.029791295528411865
112.0,0.028540605679154396
120.0,0.027456272393465042
128.0,0.026431912556290627
144.0,0.024448202922940254
160.0,0.022928589954972267
176.0,0.02107839845120907
192.0,0.019683845341205597
208.0,0.01874220371246338
224.0,0.01780947484076023
240.0,0.01660175248980522
256.0,0.015537451952695847
288.0,0.014183142222464085
320.0,0.012974174693226814
352.0,0.011104810051620007
384.0,0.009321413934230804
416.0,0.008330568671226501
448.0,0.00840210635215044
480.0,0.00831065233796835
512.0,0.008183718658983707
576.0,0.00768723338842392
640.0,0.008419888094067574
704.0,0.011822747997939587
768.0,0.011000275611877441
832.0,0.009477353654801846
896.0,0.0064742304384708405
960.0,0.004612181801348925
1024.0,0.00704607181251049
1152.0,0.0041947257705032825
1280.0,0.0020819667261093855
1408.0,0.002990561304613948
1536.0,0.005114040337502956
1664.0,0.0072807325050234795
1792.0,0.012715552933514118
1920.0,0.013675129041075706
2048.0,0.01194101944565773
2304.0,0.010216731578111649
2560.0,0.01074303314089775
2816.0,0.012417874298989773
3072.0,0.005954330321401358
3328.0,-0.00012929050717502832
3584.0,-0.0016260588308796287
3840.0,0.0003553200513124466
4096.0,-0.003136776387691498
4608.0,0.00011442490358604118
5120.0,-0.00282114464789629
5632.0,-0.0028784293681383133
6144.0,-0.01154470257461071
6656.0,-0.007064599543809891
7168.0,-0.010242749936878681
7680.0,-0.015280765481293201
8192.0,-0.016175374388694763
end
