version,3.0
numOfCh,1
type,point
parent_name,c1204_0dot069-0dot1
ch_type,1_1
kcount,1
numberNandB,1
brightnessNandB,1
carpet pos,0
pc,0
Time (ms),CH1 Auto-Correlation
1.0,0.07663492858409882
2.0,0.07596806436777115
3.0,0.07533804327249527
4.0,0.07476229220628738
5.0,0.07422240823507309
6.0,0.07370031625032425
7.0,0.07321435958147049
8.0,0.07271940261125565
9.0,0.07223594188690186
10.0,0.07177161425352097
11.0,0.07130251079797745
12.0,0.07086281478404999
13.0,0.07042927294969559
14.0,0.06998822838068008
15.0,0.06955395638942719
16.0,0.0691271424293518
18.0,0.06834397464990616
20.0,0.06756795197725296
22.0,0.06684298068284988
24.0,0.06616706401109695
26.0,0.06550788134336472
28.0,0.06483085453510284
30.0,0.0641859769821167
32.0,0.06358953565359116
36.0,0.062403809279203415
40.0,0.06113423779606819
44.0,0.059922315180301666
48.0,0.058808986097574234
52.0,0.0578397735953331
56.0,0.05685661360621452
60.0,0.05579506605863571
64.0,0.054791733622550964
72.0,0.052987873554229736
80.0,0.05145017430186272
88.0,0.050052233040332794
96.0,0.04866208881139755
104.0,0.047545235604047775
112.0,0.04661605507135391
120.0,0.04561176896095276
128.0,0.04453931376338005
144.0,0.04299808293581009
160.0,0.04177309200167656
176.0,0.04064968600869179
192.0,0.039494600147008896
208.0,0.038451578468084335
224.0,0.037248484790325165
240.0,0.03655219450592995
256.0,0.03626924753189087
288.0,0.03458067402243614
320.0,0.03445287048816681
352.0,0.0343766063451767
384.0,0.03430556878447533
416.0,0.03315211087465286
448.0,0.03150465339422226
480.0,0.0285860113799572
512.0,0.026432832702994347
576.0,0.025481192395091057
640.0,0.02282675914466381
704.0,0.0199141763150692
768.0,0.016159871593117714
832.0,0.013812392950057983
896.0,0.012381852604448795
960.0,0.012139962054789066
1024.0,0.012375077232718468
1152.0,0.01155122835189104
1280.0,0.012280205264687538
1408.0,0.00886107049882412
1536.0,0.00654633017256856
1664.0,0.008436068892478943
1792.0,0.006203481461852789
1920.0,0.0017684868071228266
2048.0,0.0009905679617077112
2304.0,-0.005110579077154398
2560.0,-0.011467020027339458
2816.0,-0.023950926959514618
3072.0,-0.03379341959953308
3328.0,-0.03879675269126892
3584.0,-0.03152790293097496
3840.0,-0.0244099460542202
4096.0,-0.023751547560095787
4608.0,-0.032482799142599106
5120.0,-0.01724150776863098
5632.0,-0.0010767721105366945
6144.0,0.007901299744844437
6656.0,0.014418776147067547
7168.0,0.023412015289068222
7680.0,0.023435983806848526
8192.0,0.013415408320724964
end
