version,3.0
numOfCh,1
type,point
parent_name,c1204_0dot069-0dot1
ch_type,1_1
kcount,1
numberNandB,1
brightnessNandB,1
carpet pos,0
pc,0
Time (ms),CH1 Auto-Correlation
1.0,0.0599767304956913
2.0,0.059558525681495667
3.0,0.05916273593902588
4.0,0.05877125635743141
5.0,0.058381929993629456
6.0,0.05800669267773628
7.0,0.05763623118400574
8.0,0.05725586414337158
9.0,0.05687428638339043
10.0,0.05648840218782425
11.0,0.056111641228199005
12.0,0.055748239159584045
13.0,0.05538148432970047
14.0,0.05500587821006775
15.0,0.05463191494345665
16.0,0.05426565185189247
18.0,0.053575240075588226
20.0,0.05291678011417389
22.0,0.05228256806731224
24.0,0.05165862664580345
26.0,0.05107006058096886
28.0,0.050490282475948334
30.0,0.049900490790605545
32.0,0.04932725429534912
36.0,0.04833221063017845
40.0,0.04744299128651619
44.0,0.04660429432988167
48.0,0.045766681432724
52.0,0.04496404156088829
56.0,0.044151920825242996
60.0,0.0433008186519146
64.0,0.04249349236488342
72.0,0.04100009799003601
80.0,0.039538368582725525
88.0,0.03816946968436241
96.0,0.036922652274370193
104.0,0.03555120527744293
112.0,0.03410732001066208
120.0,0.03276903182268143
128.0,0.03160030022263527
144.0,0.02977079339325428
160.0,0.02784363366663456
176.0,0.026117486879229546
192.0,0.024699531495571136
208.0,0.023764559999108315
224.0,0.022970115765929222
240.0,0.021927211433649063
256.0,0.02088976837694645
288.0,0.019585300236940384
320.0,0.01883734203875065
352.0,0.018590455874800682
384.0,0.01865239441394806
416.0,0.018332649022340775
448.0,0.01694313995540142
480.0,0.015715600922703743
512.0,0.01507461816072464
576.0,0.012467850930988789
640.0,0.011047495529055595
704.0,0.0089237280189991
768.0,0.0052273147739470005
832.0,0.0007371489773504436
896.0,-0.0028638741932809353
960.0,-0.005094924941658974
1024.0,-0.007037903182208538
1152.0,-0.00977095402777195
1280.0,-0.010882223024964333
1408.0,-0.015385182574391365
1536.0,-0.01359116192907095
1664.0,-0.007382379844784737
1792.0,-0.0036045608576387167
1920.0,-0.0020506756845861673
2048.0,0.003529071342200041
2304.0,0.006513997912406921
2560.0,0.012144568376243114
2816.0,0.008950484916567802
3072.0,0.000769755570217967
3328.0,-0.007724300492554903
3584.0,-0.012124523520469666
3840.0,-0.00836554542183876
4096.0,-0.009198840707540512
4608.0,0.0011143304873257875
5120.0,-9.403328294865787e-05
5632.0,-0.011543051339685917
6144.0,-0.01567131094634533
6656.0,-0.004930616822093725
7168.0,0.006282844580709934
7680.0,0.001298706280067563
8192.0,-0.01082032173871994
end
