version,3.0
numOfCh,1
type,point
parent_name,c1204_0dot069-0dot1
ch_type,1_1
kcount,1
numberNandB,1
brightnessNandB,1
carpet pos,0
pc,0
Time (ms),CH1 Auto-Correlation
1.0,0.07767181098461151
2.0,0.07507022470235825
3.0,0.07222695648670197
4.0,0.06965982168912888
5.0,0.06706644594669342
6.0,0.06424815952777863
7.0,0.06175864115357399
8.0,0.05974828451871872
9.0,0.058853063732385635
10.0,0.057995688170194626
11.0,0.057283829897642136
12.0,0.05668573081493378
13.0,0.056197039783000946
14.0,0.05572080984711647
15.0,0.055202417075634
16.0,0.05474977195262909
18.0,0.05379888787865639
20.0,0.052657920867204666
22.0,0.05135893449187279
24.0,0.05006640404462814
26.0,0.048956774175167084
28.0,0.04803699627518654
30.0,0.04717590659856796
32.0,0.04644176363945007
36.0,0.04499751329421997
40.0,0.043670374900102615
44.0,0.04257485270500183
48.0,0.04159168899059296
52.0,0.04054073244333267
56.0,0.03967181220650673
60.0,0.03903179615736008
64.0,0.03834962099790573
72.0,0.036263611167669296
80.0,0.034459348767995834
88.0,0.032430291175842285
96.0,0.03132948279380798
104.0,0.030511874705553055
112.0,0.02986949495971203
120.0,0.02834535948932171
128.0,0.026634566485881805
144.0,0.023924650624394417
160.0,0.022302253171801567
176.0,0.02091895416378975
192.0,0.01971767656505108
208.0,0.019183894619345665
224.0,0.019277911633253098
240.0,0.018287794664502144
256.0,0.017646310850977898
288.0,0.01717323251068592
320.0,0.015592429786920547
352.0,0.014318854548037052
384.0,0.010507069528102875
416.0,0.009840399958193302
448.0,0.010069398209452629
480.0,0.010398121550679207
512.0,0.010608403012156487
576.0,0.007421091198921204
640.0,0.00278454483486712
704.0,0.0030709216371178627
768.0,0.003146297298371792
832.0,0.003252058755606413
896.0,0.004483658820390701
960.0,0.006044603884220123
1024.0,0.010177978314459324
1152.0,0.0075959996320307255
1280.0,0.005786830093711615
1408.0,0.004431196488440037
1536.0,0.01209082268178463
1664.0,0.012028415687382221
1792.0,0.005266263615339994
1920.0,0.010366772301495075
2048.0,0.01673486828804016
2304.0,0.012412655167281628
2560.0,-0.002126572886481881
2816.0,-0.013949939981102943
3072.0,-0.006191527936607599
3328.0,-0.00033065566094592214
3584.0,0.006288194563239813
3840.0,-3.988801609011716e-07
4096.0,-0.004325047601014376
4608.0,-0.00844413973391056
5120.0,-0.01396232657134533
5632.0,0.0014957792591303587
6144.0,-0.01218340266495943
6656.0,-0.016308944672346115
7168.0,-0.016489757224917412
7680.0,-0.017971975728869438
8192.0,-0.015071104280650616
end
