version,3.0
numOfCh,1
type,point
parent_name,c1204_0dot069-0dot1
ch_type,1_1
kcount,1
numberNandB,1
brightnessNandB,1
carpet pos,0
pc,0
Time (ms),CH1 Auto-Correlation
1.0,0.061288021504879
2.0,0.060847751796245575
3.0,0.06041444465517998
4.0,0.059981051832437515
5.0,0.05954772233963013
6.0,0.05911358445882797
7.0,0.05869121104478836
8.0,0.058269381523132324
9.0,0.05785452947020531
10.0,0.05743876472115517
11.0,0.05702647939324379
12.0,0.056597307324409485
13.0,0.05617021024227142
14.0,0.05573556572198868
15.0,0.05531368404626846
16.0,0.054893553256988525
18.0,0.054051805287599564
20.0,0.05323635786771774
22.0,0.052453525364398956
24.0,0.05169784650206566
26.0,0.05096770450472832
28.0,0.050218455493450165
30.0,0.04947499930858612
32.0,0.048766911029815674
36.0,0.04745050519704819
40.0,0.046206649392843246
44.0,0.04501413181424141
48.0,0.04383408650755882
52.0,0.042668238282203674
56.0,0.041536200791597366
60.0,0.040466852486133575
64.0,0.039443548768758774
72.0,0.03754355385899544
80.0,0.03574993461370468
88.0,0.034139178693294525
96.0,0.032835453748703
104.0,0.03171699494123459
112.0,0.030749965459108353
120.0,0.029940135776996613
128.0,0.02913055755198002
144.0,0.027838032692670822
160.0,0.02703249081969261
176.0,0.025795498862862587
192.0,0.02370881289243698
208.0,0.021457567811012268
224.0,0.019266793504357338
240.0,0.017122963443398476
256.0,0.0158558152616024
288.0,0.014139792881906033
320.0,0.012526695616543293
352.0,0.010384553112089634
384.0,0.008533932268619537
416.0,0.006379140540957451
448.0,0.00486327987164259
480.0,0.003830795409157872
512.0,0.002818889217451215
576.0,0.0012613296275958419
640.0,0.0020403675734996796
704.0,0.0036227027885615826
768.0,0.0025694859214127064
832.0,0.0022434513084590435
896.0,0.003799591213464737
960.0,0.0023588708136230707
1024.0,0.00042954616947099566
1152.0,-0.003759203013032675
1280.0,-0.006291814148426056
1408.0,-0.007746478542685509
1536.0,-0.005077525973320007
1664.0,-0.006118402816355228
1792.0,-0.009670278988778591
1920.0,-0.005329999141395092
2048.0,-0.00792434997856617
2304.0,-0.009438680484890938
2560.0,-0.00869275163859129
2816.0,-0.002869189949706197
3072.0,0.0017463511321693659
3328.0,0.00372442789375782
3584.0,0.0010023887734860182
3840.0,-0.0008768319385126233
4096.0,0.0016133090248331428
4608.0,-1.4755676602362655e-05
5120.0,0.0007177446968853474
5632.0,-0.004467394668608904
6144.0,-0.0015436721732839942
6656.0,-0.004112395457923412
7168.0,-0.008975280448794365
7680.0,-0.009850802831351757
8192.0,0.004660468082875013
end
