version,3.0
numOfCh,1
type,point
parent_name,c1204_0dot069-0dot1
ch_type,1_1
kcount,1
numberNandB,1
brightnessNandB,1
carpet pos,0
pc,0
Time (ms),CH1 Auto-Correlation
1.0,0.06653125584125519
2.0,0.06598067283630371
3.0,0.06544509530067444
4.0,0.06492666900157928
5.0,0.06444379687309265
6.0,0.06397306174039841
7.0,0.06350282579660416
8.0,0.06304067373275757
9.0,0.0625733807682991
10.0,0.06211773678660393
11.0,0.06164590269327164
12.0,0.06117994710803032
13.0,0.06072777137160301
14.0,0.060270048677921295
15.0,0.05982630327343941
16.0,0.05939562991261482
18.0,0.058567874133586884
20.0,0.05777871236205101
22.0,0.057030584663152695
24.0,0.05627124756574631
26.0,0.055491022765636444
28.0,0.054763831198215485
30.0,0.05410051345825195
32.0,0.05344446375966072
36.0,0.0521843321621418
40.0,0.0509909950196743
44.0,0.04993012920022011
48.0,0.04889532923698425
52.0,0.047924213111400604
56.0,0.04699541628360748
60.0,0.046051573008298874
64.0,0.0452544279396534
72.0,0.0438741035759449
80.0,0.042654093354940414
88.0,0.041418880224227905
96.0,0.040263962000608444
104.0,0.039336562156677246
112.0,0.03851790726184845
120.0,0.03787706419825554
128.0,0.03733675554394722
144.0,0.03577657416462898
160.0,0.03419011831283569
176.0,0.0331915058195591
192.0,0.03185374289751053
208.0,0.029776867479085922
224.0,0.027756458148360252
240.0,0.026659468188881874
256.0,0.026239776983857155
288.0,0.025231437757611275
320.0,0.02423778362572193
352.0,0.022950472310185432
384.0,0.021421195939183235
416.0,0.01996932551264763
448.0,0.018207348883152008
480.0,0.016676273196935654
512.0,0.014850675128400326
576.0,0.010876595973968506
640.0,0.007950478233397007
704.0,0.0041015734896063805
768.0,0.0011600444559007883
832.0,-0.0003838218981400132
896.0,-0.0013658273965120316
960.0,-0.002087526023387909
1024.0,-0.0020058825612068176
1152.0,-0.002125759143382311
1280.0,-0.001139322528615594
1408.0,-0.006500210613012314
1536.0,-0.009141962043941021
1664.0,-0.009151014499366283
1792.0,-0.013671091757714748
1920.0,-0.0174344964325428
2048.0,-0.020603986456990242
2304.0,-0.02035710960626602
2560.0,-0.013652043417096138
2816.0,-0.01457778550684452
3072.0,-0.011758987791836262
3328.0,-0.005337937269359827
3584.0,0.004948570858687162
3840.0,0.015539600513875484
4096.0,0.020520608872175217
4608.0,0.015173804014921188
5120.0,0.005245164968073368
5632.0,-0.002448087325319648
6144.0,-0.005738875828683376
6656.0,-0.0032454621978104115
7168.0,-0.010867866687476635
7680.0,-0.004378142300993204
8192.0,0.002990411827340722
end
