version,3.0
numOfCh,1
type,point
parent_name,c1204_0dot069-0dot1
ch_type,1_1
kcount,1
numberNandB,1
brightnessNandB,1
carpet pos,0
pc,0
Time (ms),CH1 Auto-Correlation
1.0,0.07020515203475952
2.0,0.06962539255619049
3.0,0.06906554102897644
4.0,0.06854142248630524
5.0,0.06801029294729233
6.0,0.06752242147922516
7.0,0.0670417994260788
8.0,0.06656505167484283
9.0,0.0660821944475174
10.0,0.06559859961271286
11.0,0.06514745950698853
12.0,0.06470971554517746
13.0,0.06427953392267227
14.0,0.06385811418294907
15.0,0.06343245506286621
16.0,0.06300155818462372
18.0,0.062185630202293396
20.0,0.06138283386826515
22.0,0.060546960681676865
24.0,0.05973826348781586
26.0,0.059004101902246475
28.0,0.058323755860328674
30.0,0.057704757899045944
32.0,0.0570896752178669
36.0,0.05590013414621353
40.0,0.05470132827758789
44.0,0.05346968397498131
48.0,0.05230940505862236
52.0,0.05122028663754463
56.0,0.0500810407102108
60.0,0.048977822065353394
64.0,0.04803462699055672
72.0,0.04630220681428909
80.0,0.04471287503838539
88.0,0.043291594833135605
96.0,0.04186102747917175
104.0,0.04068208485841751
112.0,0.03953242674469948
120.0,0.038268595933914185
128.0,0.037278912961483
144.0,0.036163389682769775
160.0,0.034618254750967026
176.0,0.0330297090113163
192.0,0.03127763047814369
208.0,0.02918865904211998
224.0,0.027144523337483406
240.0,0.024855047464370728
256.0,0.022401712834835052
288.0,0.018278179690241814
320.0,0.016280990093946457
352.0,0.016344811767339706
384.0,0.016133811324834824
416.0,0.015248122625052929
448.0,0.01413922943174839
480.0,0.011628407053649426
512.0,0.00967528484761715
576.0,0.006788755301386118
640.0,0.005078577436506748
704.0,0.0031038501765578985
768.0,0.005415021907538176
832.0,0.0074254171922802925
896.0,0.005861974321305752
960.0,0.0040544066578149796
1024.0,0.0034353318624198437
1152.0,0.002376517513766885
1280.0,-0.0006531646358780563
1408.0,-0.006063818000257015
1536.0,-0.006621706299483776
1664.0,-0.005871265660971403
1792.0,-0.007135618943721056
1920.0,-0.010004148818552494
2048.0,-0.012431779876351357
2304.0,-0.012232878245413303
2560.0,-0.014653688296675682
2816.0,-0.016664443537592888
3072.0,-0.014860273338854313
3328.0,-0.009631210006773472
3584.0,-0.0036284406669437885
3840.0,-0.006130496971309185
4096.0,-0.014202679507434368
4608.0,0.0032045948319137096
5120.0,0.009792787954211235
5632.0,0.01845954731106758
6144.0,0.0029008807614445686
6656.0,0.00527308089658618
7168.0,0.002331377472728491
7680.0,-0.0013694269582629204
8192.0,0.005978191737085581
end
