version,3.0
numOfCh,1
type,point
parent_name,c1204_0dot069-0dot1
ch_type,1_1
kcount,1
numberNandB,1
brightnessNandB,1
carpet pos,0
pc,0
Time (ms),CH1 Auto-Correlation
1.0,0.09354282170534134
2.0,0.09307225793600082
3.0,0.09261723607778549
4.0,0.09218132495880127
5.0,0.09175168722867966
6.0,0.09130765497684479
7.0,0.09087269753217697
8.0,0.09045780450105667
9.0,0.09003686159849167
10.0,0.08962161839008331
11.0,0.08920250087976456
12.0,0.08879635483026505
13.0,0.08839918673038483
14.0,0.08799709379673004
15.0,0.08759463578462601
16.0,0.08720836788415909
18.0,0.08647534996271133
20.0,0.08580338209867477
22.0,0.08517669886350632
24.0,0.08455727994441986
26.0,0.0839749276638031
28.0,0.0834122821688652
30.0,0.08288010209798813
32.0,0.08233269304037094
36.0,0.08127734065055847
40.0,0.08023592829704285
44.0,0.07923124730587006
48.0,0.0782630518078804
52.0,0.07734490185976028
56.0,0.07649275660514832
60.0,0.07569221407175064
64.0,0.07487765699625015
72.0,0.07319653779268265
80.0,0.07149961590766907
88.0,0.069764144718647
96.0,0.06814532727003098
104.0,0.06657978892326355
112.0,0.06512138992547989
120.0,0.06360573321580887
128.0,0.0622282512485981
144.0,0.05945674329996109
160.0,0.056416697800159454
176.0,0.05371489375829697
192.0,0.051369067281484604
208.0,0.04938819631934166
224.0,0.047256648540496826
240.0,0.04519563913345337
256.0,0.04357098415493965
288.0,0.0422733910381794
320.0,0.04077892005443573
352.0,0.03880452364683151
384.0,0.0368623360991478
416.0,0.0354606993496418
448.0,0.033880144357681274
480.0,0.0331878587603569
512.0,0.03262011706829071
576.0,0.03214195743203163
640.0,0.028199022635817528
704.0,0.02393249236047268
768.0,0.021767402067780495
832.0,0.021359380334615707
896.0,0.024277636781334877
960.0,0.027693070471286774
1024.0,0.02864888310432434
1152.0,0.029048314318060875
1280.0,0.02870033122599125
1408.0,0.02941962145268917
1536.0,0.031154263764619827
1664.0,0.02403447777032852
1792.0,0.01581869274377823
1920.0,0.012721959501504898
2048.0,0.009657553397119045
2304.0,0.01104468572884798
2560.0,0.0032324420753866434
2816.0,-0.00415157712996006
3072.0,-0.006591170094907284
3328.0,-0.00942841824144125
3584.0,-0.010520648211240768
3840.0,-0.008183461613953114
4096.0,-0.018080685287714005
4608.0,-0.021213559433817863
5120.0,-0.017622048035264015
5632.0,-0.008961182087659836
6144.0,-0.004469742998480797
6656.0,-0.016062317416071892
7168.0,-0.008959813043475151
7680.0,-0.007592201232910156
8192.0,-0.015491153113543987
end
