version,3.0
numOfCh,1
type,point
parent_name,c1204_0dot069-0dot1
ch_type,1_1
kcount,1
numberNandB,1
brightnessNandB,1
carpet pos,0
pc,0
Time (ms),CH1 Auto-Correlation
1.0,0.08135904371738434
2.0,0.08077874034643173
3.0,0.08022461831569672
4.0,0.07967062294483185
5.0,0.07911233603954315
6.0,0.0785573199391365
7.0,0.07800283282995224
8.0,0.07745765149593353
9.0,0.07694876939058304
10.0,0.07642628997564316
11.0,0.07592824101448059
12.0,0.07543264329433441
13.0,0.07496821880340576
14.0,0.0745326578617096
15.0,0.07408939301967621
16.0,0.07367363572120667
18.0,0.07286234945058823
20.0,0.07205123454332352
22.0,0.07126116752624512
24.0,0.07046470791101456
26.0,0.06966162472963333
28.0,0.06889556348323822
30.0,0.06813613325357437
32.0,0.06741861253976822
36.0,0.06605719774961472
40.0,0.06485699862241745
44.0,0.0638173371553421
48.0,0.06282907724380493
52.0,0.06185333430767059
56.0,0.06083178147673607
60.0,0.059740643948316574
64.0,0.058699339628219604
72.0,0.05689743161201477
80.0,0.05498470366001129
88.0,0.05304201319813728
96.0,0.05130016431212425
104.0,0.049782779067754745
112.0,0.048227570950984955
120.0,0.04659976810216904
128.0,0.045189063996076584
144.0,0.04238899424672127
160.0,0.03930293023586273
176.0,0.03657963126897812
192.0,0.034406185150146484
208.0,0.03272764012217522
224.0,0.03083089366555214
240.0,0.028525404632091522
256.0,0.026342252269387245
288.0,0.02476627193391323
320.0,0.02463092841207981
352.0,0.02456849254667759
384.0,0.024488180875778198
416.0,0.024580102413892746
448.0,0.02510148473083973
480.0,0.026819517835974693
512.0,0.027380971238017082
576.0,0.024323346093297005
640.0,0.020273057743906975
704.0,0.018216503784060478
768.0,0.01653001271188259
832.0,0.014968076720833778
896.0,0.015196750871837139
960.0,0.015072153881192207
1024.0,0.016530340537428856
1152.0,0.017705392092466354
1280.0,0.015581680461764336
1408.0,0.010096592828631401
1536.0,0.0047453329898417
1664.0,0.004261770751327276
1792.0,0.0005666639772243798
1920.0,-0.005548386834561825
2048.0,-0.012227722443640232
2304.0,-0.009392204694449902
2560.0,-0.010247153230011463
2816.0,-0.010274079628288746
3072.0,-0.008530712686479092
3328.0,-0.009974947199225426
3584.0,-0.003601867239922285
3840.0,-0.0028513886500149965
4096.0,-0.012851431034505367
4608.0,-0.0030625949148088694
5120.0,-0.006631180644035339
5632.0,-0.014719152823090553
6144.0,0.0014682643814012408
6656.0,-0.008232129737734795
7168.0,-0.004526261240243912
7680.0,0.0024321486707776785
8192.0,-0.00833585299551487
end
