version,3.0
numOfCh,1
type,point
parent_name,c1204_0dot069-0dot1
ch_type,1_1
kcount,1
numberNandB,1
brightnessNandB,1
carpet pos,0
pc,0
Time (ms),CH1 Auto-Correlation
1.0,0.0695999264717102
2.0,0.06839262694120407
3.0,0.06686185300350189
4.0,0.06556934118270874
5.0,0.06401322782039642
6.0,0.06315746903419495
7.0,0.062284160405397415
8.0,0.06180433928966522
9.0,0.061349499970674515
10.0,0.06089829280972481
11.0,0.06044083088636398
12.0,0.060027141124010086
13.0,0.059638701379299164
14.0,0.05929795280098915
15.0,0.05897773057222366
16.0,0.05865325406193733
18.0,0.057906374335289
20.0,0.056964974850416183
22.0,0.05603804439306259
24.0,0.055115457624197006
26.0,0.05433671921491623
28.0,0.0536026805639267
30.0,0.052951566874980927
32.0,0.05238033086061478
36.0,0.05153393745422363
40.0,0.05063265562057495
44.0,0.04984430968761444
48.0,0.04902186244726181
52.0,0.048317644745111465
56.0,0.04755568876862526
60.0,0.046636443585157394
64.0,0.04575710371136665
72.0,0.04416952282190323
80.0,0.04262098670005798
88.0,0.041279979050159454
96.0,0.039962369948625565
104.0,0.038846056908369064
112.0,0.03807970508933067
120.0,0.037549592554569244
128.0,0.037266649305820465
144.0,0.03629932552576065
160.0,0.035041674971580505
176.0,0.03363710269331932
192.0,0.032531894743442535
208.0,0.031186504289507866
224.0,0.029328804463148117
240.0,0.027660246938467026
256.0,0.02607898972928524
288.0,0.023152582347393036
320.0,0.021304374560713768
352.0,0.020146815106272697
384.0,0.0184930432587862
416.0,0.016817960888147354
448.0,0.014365768060088158
480.0,0.013440312817692757
512.0,0.013164764270186424
576.0,0.013699996285140514
640.0,0.012402492575347424
704.0,0.011378213763237
768.0,0.009461775422096252
832.0,0.007000310346484184
896.0,0.00578079791739583
960.0,0.0029930744785815477
1024.0,7.571127207484096e-05
1152.0,-0.0007234690710902214
1280.0,-0.0015930196968838573
1408.0,-0.0008326707757078111
1536.0,-0.0023431158624589443
1664.0,-0.00263349455781281
1792.0,0.0009184993105009198
1920.0,0.002000802429392934
2048.0,0.004088320769369602
2304.0,0.010973291471600533
2560.0,0.014061098918318748
2816.0,0.014252823777496815
3072.0,0.01296213734894991
3328.0,0.005829166620969772
3584.0,0.0014520569238811731
3840.0,-0.0031388846691697836
4096.0,-0.010344641283154488
4608.0,-0.005682123359292746
5120.0,-0.002728733466938138
5632.0,-0.004258891101926565
6144.0,-0.01240555476397276
6656.0,-0.02172425389289856
7168.0,-0.020208077505230904
7680.0,-0.03071618638932705
8192.0,-0.002973380032926798
end
