version,3.0
numOfCh,1
type,point
parent_name,c1204_0dot069-0dot1
ch_type,1_1
kcount,1
numberNandB,1
brightnessNandB,1
carpet pos,0
pc,0
Time (ms),CH1 Auto-Correlation
1.0,0.07027226686477661
2.0,0.06967180967330933
3.0,0.06911595910787582
4.0,0.06857604533433914
5.0,0.06805437803268433
6.0,0.06755971163511276
7.0,0.06711189448833466
8.0,0.06664495170116425
9.0,0.06620226055383682
10.0,0.06577065587043762
11.0,0.0653606653213501
12.0,0.0649300143122673
13.0,0.06449197232723236
14.0,0.06405418366193771
15.0,0.06363934278488159
16.0,0.06325133889913559
18.0,0.0624859556555748
20.0,0.061767447739839554
22.0,0.0610923208296299
24.0,0.06047004088759422
26.0,0.059857841581106186
28.0,0.059265587478876114
30.0,0.05863692983984947
32.0,0.058009423315525055
36.0,0.05683710053563118
40.0,0.05564439296722412
44.0,0.05447932705283165
48.0,0.0533769354224205
52.0,0.0522993840277195
56.0,0.0512440949678421
60.0,0.050188593566417694
64.0,0.04915858805179596
72.0,0.04726501926779747
80.0,0.04558016359806061
88.0,0.04407280310988426
96.0,0.04259951040148735
104.0,0.040888089686632156
112.0,0.039226654917001724
120.0,0.03796623647212982
128.0,0.03672608733177185
144.0,0.03495658189058304
160.0,0.03366296365857124
176.0,0.032381486147642136
192.0,0.03086109831929207
208.0,0.029868870973587036
224.0,0.028755316510796547
240.0,0.027644505724310875
256.0,0.027156436815857887
288.0,0.025275589898228645
320.0,0.023847075179219246
352.0,0.023110615089535713
384.0,0.023147525265812874
416.0,0.02250475063920021
448.0,0.021052196621894836
480.0,0.018908096477389336
512.0,0.01548878476023674
576.0,0.011510532349348068
640.0,0.009316274896264076
704.0,0.009658467024564743
768.0,0.008023499511182308
832.0,0.005306790117174387
896.0,0.0019492264837026596
960.0,2.147752275050152e-05
1024.0,-0.0022413376718759537
1152.0,-0.0025585589464753866
1280.0,-0.007398075889796019
1408.0,-0.0073804971762001514
1536.0,-0.006055688019841909
1664.0,-0.006413109600543976
1792.0,-0.010215572081506252
1920.0,-0.0071996585465967655
2048.0,-0.007482243236154318
2304.0,0.005335054360330105
2560.0,0.007637192029505968
2816.0,0.00891263596713543
3072.0,0.0067322952672839165
3328.0,0.0027444108854979277
3584.0,-0.007134126499295235
3840.0,-0.005547219887375832
4096.0,-0.01227340754121542
4608.0,-0.01765764132142067
5120.0,-0.007189126219600439
5632.0,0.011460116133093834
6144.0,0.014187932945787907
6656.0,-0.006702485028654337
7168.0,-0.028246581554412842
7680.0,-0.028607845306396484
8192.0,-0.011505039408802986
end
