version,3.0
numOfCh,1
type,point
parent_name,c1204_0dot069-0dot1
ch_type,1_1
kcount,1
numberNandB,1
brightnessNandB,1
carpet pos,0
pc,0
Time (ms),CH1 Auto-Correlation
1.0,0.04869874194264412
2.0,0.04821687191724777
3.0,0.047754280269145966
4.0,0.047290023416280746
5.0,0.046832554042339325
6.0,0.04637548699975014
7.0,0.04596599191427231
8.0,0.04555770009756088
9.0,0.04515470936894417
10.0,0.044773273169994354
11.0,0.04439434036612511
12.0,0.04403546825051308
13.0,0.043673478066921234
14.0,0.04331895336508751
15.0,0.04297129064798355
16.0,0.04262686148285866
18.0,0.04198235273361206
20.0,0.04133862257003784
22.0,0.04071146622300148
24.0,0.040124744176864624
26.0,0.03957091644406319
28.0,0.03904874622821808
30.0,0.03853972256183624
32.0,0.0380701944231987
36.0,0.03717925399541855
40.0,0.03623880818486214
44.0,0.03538166359066963
48.0,0.0345451720058918
52.0,0.03373851999640465
56.0,0.03297518566250801
60.0,0.032215483486652374
64.0,0.03147227317094803
72.0,0.03013131022453308
80.0,0.02895507402718067
88.0,0.02784848026931286
96.0,0.02698804810643196
104.0,0.02609921805560589
112.0,0.02521585300564766
120.0,0.02433481439948082
128.0,0.023463716730475426
144.0,0.022198956459760666
160.0,0.020843269303441048
176.0,0.01915918104350567
192.0,0.017747914418578148
208.0,0.01622215285897255
224.0,0.014898305758833885
240.0,0.013754134997725487
256.0,0.012686500325798988
288.0,0.010837730951607227
320.0,0.008345060981810093
352.0,0.006599842570722103
384.0,0.006298531778156757
416.0,0.006160196848213673
448.0,0.005548473913222551
480.0,0.00473704282194376
512.0,0.004574387334287167
576.0,0.005070294253528118
640.0,0.008216031827032566
704.0,0.01273136306554079
768.0,0.013731402345001698
832.0,0.012251060456037521
896.0,0.010788974352180958
960.0,0.00945734791457653
1024.0,0.007579521741718054
1152.0,0.004844909533858299
1280.0,0.0014133892254903913
1408.0,-0.00010729688801802695
1536.0,0.002692096633836627
1664.0,0.0028980185743421316
1792.0,0.002133841859176755
1920.0,0.0012313108891248703
2048.0,0.0019137279596179724
2304.0,-0.0013587622670456767
2560.0,-0.009007180109620094
2816.0,-0.009120134636759758
3072.0,-0.003357775043696165
3328.0,-0.007576866541057825
3584.0,-0.014172559604048729
3840.0,-0.006897095125168562
4096.0,-0.0052655888721346855
4608.0,-0.0037184995599091053
5120.0,0.00027173629496246576
5632.0,-0.004898618906736374
6144.0,-5.216258796281181e-05
6656.0,-0.0053538307547569275
7168.0,0.0029580462723970413
7680.0,0.005676358938217163
8192.0,0.011907628737390041
end
