version,3.0
numOfCh,1
type,point
parent_name,c1204_0dot069-0dot1
ch_type,1_1
kcount,1
numberNandB,1
brightnessNandB,1
carpet pos,0
pc,0
Time (ms),CH1 Auto-Correlation
1.0,0.06873666495084763
2.0,0.06820464134216309
3.0,0.0676768347620964
4.0,0.06716693937778473
5.0,0.06668541580438614
6.0,0.0662308782339096
7.0,0.06579353660345078
8.0,0.06537015736103058
9.0,0.06494482606649399
10.0,0.06453538686037064
11.0,0.06413483619689941
12.0,0.06374335289001465
13.0,0.0633646547794342
14.0,0.0630103051662445
15.0,0.0626605898141861
16.0,0.06230295076966286
18.0,0.06155683845281601
20.0,0.060791268944740295
22.0,0.06003253161907196
24.0,0.05929819121956825
26.0,0.058539099991321564
28.0,0.05777021870017052
30.0,0.05704280734062195
32.0,0.05635127052664757
36.0,0.05498071387410164
40.0,0.053723957389593124
44.0,0.05250905081629753
48.0,0.05136391520500183
52.0,0.05025281384587288
56.0,0.04923513904213905
60.0,0.04827689379453659
64.0,0.04737892001867294
72.0,0.04559186100959778
80.0,0.04383544251322746
88.0,0.04241250082850456
96.0,0.041084058582782745
104.0,0.039759933948516846
112.0,0.03864876925945282
120.0,0.03740958496928215
128.0,0.03607959672808647
144.0,0.03357978165149689
160.0,0.031252507120370865
176.0,0.029086360707879066
192.0,0.027339283376932144
208.0,0.02610607072710991
224.0,0.02550630271434784
240.0,0.0247567780315876
256.0,0.02374548278748989
288.0,0.021772483363747597
320.0,0.019810402765870094
352.0,0.018568113446235657
384.0,0.01799742318689823
416.0,0.016362620517611504
448.0,0.013887572102248669
480.0,0.011789428070187569
512.0,0.011199547909200191
576.0,0.00892880093306303
640.0,0.006922783795744181
704.0,0.0042239525355398655
768.0,0.0029772683046758175
832.0,0.0021568969823420048
896.0,0.001427419250831008
960.0,0.003832631977275014
1024.0,0.00548142846673727
1152.0,-7.701539288973436e-05
1280.0,-0.004403522703796625
1408.0,-0.00436904514208436
1536.0,-0.0024868829641491175
1664.0,-0.007223029620945454
1792.0,-0.008346338756382465
1920.0,-0.007789191324263811
2048.0,-0.0036407008301466703
2304.0,-0.0012346761068329215
2560.0,-0.0012161071645095944
2816.0,-0.00471646199002862
3072.0,-0.008345138281583786
3328.0,-0.007391531486064196
3584.0,-0.002316109137609601
3840.0,0.0003321274998597801
4096.0,-0.000847180315759033
4608.0,-0.011111949570477009
5120.0,-0.013912387192249298
5632.0,-0.003178951796144247
6144.0,-0.0019078803015872836
6656.0,-0.009025456383824348
7168.0,-0.004825363866984844
7680.0,0.014221135526895523
8192.0,0.0033142357133328915
end
