version,3.0
numOfCh,1
type,point
parent_name,c1204_0dot069-0dot1
ch_type,1_1
kcount,1
numberNandB,1
brightnessNandB,1
carpet pos,0
pc,0
Time (ms),CH1 Auto-Correlation
1.0,0.047610778361558914
2.0,0.04706648737192154
3.0,0.04653570428490639
4.0,0.04602939262986183
5.0,0.0455600768327713
6.0,0.04509367048740387
7.0,0.04465848580002785
8.0,0.04422859102487564
9.0,0.04378911480307579
10.0,0.043344732373952866
11.0,0.04290861263871193
12.0,0.04249431565403938
13.0,0.04208417236804962
14.0,0.04166087880730629
15.0,0.04125227779150009
16.0,0.040850527584552765
18.0,0.040068402886390686
20.0,0.039343591779470444
22.0,0.03865235671401024
24.0,0.038009148091077805
26.0,0.037358369678258896
28.0,0.03671589866280556
30.0,0.0360509417951107
32.0,0.03536295145750046
36.0,0.0340757742524147
40.0,0.032773010432720184
44.0,0.03146227076649666
48.0,0.030277028679847717
52.0,0.029166145250201225
56.0,0.028087018057703972
60.0,0.027089213952422142
64.0,0.026121016591787338
72.0,0.024123096838593483
80.0,0.022119009867310524
88.0,0.02017149142920971
96.0,0.01837955415248871
104.0,0.01686881296336651
112.0,0.015517928637564182
120.0,0.014184538275003433
128.0,0.01290667150169611
144.0,0.010678284801542759
160.0,0.009396245703101158
176.0,0.009068627841770649
192.0,0.009251636452972889
208.0,0.009569285437464714
224.0,0.009858397766947746
240.0,0.009986943565309048
256.0,0.01002209447324276
288.0,0.009091389365494251
320.0,0.007338011637330055
352.0,0.004868378862738609
384.0,0.0029826578684151173
416.0,0.0013187980512157083
448.0,0.000695588649250567
480.0,0.0008670456008985639
512.0,0.00056623131968081
576.0,-0.001609045546501875
640.0,-0.003594873705878854
704.0,-0.005353706423193216
768.0,-0.0051081059500575066
832.0,-0.003832821734249592
896.0,-0.0042322054505348206
960.0,-0.006516516674309969
1024.0,-0.005593716166913509
1152.0,-0.004708414897322655
1280.0,-0.008699622005224228
1408.0,-0.006373804993927479
1536.0,-0.0031835371628403664
1664.0,-0.002806157572194934
1792.0,-0.0011383788660168648
1920.0,0.0025189644657075405
2048.0,0.004661641549319029
2304.0,0.003862337674945593
2560.0,0.0003045058692805469
2816.0,-0.0016889650141820312
3072.0,-0.00743592856451869
3328.0,-0.008956518955528736
3584.0,-0.00622789328917861
3840.0,-0.003364928299561143
4096.0,0.0032805101945996284
4608.0,-0.00019343571329955012
5120.0,0.0033921217545866966
5632.0,-0.005652478896081448
6144.0,0.012978022918105125
6656.0,0.006171055603772402
7168.0,-0.005213685799390078
7680.0,-0.006503468379378319
8192.0,6.345253495965153e-05
end
