version,3.0
numOfCh,1
type,point
parent_name,c1204_0dot069-0dot1
ch_type,1_1
kcount,1
numberNandB,1
brightnessNandB,1
carpet pos,0
pc,0
Time (ms),CH1 Auto-Correlation
1.0,0.0946139395236969
2.0,0.09327103942632675
3.0,0.09214064478874207
4.0,0.0910567119717598
5.0,0.09014764428138733
6.0,0.08928953856229782
7.0,0.08840974420309067
8.0,0.08753130584955215
9.0,0.08667674660682678
10.0,0.08582929521799088
11.0,0.08496841788291931
12.0,0.08414323627948761
13.0,0.08335009217262268
14.0,0.08258505910634995
15.0,0.08179618418216705
16.0,0.08101984113454819
18.0,0.07969284802675247
20.0,0.07831443846225739
22.0,0.07681723684072495
24.0,0.07550554722547531
26.0,0.07422781735658646
28.0,0.0730016827583313
30.0,0.0718749538064003
32.0,0.0707811787724495
36.0,0.06908946484327316
40.0,0.06751644611358643
44.0,0.06608036905527115
48.0,0.06482107937335968
52.0,0.06371643394231796
56.0,0.0627654492855072
60.0,0.06161380186676979
64.0,0.06062089279294014
72.0,0.059153687208890915
80.0,0.05798047408461571
88.0,0.05719594657421112
96.0,0.055859364569187164
104.0,0.053892832249403
112.0,0.052387624979019165
120.0,0.050789445638656616
128.0,0.04945465549826622
144.0,0.046987734735012054
160.0,0.04383097216486931
176.0,0.040439244359731674
192.0,0.03789116442203522
208.0,0.03521864116191864
224.0,0.03199172392487526
240.0,0.029763832688331604
256.0,0.02830643206834793
288.0,0.02530808560550213
320.0,0.021376991644501686
352.0,0.017177825793623924
384.0,0.012017379514873028
416.0,0.008366749621927738
448.0,0.004824323114007711
480.0,0.0031366150360554457
512.0,0.00026583034195937216
576.0,-0.0017073624767363071
640.0,-0.0026472988538444042
704.0,-0.0018829781329259276
768.0,0.00014931330224499106
832.0,-2.659590245457366e-05
896.0,0.002062380313873291
960.0,0.005847005173563957
1024.0,0.007964372634887695
1152.0,0.01507623866200447
1280.0,0.021323177963495255
1408.0,0.01632744073867798
1536.0,0.01161599438637495
1664.0,0.003405981929972768
1792.0,-0.002434596884995699
1920.0,-0.001883088145405054
2048.0,0.0003718542284332216
2304.0,0.006632446777075529
2560.0,0.0008471639011986554
2816.0,0.003963652532547712
3072.0,0.015857182443141937
3328.0,0.006226920988410711
3584.0,-0.006179045420140028
3840.0,-0.02013019099831581
4096.0,-0.016633015125989914
4608.0,-0.008983911946415901
5120.0,-0.03319977968931198
5632.0,-0.016067540273070335
6144.0,-0.015965795144438744
6656.0,-0.015709983184933662
7168.0,0.007540499325841665
7680.0,-0.01586175337433815
8192.0,-0.0699375569820404
end
