version,3.0
numOfCh,1
type,point
parent_name,c1204_0dot069-0dot1
ch_type,1_1
kcount,1
numberNandB,1
brightnessNandB,1
carpet pos,0
pc,0
Time (ms),CH1 Auto-Correlation
1.0,0.07793130725622177
2.0,0.07723838835954666
3.0,0.0765593945980072
4.0,0.07588107883930206
5.0,0.07520540803670883
6.0,0.07453088462352753
7.0,0.07391190528869629
8.0,0.07331757992506027
9.0,0.0727313831448555
10.0,0.07217065244913101
11.0,0.07164788246154785
12.0,0.07116074115037918
13.0,0.0706428810954094
14.0,0.07009288668632507
15.0,0.06956679373979568
16.0,0.06902756541967392
18.0,0.06792796403169632
20.0,0.06688281148672104
22.0,0.06582257896661758
24.0,0.06484314054250717
26.0,0.0639602318406105
28.0,0.06311192363500595
30.0,0.06231144070625305
32.0,0.06152120977640152
36.0,0.05988464131951332
40.0,0.05830366909503937
44.0,0.056925494223833084
48.0,0.0556345172226429
52.0,0.054374195635318756
56.0,0.05310788005590439
60.0,0.051905352622270584
64.0,0.05075584352016449
72.0,0.04851014167070389
80.0,0.046422675251960754
88.0,0.044489022344350815
96.0,0.04246703162789345
104.0,0.0403202660381794
112.0,0.038256093859672546
120.0,0.036623984575271606
128.0,0.03525565564632416
144.0,0.032300230115652084
160.0,0.02949672006070614
176.0,0.027644313871860504
192.0,0.025989307090640068
208.0,0.024093380197882652
224.0,0.022517118602991104
240.0,0.020792663097381592
256.0,0.018742751330137253
288.0,0.014852792955935001
320.0,0.011951358988881111
352.0,0.01013914868235588
384.0,0.007500302512198687
416.0,0.005821815226227045
448.0,0.0034377945121377707
480.0,0.0010521085932850838
512.0,-0.00018845629529096186
576.0,-0.0018177571473643184
640.0,-0.0041250502690672874
704.0,-0.006918156519532204
768.0,-0.009531415067613125
832.0,-0.01256486028432846
896.0,-0.012859375216066837
960.0,-0.010722490027546883
1024.0,-0.007074777036905289
1152.0,-0.0038035886827856302
1280.0,-0.004406917840242386
1408.0,-0.009070799686014652
1536.0,-0.006562530528753996
1664.0,0.0003476870188023895
1792.0,-0.0014615724794566631
1920.0,-0.007239538710564375
2048.0,-0.004410932306200266
2304.0,0.0005475275102071464
2560.0,-0.004365632310509682
2816.0,-0.002635967917740345
3072.0,-0.0006528922822326422
3328.0,0.003879792522639036
3584.0,0.0003529903187882155
3840.0,-0.0012163403443992138
4096.0,-0.00504954531788826
4608.0,-0.01091399323195219
5120.0,0.004718593321740627
5632.0,0.00201401743106544
6144.0,-0.00389227457344532
6656.0,-0.006746338214725256
7168.0,0.00456839706748724
7680.0,0.0076311323791742325
8192.0,0.0010350802913308144
end
