version,3.0
numOfCh,1
type,point
parent_name,c1204_0dot069-0dot1
ch_type,1_1
kcount,1
numberNandB,1
brightnessNandB,1
carpet pos,0
pc,0
Time (ms),CH1 Auto-Correlation
1.0,0.07389398664236069
2.0,0.07347097247838974
3.0,0.07304541766643524
4.0,0.07263204455375671
5.0,0.07221917808055878
6.0,0.0718168243765831
7.0,0.07141289860010147
8.0,0.0710069015622139
9.0,0.07061311602592468
10.0,0.07021237164735794
11.0,0.06982124596834183
12.0,0.06942123919725418
13.0,0.06900875270366669
14.0,0.06859944760799408
15.0,0.06819288432598114
16.0,0.06778891384601593
18.0,0.06698920577764511
20.0,0.0662316083908081
22.0,0.0654948502779007
24.0,0.06476455181837082
26.0,0.06401436030864716
28.0,0.0632670596241951
30.0,0.06254244595766068
32.0,0.06183678284287453
36.0,0.06041482463479042
40.0,0.05907848849892616
44.0,0.05774157494306564
48.0,0.05643393471837044
52.0,0.055183541029691696
56.0,0.05394545942544937
60.0,0.05274663865566254
64.0,0.051597341895103455
72.0,0.04920842871069908
80.0,0.04693366587162018
88.0,0.04491464048624039
96.0,0.04322449490427971
104.0,0.04166474938392639
112.0,0.04032904654741287
120.0,0.039239343255758286
128.0,0.03846919164061546
144.0,0.037369195371866226
160.0,0.03655880689620972
176.0,0.03606804832816124
192.0,0.035791270434856415
208.0,0.035381730645895004
224.0,0.03467782214283943
240.0,0.03364675119519234
256.0,0.031977374106645584
288.0,0.028290415182709694
320.0,0.02471320703625679
352.0,0.02277262881398201
384.0,0.021551992744207382
416.0,0.021868178620934486
448.0,0.022145666182041168
480.0,0.020858250558376312
512.0,0.018331903964281082
576.0,0.013182764872908592
640.0,0.01311937253922224
704.0,0.016214843839406967
768.0,0.015492810867726803
832.0,0.013293520547449589
896.0,0.010441127233207226
960.0,0.008380335755646229
1024.0,0.005916374735534191
1152.0,0.005166902206838131
1280.0,-0.0004594355123117566
1408.0,-0.004638688638806343
1536.0,-0.00500049814581871
1664.0,-0.0017218361608684063
1792.0,-0.0022717963438481092
1920.0,0.001392525970004499
2048.0,0.0023413703311234713
2304.0,-0.00016631644393783063
2560.0,9.393087384523824e-05
2816.0,0.00011342424113536254
3072.0,-0.0037226383574306965
3328.0,-0.01677733287215233
3584.0,-0.022218286991119385
3840.0,-0.017602864652872086
4096.0,-0.011497486382722855
4608.0,-0.004433370195329189
5120.0,0.008903850801289082
5632.0,0.0005103733856230974
6144.0,0.0012432634830474854
6656.0,0.0008677492733113468
7168.0,0.00877183023840189
7680.0,-0.0009958442533388734
8192.0,-0.016442641615867615
end
