version,3.0
numOfCh,1
type,point
parent_name,c1204_0dot069-0dot1
ch_type,1_1
kcount,1
numberNandB,1
brightnessNandB,1
carpet pos,0
pc,0
Time (ms),CH1 Auto-Correlation
1.0,0.059756238013505936
2.0,0.05912560224533081
3.0,0.058534104377031326
4.0,0.05798565596342087
5.0,0.05743858963251114
6.0,0.05690096318721771
7.0,0.05641893297433853
8.0,0.05594620853662491
9.0,0.0554422028362751
10.0,0.05499407649040222
11.0,0.05456647276878357
12.0,0.05412079393863678
13.0,0.05366764962673187
14.0,0.05323294177651405
15.0,0.05280870571732521
16.0,0.05237341672182083
18.0,0.051589760929346085
20.0,0.05083592236042023
22.0,0.05012258514761925
24.0,0.049325186759233475
26.0,0.048508577048778534
28.0,0.04774043336510658
30.0,0.04706067591905594
32.0,0.046478837728500366
36.0,0.045480698347091675
40.0,0.04462534934282303
44.0,0.04378544166684151
48.0,0.0429956428706646
52.0,0.042172569781541824
56.0,0.04135933518409729
60.0,0.0404936820268631
64.0,0.039697933942079544
72.0,0.03818075731396675
80.0,0.03664196655154228
88.0,0.03533589094877243
96.0,0.03431611508131027
104.0,0.03353500738739967
112.0,0.03301026299595833
120.0,0.03253300487995148
128.0,0.0321132056415081
144.0,0.030717333778738976
160.0,0.029349522665143013
176.0,0.028220010921359062
192.0,0.026946866884827614
208.0,0.0257278885692358
224.0,0.024670735001564026
240.0,0.02375340461730957
256.0,0.02354392409324646
288.0,0.022295799106359482
320.0,0.02205900102853775
352.0,0.020970603451132774
384.0,0.020865127444267273
416.0,0.01971464231610298
448.0,0.019199110567569733
480.0,0.018189555034041405
512.0,0.017315223813056946
576.0,0.016042672097682953
640.0,0.01583746261894703
704.0,0.013469232246279716
768.0,0.011398464441299438
832.0,0.010597865097224712
896.0,0.010927443392574787
960.0,0.012384610250592232
1024.0,0.012460926547646523
1152.0,0.012548534199595451
1280.0,0.012401639483869076
1408.0,0.015369673259556293
1536.0,0.019192209467291832
1664.0,0.015436236746609211
1792.0,0.011559421196579933
1920.0,0.010750740766525269
2048.0,0.01084403321146965
2304.0,0.010248132981359959
2560.0,0.0052783130668103695
2816.0,0.0032880608923733234
3072.0,0.002712718676775694
3328.0,-0.0007092773448675871
3584.0,0.0012611267156898975
3840.0,0.003521292470395565
4096.0,0.0026288728695362806
4608.0,-0.004196378402411938
5120.0,-0.01190949883311987
5632.0,-0.010853667743504047
6144.0,-0.009451647289097309
6656.0,-0.021994011476635933
7168.0,-0.035139743238687515
7680.0,-0.026333007961511612
8192.0,-0.03498590737581253
end
