version,3.0
numOfCh,1
type,point
parent_name,c1204_0dot069-0dot1
ch_type,1_1
kcount,1
numberNandB,1
brightnessNandB,1
carpet pos,0
pc,0
Time (ms),CH1 Auto-Correlation
1.0,0.06273610144853592
2.0,0.062105052173137665
3.0,0.06152568757534027
4.0,0.06094523146748543
5.0,0.06033824756741524
6.0,0.059773173183202744
7.0,0.05921638756990433
8.0,0.05865700915455818
9.0,0.058146197348833084
10.0,0.057668887078762054
11.0,0.057197608053684235
12.0,0.05678583309054375
13.0,0.056371379643678665
14.0,0.05595884099602699
15.0,0.05555982515215874
16.0,0.05518266558647156
18.0,0.054466765373945236
20.0,0.05375402420759201
22.0,0.05299655720591545
24.0,0.05227697640657425
26.0,0.05157407745718956
28.0,0.05093548819422722
30.0,0.050364818423986435
32.0,0.04985271394252777
36.0,0.04877110943198204
40.0,0.047821637243032455
44.0,0.04688055068254471
48.0,0.045898083597421646
52.0,0.045017439872026443
56.0,0.04424772039055824
60.0,0.04355674982070923
64.0,0.04281039163470268
72.0,0.04133646935224533
80.0,0.04001205787062645
88.0,0.038664765655994415
96.0,0.03740675002336502
104.0,0.03614487126469612
112.0,0.03510669991374016
120.0,0.034224364906549454
128.0,0.03343494236469269
144.0,0.03111911565065384
160.0,0.029466886073350906
176.0,0.028479289263486862
192.0,0.027139777317643166
208.0,0.02574334852397442
224.0,0.02382602170109749
240.0,0.02198929339647293
256.0,0.021391479298472404
288.0,0.020651143044233322
320.0,0.01997726783156395
352.0,0.01912301406264305
384.0,0.016636136919260025
416.0,0.015415783040225506
448.0,0.01432050671428442
480.0,0.013526362366974354
512.0,0.0124708516523242
576.0,0.0099536357447505
640.0,0.00775230722501874
704.0,0.005165587179362774
768.0,0.003304301993921399
832.0,0.002580277156084776
896.0,0.000685210048686713
960.0,-0.0009181338828057051
1024.0,-0.002194035332649946
1152.0,-0.006002623587846756
1280.0,-0.006193967070430517
1408.0,-0.0015470049111172557
1536.0,0.0004462928918655962
1664.0,-0.004215405788272619
1792.0,-0.003534669755026698
1920.0,-0.005476845428347588
2048.0,-0.0037476730067282915
2304.0,-0.003794992808252573
2560.0,0.00487502571195364
2816.0,0.009327225387096405
3072.0,0.009100974537432194
3328.0,0.003663861658424139
3584.0,-0.0016314152162522078
3840.0,-0.008070388808846474
4096.0,-0.012016037479043007
4608.0,-0.009894638322293758
5120.0,-0.0032315112184733152
5632.0,0.005710159428417683
6144.0,0.012107054702937603
6656.0,0.011713343672454357
7168.0,0.005912490654736757
7680.0,-0.00622533168643713
8192.0,-0.010971087962388992
end
