version,3.0
numOfCh,1
type,point
parent_name,c1204_0dot069-0dot1
ch_type,1_1
kcount,1
numberNandB,1
brightnessNandB,1
carpet pos,0
pc,0
Time (ms),CH1 Auto-Correlation
1.0,0.05993075296282768
2.0,0.059447769075632095
3.0,0.05897253379225731
4.0,0.05849403142929077
5.0,0.05802135169506073
6.0,0.05753308907151222
7.0,0.057071201503276825
8.0,0.056632716208696365
9.0,0.05619153752923012
10.0,0.05575122311711311
11.0,0.055302735418081284
12.0,0.05487557873129845
13.0,0.05444411560893059
14.0,0.054029226303100586
15.0,0.053604014217853546
16.0,0.053173456341028214
18.0,0.05234985426068306
20.0,0.05154755711555481
22.0,0.05076386407017708
24.0,0.04999597743153572
26.0,0.04925430193543434
28.0,0.048495568335056305
30.0,0.04772983491420746
32.0,0.04697804898023605
36.0,0.04552456736564636
40.0,0.04414941370487213
44.0,0.042813658714294434
48.0,0.041527166962623596
52.0,0.040390778332948685
56.0,0.0393509604036808
60.0,0.038338858634233475
64.0,0.03737964853644371
72.0,0.0355827771127224
80.0,0.03393711522221565
88.0,0.03238176181912422
96.0,0.03106023371219635
104.0,0.029698539525270462
112.0,0.0281554963439703
120.0,0.026742035523056984
128.0,0.025351114571094513
144.0,0.022595275193452835
160.0,0.020182153210043907
176.0,0.017730001360177994
192.0,0.015155788511037827
208.0,0.01282147504389286
224.0,0.01102866604924202
240.0,0.009797593578696251
256.0,0.008665254339575768
288.0,0.005895214155316353
320.0,0.003518715500831604
352.0,0.0016636360669508576
384.0,0.0003499655576888472
416.0,-0.00129908777307719
448.0,-0.0033807994332164526
480.0,-0.0047968365252017975
512.0,-0.007255929056555033
576.0,-0.011748862452805042
640.0,-0.014399009756743908
704.0,-0.014209553599357605
768.0,-0.013854862190783024
832.0,-0.010868515819311142
896.0,-0.008131014183163643
960.0,-0.00634689349681139
1024.0,-0.0037582346703857183
1152.0,0.0043251668103039265
1280.0,0.01179692056030035
1408.0,0.009166872128844261
1536.0,0.0008087497553788126
1664.0,-0.0009377107489854097
1792.0,-0.005617957096546888
1920.0,-0.00857258029282093
2048.0,-0.007097631227225065
2304.0,-0.00024634311557747424
2560.0,0.005629050545394421
2816.0,0.0014491262845695019
3072.0,-0.0015356378862634301
3328.0,-0.003127462463453412
3584.0,0.002684470033273101
3840.0,0.006636705249547958
4096.0,-0.0015982325421646237
4608.0,-0.003530826885253191
5120.0,-0.004339513368904591
5632.0,-0.0018212603172287345
6144.0,-0.005524544045329094
6656.0,0.005003733094781637
7168.0,0.007553740870207548
7680.0,-0.0013385999482125044
8192.0,0.002699357457458973
end
