version,3.0
numOfCh,1
type,point
parent_name,c1204_0dot069-0dot1
ch_type,1_1
kcount,1
numberNandB,1
brightnessNandB,1
carpet pos,0
pc,0
Time (ms),CH1 Auto-Correlation
1.0,0.06451918184757233
2.0,0.06380905210971832
3.0,0.06318482011556625
4.0,0.06258079409599304
5.0,0.06198352575302124
6.0,0.06140049174427986
7.0,0.06084999442100525
8.0,0.060324545949697495
9.0,0.059786535799503326
10.0,0.059286829084157944
11.0,0.058807794004678726
12.0,0.058359332382678986
13.0,0.05792747437953949
14.0,0.05748909339308739
15.0,0.057044025510549545
16.0,0.05659182369709015
18.0,0.05579265207052231
20.0,0.05501880496740341
22.0,0.05430091544985771
24.0,0.053656842559576035
26.0,0.05303098261356354
28.0,0.05243310332298279
30.0,0.051865607500076294
32.0,0.0513010248541832
36.0,0.05041230097413063
40.0,0.049413882195949554
44.0,0.0483630932867527
48.0,0.04726826399564743
52.0,0.046072520315647125
56.0,0.04481063038110733
60.0,0.04362426698207855
64.0,0.0425235815346241
72.0,0.04030845686793327
80.0,0.038181714713573456
88.0,0.03620930388569832
96.0,0.03450680151581764
104.0,0.032976169139146805
112.0,0.03162616863846779
120.0,0.030456028878688812
128.0,0.029413236305117607
144.0,0.02668764255940914
160.0,0.024626076221466064
176.0,0.02319370023906231
192.0,0.021571695804595947
208.0,0.02063855342566967
224.0,0.019582251086831093
240.0,0.018498415127396584
256.0,0.017299775034189224
288.0,0.015133049339056015
320.0,0.01353255845606327
352.0,0.01293143443763256
384.0,0.012090196833014488
416.0,0.0111779123544693
448.0,0.011001702398061752
480.0,0.009944548830389977
512.0,0.008178146556019783
576.0,0.005609022919088602
640.0,0.0038715593982487917
704.0,0.001801364473067224
768.0,0.000310708797769621
832.0,0.0016524635720998049
896.0,0.00017487810691818595
960.0,-0.0033262555953115225
1024.0,-0.006839136127382517
1152.0,-0.01400895044207573
1280.0,-0.01509714126586914
1408.0,-0.013924703933298588
1536.0,-0.01704631745815277
1664.0,-0.015216944739222527
1792.0,-0.013190957717597485
1920.0,-0.012429781258106232
2048.0,-0.01626463234424591
2304.0,-0.010354850441217422
2560.0,-0.00038963271072134376
2816.0,0.00593500304967165
3072.0,0.015555714257061481
3328.0,0.019390471279621124
3584.0,0.012771125882863998
3840.0,0.003186342306435108
4096.0,0.00014412075688596815
4608.0,-0.007342775352299213
5120.0,-0.006483691744506359
5632.0,-0.006985345855355263
6144.0,0.0009883245220407844
6656.0,0.0018017817055806518
7168.0,-0.004657421261072159
7680.0,-0.0030049236956983805
8192.0,0.0025393131654709578
end
