version,3.0
numOfCh,1
type,point
parent_name,c1204_0dot069-0dot1
ch_type,1_1
kcount,1
numberNandB,1
brightnessNandB,1
carpet pos,0
pc,0
Time (ms),CH1 Auto-Correlation
1.0,0.05393872782588005
2.0,0.05329595506191254
3.0,0.05266923829913139
4.0,0.052061326801776886
5.0,0.05148791894316673
6.0,0.05095931887626648
7.0,0.050421182066202164
8.0,0.049890317022800446
9.0,0.04936230555176735
10.0,0.04882853105664253
11.0,0.04831736162304878
12.0,0.047846123576164246
13.0,0.04739334061741829
14.0,0.04693804681301117
15.0,0.04649763181805611
16.0,0.04608997330069542
18.0,0.045259904116392136
20.0,0.04447690024971962
22.0,0.0437176376581192
24.0,0.042929794639348984
26.0,0.04212329536676407
28.0,0.04133196175098419
30.0,0.04050014540553093
32.0,0.039706312119960785
36.0,0.03824138268828392
40.0,0.03687622398138046
44.0,0.03559493273496628
48.0,0.034462545067071915
52.0,0.03329447656869888
56.0,0.03209145739674568
60.0,0.030833309516310692
64.0,0.029521752148866653
72.0,0.02695315144956112
80.0,0.024767201393842697
88.0,0.022968780249357224
96.0,0.021345293149352074
104.0,0.019793188199400902
112.0,0.018642043694853783
120.0,0.017598669975996017
128.0,0.016452986747026443
144.0,0.014580713585019112
160.0,0.013418897986412048
176.0,0.012727523222565651
192.0,0.012432040646672249
208.0,0.012241639196872711
224.0,0.012160484679043293
240.0,0.012143125757575035
256.0,0.011445770040154457
288.0,0.011030703783035278
320.0,0.011314373463392258
352.0,0.011391103267669678
384.0,0.008891627192497253
416.0,0.006528433412313461
448.0,0.004533167462795973
480.0,0.002874330384656787
512.0,0.0018654048908501863
576.0,0.0025036868173629045
640.0,0.005593691486865282
704.0,0.004558829590678215
768.0,0.006617323495447636
832.0,0.010466651059687138
896.0,0.011560428887605667
960.0,0.009757908061146736
1024.0,0.011699213646352291
1152.0,0.009402181021869183
1280.0,0.0010105879046022892
1408.0,-0.0045658890157938
1536.0,-0.00491374684497714
1664.0,-0.004601216875016689
1792.0,-0.0019873157143592834
1920.0,0.00601168954744935
2048.0,0.0061644879169762135
2304.0,-0.0010293673258274794
2560.0,-0.001703321817331016
2816.0,-0.0016336068511009216
3072.0,-0.0020667884964495897
3328.0,-0.008632250130176544
3584.0,-0.00790284015238285
3840.0,-0.007206630893051624
4096.0,-0.007892324589192867
4608.0,-0.003136912127956748
5120.0,-0.0019140475196763873
5632.0,0.004799991846084595
6144.0,-0.006439119577407837
6656.0,0.0025944733060896397
7168.0,-0.009291838854551315
7680.0,0.005440220702439547
8192.0,-0.009051259607076645
end
