version,3.0
numOfCh,1
type,point
parent_name,714af_1dot0-1dot0
ch_type,1_1
kcount,1
numberNandB,1
brightnessNandB,1
carpet pos,0
pc,0
Time (ms),CH1 Auto-Correlation
1.0,0.02609710581600666
2.0,0.023899920284748077
3.0,0.022061483934521675
4.0,0.02045636996626854
5.0,0.019005196169018745
6.0,0.017760930582880974
7.0,0.01661142148077488
8.0,0.015565512701869011
9.0,0.014673670753836632
10.0,0.013830311596393585
11.0,0.013071543537080288
12.0,0.012341585010290146
13.0,0.011646125465631485
14.0,0.010971994139254093
15.0,0.010370578616857529
16.0,0.00986610259860754
18.0,0.00904783420264721
20.0,0.008283976465463638
22.0,0.007624839898198843
24.0,0.006966460961848497
26.0,0.006353034172207117
28.0,0.005734119564294815
30.0,0.005360322073101997
32.0,0.005020215641707182
36.0,0.004475490190088749
40.0,0.003806471358984709
44.0,0.0033627906814217567
48.0,0.0031322387512773275
52.0,0.0030933863017708063
56.0,0.0031186272390186787
60.0,0.0031538784969598055
64.0,0.0030907546170055866
72.0,0.003055643755942583
80.0,0.0021308730356395245
88.0,0.0014427914284169674
96.0,0.0012167945969849825
104.0,0.0009264198015443981
112.0,0.0007149717421270907
120.0,0.0008543197182007134
128.0,0.001191440038383007
144.0,0.0015049749054014683
160.0,0.0011898924130946398
176.0,0.0009129003738053143
192.0,0.0009569920366629958
208.0,0.0007285426836460829
224.0,-0.00021489468053914607
240.0,-0.0003688963479362428
256.0,-0.0004700428689830005
288.0,-0.0008613479440100491
320.0,-0.00041794852586463094
352.0,0.00025989097775891423
384.0,2.9664462999789976e-05
416.0,-0.00037527637323364615
448.0,-0.0008984356536529958
480.0,-0.0006048416253179312
512.0,-0.00016704788140486926
576.0,-0.0007909013074822724
640.0,-0.00042164104524999857
704.0,-0.0004176009679213166
768.0,9.688697900855914e-05
832.0,0.00038262404268607497
896.0,0.0011497285449877381
960.0,-0.00034854322439059615
1024.0,-0.00040374830132350326
1152.0,-0.0007506944821216166
1280.0,-0.0005790055147372186
1408.0,-0.00027720138314180076
1536.0,0.0009211248252540827
1664.0,0.0005867496365681291
1792.0,-0.0006416141404770315
1920.0,-0.0002101952413795516
2048.0,0.00024747566203586757
2304.0,0.0005590743967331946
2560.0,0.0003052133251912892
2816.0,-0.0008072624914348125
3072.0,-0.0005111735081300139
3328.0,-0.00029768527019768953
3584.0,-2.6518115191720426e-05
3840.0,0.0006667626439593732
4096.0,-0.001278104493394494
4608.0,-0.00050062540685758
5120.0,-4.843757415073924e-05
5632.0,-0.00048467566375620663
6144.0,-0.00024052654043771327
6656.0,-0.0005655743880197406
7168.0,-5.655860877595842e-05
7680.0,0.0007035816670395434
8192.0,-0.00016968142881523818
end
