version,3.0
numOfCh,1
type,point
parent_name,714af_1dot0-1dot0
ch_type,1_1
kcount,1
numberNandB,1
brightnessNandB,1
carpet pos,0
pc,0
Time (ms),CH1 Auto-Correlation
1.0,0.031568583101034164
2.0,0.029321687296032906
3.0,0.027381090447306633
4.0,0.025677058845758438
5.0,0.024210788309574127
6.0,0.022922465577721596
7.0,0.02176273800432682
8.0,0.02073565125465393
9.0,0.019743140786886215
10.0,0.01886003464460373
11.0,0.017984364181756973
12.0,0.01718929409980774
13.0,0.016451813280582428
14.0,0.01582055166363716
15.0,0.015227477066218853
16.0,0.014700820669531822
18.0,0.013708868063986301
20.0,0.012836089357733727
22.0,0.012095480225980282
24.0,0.01138948556035757
26.0,0.010764704085886478
28.0,0.010373803786933422
30.0,0.009994765743613243
32.0,0.009636947885155678
36.0,0.009004288353025913
40.0,0.008238046430051327
44.0,0.007524196989834309
48.0,0.006721670273691416
52.0,0.006000167690217495
56.0,0.005481810308992863
60.0,0.005152041092514992
64.0,0.004605332855135202
72.0,0.0038886198308318853
80.0,0.003612132743000984
88.0,0.003240254009142518
96.0,0.0025623920373618603
104.0,0.002896582707762718
112.0,0.003291491651907563
120.0,0.002758003305643797
128.0,0.0025014448910951614
144.0,0.002049227012321353
160.0,0.0014448983129113913
176.0,0.0004491205036174506
192.0,-0.000359810859663412
208.0,-0.0007578693330287933
224.0,-0.0006814448279328644
240.0,-0.0006345681031234562
256.0,-0.0005718588945455849
288.0,-0.0006133269052952528
320.0,-3.1065177608979866e-05
352.0,0.0004807276709470898
384.0,0.00018007356266025454
416.0,0.00014307493984233588
448.0,7.625114812981337e-05
480.0,0.0006275879568420351
512.0,-0.000557212857529521
576.0,-0.000793988408986479
640.0,-0.0008911968907341361
704.0,0.000181237977812998
768.0,0.0010766832856461406
832.0,0.0007547932909801602
896.0,0.0007525555556640029
960.0,5.9869009419344366e-05
1024.0,0.001238676835782826
1152.0,-0.00011468738375697285
1280.0,-0.0012477422133088112
1408.0,-5.496991661857464e-07
1536.0,-0.0006979001918807626
1664.0,-0.0007758011925034225
1792.0,0.00020309379033278674
1920.0,-0.00045971127110533416
2048.0,-0.0006856028339825571
2304.0,-0.0005874116322956979
2560.0,0.0006916924030520022
2816.0,-0.0005199552397243679
3072.0,-0.0024097582791000605
3328.0,0.0008338129846379161
3584.0,-0.0008904680726118386
3840.0,-0.0011889851884916425
4096.0,-0.0013840652536600828
4608.0,0.0008562079165130854
5120.0,-0.0003235751937609166
5632.0,-0.000616785662714392
6144.0,0.0009390656487084925
6656.0,-2.112714582835906e-06
7168.0,-1.2561728908622172e-05
7680.0,0.0014516321243718266
8192.0,-0.000910058559384197
end
