version,3.0
numOfCh,1
type,point
parent_name,714af_1dot0-1dot0
ch_type,1_1
kcount,1
numberNandB,1
brightnessNandB,1
carpet pos,0
pc,0
Time (ms),CH1 Auto-Correlation
1.0,0.027435343712568283
2.0,0.025214187800884247
3.0,0.023311106488108635
4.0,0.02165166847407818
5.0,0.020268386229872704
6.0,0.01909853331744671
7.0,0.018079189583659172
8.0,0.017172889783978462
9.0,0.016400065273046494
10.0,0.015625862404704094
11.0,0.014964365400373936
12.0,0.014319231733679771
13.0,0.013755161315202713
14.0,0.013220788910984993
15.0,0.012709353119134903
16.0,0.012231512926518917
18.0,0.011406022123992443
20.0,0.010430899448692799
22.0,0.009644793346524239
24.0,0.009038382209837437
26.0,0.008456949144601822
28.0,0.007892029359936714
30.0,0.007291670888662338
32.0,0.006714653689414263
36.0,0.00589164812117815
40.0,0.0054581123404204845
44.0,0.004753726068884134
48.0,0.004350957926362753
52.0,0.004009137395769358
56.0,0.00362796476110816
60.0,0.0035009304992854595
64.0,0.0032781874760985374
72.0,0.0027962911408394575
80.0,0.002673243172466755
88.0,0.0028992630541324615
96.0,0.003109356854110956
104.0,0.0032995189540088177
112.0,0.00311323837377131
120.0,0.0025720875710248947
128.0,0.0017646030755713582
144.0,0.0013608986046165228
160.0,0.0019812847021967173
176.0,0.002715960843488574
192.0,0.0025326022878289223
208.0,0.002082185121253133
224.0,0.0012871840735897422
240.0,0.0007359340088441968
256.0,0.00040409585926681757
288.0,0.0002535470703151077
320.0,-0.0007171035977080464
352.0,-0.001624041935428977
384.0,-0.000665162515360862
416.0,-0.0013055283343419433
448.0,-0.0010084330569952726
480.0,-1.8063945390167646e-05
512.0,0.0005169812357053161
576.0,-0.0006115988362580538
640.0,-0.0003891113738063723
704.0,0.00021513561659958214
768.0,-8.59208739711903e-05
832.0,-0.0005867768777534366
896.0,0.00031947545357979834
960.0,0.0004037489416077733
1024.0,0.0008882816764526069
1152.0,0.0004313006647862494
1280.0,-0.0005141054280102253
1408.0,-0.0008564968011341989
1536.0,-0.0010532946325838566
1664.0,0.0006831905338913202
1792.0,0.0005503593129105866
1920.0,1.890841667773202e-05
2048.0,-0.0019613271579146385
2304.0,-0.0009137680754065514
2560.0,-0.00022358869318850338
2816.0,0.0004078856436535716
3072.0,0.0003590811393223703
3328.0,-0.00026137614622712135
3584.0,0.00017200701404362917
3840.0,0.0005556108662858605
4096.0,-0.000817092543002218
4608.0,-0.00038919757935218513
5120.0,0.0007276697433553636
5632.0,-0.001015637069940567
6144.0,0.0006170462584123015
6656.0,-0.00016974708705674857
7168.0,-0.0014480043901130557
7680.0,0.0008505499572493136
8192.0,-0.0007157247746363282
end
