version,3.0
numOfCh,1
type,point
parent_name,714af_1dot0-1dot0
ch_type,1_1
kcount,1
numberNandB,1
brightnessNandB,1
carpet pos,0
pc,0
Time (ms),CH1 Auto-Correlation
1.0,0.0376465879380703
2.0,0.034151896834373474
3.0,0.03138236701488495
4.0,0.02888764627277851
5.0,0.02755456604063511
6.0,0.025777611881494522
7.0,0.024036714807152748
8.0,0.02328222058713436
9.0,0.021649787202477455
10.0,0.020639384165406227
11.0,0.020080117508769035
12.0,0.019211959093809128
13.0,0.017959600314497948
14.0,0.016417883336544037
15.0,0.014761372469365597
16.0,0.014207771979272366
18.0,0.013368532992899418
20.0,0.012507478706538677
22.0,0.011660497635602951
24.0,0.010831029154360294
26.0,0.010018490254878998
28.0,0.009386654943227768
30.0,0.008950890973210335
32.0,0.008621413260698318
36.0,0.007976168766617775
40.0,0.007127187680453062
44.0,0.006906737573444843
48.0,0.006839371286332607
52.0,0.006635067984461784
56.0,0.006739996839314699
60.0,0.00697306590154767
64.0,0.007143223192542791
72.0,0.007199109066277742
80.0,0.006607518065720797
88.0,0.005508373025804758
96.0,0.004686281085014343
104.0,0.004228610545396805
112.0,0.0035581919364631176
120.0,0.003349563106894493
128.0,0.003465707181021571
144.0,0.0037673169281333685
160.0,0.0035837276373058558
176.0,0.00245959241874516
192.0,0.0022023520432412624
208.0,0.002202497562393546
224.0,0.0019411705434322357
240.0,0.002401562174782157
256.0,0.001946643809787929
288.0,0.0012598657049238682
320.0,0.00043634502799250185
352.0,-0.00019315072859171778
384.0,-0.0010944001842290163
416.0,-0.00103779137134552
448.0,-0.0019377648131921887
480.0,-0.003353781532496214
512.0,-0.003904485609382391
576.0,-0.002404582453891635
640.0,-0.0004244462470524013
704.0,-0.00030878966208547354
768.0,-0.0008764005615375936
832.0,0.0005714689032174647
896.0,0.0005110740894451737
960.0,0.0008574978564865887
1024.0,0.0006834591622464359
1152.0,0.00020876716007478535
1280.0,-3.189269409631379e-05
1408.0,-0.0003379838017281145
1536.0,-0.0003354334330651909
1664.0,0.00028035478317178786
1792.0,0.0012695824261754751
1920.0,0.00184266222640872
2048.0,0.0017805711831897497
2304.0,-0.00068978953640908
2560.0,-0.0005269245593808591
2816.0,0.0021617012098431587
3072.0,0.0007555882912129164
3328.0,-0.0005816586199216545
3584.0,0.0003252282622270286
3840.0,0.0003133931022603065
4096.0,-0.00013837309961672872
4608.0,-0.0004755623231176287
5120.0,-0.0010439000325277448
5632.0,0.0008912863559089601
6144.0,-0.0006946453941054642
6656.0,-0.001210459740832448
7168.0,-0.0007922532386146486
7680.0,0.0002697284216992557
8192.0,-0.0033503228332847357
end
