version,3.0
numOfCh,1
type,point
parent_name,714af_1dot0-1dot0
ch_type,1_1
kcount,1
numberNandB,1
brightnessNandB,1
carpet pos,0
pc,0
Time (ms),CH1 Auto-Correlation
1.0,0.029384538531303406
2.0,0.027150103822350502
3.0,0.025216948240995407
4.0,0.023490702733397484
5.0,0.021964916959404945
6.0,0.020633915439248085
7.0,0.01949715055525303
8.0,0.018502335995435715
9.0,0.017613446339964867
10.0,0.01677890680730343
11.0,0.016069501638412476
12.0,0.015426896512508392
13.0,0.014854050241410732
14.0,0.014312103390693665
15.0,0.013839410617947578
16.0,0.013363191857933998
18.0,0.012568795122206211
20.0,0.011896018870174885
22.0,0.011146907694637775
24.0,0.010481125675141811
26.0,0.009835036471486092
28.0,0.009259898215532303
30.0,0.008814074099063873
32.0,0.008367941714823246
36.0,0.0076905000023543835
40.0,0.007219997700303793
44.0,0.006753846537321806
48.0,0.006185363512486219
52.0,0.005746610928326845
56.0,0.005568057764321566
60.0,0.005394186358898878
64.0,0.005211668089032173
72.0,0.004917167127132416
80.0,0.004806414246559143
88.0,0.004732491448521614
96.0,0.004202425945550203
104.0,0.0032721490133553743
112.0,0.0028460936155170202
120.0,0.0027861029375344515
128.0,0.0030314128380268812
144.0,0.0027856784872710705
160.0,0.0019401432946324348
176.0,0.001370658865198493
192.0,0.0011631459929049015
208.0,0.001459924504160881
224.0,0.0014164028689265251
240.0,0.0018709509167820215
256.0,0.0018732320750132203
288.0,0.0004886427195742726
320.0,-0.000418539420934394
352.0,0.0011127254692837596
384.0,0.001119339489378035
416.0,0.0010344436159357429
448.0,0.0010532705346122384
480.0,0.0007790672825649381
512.0,0.002086515771225095
576.0,0.0013856501318514347
640.0,0.0006112715927883983
704.0,-0.0003541512705851346
768.0,0.0002668485976755619
832.0,-0.0007953711319714785
896.0,-0.0011612045345827937
960.0,-0.0011409022845327854
1024.0,-0.002287318930029869
1152.0,-0.0029686016496270895
1280.0,-0.0009889226639643312
1408.0,-0.000879425962921232
1536.0,-0.002428379375487566
1664.0,-0.00175703305285424
1792.0,-0.00024555809795856476
1920.0,0.0001547881547594443
2048.0,-0.0004964674008078873
2304.0,0.0014146477915346622
2560.0,0.001390264485962689
2816.0,0.001082679838873446
3072.0,9.625929669709876e-05
3328.0,-0.0006967325462028384
3584.0,-0.0012908546486869454
3840.0,-0.002258916385471821
4096.0,-0.00012703034735750407
4608.0,0.0008924356079660356
5120.0,0.0017548996256664395
5632.0,-0.0004029652336612344
6144.0,-0.0014287946978583932
6656.0,-0.0004037850594613701
7168.0,-0.0007835191208869219
7680.0,0.0004580879467539489
8192.0,-0.0007276562391780317
end
