version,3.0
numOfCh,1
type,point
parent_name,714af_1dot0-1dot0
ch_type,1_1
kcount,1
numberNandB,1
brightnessNandB,1
carpet pos,0
pc,0
Time (ms),CH1 Auto-Correlation
1.0,0.02617518976330757
2.0,0.023935437202453613
3.0,0.022124292328953743
4.0,0.020534202456474304
5.0,0.019124481827020645
6.0,0.017903974279761314
7.0,0.016883254051208496
8.0,0.015916476026177406
9.0,0.015026431530714035
10.0,0.014240394346415997
11.0,0.013531418517231941
12.0,0.01285720244050026
13.0,0.012226800434291363
14.0,0.011646516621112823
15.0,0.011227946728467941
16.0,0.010844255797564983
18.0,0.01012226939201355
20.0,0.00940848421305418
22.0,0.008735022507607937
24.0,0.008132019080221653
26.0,0.007535439450293779
28.0,0.007009676657617092
30.0,0.0064251660369336605
32.0,0.00588914705440402
36.0,0.005160128697752953
40.0,0.004217917565256357
44.0,0.0032038826029747725
48.0,0.002311951946467161
52.0,0.0017114101210609078
56.0,0.0013270123163238168
60.0,0.0008651792304590344
64.0,0.000493883213493973
72.0,-0.000363618484698236
80.0,-0.0008272931445389986
88.0,-0.0008676635334268212
96.0,-0.0009874715469777584
104.0,-0.0004790964594576508
112.0,0.0001797603617887944
120.0,0.000767657533288002
128.0,0.0005386582924984396
144.0,0.00046376531827263534
160.0,0.0005268977838568389
176.0,0.0007875288720242679
192.0,0.0011996388202533126
208.0,0.0008669649250805378
224.0,0.0011413341853767633
240.0,0.001724385772831738
256.0,0.0018145539797842503
288.0,0.0009083229815587401
320.0,6.416282121790573e-05
352.0,0.00016790789959486574
384.0,0.00037711518234573305
416.0,-0.00011883410479640588
448.0,0.0005706883384846151
480.0,0.0016479066107422113
512.0,0.0014764921506866813
576.0,0.0001878049224615097
640.0,0.0003747741866391152
704.0,0.0003769054601434618
768.0,0.0007425934309139848
832.0,0.00030757352942600846
896.0,-2.6754696591524407e-05
960.0,-0.0002064913569483906
1024.0,-0.0007895590970292687
1152.0,-9.62652702583e-05
1280.0,0.0004522347589954734
1408.0,-0.00019717168470378965
1536.0,9.111226972891018e-05
1664.0,-0.0002160608273698017
1792.0,-0.000492336752358824
1920.0,0.0003030046646017581
2048.0,0.000700319476891309
2304.0,-0.0006429305649362504
2560.0,-0.0010990733280777931
2816.0,-0.0008088779868558049
3072.0,-0.0008866341668181121
3328.0,0.00018072774400934577
3584.0,0.00012148836685810238
3840.0,-0.0002069560723612085
4096.0,9.485692135058343e-05
4608.0,-0.0005962395807728171
5120.0,0.00028525732341222465
5632.0,-0.00017420051153749228
6144.0,-0.0002721651108004153
6656.0,-0.00043255960918031633
7168.0,0.0009386264136992395
7680.0,0.0005268214154057205
8192.0,0.00043374934466555715
end
