version,3.0
numOfCh,1
type,point
parent_name,714af_1dot0-1dot0
ch_type,1_1
kcount,1
numberNandB,1
brightnessNandB,1
carpet pos,0
pc,0
Time (ms),CH1 Auto-Correlation
1.0,0.025533000007271767
2.0,0.02336747571825981
3.0,0.02152271568775177
4.0,0.01986696571111679
5.0,0.01849478669464588
6.0,0.01733415387570858
7.0,0.016301680356264114
8.0,0.01541178859770298
9.0,0.014569234102964401
10.0,0.013805357739329338
11.0,0.013174663297832012
12.0,0.012628579512238503
13.0,0.012238146737217903
14.0,0.011799055151641369
15.0,0.011330315843224525
16.0,0.01091426145285368
18.0,0.00999969057738781
20.0,0.009199383668601513
22.0,0.008462334983050823
24.0,0.007837748154997826
26.0,0.007279457990080118
28.0,0.006801076233386993
30.0,0.006346001289784908
32.0,0.005935744382441044
36.0,0.005176405888050795
40.0,0.00455307075753808
44.0,0.003915697801858187
48.0,0.0034609991125762463
52.0,0.0031730516348034143
56.0,0.0030595941934734583
60.0,0.0029508573934435844
64.0,0.0027540302835404873
72.0,0.0026913254987448454
80.0,0.002177656162530184
88.0,0.0015705922851338983
96.0,0.0012011610670015216
104.0,0.0003269751323387027
112.0,-6.860487337689847e-05
120.0,-0.0006889209034852684
128.0,-0.0006041460437700152
144.0,0.0002618622675072402
160.0,0.0002806318225339055
176.0,-0.00014929677126929164
192.0,0.00013712041254621
208.0,0.0009834141237661242
224.0,0.0007428530952893198
240.0,0.00031044241040945053
256.0,1.7208190911333077e-05
288.0,-0.00030497717671096325
320.0,-0.0007564864354208112
352.0,-0.000288449227809906
384.0,0.0003830563509836793
416.0,0.00020638132991734892
448.0,-0.0006064214976504445
480.0,-0.0011194811668246984
512.0,-0.0015129181556403637
576.0,-0.0006632933509536088
640.0,-0.0007444161456078291
704.0,0.0006942046456970274
768.0,0.0017029623268172145
832.0,0.00076916633406654
896.0,0.0007703686133027077
960.0,0.00024888679035939276
1024.0,5.0067475967807695e-05
1152.0,0.0006353942444548011
1280.0,-0.00015592398995067924
1408.0,-0.00016962831432465464
1536.0,0.0002962889848276973
1664.0,-0.0007694221567362547
1792.0,-0.0018636375898495317
1920.0,0.0015366282314062119
2048.0,0.0006404073792509735
2304.0,9.958910959539935e-05
2560.0,-0.0006436656694859266
2816.0,-0.0003049627412110567
3072.0,0.0002153867535525933
3328.0,0.00023839321511331946
3584.0,0.00016438587044831365
3840.0,-0.00075030408333987
4096.0,0.00026807497488334775
4608.0,0.0006863002199679613
5120.0,0.0003381051938049495
5632.0,0.0004080139915458858
6144.0,-0.00040471149259246886
6656.0,0.00019298348342999816
7168.0,-0.001292885048314929
7680.0,-0.00041812894050963223
8192.0,-0.0005104966112412512
end
