version,3.0
numOfCh,1
type,point
parent_name,714af_1dot0-1dot0
ch_type,1_1
kcount,1
numberNandB,1
brightnessNandB,1
carpet pos,0
pc,0
Time (ms),CH1 Auto-Correlation
1.0,0.027961554005742073
2.0,0.02580505982041359
3.0,0.02397015132009983
4.0,0.022304316982626915
5.0,0.020862257108092308
6.0,0.01969115249812603
7.0,0.01868826150894165
8.0,0.01776784658432007
9.0,0.016982948407530785
10.0,0.01625075191259384
11.0,0.015578658320009708
12.0,0.01499578170478344
13.0,0.014456360600888729
14.0,0.013944573700428009
15.0,0.013445808552205563
16.0,0.012868119403719902
18.0,0.011890026740729809
20.0,0.011052674613893032
22.0,0.010289773344993591
24.0,0.009650340303778648
26.0,0.0090593621134758
28.0,0.00846558902412653
30.0,0.007999228313565254
32.0,0.007581572979688644
36.0,0.006719178985804319
40.0,0.0058474126271903515
44.0,0.0053071193397045135
48.0,0.0049164979718625546
52.0,0.004377977456897497
56.0,0.003782588755711913
60.0,0.0034330966882407665
64.0,0.0030789277516305447
72.0,0.0023928603623062372
80.0,0.001692167716100812
88.0,0.001444207038730383
96.0,0.0012486912310123444
104.0,0.0008837914210744202
112.0,0.000572925724554807
120.0,0.0004593187477439642
128.0,0.0006982279592193663
144.0,-9.801889973459765e-06
160.0,-0.000851180637255311
176.0,-0.0006021785084158182
192.0,-0.00012354964565020055
208.0,-0.0007164907874539495
224.0,-0.0009292138856835663
240.0,-7.385462231468409e-05
256.0,0.0003539698664098978
288.0,7.146351708797738e-05
320.0,-0.00010301181464456022
352.0,-0.0005033850320614874
384.0,-0.00025169062428176403
416.0,-0.0007471967255696654
448.0,-0.0007833912968635559
480.0,-0.0007111477898433805
512.0,-0.000564718502573669
576.0,-0.0013012549607083201
640.0,0.0010656282538548112
704.0,0.0013519228668883443
768.0,0.0004298404383007437
832.0,0.000296339945634827
896.0,-0.0005895255017094314
960.0,-0.000775567430537194
1024.0,-0.0006258939974941313
1152.0,5.371306178858504e-05
1280.0,0.0014067244483157992
1408.0,2.0478903024923056e-05
1536.0,-0.0011374655878171325
1664.0,0.00044682365842163563
1792.0,0.0001506941916886717
1920.0,0.0002711671986617148
2048.0,-0.0007819102611392736
2304.0,-0.0004469604173209518
2560.0,0.00045682117342948914
2816.0,-0.0004031434655189514
3072.0,0.00022820415324531496
3328.0,-0.00035798625322058797
3584.0,-3.494123666314408e-05
3840.0,-0.0007416584412567317
4096.0,0.0006972734699957073
4608.0,6.584744369320106e-06
5120.0,-0.00015464240277651697
5632.0,-0.00046593911247327924
6144.0,-0.00044563497067429125
6656.0,2.712081914069131e-05
7168.0,4.7102726966841146e-05
7680.0,-9.973406122298911e-05
8192.0,0.00033693501609377563
end
