version,3.0
numOfCh,1
type,point
parent_name,714af_1dot0-1dot0
ch_type,1_1
kcount,1
numberNandB,1
brightnessNandB,1
carpet pos,0
pc,0
Time (ms),CH1 Auto-Correlation
1.0,0.02934032306075096
2.0,0.027158137410879135
3.0,0.025252213701605797
4.0,0.023553581908345222
5.0,0.02200169488787651
6.0,0.020671917125582695
7.0,0.019452117383480072
8.0,0.018375214189291
9.0,0.0173680130392313
10.0,0.01654726453125477
11.0,0.015818966552615166
12.0,0.015081887133419514
13.0,0.014451217837631702
14.0,0.013893518596887589
15.0,0.013379943557083607
16.0,0.012889793142676353
18.0,0.011957596987485886
20.0,0.011271791532635689
22.0,0.010623682290315628
24.0,0.01009420771151781
26.0,0.009616137482225895
28.0,0.009182951413094997
30.0,0.008768397383391857
32.0,0.00833118986338377
36.0,0.007568621542304754
40.0,0.006687885150313377
44.0,0.005882997531443834
48.0,0.005207742098718882
52.0,0.004643487744033337
56.0,0.004219628870487213
60.0,0.0038884798996150494
64.0,0.0037150534335523844
72.0,0.003671193029731512
80.0,0.003326316364109516
88.0,0.0026944854762405157
96.0,0.002180300187319517
104.0,0.0017124423757195473
112.0,0.0014602162409573793
120.0,0.0014169157948344946
128.0,0.0013630578760057688
144.0,0.0011075433576479554
160.0,0.001676035113632679
176.0,0.0019591290038079023
192.0,0.0023034773766994476
208.0,0.002248813398182392
224.0,0.0024604471400380135
240.0,0.0018316919449716806
256.0,0.001408843440003693
288.0,0.0004506282857619226
320.0,0.00040125471423380077
352.0,-0.0007895076414570212
384.0,-0.0007769902586005628
416.0,-0.00046556556480936706
448.0,-0.0006326696020551026
480.0,-0.0017547685420140624
512.0,-0.0012043180176988244
576.0,0.0008251628605648875
640.0,-0.00018156610894948244
704.0,-0.0019246508600190282
768.0,-0.00099134910851717
832.0,-0.0003785795415751636
896.0,-0.00019628170412033796
960.0,0.00024408735043834895
1024.0,0.00014983511937316507
1152.0,0.0003114754508715123
1280.0,-0.00043733202619478106
1408.0,0.0010007558157667518
1536.0,0.0014880771050229669
1664.0,0.0011317520402371883
1792.0,-0.0009127724333666265
1920.0,-0.0017431977903470397
2048.0,-0.0008587493794038892
2304.0,0.0003871425869874656
2560.0,-0.00013094765017740428
2816.0,0.00012111218529753387
3072.0,0.0015566679649055004
3328.0,-0.0008416726486757398
3584.0,-0.0006916569545865059
3840.0,0.001743675791658461
4096.0,0.0007817848236300051
4608.0,0.0004325306217651814
5120.0,-0.0003201555518899113
5632.0,-0.0002496004744898528
6144.0,0.0011996589601039886
6656.0,-0.0005817043711431324
7168.0,-0.001500699669122696
7680.0,0.001015321584418416
8192.0,-0.0008797447080723941
end
