version,3.0
numOfCh,1
type,point
parent_name,714af_1dot0-1dot0
ch_type,1_1
kcount,1
numberNandB,1
brightnessNandB,1
carpet pos,0
pc,0
Time (ms),CH1 Auto-Correlation
1.0,0.028801169246435165
2.0,0.026440534740686417
3.0,0.02428617887198925
4.0,0.022341039031744003
5.0,0.02060726098716259
6.0,0.018982909619808197
7.0,0.01759283058345318
8.0,0.0163127314299345
9.0,0.015176315791904926
10.0,0.014235387556254864
11.0,0.01350410096347332
12.0,0.012830750085413456
13.0,0.012228526175022125
14.0,0.011701157316565514
15.0,0.011163461022078991
16.0,0.010663251392543316
18.0,0.009787680581212044
20.0,0.009018718264997005
22.0,0.008287433534860611
24.0,0.007644347380846739
26.0,0.007028218824416399
28.0,0.006447764113545418
30.0,0.005913555156439543
32.0,0.005543509963899851
36.0,0.0047766282223165035
40.0,0.0042650578543543816
44.0,0.003910043276846409
48.0,0.00388360139913857
52.0,0.003976044710725546
56.0,0.003984834998846054
60.0,0.003593466244637966
64.0,0.003046482801437378
72.0,0.0024567788932472467
80.0,0.002029657829552889
88.0,0.0014749716501682997
96.0,0.000783534487709403
104.0,0.00104939891025424
112.0,0.0015088466461747885
120.0,0.0018176663434132934
128.0,0.0018731373129412532
144.0,0.0021842264104634523
160.0,0.0021745311096310616
176.0,0.0021843307185918093
192.0,0.0020638343412429094
208.0,0.0019453519489616156
224.0,0.002146743470802903
240.0,0.0019804327748715878
256.0,0.0014797461917623878
288.0,0.0019738832488656044
320.0,0.0019612556789070368
352.0,0.0013642744161188602
384.0,-2.805694930430036e-05
416.0,-5.949160367890727e-06
448.0,-0.0003276773786637932
480.0,-0.0008121165446937084
512.0,-0.0008644589106552303
576.0,-0.00016442875494249165
640.0,0.0011659651063382626
704.0,6.471652159234509e-05
768.0,-0.0007006922387517989
832.0,-0.0008190281223505735
896.0,-0.00022911471023689955
960.0,-0.00023709339438937604
1024.0,0.0001579900417709723
1152.0,-0.0013140683295205235
1280.0,-0.0016673286445438862
1408.0,-0.0008682363550178707
1536.0,-0.001536415540613234
1664.0,0.00014498741074930876
1792.0,-3.346399171277881e-05
1920.0,-3.349526377860457e-05
2048.0,0.0010001870105043054
2304.0,0.0008929411415010691
2560.0,0.0009536180295981467
2816.0,0.0013563637621700764
3072.0,0.0013328128261491656
3328.0,0.0003871068183798343
3584.0,-9.307098662247881e-05
3840.0,-0.0005772601580247283
4096.0,-0.0014483488630503416
4608.0,-0.00038499676156789064
5120.0,0.0004618332313839346
5632.0,0.0001680631103226915
6144.0,-0.0005174551042728126
6656.0,-0.0005641098832711577
7168.0,-0.0006535594584420323
7680.0,-0.00034114543814212084
8192.0,0.00024189504620153457
end
