version,3.0
numOfCh,1
type,point
parent_name,714af_1dot0-1dot0
ch_type,1_1
kcount,1
numberNandB,1
brightnessNandB,1
carpet pos,0
pc,0
Time (ms),CH1 Auto-Correlation
1.0,0.026674361899495125
2.0,0.024389706552028656
3.0,0.02250298298895359
4.0,0.020794957876205444
5.0,0.019356461241841316
6.0,0.018121857196092606
7.0,0.017132049426436424
8.0,0.01620284654200077
9.0,0.015405217185616493
10.0,0.01472276821732521
11.0,0.014093189500272274
12.0,0.013472484424710274
13.0,0.012974075973033905
14.0,0.012468632310628891
15.0,0.012079484760761261
16.0,0.011665518395602703
18.0,0.010763716883957386
20.0,0.009937060996890068
22.0,0.009321773424744606
24.0,0.008708575740456581
26.0,0.008153007365763187
28.0,0.007597693707793951
30.0,0.007038758601993322
32.0,0.00651580048725009
36.0,0.005779184866696596
40.0,0.00497939670458436
44.0,0.004143347032368183
48.0,0.003661554539576173
52.0,0.003438758198171854
56.0,0.003382825292646885
60.0,0.0034046070650219917
64.0,0.003479220438748598
72.0,0.0028188428841531277
80.0,0.00250654062256217
88.0,0.002289622789248824
96.0,0.0021046199835836887
104.0,0.001516261720098555
112.0,0.001237542019225657
120.0,0.0011636102572083473
128.0,0.0010315048275515437
144.0,0.0014003781834617257
160.0,0.0011829165741801262
176.0,0.0005481968400999904
192.0,0.000564539572224021
208.0,0.0005851388559676707
224.0,0.0008598190033808351
240.0,0.0003427616902627051
256.0,0.00019035889999940991
288.0,8.818752394290641e-05
320.0,-0.0005253330455161631
352.0,-0.0011243901681154966
384.0,-0.00016512154252268374
416.0,-0.0008687836234457791
448.0,-0.0007208057213574648
480.0,-0.0011633016401901841
512.0,-0.0006556716980412602
576.0,-0.002231424208730459
640.0,-0.0013883077772334218
704.0,-0.00016507194959558547
768.0,0.0009404675802215934
832.0,-8.56788974488154e-05
896.0,-0.0006403978914022446
960.0,-0.00037541298661381006
1024.0,0.0002509253681637347
1152.0,-6.5493545662320685e-06
1280.0,-0.0017593918601050973
1408.0,-0.0009135874570347369
1536.0,-0.0002684656355995685
1664.0,-0.0009080441668629646
1792.0,0.00020577936084009707
1920.0,0.0003124054055660963
2048.0,-0.00015802585403434932
2304.0,-0.00019719860574696213
2560.0,4.3844556785188615e-05
2816.0,-0.0007741936715319753
3072.0,-8.017558138817549e-05
3328.0,0.00103513163048774
3584.0,0.0004516285553108901
3840.0,-0.0001825008075684309
4096.0,-0.0001322094030911103
4608.0,-0.00027264206437394023
5120.0,4.344958142610267e-05
5632.0,0.0008321601781062782
6144.0,-0.0006903912289999425
6656.0,-0.00014529061445500702
7168.0,-0.00035400825436227024
7680.0,0.00038832082645967603
8192.0,-0.00043860203004442155
end
