version,3.0
numOfCh,1
type,point
parent_name,714af_1dot0-1dot0
ch_type,1_1
kcount,1
numberNandB,1
brightnessNandB,1
carpet pos,0
pc,0
Time (ms),CH1 Auto-Correlation
1.0,0.02704252302646637
2.0,0.024808892980217934
3.0,0.02297368273139
4.0,0.02135756053030491
5.0,0.01997918076813221
6.0,0.018750932067632675
7.0,0.017558269202709198
8.0,0.016454283148050308
9.0,0.015519975684583187
10.0,0.014706883579492569
11.0,0.01399433333426714
12.0,0.0132968220859766
13.0,0.01263477373868227
14.0,0.011990920640528202
15.0,0.011427128687500954
16.0,0.010906655341386795
18.0,0.009913740679621696
20.0,0.009141454473137856
22.0,0.008611070923507214
24.0,0.00815028790384531
26.0,0.007763597182929516
28.0,0.007342274766415358
30.0,0.006937882397323847
32.0,0.006547568365931511
36.0,0.005749243777245283
40.0,0.0051406496204435825
44.0,0.004531842190772295
48.0,0.0038596235681325197
52.0,0.0032334206625819206
56.0,0.002940818201750517
60.0,0.0026976929511874914
64.0,0.0026308265514671803
72.0,0.002120106713846326
80.0,0.0014400201616808772
88.0,0.00102886778768152
96.0,0.0007415834115818143
104.0,0.0008185408660210669
112.0,0.0010760269360616803
120.0,0.0005149776116013527
128.0,-0.0002631943498272449
144.0,-0.00020767352543771267
160.0,0.0005119649576954544
176.0,0.0010366064961999655
192.0,0.0005307951360009611
208.0,4.992887988919392e-05
224.0,-0.00015575694851577282
240.0,-0.00043562441715039313
256.0,-0.0005975133972242475
288.0,0.00018436243408359587
320.0,0.00013309522182680666
352.0,0.0015107323415577412
384.0,0.00014210911467671394
416.0,-0.0008372460142709315
448.0,-0.0008520105620846152
480.0,0.0002552892256062478
512.0,0.0004892857978120446
576.0,-0.00021863168512936682
640.0,3.4335884265601635e-05
704.0,0.000416057970141992
768.0,0.0011067907325923443
832.0,-6.37838602415286e-05
896.0,0.0007747673080302775
960.0,-0.0006646252586506307
1024.0,-0.0014177084667608142
1152.0,-0.0004040900676045567
1280.0,0.0003396411193534732
1408.0,-0.0010235811350867152
1536.0,-0.0007346547208726406
1664.0,-0.0013443836942315102
1792.0,9.307019354309887e-05
1920.0,-0.00027352781035006046
2048.0,8.153866474458482e-06
2304.0,-0.0002149757056031376
2560.0,0.0005454000784084201
2816.0,-0.0005261317710392177
3072.0,-0.0006282291142269969
3328.0,0.00010520000068936497
3584.0,-0.00018974399426952004
3840.0,1.5782334230607376e-05
4096.0,-0.0011143009178340435
4608.0,-0.0002631060197018087
5120.0,0.00024558758013881743
5632.0,0.00032196135725826025
6144.0,0.0008481709519401193
6656.0,0.00040623117820359766
7168.0,0.00012458983110263944
7680.0,0.0004774462431669235
8192.0,-0.0007027593092061579
end
