version,3.0
numOfCh,1
type,point
parent_name,714af_1dot0-1dot0
ch_type,1_1
kcount,1
numberNandB,1
brightnessNandB,1
carpet pos,0
pc,0
Time (ms),CH1 Auto-Correlation
1.0,0.028353309258818626
2.0,0.026179959997534752
3.0,0.024334179237484932
4.0,0.022789154201745987
5.0,0.02137523517012596
6.0,0.02015610784292221
7.0,0.019107796251773834
8.0,0.01818026416003704
9.0,0.01736866496503353
10.0,0.016596226021647453
11.0,0.015938958153128624
12.0,0.015315626747906208
13.0,0.014764968305826187
14.0,0.01421059388667345
15.0,0.01367705874145031
16.0,0.013131012208759785
18.0,0.012101900763809681
20.0,0.011186403222382069
22.0,0.010273909196257591
24.0,0.009423816576600075
26.0,0.008787194266915321
28.0,0.008299914188683033
30.0,0.007866074331104755
32.0,0.007506732828915119
36.0,0.0071093058213591576
40.0,0.006820996757596731
44.0,0.006440089549869299
48.0,0.00596099765971303
52.0,0.005481358617544174
56.0,0.005002452060580254
60.0,0.0045043183490633965
64.0,0.004133344162255526
72.0,0.003348573110997677
80.0,0.0030680245254188776
88.0,0.002725503407418728
96.0,0.0025377534329891205
104.0,0.0019400677410885692
112.0,0.0020898666698485613
120.0,0.00196574698202312
128.0,0.0020207692869007587
144.0,0.0009307425934821367
160.0,0.0012383511057123542
176.0,0.0018935055704787374
192.0,0.0012669251300394535
208.0,0.0009777386439964175
224.0,0.0013276604004204273
240.0,0.0005194375989958644
256.0,0.0005296163144521415
288.0,-0.0008344764355570078
320.0,-0.0013628152664750814
352.0,-0.0010069257114082575
384.0,-0.000336611206876114
416.0,0.0006573657738044858
448.0,0.0009632130386307836
480.0,0.0006394542288035154
512.0,0.0005514578660950065
576.0,0.00045459772809408605
640.0,-0.0002863530535250902
704.0,0.0005347369587980211
768.0,0.0007885406957939267
832.0,0.0020211171358823776
896.0,0.0018904177704825997
960.0,-0.0001682071597315371
1024.0,-0.0014581677969545126
1152.0,-0.0013715026434510946
1280.0,6.826361641287804e-05
1408.0,-0.0002509751939214766
1536.0,-0.00015130097744986415
1664.0,-0.0009897054405882955
1792.0,0.0005960148409940302
1920.0,-0.0016043796204030514
2048.0,-0.0011075218208134174
2304.0,0.00027996281278319657
2560.0,-0.0003033650864381343
2816.0,-0.000886458670720458
3072.0,-0.0003311680629849434
3328.0,-0.0011672010878100991
3584.0,-0.0016445282381027937
3840.0,-0.001917526707984507
4096.0,-0.0008525528246536851
4608.0,-0.0004878374747931957
5120.0,0.0005982163711450994
5632.0,0.0007888793479651213
6144.0,0.00045367860002443194
6656.0,0.0008365671965293586
7168.0,0.0003527899971231818
7680.0,0.000479990296298638
8192.0,-0.0005852514295838773
end
