version,3.0
numOfCh,1
type,point
parent_name,1000-cuts
ch_type,1_1
kcount,1
numberNandB,1
brightnessNandB,1
carpet pos,0
pc,0
Time (ms),CH1 Auto-Correlation
1.0,0.03129381686449051
2.0,0.02897297404706478
3.0,0.026864273473620415
4.0,0.02491581439971924
5.0,0.0231203343719244
6.0,0.021460620686411858
7.0,0.019953234121203423
8.0,0.018588904291391373
9.0,0.017344223335385323
10.0,0.016195891425013542
11.0,0.015162017196416855
12.0,0.014207454398274422
13.0,0.013313116505742073
14.0,0.01246024388819933
15.0,0.011598187498748302
16.0,0.010860671289265156
18.0,0.00964728556573391
20.0,0.008593100123107433
22.0,0.00762009434401989
24.0,0.0067795817740261555
26.0,0.006072840187698603
28.0,0.005486608948558569
30.0,0.005020294804126024
32.0,0.004588436335325241
36.0,0.003978072199970484
40.0,0.0030938582494854927
44.0,0.002139100106433034
48.0,0.0012828470207750797
52.0,0.0007488533738069236
56.0,0.00025083974469453096
60.0,3.305865902802907e-05
64.0,0.00028100208146497607
72.0,0.0008711311966180801
80.0,0.0009443610906600952
88.0,0.0010970078874379396
96.0,0.0009106098441407084
104.0,0.0013205966679379344
112.0,0.0011818655766546726
120.0,0.001180651132017374
128.0,0.0007617480005137622
144.0,-0.00030632910784333944
160.0,-0.001740510924719274
176.0,-0.0029907089192420244
192.0,-0.0020531180780380964
208.0,-0.001285527483560145
224.0,-0.0010249335318803787
240.0,0.0004326755879446864
256.0,-0.0002938592224381864
288.0,-0.000838897714857012
320.0,-1.956420783244539e-05
352.0,0.0010707755573093891
384.0,0.000976707087829709
416.0,0.0002862939436454326
448.0,0.0006294604390859604
480.0,0.00013529177522286773
512.0,0.0003791691269725561
576.0,-0.0005865409621037543
640.0,-0.0013229433679953218
704.0,-0.0006811982020735741
768.0,-0.00013035819574724883
832.0,0.000898511556442827
896.0,0.00011027495929738507
960.0,0.0002886100846808404
1024.0,-0.0003416228573769331
1152.0,-0.00027690251590684056
1280.0,-0.0005836641066707671
1408.0,-7.370727689703926e-05
1536.0,-5.3375493735075e-05
1664.0,-0.0006463754107244313
1792.0,-0.000603098887950182
1920.0,-0.00036897571408189833
2048.0,-0.000294778699753806
2304.0,-0.00012340399553067982
2560.0,0.0005496593075804412
2816.0,-0.0004374457348603755
3072.0,9.239196515409276e-05
3328.0,-0.0003782100393436849
3584.0,0.00026976485969498754
3840.0,3.473930701147765e-05
4096.0,-0.00010384560300735757
4608.0,-0.0005626057391054928
5120.0,-1.8117782019544393e-05
5632.0,0.0006998198223300278
6144.0,0.00010856264270842075
6656.0,0.0005501060513779521
7168.0,-9.700759983388707e-05
7680.0,-0.0006176740862429142
8192.0,-0.00027845994918607175
9216.0,-3.4684046113397926e-05
10240.0,-2.264573959109839e-05
11264.0,0.0004524818214122206
12288.0,-0.0003548950480762869
13312.0,0.00018541980534791946
14336.0,-0.0007087461999617517
end
