version,3.0
numOfCh,1
type,point
parent_name,1000-cuts
ch_type,1_1
kcount,1
numberNandB,1
brightnessNandB,1
carpet pos,0
pc,0
Time (ms),CH1 Auto-Correlation
1.0,0.054775793105363846
2.0,0.050523847341537476
3.0,0.04666626453399658
4.0,0.04300454631447792
5.0,0.03960351273417473
6.0,0.036523886024951935
7.0,0.033798638731241226
8.0,0.03127651661634445
9.0,0.02878488041460514
10.0,0.0265174750238657
11.0,0.024403434246778488
12.0,0.022417541593313217
13.0,0.020607592537999153
14.0,0.018982036039233208
15.0,0.017577433958649635
16.0,0.0161899346858263
18.0,0.014054736122488976
20.0,0.012203716672956944
22.0,0.010717875324189663
24.0,0.00933004915714264
26.0,0.008177824318408966
28.0,0.007146294694393873
30.0,0.006060532294213772
32.0,0.004848562180995941
36.0,0.002506523160263896
40.0,0.00028879957972094417
44.0,-0.0013887904351577163
48.0,-0.0026184425223618746
52.0,-0.0030790341552346945
56.0,-0.002600613981485367
60.0,-0.002063189400359988
64.0,-0.00193720159586519
72.0,-0.0018305815756320953
80.0,-0.0002497650566510856
88.0,0.0012722680112347007
96.0,0.001160642597824335
104.0,-0.00023541544214822352
112.0,-0.0010028522228822112
120.0,-0.0013161083916202188
128.0,-0.0020370124839246273
144.0,-0.0011673279805108905
160.0,-0.002070116577669978
176.0,-0.0013720860006287694
192.0,-0.001708251889795065
208.0,-0.00012435487587936223
224.0,0.001902312971651554
240.0,0.0032577968668192625
256.0,0.0019522994989529252
288.0,-4.956905104336329e-05
320.0,-0.002488153288140893
352.0,-0.0002645386557560414
384.0,0.002116544870659709
416.0,0.001340541522949934
448.0,0.0017035084310919046
480.0,0.0009219343774020672
512.0,-0.001412177225574851
576.0,0.00022554297174792737
640.0,-0.0003365473821759224
704.0,-0.00047740351874381304
768.0,0.0003474607365205884
832.0,0.0013924931408837438
896.0,0.0002847778960131109
960.0,-0.001806036802008748
1024.0,0.00013888493413105607
1152.0,-0.00182966364081949
1280.0,-0.0004635694494936615
1408.0,-0.0016358251450583339
1536.0,0.0009211018914356828
1664.0,-0.000599925871938467
1792.0,0.00021741367527283728
1920.0,0.0009541439940221608
2048.0,-0.000667525571770966
2304.0,-0.0004830966063309461
2560.0,6.976361328270286e-05
2816.0,-0.0012032074155285954
3072.0,-0.0007064362871460617
3328.0,0.00020610741921700537
3584.0,0.00040732466732151806
3840.0,-0.0006568758399225771
4096.0,-4.915977842756547e-05
4608.0,-7.367310172412544e-05
5120.0,0.0009335460490547121
5632.0,0.0009793882491067052
6144.0,5.745454836869612e-05
6656.0,-0.00016555616457480937
7168.0,-0.0005246049258857965
7680.0,6.820436101406813e-05
8192.0,-0.0005113824154250324
9216.0,-0.0004118760407436639
10240.0,-6.600294727832079e-05
11264.0,0.00038434506859630346
12288.0,-0.00016677635721862316
13312.0,0.0001416057930327952
14336.0,-9.526901703793555e-05
end
