version,3.0
numOfCh,1
type,point
parent_name,1000-cuts
ch_type,1_1
kcount,1
numberNandB,1
brightnessNandB,1
carpet pos,0
pc,0
Time (ms),CH1 Auto-Correlation
1.0,0.0624169260263443
2.0,0.057484474033117294
3.0,0.05294229835271835
4.0,0.048911720514297485
5.0,0.04515337198972702
6.0,0.04173850268125534
7.0,0.03858140856027603
8.0,0.03556153178215027
9.0,0.032799769192934036
10.0,0.030380621552467346
11.0,0.028068501502275467
12.0,0.02592284418642521
13.0,0.02384108118712902
14.0,0.021822834387421608
15.0,0.020146701484918594
16.0,0.018476946279406548
18.0,0.015510691329836845
20.0,0.012977932579815388
22.0,0.010988684371113777
24.0,0.009225892834365368
26.0,0.007788246497511864
28.0,0.006420532241463661
30.0,0.005095651838928461
32.0,0.0040176259353756905
36.0,0.002520934911444783
40.0,0.0015971717657521367
44.0,0.0014263419434428215
48.0,0.0017263229237869382
52.0,0.0016964295646175742
56.0,0.0010575843043625355
60.0,0.0005270765977911651
64.0,0.0002327514230273664
72.0,-4.325464760768227e-05
80.0,0.0001885780948214233
88.0,0.0002665058709681034
96.0,-0.00017374736489728093
104.0,-0.000464168464532122
112.0,-0.0003656396293081343
120.0,-0.0010955510661005974
128.0,-0.001229515066370368
144.0,-0.0009671087609604001
160.0,-0.00020317894814070314
176.0,-0.001985923619940877
192.0,-0.0035361810587346554
208.0,-0.001654540654271841
224.0,-0.0008317012689076364
240.0,-0.0012375282822176814
256.0,-0.0011666223872452974
288.0,-0.001029574079439044
320.0,-0.000690931046847254
352.0,-0.003918827511370182
384.0,0.0003768648311961442
416.0,-0.0005722069763578475
448.0,-0.002563481917604804
480.0,-0.0012654101010411978
512.0,-0.001980716362595558
576.0,-0.00033000350231304765
640.0,-0.00046869131620042026
704.0,-0.00016676727682352066
768.0,0.0012168876128271222
832.0,0.0018594561843201518
896.0,-0.001308145117945969
960.0,-0.0015392667846754193
1024.0,-0.002424452919512987
1152.0,-0.00014537938113790005
1280.0,-0.00010815630957949907
1408.0,0.0007032155408523977
1536.0,0.0015717740170657635
1664.0,-0.0009035981493070722
1792.0,-0.002012674231082201
1920.0,-0.0007765771588310599
2048.0,0.0026793121360242367
2304.0,-0.000374050548998639
2560.0,-0.000652167946100235
2816.0,0.002045257017016411
3072.0,-0.001319999573752284
3328.0,-0.0001691916404524818
3584.0,0.0005394991021603346
3840.0,-0.002064688131213188
4096.0,0.0005674374406225979
4608.0,-0.0008048742893151939
5120.0,0.00042147847125306726
5632.0,0.0005410011508502066
6144.0,-0.0007036458700895309
6656.0,0.0002674870193004608
7168.0,0.00014993338845670223
7680.0,0.00028387538623064756
8192.0,-0.000385105813620612
9216.0,-0.00011430956510594115
10240.0,-0.0005192112876102328
11264.0,7.758138963254169e-05
12288.0,-9.968653466785327e-05
13312.0,0.0008714979630894959
14336.0,-0.0007228859467431903
end
