version,3.0
numOfCh,1
type,point
parent_name,1000-cuts
ch_type,1_1
kcount,1
numberNandB,1
brightnessNandB,1
carpet pos,0
pc,0
Time (ms),CH1 Auto-Correlation
1.0,0.021877743303775787
2.0,0.020247552543878555
3.0,0.01876053772866726
4.0,0.017413627356290817
5.0,0.016137605533003807
6.0,0.014960159547626972
7.0,0.013811699114739895
8.0,0.012792757712304592
9.0,0.01182152796536684
10.0,0.010931789875030518
11.0,0.010172924026846886
12.0,0.009466671384871006
13.0,0.008810192346572876
14.0,0.00820668414235115
15.0,0.007632730063050985
16.0,0.0070991371758282185
18.0,0.006103849504143
20.0,0.005168409552425146
22.0,0.004353622440248728
24.0,0.003615982597693801
26.0,0.0029993345960974693
28.0,0.002500434871762991
30.0,0.0021116442512720823
32.0,0.0019086262909695506
36.0,0.0015542230103164911
40.0,0.0011395795736461878
44.0,0.0008554231026209891
48.0,0.0006841965368948877
52.0,0.00047481831279583275
56.0,0.00043084259959869087
60.0,0.00042475215741433203
64.0,0.00038337401929311454
72.0,-0.00025363737950101495
80.0,-0.0006465795449912548
88.0,-0.00027435945230536163
96.0,0.00027206059894524515
104.0,6.222906085895374e-05
112.0,-9.936790593201295e-05
120.0,-0.0002802520466502756
128.0,-0.0003218315541744232
144.0,1.616279041627422e-05
160.0,8.199520380003378e-05
176.0,-4.099730358575471e-05
192.0,9.529363887850195e-05
208.0,6.0760052292607725e-05
224.0,0.00035685155307874084
240.0,0.0005595057737082243
256.0,0.0005144622991792858
288.0,-0.00025904958602041006
320.0,-0.0010852946434170008
352.0,-0.0003352237108629197
384.0,0.0001454116136301309
416.0,0.0002743978111539036
448.0,0.0003016552946064621
480.0,-0.00021073917741887271
512.0,-0.0010606833966448903
576.0,0.0010185310384258628
640.0,8.18260305095464e-05
704.0,0.0005331729771569371
768.0,-0.0002197207068093121
832.0,-5.336535832611844e-05
896.0,-0.00023803397198207676
960.0,0.00035980023676529527
1024.0,4.600001557264477e-05
1152.0,-0.0007289649802260101
1280.0,0.00031789898639544845
1408.0,-0.0002724537916947156
1536.0,-9.269917063647881e-05
1664.0,-0.00011540448758751154
1792.0,-0.000843081041239202
1920.0,7.728983473498374e-05
2048.0,0.00026535947108641267
2304.0,3.62251048500184e-05
2560.0,0.00011599533900152892
2816.0,-0.00011615549010457471
3072.0,-0.00013218574167694896
3328.0,-0.000159817049279809
3584.0,0.00012869914644397795
3840.0,-1.7669301087153144e-05
4096.0,-0.00018473235832061619
4608.0,0.0004860247136093676
5120.0,0.00018772718613035977
5632.0,-0.0001744189503369853
6144.0,0.00010504028614377603
6656.0,-0.0001410579279763624
7168.0,-0.00012138705642428249
7680.0,-0.000394205329939723
8192.0,2.7771002351073548e-05
9216.0,8.785467070993036e-05
10240.0,6.293221304076724e-06
11264.0,-0.00016413741104770452
12288.0,-0.00034153094748035073
13312.0,2.267492891405709e-05
14336.0,-1.99366950255353e-05
end
