version,3.0
numOfCh,1
type,point
parent_name,1000-cuts
ch_type,1_1
kcount,1
numberNandB,1
brightnessNandB,1
carpet pos,0
pc,0
Time (ms),CH1 Auto-Correlation
1.0,0.0351315513253212
2.0,0.03268679231405258
3.0,0.03045976534485817
4.0,0.028421008959412575
5.0,0.026470735669136047
6.0,0.02462589368224144
7.0,0.022871194407343864
8.0,0.02123287133872509
9.0,0.01966915652155876
10.0,0.018230929970741272
11.0,0.01687084510922432
12.0,0.015600639395415783
13.0,0.01433484349399805
14.0,0.013228901661932468
15.0,0.01221582293510437
16.0,0.01134506892412901
18.0,0.009736592881381512
20.0,0.008417007513344288
22.0,0.00716632604598999
24.0,0.006156461779028177
26.0,0.005220905411988497
28.0,0.004215310327708721
30.0,0.003204863518476486
32.0,0.002391387242823839
36.0,0.0012499974109232426
40.0,0.0004198222595732659
44.0,-6.883677269797772e-05
48.0,-0.00045277507160790265
52.0,-0.000768928206525743
56.0,-0.0010892070131376386
60.0,-0.0014109965413808823
64.0,-0.001663452130742371
72.0,-0.0015410776250064373
80.0,-0.0015744453994557261
88.0,-0.0011537763057276607
96.0,-0.0003412879887036979
104.0,0.00012989276729058474
112.0,0.00011463325063232332
120.0,8.850069207255729e-06
128.0,-8.041712862905115e-05
144.0,0.0005116680404171348
160.0,0.001805162406526506
176.0,0.001634448068216443
192.0,0.0018945137271657586
208.0,0.003048212733119726
224.0,0.0018982874462381005
240.0,0.000342187617206946
256.0,-0.0003720716340467334
288.0,-0.00017403619131073356
320.0,0.0006260404479689896
352.0,-0.000778568908572197
384.0,0.0013491854770109057
416.0,5.741056156693958e-05
448.0,-0.0004930600407533348
480.0,2.1460216885316186e-05
512.0,-0.0002581932640168816
576.0,0.0005398453795351088
640.0,8.28702250146307e-05
704.0,0.0008588616037741303
768.0,-4.970508598489687e-06
832.0,0.00022220864775590599
896.0,0.0016235281946137547
960.0,-0.001236398471519351
1024.0,-0.001755756908096373
1152.0,9.328601299785078e-05
1280.0,7.907760300440714e-05
1408.0,-7.98008477431722e-05
1536.0,-0.0003991736739408225
1664.0,-0.000758608162868768
1792.0,-0.0007132548489607871
1920.0,-0.0007645821897312999
2048.0,-0.0008705041254870594
2304.0,-0.00042273415601812303
2560.0,-0.0002932966162916273
2816.0,-0.00112876296043396
3072.0,6.779724935768172e-05
3328.0,0.00015715259360149503
3584.0,-6.784711149521172e-05
3840.0,0.0005507442401722074
4096.0,0.0005371145089156926
4608.0,0.0003954100247938186
5120.0,0.00031846616184338927
5632.0,0.0006332481862045825
6144.0,-0.0005464580608531833
6656.0,-0.001191370072774589
7168.0,-0.00048589330981485546
7680.0,0.0003007363702636212
8192.0,3.734380129571946e-07
9216.0,0.00035252078669145703
10240.0,-9.690439765108749e-05
11264.0,-0.0002338463527848944
12288.0,-0.0001378489687340334
13312.0,6.0056343500036746e-05
14336.0,9.535499702906236e-05
end
