version,3.0
numOfCh,1
type,point
parent_name,1000-cuts
ch_type,1_1
kcount,1
numberNandB,1
brightnessNandB,1
carpet pos,0
pc,0
Time (ms),CH1 Auto-Correlation
1.0,0.02752242423593998
2.0,0.025249313563108444
3.0,0.023166758939623833
4.0,0.021321289241313934
5.0,0.01959608495235443
6.0,0.01802954263985157
7.0,0.01657160371541977
8.0,0.01527741551399231
9.0,0.01402290165424347
10.0,0.012860959395766258
11.0,0.011790539138019085
12.0,0.01085964310914278
13.0,0.009971666149795055
14.0,0.009141795337200165
15.0,0.008365290239453316
16.0,0.0077132112346589565
18.0,0.006599737796932459
20.0,0.005729423835873604
22.0,0.0049241697415709496
24.0,0.004183707758784294
26.0,0.0034784171730279922
28.0,0.0029518355149775743
30.0,0.002470094710588455
32.0,0.002020816318690777
36.0,0.0010284060845151544
40.0,0.0005786313558928668
44.0,0.0005542939179576933
48.0,0.0007800818420946598
52.0,0.0009336881921626627
56.0,0.0009739564266055822
60.0,0.0009931796230375767
64.0,0.0008731624693609774
72.0,0.00011550040653673932
80.0,-0.00044481619261205196
88.0,-0.0005460050888359547
96.0,-0.00033670853008516133
104.0,9.487504939897917e-06
112.0,0.0004592626355588436
120.0,0.0003842218720819801
128.0,0.0002497081004548818
144.0,-0.0003266198327764869
160.0,-5.460450847749598e-05
176.0,0.00038292186218313873
192.0,0.0005674532148987055
208.0,-0.00048817714559845626
224.0,-0.0010799599112942815
240.0,-0.00039900504634715617
256.0,7.8528122685384e-05
288.0,-0.00017256202409043908
320.0,-0.00011428966536186635
352.0,-9.235511970473453e-05
384.0,-0.0008940636180341244
416.0,-0.0016405537026003003
448.0,-0.0011977944523096085
480.0,2.8433422016860277e-07
512.0,0.00018620776245370507
576.0,-6.514501728815958e-05
640.0,-0.00015281219384633005
704.0,-0.0008506829617545009
768.0,-0.001145856687799096
832.0,-0.0007551800808869302
896.0,-0.000502385082654655
960.0,-0.00010981257219100371
1024.0,0.00028269612812437117
1152.0,0.00010084107634611428
1280.0,0.0006130249239504337
1408.0,0.0006014896207489073
1536.0,-0.00027580573805607855
1664.0,-0.00044478269410319626
1792.0,-0.00040489021921530366
1920.0,-0.0001278215495403856
2048.0,-0.0002484523574821651
2304.0,-0.00016430237155873328
2560.0,4.498987254919484e-05
2816.0,-6.969516107346863e-05
3072.0,8.815414912533015e-05
3328.0,0.00017282726184930652
3584.0,-0.00019907667592633516
3840.0,0.0006559647736139596
4096.0,-0.0006080183084122837
4608.0,2.8322192520136014e-06
5120.0,-6.30366921541281e-05
5632.0,-0.0002683797792997211
6144.0,0.0004855699371546507
6656.0,0.00011090101179433987
7168.0,0.00021557380387093872
7680.0,-0.000224991119466722
8192.0,-0.00012316982611082494
9216.0,-4.1988107113866135e-05
10240.0,0.00018616671150084585
11264.0,-6.960247264942154e-05
12288.0,-3.524689236655831e-05
13312.0,6.239299545995891e-05
14336.0,-8.498745592078194e-05
end
