version,3.0
numOfCh,1
type,point
parent_name,1000-cuts
ch_type,1_1
kcount,1
numberNandB,1
brightnessNandB,1
carpet pos,0
pc,0
Time (ms),CH1 Auto-Correlation
1.0,0.018604176118969917
2.0,0.01723095029592514
3.0,0.01597716473042965
4.0,0.014784278348088264
5.0,0.013709313236176968
6.0,0.01273565273731947
7.0,0.011832098476588726
8.0,0.010989394970238209
9.0,0.010207020677626133
10.0,0.009512202814221382
11.0,0.008892107754945755
12.0,0.008316798135638237
13.0,0.007794230245053768
14.0,0.0073057739064097404
15.0,0.0068682036362588406
16.0,0.006476705428212881
18.0,0.005812973249703646
20.0,0.005221002735197544
22.0,0.0046390146017074585
24.0,0.004106488078832626
26.0,0.0036263661459088326
28.0,0.003206302411854267
30.0,0.002839842112734914
32.0,0.0025207039434462786
36.0,0.0019099399214610457
40.0,0.0014425211120396852
44.0,0.001077046850696206
48.0,0.0008760426426306367
52.0,0.0006415541865862906
56.0,0.0001908300182549283
60.0,-0.00023397256154567003
64.0,-0.00042502788710407913
72.0,-0.0002522335562389344
80.0,-0.00022483273642137647
88.0,-0.00012297382636461407
96.0,0.00012662480003200471
104.0,9.030425280798227e-05
112.0,0.0002845365961547941
120.0,0.0004830490506719798
128.0,0.0005251031834632158
144.0,0.0004322291642893106
160.0,0.00017885856505017728
176.0,7.345929043367505e-05
192.0,8.106371751637198e-07
208.0,-0.0004398240416776389
224.0,4.68473372166045e-05
240.0,0.00047387435915879905
256.0,0.0002050047041848302
288.0,0.00018406739400234073
320.0,0.00039239480975084007
352.0,-0.00021216813183855265
384.0,6.987039523664862e-05
416.0,-5.853518086951226e-05
448.0,-0.0002796496555674821
480.0,-0.000267985335085541
512.0,-0.0005390417063608766
576.0,-0.0004037599137518555
640.0,-0.0002755608584266156
704.0,-9.340235556010157e-05
768.0,-5.954750668024644e-05
832.0,-0.000677764299325645
896.0,4.6899356675567105e-05
960.0,8.807595440885052e-05
1024.0,-0.0003493483236525208
1152.0,-0.0003688209690153599
1280.0,-0.00029221511795185506
1408.0,-0.0003853351518046111
1536.0,-0.00034129328560084105
1664.0,-2.739322189881932e-05
1792.0,-9.229448187397793e-05
1920.0,-9.696053166408092e-05
2048.0,0.00041681042057462037
2304.0,-9.113789565162733e-05
2560.0,0.00024867430329322815
2816.0,-0.0002358097699470818
3072.0,0.00017643024330027401
3328.0,-2.6937606889987364e-05
3584.0,0.00021827168529853225
3840.0,0.00045316017349250615
4096.0,0.00016096739273052663
4608.0,-0.00032095066853798926
5120.0,-0.00010205078433500603
5632.0,-1.1893656846950762e-05
6144.0,-0.00022458742023445666
6656.0,0.0005693404818885028
7168.0,-4.180629548500292e-05
7680.0,-0.00027040179702453315
8192.0,-3.27300549542997e-05
9216.0,7.335562258958817e-05
10240.0,0.00019595737103372812
11264.0,-0.00017364780069328845
12288.0,-0.00020188566122669727
13312.0,0.0003822233120445162
14336.0,-0.00030281845829449594
end
