version,3.0
numOfCh,1
type,point
parent_name,1000-cuts
ch_type,1_1
kcount,1
numberNandB,1
brightnessNandB,1
carpet pos,0
pc,0
Time (ms),CH1 Auto-Correlation
1.0,0.031108560040593147
2.0,0.02883732318878174
3.0,0.02671762928366661
4.0,0.024795327335596085
5.0,0.023024486377835274
6.0,0.021393682807683945
7.0,0.019894815981388092
8.0,0.018483934924006462
9.0,0.01723387837409973
10.0,0.016080442816019058
11.0,0.01494816318154335
12.0,0.01390620693564415
13.0,0.012948128394782543
14.0,0.01200911495834589
15.0,0.01108119823038578
16.0,0.010202772915363312
18.0,0.008709673769772053
20.0,0.007364741992205381
22.0,0.0062178256921470165
24.0,0.00520012341439724
26.0,0.004351317882537842
28.0,0.0035548056475818157
30.0,0.002968171378597617
32.0,0.002515065250918269
36.0,0.001399679807946086
40.0,0.00046911195386201143
44.0,-0.0002844714908860624
48.0,-0.000753292755689472
52.0,-0.0012265711557120085
56.0,-0.001586034195497632
60.0,-0.0014969110488891602
64.0,-0.0015502293827012181
72.0,-0.002296390477567911
80.0,-0.0022051972337067127
88.0,-0.001709100091829896
96.0,-0.0011182136368006468
104.0,0.0002584870089776814
112.0,0.0010848172241821885
120.0,0.0007963002426549792
128.0,0.0004846896918024868
144.0,9.827683970797807e-05
160.0,1.2966801477887202e-05
176.0,-0.0005306850071065128
192.0,-0.00030680838972330093
208.0,-0.0005053138011135161
224.0,-0.0005251227994449437
240.0,0.0008224075427278876
256.0,0.0010301811853423715
288.0,5.763126682722941e-05
320.0,-0.000569897354580462
352.0,-0.0017396508483216166
384.0,-0.0013125994009897113
416.0,0.000934224110096693
448.0,0.0011695962166413665
480.0,0.00015717869973741472
512.0,-0.00013466992822941393
576.0,0.001277052448131144
640.0,0.00010794318950502202
704.0,0.00066265685018152
768.0,0.0006730439490638673
832.0,-0.0009657932096160948
896.0,-0.00045277737081050873
960.0,-0.00031775468960404396
1024.0,0.0008281714399345219
1152.0,-0.0006374337244778872
1280.0,0.0007805892382748425
1408.0,0.00026082771364599466
1536.0,-0.00043732053018175066
1664.0,0.0011226636124774814
1792.0,0.0002733478613663465
1920.0,-4.3876418203581125e-05
2048.0,-8.563654409954324e-05
2304.0,0.00025497781462036073
2560.0,-1.9547271222108975e-05
2816.0,6.294903869275004e-05
3072.0,-0.0002230115351267159
3328.0,0.0007433344144374132
3584.0,-0.0007124266121536493
3840.0,-0.0002607014903333038
4096.0,-5.238134690443985e-05
4608.0,-0.00014576560351997614
5120.0,-0.0005283065838739276
5632.0,0.00014936122170183808
6144.0,-3.153643774567172e-05
6656.0,-0.0003336163063067943
7168.0,5.7309316616738215e-05
7680.0,0.0002954636584036052
8192.0,-0.00010096721234731376
9216.0,0.0004360646125860512
10240.0,9.092351683648303e-05
11264.0,0.00022320955758914351
12288.0,-0.0002060839906334877
13312.0,-0.0008874539635144174
14336.0,-0.0011209649965167046
end
