version,3.0
numOfCh,1
type,point
parent_name,1000-cuts
ch_type,1_1
kcount,1
numberNandB,1
brightnessNandB,1
carpet pos,0
pc,0
Time (ms),CH1 Auto-Correlation
1.0,0.06680390238761902
2.0,0.06180860474705696
3.0,0.05713338404893875
4.0,0.05285010114312172
5.0,0.04885989800095558
6.0,0.045142918825149536
7.0,0.04160073399543762
8.0,0.03831898793578148
9.0,0.03525664284825325
10.0,0.03239068388938904
11.0,0.029834773391485214
12.0,0.02739238180220127
13.0,0.025015613064169884
14.0,0.0228183064609766
15.0,0.020755082368850708
16.0,0.018911052495241165
18.0,0.015530758537352085
20.0,0.012782234698534012
22.0,0.010459269396960735
24.0,0.0086081363260746
26.0,0.006894342601299286
28.0,0.005652214866131544
30.0,0.004379779100418091
32.0,0.0035214941017329693
36.0,0.0029737416189163923
40.0,0.0024571027606725693
44.0,0.0020574077498167753
48.0,0.0017302959458902478
52.0,0.0011312441201880574
56.0,0.00034114925074391067
60.0,-0.0001187011439469643
64.0,0.00030050677014514804
72.0,0.0009282234241254628
80.0,0.0016239015385508537
88.0,0.0017958260141313076
96.0,0.0006525864009745419
104.0,-0.0004162448749411851
112.0,0.0001465948298573494
120.0,0.0006271033198572695
128.0,0.0011051241308450699
144.0,0.0011101117124781013
160.0,-7.175093196565285e-05
176.0,-0.002471851883456111
192.0,-0.0035589421167969704
208.0,-0.0047021531499922276
224.0,-0.0041904328390955925
240.0,-0.002336413599550724
256.0,-0.0007230472983792424
288.0,0.0004143227997701615
320.0,0.0009179592016153038
352.0,2.60704655374866e-06
384.0,0.00038237313856370747
416.0,-0.0010874895378947258
448.0,-0.0011817108606919646
480.0,-0.0008167434716597199
512.0,-0.003019651398062706
576.0,-0.0013178166700527072
640.0,-0.000929220812395215
704.0,0.0009837029501795769
768.0,-0.00016782163584139198
832.0,0.000881821324583143
896.0,-3.823113729595207e-06
960.0,0.0016178387450054288
1024.0,0.0017291164258494973
1152.0,0.000990330008789897
1280.0,0.0010564547264948487
1408.0,0.0006639664643444121
1536.0,-0.00040601054206490517
1664.0,-0.00031524061341769993
1792.0,-0.0005596811533905566
1920.0,-0.000261884240899235
2048.0,-0.0001314322289545089
2304.0,0.0007568949367851019
2560.0,-0.0010108365677297115
2816.0,-0.00029153592186048627
3072.0,-3.251903137879708e-07
3328.0,0.0002925097069237381
3584.0,-0.000886318797711283
3840.0,0.000297721941024065
4096.0,-0.0004016495367977768
4608.0,0.0003707480209413916
5120.0,0.0002448159211780876
5632.0,0.0013478873297572136
6144.0,-0.00046625841059722006
6656.0,0.00028667805599980056
7168.0,-0.0011326910462230444
7680.0,0.00044466141844168305
8192.0,-0.0012403297005221248
9216.0,-0.00043440161971375346
10240.0,9.928048530127853e-05
11264.0,0.00010974321776302531
12288.0,-0.0005319392075762153
13312.0,-0.0009657245827838778
14336.0,-0.0014034145278856158
end
