version,3.0
numOfCh,1
type,point
parent_name,1000-cuts
ch_type,1_1
kcount,1
numberNandB,1
brightnessNandB,1
carpet pos,0
pc,0
Time (ms),CH1 Auto-Correlation
1.0,0.025745242834091187
2.0,0.023699620738625526
3.0,0.021795688197016716
4.0,0.019973497837781906
5.0,0.01834958791732788
6.0,0.016810007393360138
7.0,0.015464751049876213
8.0,0.014228344894945621
9.0,0.013051758520305157
10.0,0.011953063309192657
11.0,0.010979412123560905
12.0,0.010105076245963573
13.0,0.009282597340643406
14.0,0.008508491329848766
15.0,0.007871656678617
16.0,0.007241394370794296
18.0,0.0062311491928994656
20.0,0.005463088396936655
22.0,0.00477502541616559
24.0,0.00417132955044508
26.0,0.0035846775863319635
28.0,0.003153659636154771
30.0,0.0027415973600000143
32.0,0.00233539380133152
36.0,0.0016774844843894243
40.0,0.0012685901019722223
44.0,0.0007890919805504382
48.0,0.0003665324184112251
52.0,0.00017189506615977734
56.0,0.00034989393316209316
60.0,0.0004205108853057027
64.0,0.0003718565567396581
72.0,0.00037592864828184247
80.0,0.0006819940754212439
88.0,0.0010964659741148353
96.0,0.0007460625492967665
104.0,4.55141780548729e-05
112.0,-0.000707446422893554
120.0,-0.0008238193113356829
128.0,-0.0007848924724385142
144.0,-0.0006452013039961457
160.0,-0.0005402975948527455
176.0,-0.0003853352682199329
192.0,-0.0005925273871980608
208.0,-5.7266759540652856e-05
224.0,6.239691720111296e-05
240.0,-0.00040001486195251346
256.0,-7.389859820250422e-05
288.0,-0.00032570710754953325
320.0,-0.001019177376292646
352.0,0.0007747029885649681
384.0,0.0007005085935816169
416.0,0.00013801130990032107
448.0,-0.00016456325829494745
480.0,-0.0008443350670859218
512.0,-0.00020399739150889218
576.0,0.000377747172024101
640.0,0.0004085577093064785
704.0,-0.0007661092095077038
768.0,-0.00029291550163179636
832.0,-0.00042476088856346905
896.0,0.00019198631343897432
960.0,-0.0005636067362502217
1024.0,-0.0003960462345276028
1152.0,-7.567357533844188e-05
1280.0,-0.00019883623463101685
1408.0,0.0006568783428519964
1536.0,-0.00027606709045358
1664.0,0.0005192442913539708
1792.0,0.0003380284470040351
1920.0,0.00016798905562609434
2048.0,-0.0001928232959471643
2304.0,-0.0005185946938581765
2560.0,-0.00014768587425351143
2816.0,-0.0004533295868895948
3072.0,3.584170917747542e-05
3328.0,9.584741928847507e-05
3584.0,0.00031870321254245937
3840.0,0.0002555945247877389
4096.0,-0.00023089488968253136
4608.0,0.0001690827339189127
5120.0,0.00022118899505585432
5632.0,0.00010503613884793594
6144.0,-9.809424227569252e-05
6656.0,8.17708860267885e-05
7168.0,-0.00010947838745778427
7680.0,-0.00010994344484061003
8192.0,-9.233944729203358e-05
9216.0,-2.8344251404632814e-05
10240.0,0.00014925912546459585
11264.0,-3.379560075700283e-05
12288.0,-0.0003941386239603162
13312.0,-0.00039611279498785734
14336.0,-0.00015471907681785524
end
