version,3.0
numOfCh,1
type,point
parent_name,1000-cuts
ch_type,1_1
kcount,1
numberNandB,1
brightnessNandB,1
carpet pos,0
pc,0
Time (ms),CH1 Auto-Correlation
1.0,0.028320863842964172
2.0,0.02588646300137043
3.0,0.023634789511561394
4.0,0.021532591432332993
5.0,0.019501755014061928
6.0,0.017669666558504105
7.0,0.016063690185546875
8.0,0.014592017978429794
9.0,0.013284705579280853
10.0,0.01209204364567995
11.0,0.011032369919121265
12.0,0.010080818086862564
13.0,0.00920602772384882
14.0,0.008347753435373306
15.0,0.007570379879325628
16.0,0.0068291425704956055
18.0,0.005548361223191023
20.0,0.0044972943142056465
22.0,0.0036749637220054865
24.0,0.002937701530754566
26.0,0.002477120840921998
28.0,0.0020579274278134108
30.0,0.0017547168536111712
32.0,0.001435882761143148
36.0,0.0010207585291936994
40.0,0.0009749321034178138
44.0,0.0008370564901269972
48.0,0.0005951916100457311
52.0,0.00036946561885997653
56.0,0.00017087451124098152
60.0,-0.0002951965725515038
64.0,-0.0003740677493624389
72.0,-0.0005877593066543341
80.0,-0.00041561678517609835
88.0,-0.00019401244935579598
96.0,0.00023666741617489606
104.0,0.0003015059919562191
112.0,0.0006444443133659661
120.0,0.000269352865871042
128.0,0.00018747574358712882
144.0,-5.398823486757465e-05
160.0,-0.0006524014752358198
176.0,-0.0009560647304169834
192.0,-0.000648128567263484
208.0,-0.0008253935957327485
224.0,-0.0009520152234472334
240.0,-0.0011085158912464976
256.0,-0.0012331728357821703
288.0,-0.0007293627131730318
320.0,-0.0003086192300543189
352.0,-0.00018511376401875168
384.0,-0.00019788480130955577
416.0,-0.0008941735723055899
448.0,-9.156305168289691e-06
480.0,0.000507265969645232
512.0,-0.00011699487367877737
576.0,0.0010073872981593013
640.0,0.0007533174357376993
704.0,1.0837704394361936e-05
768.0,5.111729115014896e-05
832.0,-0.0009313658811151981
896.0,-0.0006853388040326536
960.0,6.041004598955624e-05
1024.0,9.002187289297581e-05
1152.0,-9.782088454812765e-05
1280.0,-0.00011657551658572629
1408.0,-0.0006646758411079645
1536.0,0.0007022127974778414
1664.0,0.00033681042259559035
1792.0,-0.0005032793851569295
1920.0,-0.0005702583584934473
2048.0,-9.282262180931866e-05
2304.0,1.3312680493982043e-05
2560.0,3.592023631426855e-06
2816.0,0.00015556086145807058
3072.0,0.00028366889455355704
3328.0,0.000344264495652169
3584.0,-0.00011115257075289264
3840.0,8.160046127159148e-05
4096.0,-0.0005751387216150761
4608.0,0.0002993327798321843
5120.0,4.619816900230944e-05
5632.0,-0.00021967969951219857
6144.0,0.00020946231961715966
6656.0,-0.00018264149548485875
7168.0,-0.00022444507339969277
7680.0,0.00028310020570643246
8192.0,0.00025797649868763983
9216.0,0.00012721511302515864
10240.0,-0.0005318011972121894
11264.0,2.6945348508888856e-05
12288.0,0.00013112157466821373
13312.0,-0.0003095279971603304
14336.0,0.00018236874893773347
end
