version,3.0
numOfCh,1
type,point
parent_name,1000-cuts
ch_type,1_1
kcount,1
numberNandB,1
brightnessNandB,1
carpet pos,0
pc,0
Time (ms),CH1 Auto-Correlation
1.0,0.019600696861743927
2.0,0.018023628741502762
3.0,0.016598878428339958
4.0,0.015321986749768257
5.0,0.014181363396346569
6.0,0.01312180608510971
7.0,0.012063057161867619
8.0,0.011087747290730476
9.0,0.010248185135424137
10.0,0.009449555538594723
11.0,0.00873112678527832
12.0,0.008034387603402138
13.0,0.007428938988596201
14.0,0.006883792579174042
15.0,0.006411031819880009
16.0,0.005984934978187084
18.0,0.005273966118693352
20.0,0.004569546319544315
22.0,0.0038332680705934763
24.0,0.0031661500688642263
26.0,0.0025282083079218864
28.0,0.001954625826328993
30.0,0.0015111753018572927
32.0,0.0011659571900963783
36.0,0.0007392883999273181
40.0,0.0006061780732125044
44.0,0.0006903548492118716
48.0,0.0008323363726958632
52.0,0.0009116738801822066
56.0,0.0008894545026123524
60.0,0.0006777814123779535
64.0,0.0004092415329068899
72.0,9.030562068801373e-05
80.0,-7.450601697200909e-05
88.0,-0.00027476114337332547
96.0,-0.0004930059076286852
104.0,-0.0005910282488912344
112.0,-0.00032884394749999046
120.0,0.0002554473758209497
128.0,0.00047248959890566766
144.0,0.00044423408689908683
160.0,0.00021418670075945556
176.0,-0.0001518220524303615
192.0,-0.0004458940529730171
208.0,-0.00044574050116352737
224.0,-0.00025939245824702084
240.0,-0.00023678631987422705
256.0,-0.0001744702603900805
288.0,3.445850097705261e-06
320.0,0.0003284899576101452
352.0,-0.0005859052762389183
384.0,-0.0006757235969416797
416.0,-0.0010622292757034302
448.0,-0.00032929074950516224
480.0,-3.777628080570139e-05
512.0,-0.0002874023630283773
576.0,0.00032770459074527025
640.0,0.000162563388585113
704.0,0.0005838895449414849
768.0,4.008958057966083e-05
832.0,0.000538748106919229
896.0,7.295928662642837e-05
960.0,-0.0002734814479481429
1024.0,0.0007605073624290526
1152.0,-0.00027361648972146213
1280.0,-0.0002823740942403674
1408.0,0.000260512693785131
1536.0,0.00012153716670582071
1664.0,0.00022368792269844562
1792.0,0.0004454699228517711
1920.0,-0.0002994259411934763
2048.0,-7.717583503108472e-05
2304.0,-2.1066962290205993e-05
2560.0,3.426031253184192e-05
2816.0,8.289960533147678e-05
3072.0,-0.00014378468040376902
3328.0,0.0003165740636177361
3584.0,-0.0001967604912351817
3840.0,-0.0001691786601440981
4096.0,0.00021620962070301175
4608.0,-5.3633120842278004e-05
5120.0,-0.0001616590452613309
5632.0,-0.0001511425361968577
6144.0,-0.00011338668991811574
6656.0,-7.886903040343896e-05
7168.0,-2.559878703323193e-05
7680.0,-0.0002754179004114121
8192.0,-0.00021084974287077785
9216.0,2.4494502213201486e-05
10240.0,0.0001926900731632486
11264.0,4.842492853640579e-05
12288.0,1.4758278666704427e-05
13312.0,0.00010612585174385458
14336.0,6.15097742411308e-05
end
