version,3.0
numOfCh,1
type,point
parent_name,1000-cuts
ch_type,1_1
kcount,1
numberNandB,1
brightnessNandB,1
carpet pos,0
pc,0
Time (ms),CH1 Auto-Correlation
1.0,0.05541514977812767
2.0,0.051146071404218674
3.0,0.04722343012690544
4.0,0.04366571456193924
5.0,0.04030350223183632
6.0,0.037120383232831955
7.0,0.03423486649990082
8.0,0.03156587854027748
9.0,0.029026873409748077
10.0,0.02663744054734707
11.0,0.024492425844073296
12.0,0.02247183583676815
13.0,0.020654937252402306
14.0,0.01896180398762226
15.0,0.01740925759077072
16.0,0.016094015911221504
18.0,0.013770820572972298
20.0,0.011744311079382896
22.0,0.009953030385077
24.0,0.00820436142385006
26.0,0.006587734911590815
28.0,0.005277889780700207
30.0,0.004211721010506153
32.0,0.0032603172585368156
36.0,0.001774835865944624
40.0,0.0005393255269154906
44.0,-0.00033382794936187565
48.0,-0.0008450133027508855
52.0,-0.0010146979475393891
56.0,-0.000630297465249896
60.0,-0.00024703601957298815
64.0,-0.00034383940510451794
72.0,-0.00038069504080340266
80.0,-0.0003726315626408905
88.0,-0.0007990194135345519
96.0,-0.0003140243934467435
104.0,0.0011887506116181612
112.0,0.0024970725644379854
120.0,0.0030320663936436176
128.0,0.0026372571010142565
144.0,0.0003435511898715049
160.0,-0.0016531755682080984
176.0,-0.0014581885188817978
192.0,0.0006995935109443963
208.0,0.0018192228162661195
224.0,0.0017967440653592348
240.0,0.0008218226139433682
256.0,0.0009710239246487617
288.0,-0.002256137551739812
320.0,0.0001707219344098121
352.0,0.0006127598462626338
384.0,0.0017675805138424039
416.0,0.0006030044169165194
448.0,0.0005095703527331352
480.0,6.971629045438021e-05
512.0,-0.0001916252076625824
576.0,0.0003172784636262804
640.0,-0.0001975983614102006
704.0,0.0009597661555744708
768.0,-0.0007630913169123232
832.0,-0.0010826126672327518
896.0,-0.0008488631574437022
960.0,-0.00022334032109938562
1024.0,0.0005846495041623712
1152.0,0.0011330918641760945
1280.0,0.0005909075844101608
1408.0,-0.0001577979273861274
1536.0,-0.0006379537517204881
1664.0,0.0011791910510510206
1792.0,0.0005222185864113271
1920.0,-4.56089801446069e-05
2048.0,0.00013909423432778567
2304.0,4.9282400141237304e-05
2560.0,-0.0004664880398195237
2816.0,-0.00016814998525660485
3072.0,-0.000881063228007406
3328.0,0.0007219794788397849
3584.0,-0.0012759988894686103
3840.0,-0.00047386312508024275
4096.0,-0.0017353662988170981
4608.0,-0.00042236573062837124
5120.0,-0.0004809628881048411
5632.0,1.5912186427158304e-05
6144.0,-0.000602417450863868
6656.0,0.00046318842214532197
7168.0,0.001097705913707614
7680.0,0.00040648962021805346
8192.0,-0.0001588545273989439
9216.0,-0.0004987993161194026
10240.0,-4.4124997657490894e-05
11264.0,-0.0006251019658520818
12288.0,-0.00044829989201389253
13312.0,-0.00011858523066621274
14336.0,0.0008711222326382995
end
