version,3.0
numOfCh,1
type,point
parent_name,1000-cuts
ch_type,1_1
kcount,1
numberNandB,1
brightnessNandB,1
carpet pos,0
pc,0
Time (ms),CH1 Auto-Correlation
1.0,0.06560688465833664
2.0,0.06039797514677048
3.0,0.05566345527768135
4.0,0.05120859295129776
5.0,0.047111667692661285
6.0,0.04327892139554024
7.0,0.039832353591918945
8.0,0.0363917239010334
9.0,0.03319002687931061
10.0,0.030340690165758133
11.0,0.027773097157478333
12.0,0.025638528168201447
13.0,0.02369432896375656
14.0,0.02191704884171486
15.0,0.020231524482369423
16.0,0.01866384968161583
18.0,0.015943510457873344
20.0,0.013463710434734821
22.0,0.011204401962459087
24.0,0.009107084013521671
26.0,0.007544703781604767
28.0,0.006351763848215342
30.0,0.005426369607448578
32.0,0.004864959046244621
36.0,0.004127250052988529
40.0,0.0029845130629837513
44.0,0.001658849185332656
48.0,-0.00017642691091168672
52.0,-0.001141094951890409
56.0,-0.0016995923360809684
60.0,-0.0016935566673055291
64.0,-0.0017312511336058378
72.0,-0.0013148243306204677
80.0,-0.001190289855003357
88.0,-0.000867508293595165
96.0,0.0007571411551907659
104.0,0.0029185693711042404
112.0,0.003234655363485217
120.0,0.0009374257642775774
128.0,-0.002387793269008398
144.0,-0.0036010879557579756
160.0,-0.0036784205585718155
176.0,-0.004029362462460995
192.0,-0.0023257252760231495
208.0,0.00018752928008325398
224.0,0.00018683928647078574
240.0,0.0011622983729466796
256.0,0.0006349845789372921
288.0,0.001326757250353694
320.0,0.0005912486230954528
352.0,0.0009557570447213948
384.0,0.0025855686981230974
416.0,0.0016838522860780358
448.0,0.0008461502147838473
480.0,0.001492347801104188
512.0,0.00010918566113105044
576.0,-0.0016723413718864322
640.0,-0.0003583880898077041
704.0,-0.0031528701074421406
768.0,0.001317033777013421
832.0,-0.000773238018155098
896.0,0.0005358242779038846
960.0,0.0006933932891115546
1024.0,-0.0005536031676456332
1152.0,-0.0001814875431591645
1280.0,-0.00043485991773195565
1408.0,0.0003655485634226352
1536.0,-0.0005590590881183743
1664.0,-0.0005997928674332798
1792.0,0.00018126818758901209
1920.0,0.0012045736657455564
2048.0,-0.0003685521660372615
2304.0,0.0005943251308053732
2560.0,-0.00019653861818369478
2816.0,-0.0008945921435952187
3072.0,-0.0005280000041238964
3328.0,-0.0002702773199416697
3584.0,0.000694201560690999
3840.0,-0.0004146476276218891
4096.0,0.0004756804555654526
4608.0,-5.3014373406767845e-05
5120.0,-0.0003118780441582203
5632.0,-0.0006432300433516502
6144.0,-4.6226297854445875e-05
6656.0,8.562255243305117e-05
7168.0,9.098355803871527e-05
7680.0,0.0005430448800325394
8192.0,0.0004612212651409209
9216.0,-0.0003280672535765916
10240.0,-0.0005534610827453434
11264.0,0.001487547648139298
12288.0,-0.0027072641532868147
13312.0,0.00044622397399507463
14336.0,-0.00019647508452180773
end
