version,3.0
numOfCh,1
type,point
parent_name,1000-cuts
ch_type,1_1
kcount,1
numberNandB,1
brightnessNandB,1
carpet pos,0
pc,0
Time (ms),CH1 Auto-Correlation
1.0,0.060711570084095
2.0,0.055953964591026306
3.0,0.051495157182216644
4.0,0.047264959663152695
5.0,0.04349667578935623
6.0,0.04007863625884056
7.0,0.03690103441476822
8.0,0.0339001826941967
9.0,0.03109792433679104
10.0,0.028643421828746796
11.0,0.026406995952129364
12.0,0.02432883530855179
13.0,0.022487511858344078
14.0,0.020731812343001366
15.0,0.01907891035079956
16.0,0.01768570765852928
18.0,0.015057570300996304
20.0,0.013151278719305992
22.0,0.011255425401031971
24.0,0.009657285176217556
26.0,0.008243226446211338
28.0,0.00696748960763216
30.0,0.006166364066302776
32.0,0.005446982104331255
36.0,0.003964373376220465
40.0,0.0030334198381751776
44.0,0.00191089091822505
48.0,0.0008340111235156655
52.0,0.00030052923830226064
56.0,-0.0006175168673507869
60.0,-0.0013800772139802575
64.0,-0.000997323775663972
72.0,-0.000720601121429354
80.0,-0.000569277151953429
88.0,2.8258522434043698e-05
96.0,-0.00039507824112661183
104.0,-0.0011021019890904427
112.0,-0.0017033861950039864
120.0,-0.002640489721670747
128.0,-0.003068469697609544
144.0,-0.002365706954151392
160.0,-0.0016868743114173412
176.0,-0.0021352190524339676
192.0,-0.001592753455042839
208.0,-0.0017188310157507658
224.0,-0.0009294830379076302
240.0,0.0004956125048920512
256.0,0.0032661575824022293
288.0,0.0006670273141935468
320.0,-0.001319203176535666
352.0,-0.0005001139943487942
384.0,0.0004275850369594991
416.0,-0.0003074089181609452
448.0,-0.001753774005919695
480.0,-0.0012419353006407619
512.0,-0.0010369234951213002
576.0,-0.0008815032779239118
640.0,0.0016393044497817755
704.0,0.001630975864827633
768.0,0.0009143993956968188
832.0,6.928665970917791e-05
896.0,-0.001031027757562697
960.0,-0.0015386698069050908
1024.0,-0.0013489898992702365
1152.0,-0.0008451478788629174
1280.0,0.0016912523424252868
1408.0,0.0004794021078851074
1536.0,-0.0020884256809949875
1664.0,-0.0007025860249996185
1792.0,-0.0003811806964222342
1920.0,0.0004296344122849405
2048.0,0.0007306966581381857
2304.0,-0.00043832752271555364
2560.0,3.416098707020865e-06
2816.0,-0.000794105464592576
3072.0,0.00043142391950823367
3328.0,-0.000537616724614054
3584.0,-0.0007714625680819154
3840.0,0.0008918940438888967
4096.0,-0.00021783501142635942
4608.0,0.0005040420801378787
5120.0,8.313814760185778e-06
5632.0,-0.0004539475485216826
6144.0,0.00011849704605992883
6656.0,0.0005013122572563589
7168.0,-0.0004939783830195665
7680.0,-0.0008519944967702031
8192.0,0.0004706757899839431
9216.0,0.0002562718582339585
10240.0,2.799558023980353e-05
11264.0,0.00014412574819289148
12288.0,-0.0009303961414843798
13312.0,-0.0006991066038608551
14336.0,0.00019544054521247745
end
