version,3.0
numOfCh,1
type,point
parent_name,1000-cuts
ch_type,1_1
kcount,1
numberNandB,1
brightnessNandB,1
carpet pos,0
pc,0
Time (ms),CH1 Auto-Correlation
1.0,0.03002050146460533
2.0,0.027652161195874214
3.0,0.02545011229813099
4.0,0.023438066244125366
5.0,0.0215211883187294
6.0,0.019818611443042755
7.0,0.018256420269608498
8.0,0.016735337674617767
9.0,0.01527091208845377
10.0,0.013958758674561977
11.0,0.012752328999340534
12.0,0.011671657674014568
13.0,0.01070677675306797
14.0,0.00989739503711462
15.0,0.009187856689095497
16.0,0.008564579300582409
18.0,0.007470677141100168
20.0,0.006442609243094921
22.0,0.0056243278086185455
24.0,0.004808233585208654
26.0,0.003988456446677446
28.0,0.0032688709907233715
30.0,0.0027992073446512222
32.0,0.0024236657191067934
36.0,0.002004181034862995
40.0,0.0017387195257470012
44.0,0.001509556663222611
48.0,0.001373456441797316
52.0,0.0013618380762636662
56.0,0.0013815268175676465
60.0,0.001192611875012517
64.0,0.0006541402544826269
72.0,-0.00021855956583749503
80.0,-0.0006919235456734896
88.0,-0.0003207803820259869
96.0,-0.0002379103098064661
104.0,-0.0005019325180910528
112.0,-0.0004837280139327049
120.0,0.00018118487787432969
128.0,0.0007861600606702268
144.0,2.4556688003940508e-05
160.0,-0.0010570349404588342
176.0,-0.0005219005979597569
192.0,-0.0008285004296340048
208.0,-0.0011334564769640565
224.0,-0.0017152978107333183
240.0,-0.0003829908964689821
256.0,3.6700261262012646e-05
288.0,-0.00020065931312274188
320.0,0.0003879659634549171
352.0,0.0003986793744843453
384.0,-0.000162627620738931
416.0,-0.0005379499052651227
448.0,6.410818605218083e-05
480.0,-0.001751345582306385
512.0,-0.0018348714802414179
576.0,-4.411074405652471e-05
640.0,-0.0006465953192673624
704.0,-0.0004882603243459016
768.0,-0.0009250954026356339
832.0,-0.0009781921980902553
896.0,-0.0010317054111510515
960.0,2.2570458895643242e-05
1024.0,0.0004665463056880981
1152.0,0.00021034758538007736
1280.0,0.0007025434751994908
1408.0,0.0007542984094470739
1536.0,0.00047293250099755824
1664.0,-0.00046220378135330975
1792.0,-0.0006957409204915166
1920.0,0.0009156002779491246
2048.0,-0.0010034509468823671
2304.0,-0.0001358224981231615
2560.0,0.0009554091957397759
2816.0,-9.230101568391547e-05
3072.0,-0.0003001894219778478
3328.0,-0.00033544006873853505
3584.0,-0.00013124624092597514
3840.0,0.0003861770674120635
4096.0,-5.4092248319648206e-05
4608.0,-0.00015057464770507067
5120.0,4.178570816293359e-05
5632.0,0.00041843182407319546
6144.0,-0.0003488713700789958
6656.0,0.0001376510044792667
7168.0,-8.985538443084806e-05
7680.0,8.346997492481023e-05
8192.0,6.669635331491008e-05
9216.0,0.00018653094593901187
10240.0,-0.00022428952797781676
11264.0,-0.000241307177930139
12288.0,0.0001291438820771873
13312.0,-1.5410525520564988e-05
14336.0,1.7920656318892725e-05
end
