version,3.0
numOfCh,1
type,point
parent_name,1000-cuts
ch_type,1_1
kcount,1
numberNandB,1
brightnessNandB,1
carpet pos,0
pc,0
Time (ms),CH1 Auto-Correlation
1.0,0.08100943267345428
2.0,0.07549216598272324
3.0,0.07019646465778351
4.0,0.06536460667848587
5.0,0.0608942024409771
6.0,0.056826528161764145
7.0,0.053068336099386215
8.0,0.04947745054960251
9.0,0.046133771538734436
10.0,0.042868707329034805
11.0,0.03996657580137253
12.0,0.0372188463807106
13.0,0.034610673785209656
14.0,0.03228522464632988
15.0,0.03009936586022377
16.0,0.02791828103363514
18.0,0.023919926956295967
20.0,0.02041729725897312
22.0,0.017464393749833107
24.0,0.014817826449871063
26.0,0.01246548630297184
28.0,0.010687289759516716
30.0,0.008947538211941719
32.0,0.0074036153964698315
36.0,0.005025933496654034
40.0,0.0032063412945717573
44.0,0.001564724720083177
48.0,0.0004901843494735658
52.0,4.735821858048439e-05
56.0,-0.0002714823931455612
60.0,-0.0003428188501857221
64.0,-0.0002409528533462435
72.0,-0.0008776742615737021
80.0,-0.0019203738775104284
88.0,-0.0009509801166132092
96.0,0.002013647696003318
104.0,0.0031737028621137142
112.0,0.0032221029978245497
120.0,0.002099929843097925
128.0,0.001312645385041833
144.0,-0.00141250086016953
160.0,-0.0006914852419868112
176.0,0.0009454330429434776
192.0,0.0026554057840257883
208.0,0.002379144774749875
224.0,0.0017444586846977472
240.0,-0.002473084721714258
256.0,-0.00393981346860528
288.0,-0.0007076131878420711
320.0,0.001558725256472826
352.0,0.0017750482074916363
384.0,0.0013425443321466446
416.0,-0.00077507842797786
448.0,-0.0015703244134783745
480.0,0.00027303179376758635
512.0,0.00046416022814810276
576.0,-0.0008675810531713068
640.0,-0.00034483239869587123
704.0,0.0021636574529111385
768.0,-0.0007747637573629618
832.0,0.0025131376460194588
896.0,-0.0005619411240331829
960.0,-0.0015928704524412751
1024.0,-0.0038334534037858248
1152.0,-0.0028130467981100082
1280.0,0.000822674366645515
1408.0,0.0010518912458792329
1536.0,-0.00010533274326007813
1664.0,0.00012838818656746298
1792.0,0.00012139776663389057
1920.0,-0.00024467508774250746
2048.0,0.001199255813844502
2304.0,0.0018713815370574594
2560.0,-0.0002635656564962119
2816.0,0.0001546483690617606
3072.0,0.0001124019327107817
3328.0,-0.0012011150829494
3584.0,8.123466977849603e-05
3840.0,0.0008752010180614889
4096.0,0.0009165285155177116
4608.0,0.000165448960615322
5120.0,-0.0019252722850069404
5632.0,-0.0009529357776045799
6144.0,-0.0004944345564581454
6656.0,0.0008859173394739628
7168.0,-0.00016701032291166484
7680.0,-0.0020106639713048935
8192.0,-0.0024718130007386208
9216.0,0.00033673329744488
10240.0,0.0004054479650221765
11264.0,-0.00015253368474077433
12288.0,-0.0008589104400016367
13312.0,0.0008763381047174335
14336.0,0.0019502922659739852
end
