version,3.0
numOfCh,1
type,point
parent_name,1000-cuts
ch_type,1_1
kcount,1
numberNandB,1
brightnessNandB,1
carpet pos,0
pc,0
Time (ms),CH1 Auto-Correlation
1.0,0.06302288919687271
2.0,0.05813760682940483
3.0,0.05369136109948158
4.0,0.049351856112480164
5.0,0.04537218436598778
6.0,0.0418231226503849
7.0,0.03840212523937225
8.0,0.03525984287261963
9.0,0.032332226634025574
10.0,0.029529482126235962
11.0,0.02681066282093525
12.0,0.024272475391626358
13.0,0.022024543955922127
14.0,0.0199236199259758
15.0,0.018153328448534012
16.0,0.016604304313659668
18.0,0.014040120877325535
20.0,0.011927012354135513
22.0,0.010243409313261509
24.0,0.008586227893829346
26.0,0.0071043879725039005
28.0,0.005622406490147114
30.0,0.004341178108006716
32.0,0.0033461921848356724
36.0,0.0015628148103132844
40.0,0.00014252080291043967
44.0,-0.0007448057876899838
48.0,-0.0014449863228946924
52.0,-0.0014485359424725175
56.0,-0.0009078065049834549
60.0,-1.550796878291294e-05
64.0,0.00024252910225186497
72.0,-0.0007645311416126788
80.0,-0.0014633242972195148
88.0,-0.0011408438440412283
96.0,-0.0018684187671169639
104.0,-0.001748246606439352
112.0,-0.0006596141029149294
120.0,-0.0007697656401433051
128.0,-0.0026800488121807575
144.0,-0.0007063539233058691
160.0,0.0009284433908760548
176.0,0.001008586143143475
192.0,0.0003338894748594612
208.0,-0.0011172509985044599
224.0,-0.0021062269806861877
240.0,-0.0025138799101114273
256.0,-0.0005037832306697965
288.0,0.002302455483004451
320.0,0.0026628237683326006
352.0,0.00018839597760234028
384.0,-0.0003899085277225822
416.0,0.0005913702771067619
448.0,-0.002505907788872719
480.0,-0.002643596613779664
512.0,-0.002707948675379157
576.0,-0.0011770050041377544
640.0,-0.001608972204849124
704.0,0.0005110320053063333
768.0,-0.0010755042312666774
832.0,-0.0009778595995157957
896.0,0.0009027734631672502
960.0,-0.002476799301803112
1024.0,0.0010788434883579612
1152.0,0.00028570485301315784
1280.0,-0.00012898225395474583
1408.0,-0.0006074346019886434
1536.0,0.0005451657925732434
1664.0,-0.00046838229172863066
1792.0,-0.00010441490303492174
1920.0,0.0003740657994057983
2048.0,5.605298065347597e-05
2304.0,6.987637607380748e-05
2560.0,-0.0005352880107238889
2816.0,-0.0007040489581413567
3072.0,0.0002397610223852098
3328.0,0.0001697711122687906
3584.0,-0.00047334792907349765
3840.0,0.0006514574051834643
4096.0,0.00031895251595415175
4608.0,-0.0006911694654263556
5120.0,-0.0004662859719246626
5632.0,0.0020523113198578358
6144.0,-0.0014715256402269006
6656.0,0.0004304309841245413
7168.0,0.00015591383271384984
7680.0,0.000966498744674027
8192.0,-0.0013657237868756056
9216.0,-0.00022736033133696765
10240.0,-0.00034162894007749856
11264.0,0.0003625190583989024
12288.0,-0.0006336626247502863
13312.0,0.000796799547970295
14336.0,-0.0003534794377628714
end
