version,3.0
numOfCh,1
type,point
parent_name,1000-cuts
ch_type,1_1
kcount,1
numberNandB,1
brightnessNandB,1
carpet pos,0
pc,0
Time (ms),CH1 Auto-Correlation
1.0,0.06068185344338417
2.0,0.055636800825595856
3.0,0.05087389424443245
4.0,0.04671511426568031
5.0,0.04309092089533806
6.0,0.03973044827580452
7.0,0.036647770553827286
8.0,0.03388838842511177
9.0,0.03137144446372986
10.0,0.029208561405539513
11.0,0.02731434814631939
12.0,0.025387970730662346
13.0,0.02361247129738331
14.0,0.021916190162301064
15.0,0.020209969952702522
16.0,0.01871408335864544
18.0,0.0163546334952116
20.0,0.014263123273849487
22.0,0.012379846535623074
24.0,0.010713044553995132
26.0,0.009342889301478863
28.0,0.00800146535038948
30.0,0.006729751359671354
32.0,0.005668024532496929
36.0,0.004309610929340124
40.0,0.0035219613928347826
44.0,0.0024928380735218525
48.0,0.0011839548824355006
52.0,-0.00018528966757003218
56.0,-0.001273683737963438
60.0,-0.0016260582488030195
64.0,-0.001691618119366467
72.0,-0.0013353320537135005
80.0,-0.0005122512811794877
88.0,-5.939844413660467e-05
96.0,-0.0010251777712255716
104.0,-0.0003800799895543605
112.0,0.0007653940701857209
120.0,0.00037171883741393685
128.0,-9.984264761442319e-05
144.0,0.000495866232085973
160.0,-0.001035410794429481
176.0,-0.0016667409799993038
192.0,-0.00124830543063581
208.0,-0.0009652420412749052
224.0,0.001693254103884101
240.0,0.0009880983270704746
256.0,-0.0003474190307315439
288.0,-0.0021261635702103376
320.0,0.0007978268549777567
352.0,0.0024110914673656225
384.0,0.003369045676663518
416.0,-0.0007446003728546202
448.0,-0.002125207567587495
480.0,0.0007496905163861811
512.0,-0.00017986622697208077
576.0,-0.0016226766165345907
640.0,0.0009246777044609189
704.0,0.0005204840563237667
768.0,0.0015819801483303308
832.0,0.003087069606408477
896.0,-0.0024342695251107216
960.0,-0.0005845846608281136
1024.0,0.0009557128651067615
1152.0,0.0009931930107995868
1280.0,-0.002580053173005581
1408.0,-0.0005094469524919987
1536.0,-0.0022578102070838213
1664.0,-0.0023182330187410116
1792.0,0.00048183969920501113
1920.0,-0.0012104258639737964
2048.0,-0.0014601056464016438
2304.0,-0.00019676267402246594
2560.0,-0.0015604234067723155
2816.0,-9.184000373352319e-05
3072.0,0.002284283982589841
3328.0,-0.0006725925486534834
3584.0,0.00109904445707798
3840.0,0.0010326391784474254
4096.0,0.00017186319746542722
4608.0,-0.0006266132113523781
5120.0,1.3680778465641197e-05
5632.0,-0.0016123505774885416
6144.0,0.0009283717954531312
6656.0,-0.0004953622701577842
7168.0,0.001274828682653606
7680.0,-0.0008459924720227718
8192.0,0.0004307337221689522
9216.0,0.0007095420733094215
10240.0,0.0009032789967022836
11264.0,-0.0004481712239794433
12288.0,-0.00027859947294928133
13312.0,-0.00023778977629262954
14336.0,-0.00016839112504385412
end
