version,3.0
numOfCh,1
type,point
parent_name,1000-cuts
ch_type,1_1
kcount,1
numberNandB,1
brightnessNandB,1
carpet pos,0
pc,0
Time (ms),CH1 Auto-Correlation
1.0,0.029709551483392715
2.0,0.027492431923747063
3.0,0.025433195754885674
4.0,0.02354637160897255
5.0,0.021827002987265587
6.0,0.020176678895950317
7.0,0.01860164850950241
8.0,0.017220476642251015
9.0,0.015951381996273994
10.0,0.014769123867154121
11.0,0.013666779734194279
12.0,0.012610159814357758
13.0,0.01161053404211998
14.0,0.010630968026816845
15.0,0.009700034745037556
16.0,0.008876866661012173
18.0,0.007400752045214176
20.0,0.006133269984275103
22.0,0.005247978493571281
24.0,0.004608931951224804
26.0,0.00404818169772625
28.0,0.0036511882208287716
30.0,0.0032189784105867147
32.0,0.002778689144179225
36.0,0.0021482433658093214
40.0,0.0016938456101343036
44.0,0.000938361044973135
48.0,0.0001229216140927747
52.0,-0.00030217753374017775
56.0,-0.0004598498053383082
60.0,-0.00030064897146075964
64.0,0.00011582589650060982
72.0,0.0008809835417196155
80.0,0.001772665767930448
88.0,0.0016728477785363793
96.0,0.0015149302780628204
104.0,0.0015214279992505908
112.0,0.0007242245483212173
120.0,-0.0003991137200500816
128.0,-0.0010560505324974656
144.0,-0.0016123360255733132
160.0,-0.0011138867121189833
176.0,-0.0008057046215981245
192.0,-0.0009150085388682783
208.0,-0.00011957155220443383
224.0,-0.0006009144126437604
240.0,-0.0009301885147579014
256.0,-0.0005348459235392511
288.0,6.0013364418409765e-05
320.0,-0.0011456997599452734
352.0,4.416503361426294e-05
384.0,0.001504966290667653
416.0,0.0008226726786233485
448.0,0.0010099882492795587
480.0,0.0007025875966064632
512.0,-0.0003139120526611805
576.0,-0.00035646167816594243
640.0,0.00044159358367323875
704.0,-0.0004423042992129922
768.0,-0.0005310154519975185
832.0,-0.00015253112360369414
896.0,-0.0012125599896535277
960.0,-0.00015465461183339357
1024.0,0.0003701225796248764
1152.0,0.00033737890771590173
1280.0,0.0004766092461068183
1408.0,0.0005303630605340004
1536.0,-0.0007075548637658358
1664.0,-0.00032922474201768637
1792.0,-0.00043164874659851193
1920.0,-5.3588726586895064e-05
2048.0,0.0005488237366080284
2304.0,-0.00010822550393640995
2560.0,0.000492828490678221
2816.0,-0.00017749442486092448
3072.0,-0.00014043408737052232
3328.0,6.411185313481838e-05
3584.0,-3.3503069971629884e-06
3840.0,-0.00022821390302851796
4096.0,-8.693410200066864e-05
4608.0,-9.427258919458836e-05
5120.0,-0.0008870712481439114
5632.0,0.00030988187063485384
6144.0,-0.00011628815263975412
6656.0,7.958643254823983e-05
7168.0,-0.0005828209687024355
7680.0,-0.00017451019084546715
8192.0,8.530372724635527e-05
9216.0,0.00025398554862476885
10240.0,0.00038039262290112674
11264.0,0.00023085306747816503
12288.0,0.0004892174620181322
13312.0,-0.0007523384410887957
14336.0,-0.00017167955229524523
end
