version,3.0
numOfCh,1
type,point
parent_name,1000-cuts
ch_type,1_1
kcount,1
numberNandB,1
brightnessNandB,1
carpet pos,0
pc,0
Time (ms),CH1 Auto-Correlation
1.0,0.03348196670413017
2.0,0.031062476336956024
3.0,0.028806718066334724
4.0,0.02676759660243988
5.0,0.024911746382713318
6.0,0.023096729069948196
7.0,0.021407438442111015
8.0,0.019869519397616386
9.0,0.018461287021636963
10.0,0.017137380316853523
11.0,0.01593826711177826
12.0,0.014860929921269417
13.0,0.013821170665323734
14.0,0.012869428843259811
15.0,0.012015534564852715
16.0,0.011216595768928528
18.0,0.00985349528491497
20.0,0.0087061058729887
22.0,0.0076302653178572655
24.0,0.006407387088984251
26.0,0.005369200371205807
28.0,0.004562349524348974
30.0,0.003986809868365526
32.0,0.003532735863700509
36.0,0.002828541910275817
40.0,0.0021707129199057817
44.0,0.0015822828281670809
48.0,0.0011949840700253844
52.0,0.0007625030120834708
56.0,7.942742377053946e-05
60.0,-0.0004935109172947705
64.0,-0.000838772626593709
72.0,-0.00044592219637706876
80.0,-8.874869672581553e-05
88.0,-0.00012080841406714171
96.0,-0.00019324816821608692
104.0,-0.00021965231280773878
112.0,-0.0005240056198090315
120.0,-0.0011205303017050028
128.0,-0.000945237057749182
144.0,-0.0013396266149356961
160.0,-0.0011097406968474388
176.0,-0.0007331289816647768
192.0,-0.0010035396553575993
208.0,-0.0004833315033465624
224.0,-0.0013675970258191228
240.0,-0.0011956804664805532
256.0,-0.0005838829674758017
288.0,-0.0007869174587540329
320.0,-0.00041399651672691107
352.0,-0.0011426954297348857
384.0,-0.0016104443930089474
416.0,0.001454581506550312
448.0,0.0014021900715306401
480.0,-0.0005922954878769815
512.0,-0.00018675717001315206
576.0,-0.0006181817734614015
640.0,-0.0005075999652035534
704.0,0.0009709654259495437
768.0,0.0005438601365312934
832.0,0.0004280219436623156
896.0,-0.0002340676583116874
960.0,-0.00022237228404264897
1024.0,0.0002421200042590499
1152.0,-0.00016157884965650737
1280.0,0.0007858228054828942
1408.0,6.841052527306601e-05
1536.0,-0.0011310875415802002
1664.0,-0.00044823726057074964
1792.0,-0.0009484860929660499
1920.0,-0.00015739064838271588
2048.0,0.0005260297912172973
2304.0,0.0004101681406609714
2560.0,0.00047764155897311866
2816.0,-0.00031974856392480433
3072.0,-0.0005244971835054457
3328.0,0.0007695765234529972
3584.0,-0.000367949454812333
3840.0,5.282286292640492e-05
4096.0,-0.00022350557264871895
4608.0,0.0004966730484738946
5120.0,-0.00023874900944065303
5632.0,7.5405464485811535e-06
6144.0,-0.00016579899238422513
6656.0,-0.000103800579381641
7168.0,0.0003612675645854324
7680.0,-0.00033770521986298263
8192.0,-0.00012361191329546273
9216.0,0.00016272881475742906
10240.0,9.883959864964709e-05
11264.0,-0.00026589303161017597
12288.0,-0.000136158661916852
13312.0,0.00022456746955867857
14336.0,0.00023732025874778628
end
