version,3.0
numOfCh,1
type,point
parent_name,1000-cuts
ch_type,1_1
kcount,1
numberNandB,1
brightnessNandB,1
carpet pos,0
pc,0
Time (ms),CH1 Auto-Correlation
1.0,0.01886601746082306
2.0,0.017356539145112038
3.0,0.015938272699713707
4.0,0.01464436762034893
5.0,0.013462964445352554
6.0,0.012378138490021229
7.0,0.011400549672544003
8.0,0.010463912971317768
9.0,0.009623853489756584
10.0,0.008840568363666534
11.0,0.008083457127213478
12.0,0.00742737390100956
13.0,0.006829726509749889
14.0,0.006290718913078308
15.0,0.005796822253614664
16.0,0.005351266358047724
18.0,0.004497871268540621
20.0,0.0037140408530831337
22.0,0.003087729448452592
24.0,0.0025760855060070753
26.0,0.002104459097608924
28.0,0.001658531604334712
30.0,0.001290014828555286
32.0,0.00101119140163064
36.0,0.0006001499714329839
40.0,0.00037572343717329204
44.0,0.0002451075706630945
48.0,0.00010097043559653684
52.0,0.00022534886375069618
56.0,0.00032219503191299736
60.0,0.00026824339875020087
64.0,0.00025651048053987324
72.0,0.0003788745088968426
80.0,0.00039902489515952766
88.0,1.5308716683648527e-05
96.0,-0.0005391658050939441
104.0,-0.0008615209953859448
112.0,-0.0006956030847504735
120.0,-0.0004364258493296802
128.0,-0.00034609163412824273
144.0,0.00017675673007033765
160.0,0.0002010648895520717
176.0,0.0005206384812481701
192.0,0.00028135726461187005
208.0,-0.0006047353381291032
224.0,-0.0006983393104746938
240.0,-0.00033294313470833004
256.0,-0.0006246336852200329
288.0,-0.00011153859668411314
320.0,0.0005177852581255138
352.0,7.205810834420845e-05
384.0,0.00039606288191862404
416.0,-8.26957038952969e-05
448.0,-0.0002498533285688609
480.0,-0.00042304041562601924
512.0,-0.0002963602019008249
576.0,0.0004268378543201834
640.0,5.2295054047135636e-05
704.0,6.45050749881193e-05
768.0,-7.831463335605804e-06
832.0,-0.0002989229978993535
896.0,-0.0001306680787820369
960.0,-8.878759399522096e-05
1024.0,-0.0005601993761956692
1152.0,-2.9942824767204e-05
1280.0,-0.00010063751687994227
1408.0,8.415916818194091e-05
1536.0,8.199667354347184e-05
1664.0,-0.00038789608515799046
1792.0,5.46635637874715e-05
1920.0,4.585866190609522e-05
2048.0,0.00027014888473786414
2304.0,0.0002449086168780923
2560.0,0.0001688262855168432
2816.0,-1.767978938005399e-05
3072.0,5.511736890184693e-05
3328.0,-0.00035119877429679036
3584.0,-0.00035681837471202016
3840.0,0.0002056096273008734
4096.0,6.479402509285137e-05
4608.0,9.866955952020362e-05
5120.0,-0.0001000171250780113
5632.0,-7.104386895662174e-05
6144.0,-0.00021753097826149315
6656.0,0.0001903937227325514
7168.0,-0.00035405048402026296
7680.0,7.618212111992761e-05
8192.0,-0.00023552084167022258
9216.0,-5.8476893173065037e-05
10240.0,2.584384310466703e-05
11264.0,-0.00018628670659381896
12288.0,0.00012413770309649408
13312.0,0.0002825940027832985
14336.0,0.0001994416379602626
end
