version,3.0
numOfCh,1
type,point
parent_name,1000-cuts
ch_type,1_1
kcount,1
numberNandB,1
brightnessNandB,1
carpet pos,0
pc,0
Time (ms),CH1 Auto-Correlation
1.0,0.026239853352308273
2.0,0.024379979819059372
3.0,0.022589759901165962
4.0,0.020928379148244858
5.0,0.019380765035748482
6.0,0.017961865290999413
7.0,0.016680754721164703
8.0,0.015568993985652924
9.0,0.014492361806333065
10.0,0.013424748554825783
11.0,0.012413660995662212
12.0,0.011501205153763294
13.0,0.010656404308974743
14.0,0.009909841232001781
15.0,0.009195064194500446
16.0,0.008563105016946793
18.0,0.007433289662003517
20.0,0.006426501553505659
22.0,0.005472462624311447
24.0,0.004713536240160465
26.0,0.004187626298516989
28.0,0.0037681960966438055
30.0,0.003405459923669696
32.0,0.003007001942023635
36.0,0.0022554881870746613
40.0,0.0015237724874168634
44.0,0.0009448358323425055
48.0,0.00044471543515101075
52.0,0.0001517554046586156
56.0,6.143807695480064e-05
60.0,0.00022050838742870837
64.0,0.0005591080989688635
72.0,0.000686409417539835
80.0,0.00029918793006800115
88.0,0.00021764797565992922
96.0,0.0007751171360723674
104.0,0.0011634352849796414
112.0,0.0011575021781027317
120.0,0.0009983270429074764
128.0,0.0003515310527291149
144.0,-0.0002622159372549504
160.0,-0.0012924415059387684
176.0,-0.0012167127570137382
192.0,-0.0002995359245687723
208.0,-0.0006116754375398159
224.0,-0.0008049531024880707
240.0,-0.00073145522037521
256.0,-0.0004356076242402196
288.0,-8.569039891881403e-06
320.0,-0.0006198048358783126
352.0,-0.0010377769358456135
384.0,-0.00020235986448824406
416.0,0.00013246771413832903
448.0,7.098334026522934e-05
480.0,0.0002700667246244848
512.0,-0.00039538097917102277
576.0,-0.0009899333817884326
640.0,2.6758389140013605e-05
704.0,-8.623811299912632e-05
768.0,0.00021623674547299743
832.0,6.88155269017443e-05
896.0,0.000397346360841766
960.0,-0.00041240727296099067
1024.0,-0.0008251214167103171
1152.0,-8.726339001441374e-05
1280.0,0.00023649398644920439
1408.0,-8.481636905344203e-05
1536.0,0.0004376527213025838
1664.0,0.00027027164469473064
1792.0,-0.0003534984134603292
1920.0,-0.00042361323721706867
2048.0,9.385970770381391e-05
2304.0,-0.0006442274898290634
2560.0,-7.751274893053051e-07
2816.0,-5.803497060696827e-06
3072.0,-0.00013443216448649764
3328.0,0.0005178074352443218
3584.0,-1.463145872548921e-05
3840.0,-0.0002792622253764421
4096.0,-0.0002712197310756892
4608.0,0.00017984665464609861
5120.0,-0.00013098836643621325
5632.0,-0.0002861757529899478
6144.0,0.0004935854231007397
6656.0,-0.0002615783305373043
7168.0,-0.0001771036913851276
7680.0,0.00027992294053547084
8192.0,-0.00013777194544672966
9216.0,0.0005983386654406786
10240.0,-0.0004139862139709294
11264.0,0.00019707666069734842
12288.0,-4.214204818708822e-05
13312.0,-0.0005344642559066415
14336.0,-0.0005477314698509872
end
