version,3.0
numOfCh,1
type,point
parent_name,1000-cuts
ch_type,1_1
kcount,1
numberNandB,1
brightnessNandB,1
carpet pos,0
pc,0
Time (ms),CH1 Auto-Correlation
1.0,0.026100357994437218
2.0,0.024030538275837898
3.0,0.02208508923649788
4.0,0.02030542679131031
5.0,0.018713803961873055
6.0,0.01718977652490139
7.0,0.015804072842001915
8.0,0.014543098397552967
9.0,0.013404813595116138
10.0,0.012403788045048714
11.0,0.011523492634296417
12.0,0.010677904821932316
13.0,0.009940958581864834
14.0,0.009328464046120644
15.0,0.008756376802921295
16.0,0.008242773823440075
18.0,0.007222271524369717
20.0,0.006314278580248356
22.0,0.005450448952615261
24.0,0.004717376083135605
26.0,0.004153015092015266
28.0,0.0035311300307512283
30.0,0.0029326279181987047
32.0,0.0023581755813211203
36.0,0.0014519200194627047
40.0,0.0008231285610236228
44.0,0.00029975961660966277
48.0,-0.0002626719360705465
52.0,-0.0006666598492302
56.0,-0.0006652322481386364
60.0,-0.00046721610124222934
64.0,-0.000131631109979935
72.0,0.00014788570115342736
80.0,0.0002612079551909119
88.0,0.0005359352799132466
96.0,0.0006961630424484611
104.0,0.0002670455724000931
112.0,0.00015339125820901245
120.0,-0.00011386269761715084
128.0,-0.0005760828498750925
144.0,-0.0007526699919253588
160.0,-0.0004422611673362553
176.0,2.0855011825915426e-05
192.0,0.0003536642761901021
208.0,0.0012833368964493275
224.0,0.0011176853440701962
240.0,0.0004207780002616346
256.0,-0.00046781369019299746
288.0,-0.0005088808829896152
320.0,-1.1317179996694904e-05
352.0,0.00017822584777604789
384.0,0.0007002094644121826
416.0,0.0006177137256599963
448.0,0.0002500696573406458
480.0,0.00024214477161876857
512.0,-0.0008334997692145407
576.0,-0.0012949355877935886
640.0,-0.00046374081284739077
704.0,0.0007869910332374275
768.0,-0.0006373944925144315
832.0,-0.00039684787043370306
896.0,-0.00019444305507931858
960.0,-0.0008018382359296083
1024.0,6.959124584682286e-05
1152.0,-0.0001357069704681635
1280.0,-0.0002253610291518271
1408.0,0.00034680753014981747
1536.0,-5.25464020029176e-05
1664.0,0.00046171355643309653
1792.0,0.00031675727223046124
1920.0,-0.00043974307482130826
2048.0,-0.00013567059068009257
2304.0,-0.0007581955287605524
2560.0,0.00031345552997663617
2816.0,-0.00015061668818816543
3072.0,0.0004295984690543264
3328.0,-9.4304108642973e-05
3584.0,-0.00035220314748585224
3840.0,-0.00022017009905539453
4096.0,1.074132615030976e-05
4608.0,-0.00021059380378574133
5120.0,0.00010211762128164992
5632.0,-8.447112486464903e-05
6144.0,0.0008378649363294244
6656.0,-0.0003112748672720045
7168.0,-0.0006000220309942961
7680.0,0.0004063807718921453
8192.0,-0.00018115199054591358
9216.0,-0.00019431176770012826
10240.0,0.00024756407947279513
11264.0,0.0003205073589924723
12288.0,-0.00043032615212723613
13312.0,-7.951627048896626e-05
14336.0,-0.0002809923607856035
end
