version,3.0
numOfCh,1
type,point
parent_name,1000-cuts
ch_type,1_1
kcount,1
numberNandB,1
brightnessNandB,1
carpet pos,0
pc,0
Time (ms),CH1 Auto-Correlation
1.0,0.017146999016404152
2.0,0.015811361372470856
3.0,0.014603040181100368
4.0,0.013534439727663994
5.0,0.012554856948554516
6.0,0.01166494283825159
7.0,0.010807495564222336
8.0,0.010035482235252857
9.0,0.009338639676570892
10.0,0.008698425255715847
11.0,0.008125445805490017
12.0,0.007610760163515806
13.0,0.0071255979128181934
14.0,0.0066634854301810265
15.0,0.006234454456716776
16.0,0.005819732788950205
18.0,0.0050480980426073074
20.0,0.004313429351896048
22.0,0.003620876232162118
24.0,0.00303346524015069
26.0,0.0025786214973777533
28.0,0.002233993960544467
30.0,0.0018930108053609729
32.0,0.0015546216163784266
36.0,0.0010760158766061068
40.0,0.0006857747212052345
44.0,0.0003819385019596666
48.0,0.00021656377066392452
52.0,0.00016697913815733045
56.0,0.00012570861144922674
60.0,7.651741179870442e-05
64.0,5.521760613191873e-05
72.0,0.00024808626039884984
80.0,0.0004905285313725471
88.0,0.0007372461259365082
96.0,0.0006870185607112944
104.0,0.0006651951116509736
112.0,0.0006119266035966575
120.0,3.79496777895838e-05
128.0,-0.00036748548154719174
144.0,-0.00038860877975821495
160.0,0.0003625655663199723
176.0,0.001052777050063014
192.0,0.0007963756215758622
208.0,0.0002451246837154031
224.0,0.0002954047522507608
240.0,0.0008409147849306464
256.0,0.0006165514350868762
288.0,0.000843796122353524
320.0,0.000646541768219322
352.0,0.0007698909030295908
384.0,0.0004987703869119287
416.0,3.269012086093426e-05
448.0,-0.0007234302465803921
480.0,0.00030220492044463754
512.0,0.0006441489094868302
576.0,-0.0002537156397011131
640.0,0.00011077528324676678
704.0,0.0003574082220438868
768.0,0.0006596256862394512
832.0,-0.0002990367647726089
896.0,0.0003043114847969264
960.0,-5.416105341282673e-05
1024.0,-0.00036975834518671036
1152.0,-0.0001755989360390231
1280.0,-0.0002958284749183804
1408.0,-0.0005780531791970134
1536.0,-0.0005477184313349426
1664.0,-0.00030609374516643584
1792.0,-0.0009239430073648691
1920.0,-0.00010499586642254144
2048.0,-0.00037451431853696704
2304.0,-3.699085209518671e-05
2560.0,8.37599000078626e-05
2816.0,0.00018536954303272069
3072.0,0.00032546749571338296
3328.0,0.00010499962081667036
3584.0,0.00021898443810641766
3840.0,8.814362081466243e-05
4096.0,-4.875222657574341e-05
4608.0,-0.0003289461019448936
5120.0,-0.0005283589707687497
5632.0,-0.00042340403888374567
6144.0,9.676203626440838e-05
6656.0,0.0003334271314088255
7168.0,0.0004962684470228851
7680.0,-0.00040885168709792197
8192.0,-0.00029606546740978956
9216.0,0.0002480240655131638
10240.0,0.0006561666377820075
11264.0,-0.0004200636758469045
12288.0,-7.635894871782511e-05
13312.0,0.0003253474715165794
14336.0,-0.0003790668852161616
end
