version,3.0
numOfCh,1
type,point
parent_name,1000-cuts
ch_type,1_1
kcount,1
numberNandB,1
brightnessNandB,1
carpet pos,0
pc,0
Time (ms),CH1 Auto-Correlation
1.0,0.026190146803855896
2.0,0.0240811575204134
3.0,0.022187286987900734
4.0,0.020404361188411713
5.0,0.018771108239889145
6.0,0.017250725999474525
7.0,0.015873046591877937
8.0,0.014613830484449863
9.0,0.013398510403931141
10.0,0.012312378734350204
11.0,0.01129111647605896
12.0,0.010361158289015293
13.0,0.00955253653228283
14.0,0.008770221844315529
15.0,0.008061734028160572
16.0,0.007426502648741007
18.0,0.006282017100602388
20.0,0.005297899711877108
22.0,0.004446287639439106
24.0,0.0037646014243364334
26.0,0.00304992264136672
28.0,0.0024992574471980333
30.0,0.0021866257302463055
32.0,0.001984536647796631
36.0,0.0016679390100762248
40.0,0.0015384758589789271
44.0,0.0015216367319226265
48.0,0.0014365740353241563
52.0,0.0012307185679674149
56.0,0.0012043281458318233
60.0,0.0012039575958624482
64.0,0.0011347299441695213
72.0,0.001159532810561359
80.0,0.0013218859676271677
88.0,0.0010923573281615973
96.0,0.0009955299319699407
104.0,0.001009221188724041
112.0,0.0004539049114100635
120.0,-0.0003203367523383349
128.0,-0.0007267860928550363
144.0,-0.000844029535073787
160.0,-0.0011768410913646221
176.0,-0.0009922607569023967
192.0,0.00039435093640349805
208.0,0.0009840729180723429
224.0,0.0010893810540437698
240.0,0.0003772579366341233
256.0,-0.000579833984375
288.0,-0.0009647364495322108
320.0,1.9104571038042195e-05
352.0,-0.0002580246073193848
384.0,0.0006155854789540172
416.0,-0.0001951916638063267
448.0,7.731324876658618e-05
480.0,-0.0011876042699441314
512.0,-0.0006981780170463026
576.0,-0.00030921309371478856
640.0,-0.0006500040180981159
704.0,-0.00013262635911814868
768.0,-3.5757668683800148e-06
832.0,0.00013057175965514034
896.0,-0.0005479403771460056
960.0,0.00015655194874852896
1024.0,0.00017562050197739154
1152.0,0.00014500108954962343
1280.0,-0.00012068232899764553
1408.0,4.626823647413403e-05
1536.0,0.0005847615539096296
1664.0,-0.00021096286945976317
1792.0,8.535408414900303e-05
1920.0,-0.00043621286749839783
2048.0,-0.0001427709503332153
2304.0,-3.0685532692587e-05
2560.0,0.00011366721446393058
2816.0,-0.0007516490295529366
3072.0,-0.00020723733177874237
3328.0,-7.20042735338211e-05
3584.0,-0.00035724928602576256
3840.0,-8.943317516241223e-05
4096.0,-0.00010578020010143518
4608.0,-3.983729402534664e-05
5120.0,6.516386201838031e-05
5632.0,0.00037496251752600074
6144.0,0.00036402614205144346
6656.0,-0.0002862202818505466
7168.0,0.0006135748699307442
7680.0,-0.0003249558503739536
8192.0,-0.00015097133291419595
9216.0,-0.00016239825345110148
10240.0,2.2196392819751054e-05
11264.0,-2.8355154427117668e-05
12288.0,-2.829462209774647e-05
13312.0,0.00025304322480224073
14336.0,-0.0003194411110598594
end
