version,3.0
numOfCh,1
type,point
parent_name,1000-cuts
ch_type,1_1
kcount,1
numberNandB,1
brightnessNandB,1
carpet pos,0
pc,0
Time (ms),CH1 Auto-Correlation
1.0,0.019097095355391502
2.0,0.017561135813593864
3.0,0.016133204102516174
4.0,0.014780133962631226
5.0,0.013542115688323975
6.0,0.01242067664861679
7.0,0.011382739059627056
8.0,0.010494816116988659
9.0,0.009678281843662262
10.0,0.00890740379691124
11.0,0.00819812249392271
12.0,0.007556883618235588
13.0,0.006940741557627916
14.0,0.006400543265044689
15.0,0.005960426293313503
16.0,0.005541704129427671
18.0,0.004810715559870005
20.0,0.004165207501500845
22.0,0.003531136317178607
24.0,0.002942676655948162
26.0,0.0024024704471230507
28.0,0.0018696612678468227
30.0,0.0013751558726653457
32.0,0.0009372647618874907
36.0,0.00036440740223042667
40.0,0.0002219165617134422
44.0,0.0002603631583042443
48.0,0.00027014652732759714
52.0,0.00013271592615637928
56.0,-0.00012580555630847812
60.0,-0.0003575875598471612
64.0,-0.0004717723641078919
72.0,-0.00039931575884111226
80.0,-0.0007042254437692463
88.0,-0.0007408869569189847
96.0,-0.000509043107740581
104.0,-0.0001191795599879697
112.0,0.0005712169804610312
120.0,0.0006654318422079086
128.0,0.0008994844392873347
144.0,0.0007532084127888083
160.0,0.0003300091775599867
176.0,-7.639271643711254e-05
192.0,-0.0004904374945908785
208.0,-0.00023267291544470936
224.0,0.0004392045084387064
240.0,-1.9867418814101256e-05
256.0,-0.0007917832699604332
288.0,-0.00017270313401240855
320.0,-0.0008446071296930313
352.0,5.590435102931224e-05
384.0,-0.0003081149479839951
416.0,-0.0005658629233948886
448.0,-0.0007798971491865814
480.0,-0.0001419230247847736
512.0,-0.00010969772120006382
576.0,-0.000647019303869456
640.0,-6.242496601771563e-05
704.0,0.0001444812660338357
768.0,0.0004696643154602498
832.0,-0.00012671950389631093
896.0,-0.0003387932956684381
960.0,0.00023950156173668802
1024.0,7.321588054765016e-05
1152.0,0.0005550762871280313
1280.0,-0.00013820220192428678
1408.0,9.072029206436127e-05
1536.0,-0.0005291516426950693
1664.0,0.00028060367912985384
1792.0,-0.00037464170600287616
1920.0,-0.00040387484477832913
2048.0,-5.288385727908462e-05
2304.0,9.303340630140156e-05
2560.0,-1.3536879123421386e-05
2816.0,-0.0003971713886130601
3072.0,-0.0006995758158154786
3328.0,0.000697803683578968
3584.0,0.00020684250921476632
3840.0,-0.0003499987942632288
4096.0,-0.00033317034831270576
4608.0,0.00040438779979012907
5120.0,-0.0005661160685122013
5632.0,0.00032605737214908004
6144.0,-0.00011890011955983937
6656.0,4.374110358185135e-05
7168.0,-7.301145524252206e-05
7680.0,-3.370648983036517e-06
8192.0,0.00012873268860857934
9216.0,-1.3736091204918921e-05
10240.0,0.00023357095778919756
11264.0,7.437306339852512e-05
12288.0,0.00014779246703255922
13312.0,-0.00025093500153161585
14336.0,-0.0001109557124436833
end
