version,3.0
numOfCh,1
type,point
parent_name,1000-cuts
ch_type,1_1
kcount,1
numberNandB,1
brightnessNandB,1
carpet pos,0
pc,0
Time (ms),CH1 Auto-Correlation
1.0,0.030936529859900475
2.0,0.02830648049712181
3.0,0.02597486786544323
4.0,0.023722071200609207
5.0,0.021710623055696487
6.0,0.019999025389552116
7.0,0.018426580354571342
8.0,0.016977284103631973
9.0,0.015717126429080963
10.0,0.014564129523932934
11.0,0.013434943743050098
12.0,0.012393555603921413
13.0,0.01144796796143055
14.0,0.010590189136564732
15.0,0.009814586490392685
16.0,0.009150377474725246
18.0,0.008037382736802101
20.0,0.006965628359466791
22.0,0.006105474196374416
24.0,0.005363001022487879
26.0,0.004666800610721111
28.0,0.004066290333867073
30.0,0.0034507475793361664
32.0,0.002946869470179081
36.0,0.001860777847468853
40.0,0.001135091413743794
44.0,0.0005267469678074121
48.0,4.9236416089115664e-05
52.0,-1.1574867130548228e-05
56.0,8.191358938347548e-05
60.0,2.669635614438448e-05
64.0,-9.400955605087802e-05
72.0,-0.00029652356170117855
80.0,6.907105853315443e-05
88.0,5.892725766898366e-06
96.0,-0.0006303421687334776
104.0,-0.0009603753569535911
112.0,-0.00023115103249438107
120.0,-0.00020088317978661507
128.0,-0.00045522989239543676
144.0,0.0001639547263039276
160.0,-0.0004333087126724422
176.0,7.439182081725448e-05
192.0,-0.000741233816370368
208.0,3.554382419679314e-05
224.0,0.0004646253655664623
240.0,0.0008289511897601187
256.0,0.0005377590423449874
288.0,0.00021675758762285113
320.0,0.00043537133024074137
352.0,2.2803798856330104e-05
384.0,-0.0004730532527901232
416.0,-0.0004009916738141328
448.0,-0.0009922822937369347
480.0,-6.753279740223661e-05
512.0,-0.00045493259676732123
576.0,0.0008343685767613351
640.0,-3.8569083699258044e-05
704.0,0.0011464160634204745
768.0,0.000271883443929255
832.0,-0.0006597262108698487
896.0,0.00023903630790300667
960.0,-6.904853216838092e-05
1024.0,0.0015053985407575965
1152.0,-0.0008371801231987774
1280.0,-0.0001962759270099923
1408.0,-0.0007801374304108322
1536.0,0.00020618904090952128
1664.0,8.129083289531991e-05
1792.0,7.771868695272133e-06
1920.0,-0.0008282459457404912
2048.0,0.0005464351852424443
2304.0,0.0005517698591575027
2560.0,0.00013331319496501237
2816.0,0.00031479817698709667
3072.0,-1.5329644611483673e-06
3328.0,-0.0005655259592458606
3584.0,-0.0011479823151603341
3840.0,-0.000646158994641155
4096.0,-0.0005159457796253264
4608.0,0.0003295911883469671
5120.0,5.519622573046945e-05
5632.0,-0.00010562916577327996
6144.0,0.00023517708177678287
6656.0,-0.0002245183422928676
7168.0,0.0005011249450035393
7680.0,0.0008088674512691796
8192.0,-0.0002976739197038114
9216.0,-0.00038779547321610153
10240.0,6.850087174825603e-06
11264.0,-0.0006408262415789068
12288.0,-4.691474896389991e-05
13312.0,0.00037794801755808294
14336.0,0.00035157238016836345
end
