version,3.0
numOfCh,1
type,point
parent_name,1000-cuts
ch_type,1_1
kcount,1
numberNandB,1
brightnessNandB,1
carpet pos,0
pc,0
Time (ms),CH1 Auto-Correlation
1.0,0.02003408595919609
2.0,0.01843295618891716
3.0,0.016933510079979897
4.0,0.015560482628643513
5.0,0.014337966218590736
6.0,0.013200376182794571
7.0,0.012157535180449486
8.0,0.011195536702871323
9.0,0.01028609648346901
10.0,0.009423944167792797
11.0,0.008689179085195065
12.0,0.008013350889086723
13.0,0.0073828985914587975
14.0,0.006792251020669937
15.0,0.006214868742972612
16.0,0.0056388964876532555
18.0,0.004597299732267857
20.0,0.003865109058097005
22.0,0.0033100086729973555
24.0,0.0027835164219141006
26.0,0.0023319548927247524
28.0,0.0019213815685361624
30.0,0.0016699332045391202
32.0,0.0014174818061292171
36.0,0.0010810106759890914
40.0,0.0006112900446169078
44.0,0.0004474098968785256
48.0,0.000531664292793721
52.0,0.00047274676035158336
56.0,0.0003359491820447147
60.0,0.0002223330084234476
64.0,0.00011865798296639696
72.0,0.00013392565597314388
80.0,0.0002165964397136122
88.0,0.000261578505160287
96.0,0.0003105505893472582
104.0,-9.823888831306249e-05
112.0,-0.00041683827294036746
120.0,-0.00014322287461254746
128.0,0.00014494743663817644
144.0,0.0002887721930164844
160.0,-0.00015645514940842986
176.0,-0.0008028299198485911
192.0,-0.0003513375704642385
208.0,9.775814396562055e-05
224.0,-0.00020544990547932684
240.0,-0.0004897547187283635
256.0,-8.075833466136828e-05
288.0,0.0002779846836347133
320.0,-0.0002848452713806182
352.0,-0.000898882222827524
384.0,-0.0005710965488106012
416.0,6.940263119759038e-05
448.0,8.520418487023562e-05
480.0,0.0001653713989071548
512.0,-0.00022311482462100685
576.0,-0.0005369525169953704
640.0,-0.0005171670345589519
704.0,0.00017363576625939459
768.0,0.0007502337684854865
832.0,-0.0003408928751014173
896.0,-0.00035129740717820823
960.0,-0.0005038825911469758
1024.0,-0.0002667416410986334
1152.0,0.00010445375664858148
1280.0,-0.0002953305665869266
1408.0,-8.666899520903826e-05
1536.0,0.0001721157896099612
1664.0,-1.8380140318186022e-05
1792.0,-7.0801029323774856e-06
1920.0,0.00018713455938268453
2048.0,-4.877070023212582e-05
2304.0,0.0003577949246391654
2560.0,0.00030167351360432804
2816.0,-0.00021617201855406165
3072.0,-0.0003160098858643323
3328.0,9.553048130328534e-07
3584.0,0.0003049913502763957
3840.0,-0.0007338715367950499
4096.0,-6.209207640495151e-05
4608.0,-9.990794751502108e-06
5120.0,6.575012957910076e-05
5632.0,2.5737399482750334e-05
6144.0,-0.00030542179592885077
6656.0,4.070631257491186e-05
7168.0,-8.734677248867229e-05
7680.0,0.00015714461915194988
8192.0,0.0002691711997613311
9216.0,6.380674312822521e-05
10240.0,4.038298811792629e-06
11264.0,5.1663901103893295e-05
12288.0,-5.746948590967804e-05
13312.0,4.9806635615823325e-06
14336.0,4.417638774611987e-05
end
