version,3.0
numOfCh,1
type,point
parent_name,1000-cuts
ch_type,1_1
kcount,1
numberNandB,1
brightnessNandB,1
carpet pos,0
pc,0
Time (ms),CH1 Auto-Correlation
1.0,0.035366982221603394
2.0,0.03279135376214981
3.0,0.030470121651887894
4.0,0.028347164392471313
5.0,0.026310577988624573
6.0,0.024414323270320892
7.0,0.022582706063985825
8.0,0.020925171673297882
9.0,0.019376546144485474
10.0,0.018030500039458275
11.0,0.016824226826429367
12.0,0.01568605937063694
13.0,0.014665253460407257
14.0,0.013640936464071274
15.0,0.01272535789757967
16.0,0.011816386133432388
18.0,0.010222055949270725
20.0,0.008820471353828907
22.0,0.007585964631289244
24.0,0.006540303118526936
26.0,0.005567820742726326
28.0,0.0048010079190135
30.0,0.004220115952193737
32.0,0.00370769202709198
36.0,0.0030797389335930347
40.0,0.0024218533653765917
44.0,0.001961782807484269
48.0,0.0018127327784895897
52.0,0.0015659719938412309
56.0,0.0010050671407952905
60.0,0.0005103981238789856
64.0,0.00017788080731406808
72.0,-0.0006192523869685829
80.0,-0.0010904496302828193
88.0,-0.0013778831344097853
96.0,-0.0014507716987282038
104.0,-0.001670899335294962
112.0,-0.0010673652868717909
120.0,-0.0002627581125125289
128.0,0.0005318070179782808
144.0,0.0009509919327683747
160.0,0.0008679520688019693
176.0,0.000598259037360549
192.0,0.0005795007455162704
208.0,0.0005761715001426637
224.0,0.0007215479272417724
240.0,6.9763573264935985e-06
256.0,-0.0004997593350708485
288.0,0.00019461545161902905
320.0,0.0009195682941935956
352.0,-0.0007497299229726195
384.0,0.0004112434107810259
416.0,0.000619532773271203
448.0,0.0007134598563425243
480.0,-4.393927156343125e-05
512.0,0.0012320794630795717
576.0,0.0009073660476133227
640.0,0.0003815069794654846
704.0,0.0003033651446457952
768.0,-0.0003082017065025866
832.0,-0.00043890721281059086
896.0,-0.000740719260647893
960.0,0.0007440411136485636
1024.0,0.0007854319410398602
1152.0,1.911628532980103e-05
1280.0,-6.668371497653425e-05
1408.0,-0.0015393191715702415
1536.0,-0.001916926121339202
1664.0,-0.0001226934400619939
1792.0,0.000141952681588009
1920.0,-0.0008786673424765468
2048.0,0.000305277353618294
2304.0,-0.00032490165904164314
2560.0,-0.00022918279864825308
2816.0,0.0003894981637131423
3072.0,0.0005170676740817726
3328.0,-0.0007050874992273748
3584.0,0.0007305947365239263
3840.0,-0.0006541580660268664
4096.0,0.0003822817816399038
4608.0,-9.480142034590244e-05
5120.0,-0.0009963186457753181
5632.0,-6.632201257161796e-05
6144.0,0.00025273169740103185
6656.0,0.0006501026800833642
7168.0,0.0005897027440369129
7680.0,-0.00027727970154955983
8192.0,0.00013133622996974736
9216.0,2.842945650627371e-05
10240.0,-0.00016153129399754107
11264.0,-5.537967081181705e-05
12288.0,5.569271161220968e-05
13312.0,-2.7675308956531808e-05
14336.0,1.1985837772954255e-05
end
