version,3.0
numOfCh,1
type,point
parent_name,1000-cuts
ch_type,1_1
kcount,1
numberNandB,1
brightnessNandB,1
carpet pos,0
pc,0
Time (ms),CH1 Auto-Correlation
1.0,0.06193066015839577
2.0,0.05698937922716141
3.0,0.052471745759248734
4.0,0.048271581530570984
5.0,0.04439326748251915
6.0,0.040819376707077026
7.0,0.03751223906874657
8.0,0.03429929167032242
9.0,0.03142208233475685
10.0,0.028774045407772064
11.0,0.026229258626699448
12.0,0.023870360106229782
13.0,0.02165829949080944
14.0,0.01967901736497879
15.0,0.017882220447063446
16.0,0.016194960102438927
18.0,0.013356894254684448
20.0,0.01075570285320282
22.0,0.008554703556001186
24.0,0.006446214392781258
26.0,0.004902683664113283
28.0,0.003786984598264098
30.0,0.0029250402003526688
32.0,0.0022826509084552526
36.0,0.0018181472551077604
40.0,0.001561868586577475
44.0,0.001340531394816935
48.0,0.0014614500105381012
52.0,0.0013933905865997076
56.0,0.0012271315790712833
60.0,0.0013946853578090668
64.0,0.0014113503275439143
72.0,0.0015467191115021706
80.0,0.0010664525907486677
88.0,-0.00040193775203078985
96.0,-0.001262250472791493
104.0,-0.0017418493516743183
112.0,-0.0012164340587332845
120.0,-0.0014245249330997467
128.0,-0.001977286534383893
144.0,-0.0020991272758692503
160.0,-0.00209295772947371
176.0,-0.001916800974868238
192.0,0.0007054098532535136
208.0,0.0012673350283876061
224.0,0.00024046169710345566
240.0,-6.940113962627947e-06
256.0,0.0013496986357495189
288.0,0.0006726713036186993
320.0,0.0007851189002394676
352.0,0.0010748803615570068
384.0,0.0006318852538242936
416.0,-0.001286342623643577
448.0,-0.0017597454134374857
480.0,-0.0010408564703539014
512.0,-0.0003587630926631391
576.0,0.0027165620122104883
640.0,0.0023092380724847317
704.0,-0.0013651440385729074
768.0,-0.0009353108471259475
832.0,-0.0005084702861495316
896.0,0.0028938613831996918
960.0,-0.0007999710505828261
1024.0,-0.002391012152656913
1152.0,0.0017692873952910304
1280.0,0.00028435775311663747
1408.0,0.0003555640287231654
1536.0,0.0007719033164903522
1664.0,0.0007578376098535955
1792.0,0.0011533915530890226
1920.0,-0.001682674395851791
2048.0,0.0002697969030123204
2304.0,-0.0009264390682801604
2560.0,-0.0006019118591211736
2816.0,-0.0008321611676365137
3072.0,-0.0008119940757751465
3328.0,-0.0006226021214388311
3584.0,-0.0011387867853045464
3840.0,0.0001788271765690297
4096.0,-0.0010400873143225908
4608.0,-0.0005568964988924563
5120.0,0.0002642981708049774
5632.0,-0.0003869230567943305
6144.0,-0.00034678608062677085
6656.0,0.0010469747940078378
7168.0,-0.00014009840379003435
7680.0,-6.475224654423073e-05
8192.0,0.0006661547813564539
9216.0,0.00010236970410915092
10240.0,-0.0007970254519023001
11264.0,-0.0004710036446340382
12288.0,0.0009275617776438594
13312.0,0.0007849598187021911
14336.0,-0.00034849237999878824
end
