version,3.0
numOfCh,1
type,point
parent_name,1000-cuts
ch_type,1_1
kcount,1
numberNandB,1
brightnessNandB,1
carpet pos,0
pc,0
Time (ms),CH1 Auto-Correlation
1.0,0.02283276990056038
2.0,0.021117597818374634
3.0,0.01954738236963749
4.0,0.018113458529114723
5.0,0.016788288950920105
6.0,0.015553954988718033
7.0,0.01438718382269144
8.0,0.01333072129637003
9.0,0.012393699958920479
10.0,0.011578305624425411
11.0,0.010827801190316677
12.0,0.010134351439774036
13.0,0.009455792605876923
14.0,0.008852533996105194
15.0,0.008273412473499775
16.0,0.007721245754510164
18.0,0.006821001414209604
20.0,0.006019615102559328
22.0,0.005260393023490906
24.0,0.004615826066583395
26.0,0.004147659987211227
28.0,0.003699694061651826
30.0,0.0032558429520577192
32.0,0.002821729751303792
36.0,0.0021987087093293667
40.0,0.0017747115343809128
44.0,0.0014498370001092553
48.0,0.0012490293011069298
52.0,0.0010582442628219724
56.0,0.0007833263953216374
60.0,0.0003607308608479798
64.0,5.041843178332783e-05
72.0,4.095377880730666e-05
80.0,-0.000293865567073226
88.0,-0.000862564891576767
96.0,-0.0006853232625871897
104.0,-0.00036934754461981356
112.0,-0.0002892008633352816
120.0,-0.0003897756396327168
128.0,-0.0006991714471951127
144.0,-0.0007976565393619239
160.0,-0.0004023832443635911
176.0,-0.00035146911977790296
192.0,-0.0006420470890589058
208.0,-0.0001084524774341844
224.0,0.0011002065148204565
240.0,0.0016329718055203557
256.0,0.0012827672762796283
288.0,0.0007959861541166902
320.0,0.0005841098027303815
352.0,0.0006616759928874671
384.0,-0.0004648956237360835
416.0,-0.0006360545521602035
448.0,-0.00015195246669463813
480.0,0.0008486208389513195
512.0,0.0007430803962051868
576.0,0.00021175917936488986
640.0,-0.0010143981780856848
704.0,-0.0007124579278752208
768.0,0.00039657700108364224
832.0,0.0006375249940901995
896.0,-0.0003373639192432165
960.0,0.00017065640713553876
1024.0,-9.998558380175382e-05
1152.0,0.0003861576842609793
1280.0,0.0005644031334668398
1408.0,-6.326034781523049e-05
1536.0,0.0003080955648329109
1664.0,0.0007587941945530474
1792.0,0.00023038401559460908
1920.0,-0.00045201825560070574
2048.0,0.0011181223671883345
2304.0,6.563834176631644e-05
2560.0,0.00028728332836180925
2816.0,9.364536526845768e-05
3072.0,-0.00019040664483327419
3328.0,0.00025063531938940287
3584.0,-0.00016768966452218592
3840.0,-4.837872620555572e-05
4096.0,-0.0003425769100431353
4608.0,-4.9782996939029545e-05
5120.0,0.00020680358284153044
5632.0,-0.00032139496761374176
6144.0,0.00029693133546970785
6656.0,-0.0004591322795022279
7168.0,-0.0005437972140498459
7680.0,-4.780054496222874e-06
8192.0,-0.00039081956492736936
9216.0,-0.0006190150161273777
10240.0,-0.0002485139120835811
11264.0,-5.212633823248325e-06
12288.0,0.00011542993888724595
13312.0,0.00012832337233703583
14336.0,0.00011808651470346376
end
