version,3.0
numOfCh,1
type,point
parent_name,1000-cuts
ch_type,1_1
kcount,1
numberNandB,1
brightnessNandB,1
carpet pos,0
pc,0
Time (ms),CH1 Auto-Correlation
1.0,0.06848009675741196
2.0,0.06300634145736694
3.0,0.05790642276406288
4.0,0.053336601704359055
5.0,0.04921156167984009
6.0,0.0455840528011322
7.0,0.042292311787605286
8.0,0.0392020009458065
9.0,0.036486975848674774
10.0,0.03393087163567543
11.0,0.03146154060959816
12.0,0.029232192784547806
13.0,0.027171602472662926
14.0,0.025190051645040512
15.0,0.023253027349710464
16.0,0.0213271826505661
18.0,0.017650127410888672
20.0,0.014393901452422142
22.0,0.011518038809299469
24.0,0.009394642896950245
26.0,0.00776592968031764
28.0,0.006517994217574596
30.0,0.005609199404716492
32.0,0.004838468972593546
36.0,0.0031746167223900557
40.0,0.0020197953563183546
44.0,0.0015674103051424026
48.0,0.0015413801884278655
52.0,0.0020562689751386642
56.0,0.0023478895891457796
60.0,0.0017169759375974536
64.0,0.001089115277864039
72.0,-0.0006679342477582395
80.0,-0.0017720699543133378
88.0,-0.0010867470409721136
96.0,0.0004640239349100739
104.0,0.0015351971378549933
112.0,0.0014485542196780443
120.0,0.0008983175503090024
128.0,-0.0012649717973545194
144.0,-0.0031482873018831015
160.0,0.00013529841089621186
176.0,-0.00015542373876087368
192.0,-0.0016521645011380315
208.0,-0.0007082668016664684
224.0,0.00039103860035538673
240.0,-1.2688691640505567e-05
256.0,0.0008134057861752808
288.0,-0.00011010128946509212
320.0,0.001016624621115625
352.0,0.0006763357669115067
384.0,0.0021494003012776375
416.0,0.0005690829711966217
448.0,-0.0008738653850741684
480.0,0.004170005675405264
512.0,0.0031402441672980785
576.0,-0.00396079383790493
640.0,-0.001095255953259766
704.0,-0.001685492810793221
768.0,0.001388531643897295
832.0,0.0016725300811231136
896.0,0.0017581074498593807
960.0,-0.0006709951558150351
1024.0,-0.0027436744421720505
1152.0,3.080417445744388e-05
1280.0,7.396595174213871e-05
1408.0,-0.0007381824543699622
1536.0,-0.0024135522544384003
1664.0,0.0006404385203495622
1792.0,-0.00046251394087448716
1920.0,-0.0004389503737911582
2048.0,0.00020702702749986202
2304.0,0.0005053430795669556
2560.0,0.0010323971509933472
2816.0,0.0002524584415368736
3072.0,0.0002893000782933086
3328.0,0.0008835761691443622
3584.0,0.0007005746010690928
3840.0,0.0004199859104119241
4096.0,-0.0004859549808315933
4608.0,-0.0011640415759757161
5120.0,0.0003663495590444654
5632.0,-0.00011916458606719971
6144.0,-0.0002088715846184641
6656.0,-0.0011611843947321177
7168.0,-0.0007841541664674878
7680.0,0.0016740486025810242
8192.0,-0.0002547103213146329
9216.0,-0.0012708947760984302
10240.0,0.0003245511616114527
11264.0,0.00020261129247955978
12288.0,-0.0005883717094548047
13312.0,-3.864736208925024e-05
14336.0,0.0007024708902463317
end
