version,3.0
numOfCh,1
type,point
parent_name,1000-cuts
ch_type,1_1
kcount,1
numberNandB,1
brightnessNandB,1
carpet pos,0
pc,0
Time (ms),CH1 Auto-Correlation
1.0,0.07784143090248108
2.0,0.07281439751386642
3.0,0.06803043931722641
4.0,0.06343133002519608
5.0,0.05928763374686241
6.0,0.05534378066658974
7.0,0.051634252071380615
8.0,0.04817947745323181
9.0,0.045047830790281296
10.0,0.0421728789806366
11.0,0.03954055905342102
12.0,0.03703984245657921
13.0,0.034713879227638245
14.0,0.032581038773059845
15.0,0.030506957322359085
16.0,0.0286937914788723
18.0,0.0253987368196249
20.0,0.022540420293807983
22.0,0.02000593952834606
24.0,0.01769275963306427
26.0,0.015782056376338005
28.0,0.014039563946425915
30.0,0.012368068099021912
32.0,0.011140095070004463
36.0,0.00893204752355814
40.0,0.007471516262739897
44.0,0.006102374754846096
48.0,0.0055309380404651165
52.0,0.005809304770082235
56.0,0.005745875649154186
60.0,0.004913759883493185
64.0,0.004529733210802078
72.0,0.00287401070818305
80.0,0.0010775156551972032
88.0,0.0005190130905248225
96.0,0.0005423558177426457
104.0,0.00029706661007367074
112.0,-0.00039250144618563354
120.0,-0.0002498305111657828
128.0,-0.0004038081970065832
144.0,-0.0012158218305557966
160.0,-0.000398191245039925
176.0,0.0003013920213561505
192.0,1.1489895769045688e-05
208.0,0.0009410411585122347
224.0,0.002415789058431983
240.0,0.0029084000270813704
256.0,0.0022910276893526316
288.0,0.00415701512247324
320.0,0.0001456211321055889
352.0,-0.00032719256705604494
384.0,-0.0009961144533008337
416.0,-0.006032670848071575
448.0,-0.004380634054541588
480.0,-0.003097345819696784
512.0,-0.00027447391767054796
576.0,-0.0011860040249302983
640.0,-0.003950879909098148
704.0,-0.0008825359982438385
768.0,0.0022990675643086433
832.0,0.0002936140226665884
896.0,-0.0034164420794695616
960.0,-0.0009724689298309386
1024.0,0.0008853956824168563
1152.0,-0.0018872221698984504
1280.0,-0.0010996452765539289
1408.0,0.0013133141910657287
1536.0,0.0008721197373233736
1664.0,0.0010415869764983654
1792.0,0.00040078817983157933
1920.0,0.0001213669020216912
2048.0,0.0010351479286327958
2304.0,-0.001028729951940477
2560.0,-0.0013889857800677419
2816.0,0.001614440348930657
3072.0,0.0012906714109703898
3328.0,0.00019767621415667236
3584.0,0.0008655606070533395
3840.0,-0.0009867394110187888
4096.0,-0.0009694794425740838
4608.0,0.00047474823077209294
5120.0,-0.0001615103828953579
5632.0,-0.000504187832120806
6144.0,-0.0011225090129300952
6656.0,-0.0012243627570569515
7168.0,-0.001004623482003808
7680.0,0.0017606556648388505
8192.0,-0.0010033302241936326
9216.0,-0.0002980701101478189
10240.0,-0.00021453291992656887
11264.0,0.00025464227655902505
12288.0,0.0005119229899719357
13312.0,0.00028180761728435755
14336.0,-0.00011169211938977242
end
