version,3.0
numOfCh,1
type,point
parent_name,1000-cuts
ch_type,1_1
kcount,1
numberNandB,1
brightnessNandB,1
carpet pos,0
pc,0
Time (ms),CH1 Auto-Correlation
1.0,0.039379946887493134
2.0,0.03650187328457832
3.0,0.033882398158311844
4.0,0.031402088701725006
5.0,0.029036590829491615
6.0,0.02695768140256405
7.0,0.024950148537755013
8.0,0.023140747100114822
9.0,0.02159268409013748
10.0,0.02017129771411419
11.0,0.018880266696214676
12.0,0.01770772784948349
13.0,0.016641533002257347
14.0,0.015714887529611588
15.0,0.01479683443903923
16.0,0.013943326659500599
18.0,0.012349744327366352
20.0,0.010657873004674911
22.0,0.009083939716219902
24.0,0.007732561323791742
26.0,0.006550962571054697
28.0,0.0055101048201322556
30.0,0.004626328591257334
32.0,0.00396868959069252
36.0,0.003025031415745616
40.0,0.0021779618691653013
44.0,0.0014786998508498073
48.0,0.0007652504136785865
52.0,0.0005346918478608131
56.0,0.00027185658109374344
60.0,-0.00024279682838823646
64.0,-0.0009319050586782396
72.0,-0.0011753313010558486
80.0,-0.0007755032274872065
88.0,0.00020401866640895605
96.0,0.0008610294316895306
104.0,0.0006538103916682303
112.0,0.0003971642872784287
120.0,0.00022729224292561412
128.0,-2.920743781942292e-06
144.0,0.0004142888938076794
160.0,0.0005090947961434722
176.0,0.0004873267898801714
192.0,0.0011509606847539544
208.0,0.0012215998722240329
224.0,-0.00016381352907046676
240.0,-0.0007652851054444909
256.0,-0.0005548500921577215
288.0,-0.0003655130276456475
320.0,4.939157224725932e-05
352.0,0.0006363732391037047
384.0,-0.0006481450982391834
416.0,-0.001413080026395619
448.0,-0.0007412881241180003
480.0,0.0011899707606062293
512.0,0.0018188743852078915
576.0,0.0005761022912338376
640.0,0.0013619675301015377
704.0,0.0006390608032234013
768.0,-0.0007599425734952092
832.0,0.0004032661090604961
896.0,-0.0021514042746275663
960.0,-0.0009026604820974171
1024.0,0.00045698852045461535
1152.0,-0.00045919325202703476
1280.0,-0.0006156853050924838
1408.0,-0.0013224153080955148
1536.0,-0.0023267860524356365
1664.0,7.711380021646619e-05
1792.0,-6.725856655975804e-05
1920.0,-0.00043819384882226586
2048.0,-0.0012033504899591208
2304.0,0.0016333541134372354
2560.0,0.00011036067735403776
2816.0,-0.00013287502224557102
3072.0,0.0007193766650743783
3328.0,-0.0009921523742377758
3584.0,0.0003793631331063807
3840.0,-0.001916371169500053
4096.0,-3.316637594252825e-05
4608.0,-0.0002828922588378191
5120.0,0.00034186814446002245
5632.0,0.0006371401250362396
6144.0,2.04381431103684e-05
6656.0,0.00017771169950719923
7168.0,-0.0002822972019203007
7680.0,0.00033782163518480957
8192.0,-0.000783247931394726
9216.0,0.00023445177066605538
10240.0,0.0001091266967705451
11264.0,-0.00014320819173008204
12288.0,0.00041422515641897917
13312.0,-0.00026449430151842535
14336.0,-0.00012066263298038393
end
