version,3.0
numOfCh,1
type,point
parent_name,1000-cuts
ch_type,1_1
kcount,1
numberNandB,1
brightnessNandB,1
carpet pos,0
pc,0
Time (ms),CH1 Auto-Correlation
1.0,0.06824097037315369
2.0,0.06293259561061859
3.0,0.0580681674182415
4.0,0.05351375788450241
5.0,0.049217626452445984
6.0,0.04530741274356842
7.0,0.0416172556579113
8.0,0.038067325949668884
9.0,0.034760501235723495
10.0,0.03190755099058151
11.0,0.029251916334033012
12.0,0.026786377653479576
13.0,0.02437080815434456
14.0,0.022024108096957207
15.0,0.0197664275765419
16.0,0.017701009288430214
18.0,0.014278641901910305
20.0,0.011488081887364388
22.0,0.00912032276391983
24.0,0.006924118380993605
26.0,0.004957546480000019
28.0,0.0032592443749308586
30.0,0.0020316457375884056
32.0,0.0011306460946798325
36.0,0.00015233849990181625
40.0,-0.00040126306703314185
44.0,-0.0007036800961941481
48.0,-0.0007415552390739322
52.0,-0.001368133001960814
56.0,-0.0021699487697333097
60.0,-0.002159559866413474
64.0,-0.0023061910178512335
72.0,-0.0030938282143324614
80.0,-0.003581536700949073
88.0,-0.003755033714696765
96.0,-0.0034183161333203316
104.0,-0.0034553264267742634
112.0,-0.004013366065919399
120.0,-0.002975315786898136
128.0,-0.0011397725902497768
144.0,-0.0007012980058789253
160.0,0.0005245755310170352
176.0,0.0023142490535974503
192.0,0.002694113180041313
208.0,0.0027292403392493725
224.0,0.0018545397324487567
240.0,-0.0003776521189138293
256.0,0.0003025879559572786
288.0,-0.0004775247070938349
320.0,-0.00020713267440441996
352.0,0.0007799934828653932
384.0,0.0015672622248530388
416.0,0.0004024538502562791
448.0,-0.0013686323072761297
480.0,-0.0013484323862940073
512.0,0.0009854079689830542
576.0,0.0009221243089996278
640.0,-0.00223219720646739
704.0,-0.0009542619227431715
768.0,0.0005300499033182859
832.0,0.0010247891768813133
896.0,-0.0028364842291921377
960.0,-0.0006327603477984667
1024.0,0.0021063825115561485
1152.0,0.000683775928337127
1280.0,0.0016818749718368053
1408.0,0.00040151237044483423
1536.0,0.0014134068042039871
1664.0,-0.0010630020406097174
1792.0,0.0007626175065524876
1920.0,-0.0002810576988849789
2048.0,-7.564827683381736e-05
2304.0,-0.0002476040390320122
2560.0,0.0006266491254791617
2816.0,-0.00016399496234953403
3072.0,-0.0006258293287828565
3328.0,-0.0011599118588492274
3584.0,-9.469404903938994e-05
3840.0,-0.0002564042224548757
4096.0,-0.0001289517676923424
4608.0,-0.00027228143881075084
5120.0,-0.0004891035496257246
5632.0,0.0002046085282927379
6144.0,-8.461475954391062e-05
6656.0,0.00030162950861267745
7168.0,-0.00018800543330144137
7680.0,-0.0005680279573425651
8192.0,-0.0002354071184527129
9216.0,5.9784611948998645e-05
10240.0,0.0002146494953194633
11264.0,0.0001798497833078727
12288.0,-0.0004070374125149101
13312.0,-0.0004504243843257427
14336.0,-0.0001101445741369389
end
