version,3.0
numOfCh,1
type,point
parent_name,1000-cuts
ch_type,1_1
kcount,1
numberNandB,1
brightnessNandB,1
carpet pos,0
pc,0
Time (ms),CH1 Auto-Correlation
1.0,0.020424548536539078
2.0,0.018757136538624763
3.0,0.01720431074500084
4.0,0.01577669382095337
5.0,0.014477361924946308
6.0,0.013317039236426353
7.0,0.012260379269719124
8.0,0.011308649554848671
9.0,0.010449321009218693
10.0,0.009640922769904137
11.0,0.008900044485926628
12.0,0.008267553523182869
13.0,0.007679677102714777
14.0,0.007120934780687094
15.0,0.006600820925086737
16.0,0.006121581885963678
18.0,0.005258478689938784
20.0,0.004571844357997179
22.0,0.004073446150869131
24.0,0.0036166063509881496
26.0,0.0032213132362812757
28.0,0.0028171332087367773
30.0,0.0023721172474324703
32.0,0.001976185943931341
36.0,0.001503022969700396
40.0,0.0011479437816888094
44.0,0.00103935191873461
48.0,0.0009886851767078042
52.0,0.0009199688211083412
56.0,0.0009322476689703763
60.0,0.0007990645244717598
64.0,0.0005270299152471125
72.0,7.394100975943729e-05
80.0,-0.00010463829676155001
88.0,-0.00015111648826859891
96.0,-0.0002245541982119903
104.0,-0.0002129779604729265
112.0,1.764115040714387e-05
120.0,5.72965873288922e-05
128.0,-0.00012759504897985607
144.0,-0.00031878516892902553
160.0,-0.0001465194800402969
176.0,-0.0005818749777972698
192.0,-0.0007317172130569816
208.0,-0.0008892060723155737
224.0,-0.0010779198491945863
240.0,-0.0010356830898672342
256.0,-0.00039795463089831173
288.0,7.445895607816055e-05
320.0,-0.00015390932094305754
352.0,0.0004940759390592575
384.0,0.0011534200748428702
416.0,0.0006880509899929166
448.0,-0.00013987893180456012
480.0,-0.00046442216262221336
512.0,3.8738016883144155e-05
576.0,-0.00010791981912916526
640.0,0.00010493746231077239
704.0,-0.0002963557781185955
768.0,-0.0004221986746415496
832.0,2.4314682377735153e-05
896.0,-3.762565756915137e-05
960.0,-0.0008652235846966505
1024.0,-8.322539360960945e-05
1152.0,-5.817304918309674e-05
1280.0,0.00036666050436906517
1408.0,3.661379378172569e-05
1536.0,-0.0003189129929523915
1664.0,-0.00024311145534738898
1792.0,0.0003930002567358315
1920.0,-0.00035226225736550987
2048.0,-0.00022748536139260978
2304.0,-0.0001973235048353672
2560.0,-0.00015086022904142737
2816.0,-0.00021449968335218728
3072.0,-2.991583642142359e-05
3328.0,0.0006487013888545334
3584.0,0.00034794307430274785
3840.0,-0.00031096700695343316
4096.0,-8.350257121492177e-05
4608.0,0.0002317051839781925
5120.0,-0.00012894558312837034
5632.0,4.282984491510433e-07
6144.0,-0.0004424602957442403
6656.0,5.8881887525785714e-05
7168.0,4.8146081098821014e-05
7680.0,-0.0001783869811333716
8192.0,9.227966802427545e-05
9216.0,8.303914364660159e-05
10240.0,-0.00016470448463223875
11264.0,8.654505654703826e-05
12288.0,0.00021696893963962793
13312.0,-6.683833635179326e-05
14336.0,-0.0002748386177700013
end
