version,3.0
numOfCh,1
type,point
parent_name,1000-cuts
ch_type,1_1
kcount,1
numberNandB,1
brightnessNandB,1
carpet pos,0
pc,0
Time (ms),CH1 Auto-Correlation
1.0,0.0179353766143322
2.0,0.016626708209514618
3.0,0.015402715653181076
4.0,0.014239223673939705
5.0,0.013091277331113815
6.0,0.012047206982970238
7.0,0.011060009710490704
8.0,0.010160714387893677
9.0,0.00934886559844017
10.0,0.008588403463363647
11.0,0.007900158874690533
12.0,0.007292565889656544
13.0,0.006731618661433458
14.0,0.006187436170876026
15.0,0.0056595089845359325
16.0,0.005209669936448336
18.0,0.004451665095984936
20.0,0.003771676914766431
22.0,0.0031754414085298777
24.0,0.002615894190967083
26.0,0.0021107580978423357
28.0,0.0016524028033018112
30.0,0.0012384060537442565
32.0,0.000873073935508728
36.0,0.00021479139104485512
40.0,-0.00027665356174111366
44.0,-0.0006184586090967059
48.0,-0.0008628653595224023
52.0,-0.0010033658472821116
56.0,-0.0010155753698199987
60.0,-0.0009157328750006855
64.0,-0.0008177243289537728
72.0,-0.0006149125401861966
80.0,-0.0005339756025932729
88.0,-0.0007200666586868465
96.0,-0.0007800544844940305
104.0,-0.0004406343796290457
112.0,5.523677100427449e-05
120.0,0.0006054110708646476
128.0,0.0009062283206731081
144.0,0.0003345708828419447
160.0,4.3148393160663545e-05
176.0,0.0002504996955394745
192.0,0.00037122031790204346
208.0,0.00018376513617113233
224.0,-4.5036416850052774e-05
240.0,6.305200804490596e-05
256.0,-0.0004062232910655439
288.0,-1.8970336896018125e-05
320.0,0.0005712064448744059
352.0,0.0005567611660808325
384.0,0.0004861128982156515
416.0,-4.657584213418886e-06
448.0,-5.9054549637949094e-05
480.0,0.0004097239288967103
512.0,0.000612077594269067
576.0,-0.0006132176495157182
640.0,0.0003829866764135659
704.0,0.0007804408087395132
768.0,-0.0004252455837558955
832.0,-0.00042661631596274674
896.0,-0.000162393698701635
960.0,-0.0002503523719497025
1024.0,5.8591878769220784e-05
1152.0,1.5483135939575732e-05
1280.0,-0.00038839425542391837
1408.0,-0.0004840064502786845
1536.0,-0.0004553950857371092
1664.0,-0.0003299277159385383
1792.0,6.167637184262276e-05
1920.0,-0.00010030395787907764
2048.0,1.4469710549747106e-05
2304.0,0.00043629074934870005
2560.0,0.00017503913841210306
2816.0,-3.4341578611929435e-06
3072.0,0.0004516527405939996
3328.0,-4.8204321501543745e-05
3584.0,9.949434752343222e-05
3840.0,-0.00035088747972622514
4096.0,-2.7912153655051952e-06
4608.0,1.6226746311076568e-06
5120.0,2.0772753487108275e-05
5632.0,4.3436964915599674e-05
6144.0,-0.00010441448830533773
6656.0,0.00024232632131315768
7168.0,5.334637171472423e-05
7680.0,8.611204975750297e-05
8192.0,-0.00039843787089921534
9216.0,-0.00010706908506108448
10240.0,0.00013687052705790848
11264.0,-0.0004833147977478802
12288.0,0.00023089504975359887
13312.0,0.00011536171223269776
14336.0,-0.0005939740804024041
end
