version,3.0
numOfCh,1
type,point
parent_name,1000-cuts
ch_type,1_1
kcount,1
numberNandB,1
brightnessNandB,1
carpet pos,0
pc,0
Time (ms),CH1 Auto-Correlation
1.0,0.0289242472499609
2.0,0.026779014617204666
3.0,0.024769695475697517
4.0,0.02294226549565792
5.0,0.021272333338856697
6.0,0.019746098667383194
7.0,0.018311580643057823
8.0,0.0170130617916584
9.0,0.01581849344074726
10.0,0.014677558094263077
11.0,0.013634422793984413
12.0,0.012669961899518967
13.0,0.01181256864219904
14.0,0.011086867190897465
15.0,0.01042584702372551
16.0,0.009769590571522713
18.0,0.008538373745977879
20.0,0.007291143294423819
22.0,0.00615573488175869
24.0,0.005158259533345699
26.0,0.004116831813007593
28.0,0.0032803767826408148
30.0,0.002654352691024542
32.0,0.0022067753598093987
36.0,0.0016801789170131087
40.0,0.0015445882454514503
44.0,0.001436691265553236
48.0,0.00107827119063586
52.0,0.0008870516903698444
56.0,0.0011389685096219182
60.0,0.0016512570437043905
64.0,0.0020506014116108418
72.0,0.0020900731906294823
80.0,0.0012692660093307495
88.0,0.0004898596671409905
96.0,-0.00011778883344959468
104.0,-0.000559719221200794
112.0,-0.001458009472116828
120.0,-0.0019259039545431733
128.0,-0.0019359459402039647
144.0,-0.001967228017747402
160.0,-0.0014021338429301977
176.0,-0.0013506218092516065
192.0,-0.0002771905274130404
208.0,0.0005600026925094426
224.0,0.0011104895966127515
240.0,0.00017682957695797086
256.0,-0.0006414707750082016
288.0,7.740312139503658e-05
320.0,-7.553730392828584e-05
352.0,-0.0004741396987810731
384.0,8.769760461291298e-05
416.0,0.0002773297601379454
448.0,-9.856467659119517e-05
480.0,0.0017250524833798409
512.0,0.0009410919155925512
576.0,0.0005261983606033027
640.0,0.00022189163428265601
704.0,-1.440413689124398e-05
768.0,-0.001325835008174181
832.0,-0.00016288300685118884
896.0,0.0011833838652819395
960.0,-2.8386046324158087e-05
1024.0,0.000285604503005743
1152.0,0.0008326751994900405
1280.0,0.00038011863944120705
1408.0,0.000384132144972682
1536.0,0.0003054376575164497
1664.0,-0.00046515456051565707
1792.0,0.0005416789790615439
1920.0,-0.0002951830974780023
2048.0,-1.2413974218361545e-05
2304.0,-7.931934669613838e-05
2560.0,-0.00019218343368265778
2816.0,-5.016813884139992e-05
3072.0,-5.7203840697184205e-05
3328.0,0.00020531575137283653
3584.0,-9.199533815262839e-05
3840.0,0.0001652351493248716
4096.0,-0.0009148839162662625
4608.0,0.00046971678966656327
5120.0,0.0001903988013509661
5632.0,-6.901706365169957e-05
6144.0,0.00027242317446507514
6656.0,-0.00041796392179094255
7168.0,-0.00043558370089158416
7680.0,1.1793944167948212e-06
8192.0,-0.0006665444234386086
9216.0,-0.00012998635065741837
10240.0,-0.0001129542215494439
11264.0,-0.0001748743379721418
12288.0,-0.0001555511844344437
13312.0,6.226121331565082e-05
14336.0,-2.012870209000539e-05
end
