version,3.0
numOfCh,1
type,point
parent_name,1000-cuts
ch_type,1_1
kcount,1
numberNandB,1
brightnessNandB,1
carpet pos,0
pc,0
Time (ms),CH1 Auto-Correlation
1.0,0.034260343760252
2.0,0.03167575225234032
3.0,0.02923400141298771
4.0,0.02700853906571865
5.0,0.024971485137939453
6.0,0.023070624098181725
7.0,0.021348407492041588
8.0,0.01973157748579979
9.0,0.0182697381824255
10.0,0.016955433413386345
11.0,0.015791432932019234
12.0,0.014816557988524437
13.0,0.013842867687344551
14.0,0.012945013120770454
15.0,0.012101697735488415
16.0,0.01133894082158804
18.0,0.009978191927075386
20.0,0.008691546507179737
22.0,0.007529205642640591
24.0,0.006435316987335682
26.0,0.005471432115882635
28.0,0.004780431743711233
30.0,0.004332527983933687
32.0,0.003923248499631882
36.0,0.0035029032733291388
40.0,0.003252947237342596
44.0,0.0032397203613072634
48.0,0.0031639826484024525
52.0,0.002981508383527398
56.0,0.0026059162337332964
60.0,0.0022854297421872616
64.0,0.0020114355720579624
72.0,0.0013891166308894753
80.0,0.0009537538862787187
88.0,0.0006813709624111652
96.0,9.802843851502985e-05
104.0,1.609697937965393e-05
112.0,0.00022121450456324965
120.0,0.0004503530217334628
128.0,0.0001277594274142757
144.0,-0.00021980135352350771
160.0,-2.6448149583302438e-05
176.0,-4.986529529560357e-05
192.0,0.0011054936330765486
208.0,0.0012711755698546767
224.0,0.0004284204915165901
240.0,-0.0004182983248028904
256.0,-0.0007833001436665654
288.0,-0.0008353025186806917
320.0,-0.0009133702260442078
352.0,-0.001747908303514123
384.0,-0.00033995509147644043
416.0,-0.0012084769550710917
448.0,-0.0004973088507540524
480.0,0.0012524471385404468
512.0,0.0019241609843447804
576.0,0.000384521292289719
640.0,-0.00029369560070335865
704.0,0.0010090549476444721
768.0,-0.0003406053874641657
832.0,-0.0012314865598455071
896.0,-0.0007516605546697974
960.0,-0.0006371221970766783
1024.0,-0.0008144521270878613
1152.0,-0.0007265501189976931
1280.0,-0.0010980074293911457
1408.0,0.0004360557650215924
1536.0,-0.0003761082189157605
1664.0,-0.00020729481184389442
1792.0,-0.0005347257247194648
1920.0,0.00048795054317452013
2048.0,0.0010698680998757482
2304.0,0.0008459579548798501
2560.0,-0.0001849854743340984
2816.0,0.0008610078366473317
3072.0,-0.0017806031974032521
3328.0,-0.001006177393719554
3584.0,-0.0003313933848403394
3840.0,-0.000345290289260447
4096.0,0.0008653440163470805
4608.0,0.00015261078078765422
5120.0,1.8497954442864284e-05
5632.0,-0.0012112564872950315
6144.0,0.0005330925341695547
6656.0,0.0008982396102510393
7168.0,-0.0013017114251852036
7680.0,-0.00042528362246230245
8192.0,0.00023958271776791662
9216.0,-0.00020038255024701357
10240.0,0.00039485638262704015
11264.0,-0.0006100410246290267
12288.0,-0.0003373499494045973
13312.0,0.00019543706730473787
14336.0,0.00047596567310392857
end
