version,3.0
numOfCh,1
type,point
parent_name,1000-cuts
ch_type,1_1
kcount,1
numberNandB,1
brightnessNandB,1
carpet pos,0
pc,0
Time (ms),CH1 Auto-Correlation
1.0,0.02047394961118698
2.0,0.01893765665590763
3.0,0.017519855871796608
4.0,0.01617596670985222
5.0,0.014950144104659557
6.0,0.013821889646351337
7.0,0.01276078075170517
8.0,0.01173238456249237
9.0,0.010772695764899254
10.0,0.00987949501723051
11.0,0.00907895714044571
12.0,0.008339685387909412
13.0,0.007653396110981703
14.0,0.0070122843608260155
15.0,0.00641296710819006
16.0,0.005883525125682354
18.0,0.0049859206192195415
20.0,0.0042241718620061874
22.0,0.0035430481657385826
24.0,0.0030497219413518906
26.0,0.0026380496565252542
28.0,0.0022261289414018393
30.0,0.00183395529165864
32.0,0.0014696493744850159
36.0,0.0010064535308629274
40.0,0.0008153358940035105
44.0,0.0007558907382190228
48.0,0.0008224548655562103
52.0,0.0008335429010912776
56.0,0.0006047151982784271
60.0,0.0004311787197366357
64.0,0.000283453002339229
72.0,0.0003608860424719751
80.0,0.0006047404021956027
88.0,0.0006081040482968092
96.0,0.0008588602067902684
104.0,0.000834678125102073
112.0,0.0005895518115721643
120.0,0.0007667128811590374
128.0,0.0009480587905272841
144.0,0.0005517504760064185
160.0,-5.107290689920774e-06
176.0,-0.00011880231613758951
192.0,0.0005736251478083432
208.0,0.0006178776384331286
224.0,0.0006952449330128729
240.0,0.00038252887316048145
256.0,0.00030902179423719645
288.0,0.00040792423533275723
320.0,0.0004321974120102823
352.0,0.00045840471284464
384.0,0.0006304975831881166
416.0,0.0005847879219800234
448.0,0.0004987235879525542
480.0,0.0005223763291724026
512.0,-0.0003307778388261795
576.0,-0.00019183044787496328
640.0,0.0005821853410452604
704.0,0.00028735544765368104
768.0,-0.0005304872174747288
832.0,-0.00024720680085010827
896.0,-0.0007587966974824667
960.0,-0.0001821427431423217
1024.0,-0.0005144763854332268
1152.0,-0.0003071372047998011
1280.0,0.00021651617134921253
1408.0,-7.657433161512017e-05
1536.0,-0.00031203028629533947
1664.0,-0.0015013712691143155
1792.0,-0.00019049974798690528
1920.0,-0.00014171464135870337
2048.0,-0.00021688282140530646
2304.0,-0.00022002698096912354
2560.0,0.0003535378200467676
2816.0,1.8431111357131158e-06
3072.0,-0.0006045870250090957
3328.0,-0.0002683345228433609
3584.0,-0.0005178312421776354
3840.0,0.00012206767132738605
4096.0,0.0001262530277017504
4608.0,0.00026768961106427014
5120.0,0.0004974520998075604
5632.0,-0.00030120002338662744
6144.0,-0.00016585785488132387
6656.0,0.00013586277782451361
7168.0,0.0002511144557502121
7680.0,-0.00033839710522443056
8192.0,-0.0005970546626485884
9216.0,0.0002268477837787941
10240.0,-0.000264467962551862
11264.0,1.6546442566323094e-05
12288.0,0.0003443106252234429
13312.0,0.00043266976717859507
14336.0,-0.00043806148460134864
end
