version,3.0
numOfCh,1
type,point
parent_name,1000-cuts
ch_type,1_1
kcount,1
numberNandB,1
brightnessNandB,1
carpet pos,0
pc,0
Time (ms),CH1 Auto-Correlation
1.0,0.035061344504356384
2.0,0.032378435134887695
3.0,0.029929766431450844
4.0,0.027700483798980713
5.0,0.025580763816833496
6.0,0.02362639084458351
7.0,0.02185588888823986
8.0,0.020230060443282127
9.0,0.01874578185379505
10.0,0.017470452934503555
11.0,0.01634995825588703
12.0,0.015347423031926155
13.0,0.014435119926929474
14.0,0.013534585013985634
15.0,0.012728248722851276
16.0,0.011938842944800854
18.0,0.010516422800719738
20.0,0.009170910343527794
22.0,0.007826462388038635
24.0,0.006642526015639305
26.0,0.005642722826451063
28.0,0.00478205643594265
30.0,0.004091095644980669
32.0,0.003504996420815587
36.0,0.0025802820455282927
40.0,0.0019927050452679396
44.0,0.0015979789895936847
48.0,0.001205331296660006
52.0,0.0007297619595192373
56.0,0.000618610589299351
60.0,0.0006139436736702919
64.0,0.0005534978699870408
72.0,6.683292303932831e-05
80.0,-0.0005386332632042468
88.0,-0.0006443887832574546
96.0,-0.00015333479677792639
104.0,-0.00010675918747438118
112.0,-0.00036556468694470823
120.0,-0.0005250840913504362
128.0,-0.0005480029503814876
144.0,-0.0006559157045558095
160.0,0.0003870101645588875
176.0,0.00028114745509810746
192.0,-0.0004064090026076883
208.0,-0.000902915489859879
224.0,-0.0014205758925527334
240.0,-0.0003599822521209717
256.0,-0.00041873459122143686
288.0,-0.0010229503968730569
320.0,0.0007928208797238767
352.0,0.001080694724805653
384.0,0.0017781922360882163
416.0,0.0006305346614681184
448.0,0.0011903292033821344
480.0,0.0014099817490205169
512.0,-0.0003059106529690325
576.0,0.001281239092350006
640.0,0.0007872273563407362
704.0,-0.00046657532220706344
768.0,0.0007009453838691115
832.0,0.0003010313375853002
896.0,-0.0003616667236201465
960.0,0.0011390952859073877
1024.0,0.000543405010830611
1152.0,-0.0008115242817439139
1280.0,-0.001500364625826478
1408.0,0.00034004749613814056
1536.0,-0.000848741561640054
1664.0,-0.0002950445341411978
1792.0,0.00013073423178866506
1920.0,-0.0007419862668029964
2048.0,0.00048055616207420826
2304.0,-0.0011086780577898026
2560.0,-0.00033468290348537266
2816.0,-0.0004158556112088263
3072.0,-0.0004736049158964306
3328.0,0.00020404256065376103
3584.0,0.00014561867283191532
3840.0,0.00035794320865534246
4096.0,0.00022273583454079926
4608.0,0.000306725618429482
5120.0,0.0003309447201900184
5632.0,-0.00039127064519561827
6144.0,-0.00017064240819308907
6656.0,-0.000546158233191818
7168.0,-0.00018468816415406764
7680.0,-0.00047463824739679694
8192.0,-0.00023272492398973554
9216.0,6.99940646882169e-05
10240.0,1.1632285350060556e-05
11264.0,0.00012904289178550243
12288.0,0.00020814331946894526
13312.0,2.2105230527813546e-05
14336.0,-1.4579976777895354e-05
end
