version,3.0
numOfCh,1
type,point
parent_name,1000-cuts
ch_type,1_1
kcount,1
numberNandB,1
brightnessNandB,1
carpet pos,0
pc,0
Time (ms),CH1 Auto-Correlation
1.0,0.06579210609197617
2.0,0.061006300151348114
3.0,0.05659494921565056
4.0,0.05255763232707977
5.0,0.048921551555395126
6.0,0.0455893836915493
7.0,0.04265614598989487
8.0,0.0399877093732357
9.0,0.037407130002975464
10.0,0.03481987491250038
11.0,0.032383691519498825
12.0,0.030198194086551666
13.0,0.028122015297412872
14.0,0.02638431079685688
15.0,0.024690592661499977
16.0,0.02325144037604332
18.0,0.020586589351296425
20.0,0.018271205946803093
22.0,0.01624635048210621
24.0,0.014389040879905224
26.0,0.012656163424253464
28.0,0.01114119216799736
30.0,0.010000891052186489
32.0,0.009104731492698193
36.0,0.007116599008440971
40.0,0.00550717581063509
44.0,0.003997119143605232
48.0,0.0035314832348376513
52.0,0.003809754503890872
56.0,0.003869415959343314
60.0,0.0032715112902224064
64.0,0.002804029267281294
72.0,0.0013497553300112486
80.0,4.294732570997439e-05
88.0,-0.0005346447578631341
96.0,-0.00040254846680909395
104.0,0.0006888998905196786
112.0,0.0012520910240709782
120.0,0.0010368996299803257
128.0,0.00012172010610811412
144.0,-0.0007092842715792358
160.0,0.0006163311772979796
176.0,0.001844311016611755
192.0,0.00013252378266770393
208.0,-0.000751997868064791
224.0,1.9711673303390853e-05
240.0,0.001566201914101839
256.0,0.002445220947265625
288.0,0.0028940639458596706
320.0,0.0006622271612286568
352.0,0.0010167948203161359
384.0,0.0011791009455919266
416.0,0.0008656278951093554
448.0,-8.616221748525277e-05
480.0,0.00038924822001717985
512.0,-0.002739671850576997
576.0,-0.0005565395695157349
640.0,-0.0011556883109733462
704.0,-0.0023621409200131893
768.0,-0.004141381476074457
832.0,-0.0014965343289077282
896.0,-0.0013282439904287457
960.0,0.00025940441992133856
1024.0,-0.0003173137956764549
1152.0,-0.002142444020137191
1280.0,-3.0951810913393274e-05
1408.0,-0.0005272967391647398
1536.0,0.0004317697312217206
1664.0,-0.0004193029017187655
1792.0,-0.00037354158121161163
1920.0,0.001546176034025848
2048.0,2.3177903130999766e-05
2304.0,-0.0004680281854234636
2560.0,-0.0004888047114945948
2816.0,-0.000747186248190701
3072.0,0.00064984115306288
3328.0,-0.00032418023329228163
3584.0,0.001388485194183886
3840.0,0.000570908363442868
4096.0,-0.0005789098213426769
4608.0,4.5597469579661265e-05
5120.0,-0.00024169818789232522
5632.0,-0.00023098845849744976
6144.0,0.0008907549199648201
6656.0,0.00010390816896688193
7168.0,-0.0018549768719822168
7680.0,0.00023499193775933236
8192.0,0.0004383061605039984
9216.0,0.0006794386426918209
10240.0,-0.000818280503153801
11264.0,-0.00020399646018631756
12288.0,0.0017166717443615198
13312.0,-0.002156976144760847
14336.0,0.0007809113594703376
end
