version,3.0
numOfCh,1
type,point
parent_name,1000-cuts
ch_type,1_1
kcount,1
numberNandB,1
brightnessNandB,1
carpet pos,0
pc,0
Time (ms),CH1 Auto-Correlation
1.0,0.019340679049491882
2.0,0.017810234799981117
3.0,0.01643318310379982
4.0,0.015172246843576431
5.0,0.014051099307835102
6.0,0.01302298717200756
7.0,0.012062134221196175
8.0,0.011224615387618542
9.0,0.010412609204649925
10.0,0.009646130725741386
11.0,0.008929455652832985
12.0,0.008252516388893127
13.0,0.007625207304954529
14.0,0.007025697268545628
15.0,0.006516030058264732
16.0,0.0059967199340462685
18.0,0.005093575455248356
20.0,0.004288759548217058
22.0,0.0034650673624128103
24.0,0.002835629042237997
26.0,0.0023362382780760527
28.0,0.0018835291266441345
30.0,0.0015065984334796667
32.0,0.0011714394204318523
36.0,0.0007056540925987065
40.0,0.00033616158179938793
44.0,0.00017449130245950073
48.0,0.00015696648915763944
52.0,0.0002137922856491059
56.0,0.00021464118617586792
60.0,0.00020881544332951307
64.0,0.00023661550949327648
72.0,8.976767276180908e-05
80.0,-1.8929422367364168e-05
88.0,0.00021922537416685373
96.0,0.0003137190651614219
104.0,0.0001305033074459061
112.0,0.00015652156434953213
120.0,4.960521619068459e-05
128.0,3.9166436181403697e-05
144.0,-0.00020256270363461226
160.0,-0.0007944502867758274
176.0,-0.0008487222949042916
192.0,-0.0006091026589274406
208.0,-0.0009256165358237922
224.0,-0.0017737100133672357
240.0,-0.0015273581957444549
256.0,-0.0005052210763096809
288.0,0.00039203400956466794
320.0,0.0006932109245099127
352.0,-0.0001253731461474672
384.0,-0.0004168368177488446
416.0,-1.4296640983957332e-05
448.0,0.0006018706480972469
480.0,0.0005037382943555713
512.0,0.00014592464140150696
576.0,-3.0946650895202765e-06
640.0,-0.00023392465664073825
704.0,-0.0007599361706525087
768.0,-0.0001417205057805404
832.0,0.0002901227562688291
896.0,7.877539610490203e-05
960.0,-0.0001614737993804738
1024.0,-0.0009888102067634463
1152.0,0.00018079555593430996
1280.0,2.768219383142423e-05
1408.0,0.0004930495051667094
1536.0,0.00022937080939300358
1664.0,2.35259321925696e-05
1792.0,0.0002936419623438269
1920.0,-0.00024615757865831256
2048.0,0.00044077157508581877
2304.0,-0.0001648586621740833
2560.0,6.52963572065346e-05
2816.0,-0.0004867504467256367
3072.0,0.0004600343236234039
3328.0,-2.1586305592791177e-05
3584.0,0.00036258704494684935
3840.0,-0.0005478009697981179
4096.0,-4.250350684742443e-05
4608.0,-2.841232344508171e-05
5120.0,2.8157208362245e-05
5632.0,-0.00010326827032258734
6144.0,-4.878389518125914e-05
6656.0,-1.9447077647782862e-05
7168.0,-0.00014502408157568425
7680.0,1.883698678284418e-05
8192.0,-2.6175513994530775e-05
9216.0,-2.5347231712657958e-05
10240.0,-0.00026578811230137944
11264.0,0.00015204698138404638
12288.0,-3.762653796002269e-05
13312.0,-7.508700218750164e-05
14336.0,0.0004537486529443413
end
