version,3.0
numOfCh,1
type,point
parent_name,1000-cuts
ch_type,1_1
kcount,1
numberNandB,1
brightnessNandB,1
carpet pos,0
pc,0
Time (ms),CH1 Auto-Correlation
1.0,0.0336935929954052
2.0,0.030913718044757843
3.0,0.02832549251616001
4.0,0.02597678452730179
5.0,0.023849058896303177
6.0,0.021863002330064774
7.0,0.02002096362411976
8.0,0.018424293026328087
9.0,0.016962086781859398
10.0,0.01567438431084156
11.0,0.014462136663496494
12.0,0.013316042721271515
13.0,0.012284854426980019
14.0,0.01134041789919138
15.0,0.010447285138070583
16.0,0.009694140404462814
18.0,0.008412880823016167
20.0,0.007286421488970518
22.0,0.006390018854290247
24.0,0.00572121050208807
26.0,0.005292082205414772
28.0,0.004991569090634584
30.0,0.004633347503840923
32.0,0.004231925122439861
36.0,0.003785636741667986
40.0,0.0033737029880285263
44.0,0.003003521589562297
48.0,0.0027464188169687986
52.0,0.0025877307634800673
56.0,0.0025146719999611378
60.0,0.0027756369672715664
64.0,0.002475498942658305
72.0,0.001160444226115942
80.0,0.00024254633171949536
88.0,0.00028455513529479504
96.0,-5.986531505186576e-06
104.0,-0.00020543139544315636
112.0,-0.00013419768947642297
120.0,-0.0010813482804223895
128.0,-0.000997047987766564
144.0,-0.0008013005135580897
160.0,-0.0013431836850941181
176.0,-0.0008475534268654883
192.0,-0.0008614209364168346
208.0,-0.001584792509675026
224.0,-0.0019904812797904015
240.0,-0.0011549446498975158
256.0,-0.00028210875461809337
288.0,0.0005712416605092585
320.0,0.001149314222857356
352.0,0.0007833236595615745
384.0,0.0008058540988713503
416.0,0.00026858801720663905
448.0,0.00046242837561294436
480.0,-0.0001417791354469955
512.0,-0.0003286062565166503
576.0,-0.001147304312326014
640.0,-0.0007786211208440363
704.0,-0.0008545606397092342
768.0,-0.0010501985670998693
832.0,-0.0011418936774134636
896.0,0.0001393771090079099
960.0,0.0010199056705459952
1024.0,0.0004651258059311658
1152.0,1.244897248398047e-05
1280.0,-8.00421621534042e-05
1408.0,0.0007821971084922552
1536.0,0.0007190315518528223
1664.0,-0.0011416464112699032
1792.0,1.4947580893931445e-05
1920.0,0.0005695972940884531
2048.0,-0.0010358482832089067
2304.0,-0.00010960419604089111
2560.0,0.00041587697342038155
2816.0,0.00031983148073777556
3072.0,-0.00011354013986419886
3328.0,-0.00014421172090806067
3584.0,-0.0007364774937741458
3840.0,1.9192544641555287e-05
4096.0,0.00015233951853588223
4608.0,-7.373582775471732e-05
5120.0,-0.0003302799887023866
5632.0,-0.00024871103232726455
6144.0,-0.0002962866856250912
6656.0,0.0003293037589173764
7168.0,0.00047367712249979377
7680.0,-4.914679811918177e-05
8192.0,-0.0002738320908974856
9216.0,0.00015317070938181132
10240.0,-0.0001429435214959085
11264.0,-9.505476919002831e-05
12288.0,-0.00032952995388768613
13312.0,0.0007876339368522167
14336.0,0.0002941418788395822
end
