version,3.0
numOfCh,1
type,point
parent_name,1000-cuts
ch_type,1_1
kcount,1
numberNandB,1
brightnessNandB,1
carpet pos,0
pc,0
Time (ms),CH1 Auto-Correlation
1.0,0.0809498056769371
2.0,0.07537595927715302
3.0,0.07017022371292114
4.0,0.06564139574766159
5.0,0.061240941286087036
6.0,0.05706794932484627
7.0,0.05316119268536568
8.0,0.049488767981529236
9.0,0.046017684042453766
10.0,0.04269369691610336
11.0,0.039720065891742706
12.0,0.03698570281267166
13.0,0.034443072974681854
14.0,0.03217405080795288
15.0,0.029898246750235558
16.0,0.02779734879732132
18.0,0.02381819672882557
20.0,0.020440304651856422
22.0,0.017583459615707397
24.0,0.015144803561270237
26.0,0.013327625580132008
28.0,0.011666152626276016
30.0,0.010192091576755047
32.0,0.008758875541388988
36.0,0.0062728081829845905
40.0,0.004368580412119627
44.0,0.0031958739273250103
48.0,0.0032919638324528933
52.0,0.0037891354877501726
56.0,0.004100834485143423
60.0,0.0043023875914514065
64.0,0.004774126689881086
72.0,0.004140975885093212
80.0,0.001728820614516735
88.0,-0.00042775931069627404
96.0,-0.0021039522252976894
104.0,-0.0018197085009887815
112.0,0.00038798165041953325
120.0,0.0035333025734871626
128.0,0.006506706587970257
144.0,0.00590728921815753
160.0,0.0030314703471958637
176.0,0.003557721385732293
192.0,-7.020502380328253e-06
208.0,-0.0026081425603479147
224.0,-0.001408267067745328
240.0,-0.0010831960244104266
256.0,-0.00016816156858112663
288.0,0.000718672585207969
320.0,0.002160669770091772
352.0,2.2324424207909033e-05
384.0,0.000586479261983186
416.0,0.0007476128521375358
448.0,0.0007289993809536099
480.0,0.001629309612326324
512.0,-0.0018963151378557086
576.0,-0.0009895655093714595
640.0,-0.0021409052424132824
704.0,-0.0010115255136042833
768.0,0.0008587371557950974
832.0,-0.0011414685286581516
896.0,-0.00026126354350708425
960.0,-0.0007491845171898603
1024.0,-0.0013044436927884817
1152.0,-0.0033866972662508488
1280.0,-0.0007700362475588918
1408.0,-0.00017311342526227236
1536.0,-0.00045543527812696993
1664.0,0.0006663436070084572
1792.0,-0.0009773895144462585
1920.0,-0.0011045485734939575
2048.0,0.0014107144670560956
2304.0,-0.00041937679634429514
2560.0,-0.002131550805643201
2816.0,-0.0020356536842882633
3072.0,-0.0012622394133359194
3328.0,0.0007552447495982051
3584.0,-0.00029111909680068493
3840.0,-0.00032962593832053244
4096.0,0.0009869626956060529
4608.0,0.0014047013828530908
5120.0,0.0015503880567848682
5632.0,-0.0001733912358758971
6144.0,-0.0011173334205523133
6656.0,0.0002525261079426855
7168.0,-0.0002922354615293443
7680.0,-0.0017044005217030644
8192.0,-0.00046053118421696126
9216.0,-0.0014157601399347186
10240.0,0.00165901321452111
11264.0,-0.0005178549909032881
12288.0,-0.0005858815857209265
13312.0,0.0006749535677954555
14336.0,-0.0018231120193377137
end
