version,3.0
numOfCh,1
type,point
parent_name,1000-cuts
ch_type,1_1
kcount,1
numberNandB,1
brightnessNandB,1
carpet pos,0
pc,0
Time (ms),CH1 Auto-Correlation
1.0,0.06427104771137238
2.0,0.05928047373890877
3.0,0.05472547933459282
4.0,0.050587840378284454
5.0,0.046775899827480316
6.0,0.043464187532663345
7.0,0.04033355414867401
8.0,0.03738825395703316
9.0,0.03459751978516579
10.0,0.032004520297050476
11.0,0.029687514528632164
12.0,0.027612242847681046
13.0,0.025755159556865692
14.0,0.023823866620659828
15.0,0.02213391102850437
16.0,0.020420916378498077
18.0,0.017374856397509575
20.0,0.014543629251420498
22.0,0.011950046755373478
24.0,0.009779693558812141
26.0,0.00808765273541212
28.0,0.006615089252591133
30.0,0.005356325767934322
32.0,0.004254019353538752
36.0,0.0025144927203655243
40.0,0.0011657597497105598
44.0,0.0001979855733225122
48.0,-0.0004018966283183545
52.0,-0.0006975915748625994
56.0,-0.0004993368638679385
60.0,-0.0004263130249455571
64.0,-7.756068953312933e-05
72.0,0.0010012005222961307
80.0,0.001252868794836104
88.0,0.0009103902848437428
96.0,-0.0006722282851114869
104.0,-0.00125513703096658
112.0,-0.00174896907992661
120.0,-0.0012916096020489931
128.0,-0.0007971911691129208
144.0,-0.0017422228120267391
160.0,-0.0019278505351394415
176.0,-0.0011626967461779714
192.0,0.00046132292482070625
208.0,0.0018358179368078709
224.0,0.00046252465108409524
240.0,-0.0007645720615983009
256.0,-0.0006391993956640363
288.0,-0.0013346876949071884
320.0,-0.0003274687915109098
352.0,-0.0004609962343238294
384.0,0.0004252087965141982
416.0,0.0021100391168147326
448.0,0.0039557502605021
480.0,0.005065118428319693
512.0,0.0028772829100489616
576.0,-0.00036803341936320066
640.0,0.002071723574772477
704.0,0.0008620538865216076
768.0,-0.0028346639592200518
832.0,-0.0009653505985625088
896.0,-0.0005612369277514517
960.0,0.00022767453629057854
1024.0,0.0033546106424182653
1152.0,0.00047960368101485074
1280.0,7.777660357533023e-05
1408.0,-0.0008140670834109187
1536.0,0.0022781447041779757
1664.0,-0.00044467553379945457
1792.0,0.00011439273657742888
1920.0,0.000990070286206901
2048.0,0.0014707950176671147
2304.0,0.00048790330765768886
2560.0,-0.00015878898557275534
2816.0,0.0001213884970638901
3072.0,0.0005234338459558785
3328.0,-0.0008309719269163907
3584.0,-0.000560589658562094
3840.0,-0.0008563389419578016
4096.0,-0.0008071346092037857
4608.0,-0.0004995646304450929
5120.0,-0.000579754589125514
5632.0,-0.000671669258736074
6144.0,-0.0018123203190043569
6656.0,-0.0013001224724575877
7168.0,-0.0009757474763318896
7680.0,-0.0006253438186831772
8192.0,4.75357701361645e-05
9216.0,0.00015576297300867736
10240.0,0.0009637147304601967
11264.0,0.000562170404009521
12288.0,-0.0004978138022124767
13312.0,0.0023282994516193867
14336.0,-0.002066271146759391
end
