version,3.0
numOfCh,1
type,point
parent_name,1000-cuts
ch_type,1_1
kcount,1
numberNandB,1
brightnessNandB,1
carpet pos,0
pc,0
Time (ms),CH1 Auto-Correlation
1.0,0.02072404883801937
2.0,0.019102534279227257
3.0,0.01761789806187153
4.0,0.01626875437796116
5.0,0.015067062340676785
6.0,0.01397776510566473
7.0,0.012954515404999256
8.0,0.011957108043134212
9.0,0.011064819060266018
10.0,0.010280889458954334
11.0,0.009553277865052223
12.0,0.008900984190404415
13.0,0.008284625597298145
14.0,0.007715621031820774
15.0,0.007152961101382971
16.0,0.006623718421906233
18.0,0.0057755340822041035
20.0,0.0050170510075986385
22.0,0.004455117974430323
24.0,0.003958574496209621
26.0,0.003405697410926223
28.0,0.002869705203920603
30.0,0.0024363945703953505
32.0,0.0021364190615713596
36.0,0.0014273258857429028
40.0,0.0009083561017177999
44.0,0.0006733486079610884
48.0,0.000536833715159446
52.0,0.0004077018238604069
56.0,0.00039883985300548375
60.0,0.0005655060522258282
64.0,0.0008102526189759374
72.0,0.0008601185982115567
80.0,0.0009673749445937574
88.0,0.0006888953503221273
96.0,0.00046792803914286196
104.0,0.00012389510811772197
112.0,-0.0001846959494287148
120.0,-0.00015621598868165165
128.0,-2.154482717742212e-05
144.0,0.0002947627508547157
160.0,0.0001736377744236961
176.0,0.00037208024878054857
192.0,0.0008837591158226132
208.0,0.0012278679059818387
224.0,0.0011096352245658636
240.0,0.000507910386659205
256.0,0.0008979207486845553
288.0,0.00023056473582983017
320.0,-0.0003227252746000886
352.0,0.0005723430658690631
384.0,0.000588558497838676
416.0,0.0007049241103231907
448.0,1.2612968021130655e-06
480.0,-0.00028508849209174514
512.0,-5.482619963004254e-05
576.0,0.00029937009094282985
640.0,-0.0002356688492000103
704.0,-0.00028854174888692796
768.0,-0.0010967362904921174
832.0,-0.0015292665921151638
896.0,-0.0008102176943793893
960.0,-0.00011402086965972558
1024.0,-0.0009249597787857056
1152.0,-0.00037746914313174784
1280.0,-0.000443200406152755
1408.0,0.0002004206326091662
1536.0,0.0005508498870767653
1664.0,0.0004853122227359563
1792.0,0.000639305217191577
1920.0,7.031081622699276e-05
2048.0,0.000767369638197124
2304.0,-3.498026853776537e-05
2560.0,0.00012518752191681415
2816.0,-0.0003971901023760438
3072.0,6.473764369729906e-05
3328.0,-0.0002206322824349627
3584.0,-0.00012006618635496125
3840.0,-5.411918755271472e-05
4096.0,-0.00011629673099378124
4608.0,-9.614066948415712e-05
5120.0,0.00017652219685260206
5632.0,-0.00022604108380619437
6144.0,-0.00016058074834290892
6656.0,0.0002652305702213198
7168.0,-0.00044421188067644835
7680.0,-0.00018483633175492287
8192.0,0.0005035136709921062
9216.0,-0.00034844811307266355
10240.0,0.000858553103171289
11264.0,-0.00021062491578049958
12288.0,-4.5553306335932575e-06
13312.0,-0.0006545379874296486
14336.0,-0.00022451496624853462
end
