version,3.0
numOfCh,1
type,point
parent_name,1000-cuts
ch_type,1_1
kcount,1
numberNandB,1
brightnessNandB,1
carpet pos,0
pc,0
Time (ms),CH1 Auto-Correlation
1.0,0.060111790895462036
2.0,0.05530557036399841
3.0,0.05076846852898598
4.0,0.04677895829081535
5.0,0.043028831481933594
6.0,0.03967266157269478
7.0,0.03656990826129913
8.0,0.03372588008642197
9.0,0.03105671890079975
10.0,0.028697870671749115
11.0,0.026541568338871002
12.0,0.024503672495484352
13.0,0.02272777073085308
14.0,0.021128393709659576
15.0,0.01954391784965992
16.0,0.017993096262216568
18.0,0.015414695255458355
20.0,0.013093549758195877
22.0,0.011032162234187126
24.0,0.009457333013415337
26.0,0.008170181885361671
28.0,0.00705969613045454
30.0,0.006091692019253969
32.0,0.00532553531229496
36.0,0.004234748892486095
40.0,0.0037121602799743414
44.0,0.003189419163390994
48.0,0.002501371782273054
52.0,0.0017275168793275952
56.0,0.0011344406520947814
60.0,0.0008673460688441992
64.0,0.0008737976895645261
72.0,0.0016040396876633167
80.0,0.001259314245544374
88.0,0.000212916245800443
96.0,-0.0008478002273477614
104.0,-0.0007489357376471162
112.0,-0.0014947407180443406
120.0,-0.0019184568664059043
128.0,-0.000631599803455174
144.0,-0.0012109385570511222
160.0,-0.0006140256300568581
176.0,0.0012655090540647507
192.0,1.4762669707124587e-05
208.0,-0.0010889582335948944
224.0,-0.0015751611208543181
240.0,-0.00013378878065850586
256.0,0.0007543910760432482
288.0,-0.0010135597549378872
320.0,7.529090362368152e-05
352.0,-0.0007816213765181601
384.0,-0.0004195699584670365
416.0,0.00039537434349767864
448.0,-0.0015729771694168448
480.0,-0.0012834452791139483
512.0,-0.0007710994686931372
576.0,-0.0022033860441297293
640.0,-0.002151764463633299
704.0,-0.0004463778459466994
768.0,-0.002475630259141326
832.0,-0.0007286310428753495
896.0,-4.785375131177716e-05
960.0,-6.047703936928883e-05
1024.0,0.001222415710799396
1152.0,0.001378470566123724
1280.0,4.0753529901849106e-05
1408.0,-1.1579272722883616e-05
1536.0,0.000629149901214987
1664.0,-0.0009544186177663505
1792.0,0.00033181410981342196
1920.0,-8.62113811308518e-05
2048.0,0.0005080861737951636
2304.0,-0.0003006355545949191
2560.0,-0.00038291007513180375
2816.0,0.0004381547914817929
3072.0,0.00016848256927914917
3328.0,0.0003870135988108814
3584.0,-0.0007129143923521042
3840.0,-0.0006497864378616214
4096.0,0.00041618384420871735
4608.0,0.0011823158711194992
5120.0,-0.0013135462068021297
5632.0,-0.00013040934572927654
6144.0,0.00023435019829776138
6656.0,-0.0002979433338623494
7168.0,-8.315444574691355e-06
7680.0,0.0004972043097950518
8192.0,-0.00015143507334869355
9216.0,-0.00047255627578124404
10240.0,-5.5764343414921314e-05
11264.0,-0.0002837339707184583
12288.0,-0.0003229298163205385
13312.0,-0.0004635778605006635
14336.0,1.06870211311616e-05
end
