version,3.0
numOfCh,1
type,point
parent_name,1000-cuts
ch_type,1_1
kcount,1
numberNandB,1
brightnessNandB,1
carpet pos,0
pc,0
Time (ms),CH1 Auto-Correlation
1.0,0.019880324602127075
2.0,0.01827199012041092
3.0,0.016806472092866898
4.0,0.015441862866282463
5.0,0.014224189333617687
6.0,0.013043895363807678
7.0,0.01197013258934021
8.0,0.011036100797355175
9.0,0.010126619599759579
10.0,0.009304733946919441
11.0,0.00854261964559555
12.0,0.007807016372680664
13.0,0.0071847219951450825
14.0,0.006611595395952463
15.0,0.006035471800714731
16.0,0.005486621521413326
18.0,0.004517682828009129
20.0,0.003639313392341137
22.0,0.002877898048609495
24.0,0.002250035759061575
26.0,0.0016682532150298357
28.0,0.0011657230788841844
30.0,0.0007644821307621896
32.0,0.00044513214379549026
36.0,3.607791950344108e-05
40.0,-0.00017525894509162754
44.0,-0.0002334353921469301
48.0,-8.589647768530995e-05
52.0,5.476762089529075e-05
56.0,-6.507273064926267e-05
60.0,-0.00035709841176867485
64.0,-0.00035026451223529875
72.0,0.0001714590471237898
80.0,0.0005385565455071628
88.0,0.0005269600660540164
96.0,0.0006438054260797799
104.0,0.0003268994332756847
112.0,0.0003731277829501778
120.0,0.00043110339902341366
128.0,0.0005327177932485938
144.0,0.0004914428573101759
160.0,0.0005830729496665299
176.0,0.000835324521176517
192.0,0.00039072538493201137
208.0,-1.9028670067200437e-05
224.0,-0.0002553934173192829
240.0,-0.0009840429993346334
256.0,-0.000806573370937258
288.0,-0.00023800910275895149
320.0,-0.0005941711715422571
352.0,1.630520637263544e-05
384.0,0.00038997363299131393
416.0,-0.0003566417144611478
448.0,-0.0007928471313789487
480.0,-0.0003996644227299839
512.0,0.00012237660121172667
576.0,-0.0005081077106297016
640.0,-0.00013230090553406626
704.0,-0.0005737358005717397
768.0,-7.091184670571238e-05
832.0,-0.0001600198302185163
896.0,0.0002704647777136415
960.0,-0.00045570990187115967
1024.0,-0.0006293791811913252
1152.0,-0.00020977811072953045
1280.0,0.0003932118124794215
1408.0,1.7500486137578264e-05
1536.0,0.0004868593532592058
1664.0,0.0005740943015553057
1792.0,-0.00010535746696405113
1920.0,-0.0002590818330645561
2048.0,-0.0006781142437830567
2304.0,-1.8327200450585224e-05
2560.0,0.00036445463774725795
2816.0,-0.0002588176284916699
3072.0,0.00042323936941102147
3328.0,-0.00019864682690240443
3584.0,-0.0001328412618022412
3840.0,-0.0001480504433857277
4096.0,-2.8502652185125044e-06
4608.0,-0.00010957873018924147
5120.0,0.0001481528888689354
5632.0,3.022320925083477e-05
6144.0,-8.987449109554291e-05
6656.0,-2.12117829505587e-05
7168.0,-0.00026464107213541865
7680.0,0.00017320766346529126
8192.0,0.00040206153062172234
9216.0,4.348066795500927e-05
10240.0,2.644820233399514e-05
11264.0,0.00016140376101247966
12288.0,-0.00012177049211459234
13312.0,-0.000372624141164124
14336.0,0.000216047337744385
end
