version,3.0
numOfCh,1
type,point
parent_name,1000-cuts
ch_type,1_1
kcount,1
numberNandB,1
brightnessNandB,1
carpet pos,0
pc,0
Time (ms),CH1 Auto-Correlation
1.0,0.030912991613149643
2.0,0.0284782312810421
3.0,0.02622804045677185
4.0,0.02417212352156639
5.0,0.022306451573967934
6.0,0.020601967349648476
7.0,0.019041409716010094
8.0,0.017540689557790756
9.0,0.016172587871551514
10.0,0.014860380440950394
11.0,0.013639501295983791
12.0,0.012563243508338928
13.0,0.011621439829468727
14.0,0.010770437307655811
15.0,0.010005656629800797
16.0,0.0092196986079216
18.0,0.007838981226086617
20.0,0.006650034338235855
22.0,0.005692346021533012
24.0,0.004918111953884363
26.0,0.0043937042355537415
28.0,0.0038646035827696323
30.0,0.0033681264612823725
32.0,0.0028305749874562025
36.0,0.002309640869498253
40.0,0.0017904461128637195
44.0,0.0009509022929705679
48.0,8.039054955588654e-05
52.0,-0.0005496758385561407
56.0,-0.0005107388715259731
60.0,-0.00034042613697238266
64.0,-0.00017028150614351034
72.0,-8.759328920859843e-05
80.0,-0.00013679380936082453
88.0,0.0003203397209290415
96.0,0.0006679475773125887
104.0,0.000494886829983443
112.0,0.0001987239083973691
120.0,-6.816337554482743e-05
128.0,1.0240893061563838e-05
144.0,-0.0003572421264834702
160.0,-0.00043335522059351206
176.0,-0.00043540605111047626
192.0,-6.294906052062288e-05
208.0,0.00016116788901854306
224.0,0.0003979146422352642
240.0,0.0004132428439334035
256.0,0.0012789960019290447
288.0,0.0006143295322544873
320.0,0.0006212154403328896
352.0,0.0007901548524387181
384.0,0.00046662034583278
416.0,-0.0006557448068633676
448.0,-0.0009460296714678407
480.0,-0.0011185782495886087
512.0,-0.00011212350364075974
576.0,-0.0002299363841302693
640.0,-0.0003954234707634896
704.0,-0.00038623056025244296
768.0,-0.0006026288610883057
832.0,0.00034634253825061023
896.0,0.0007372847758233547
960.0,-3.433571691857651e-05
1024.0,0.0014046132564544678
1152.0,-3.987940363003872e-05
1280.0,-7.821311737643555e-05
1408.0,-0.0005850282614119351
1536.0,-0.00044975546188652515
1664.0,-0.0005334980669431388
1792.0,-0.00015907781198620796
1920.0,-2.046636291197501e-05
2048.0,1.384741972287884e-05
2304.0,-0.00016792876704130322
2560.0,-0.000497773929964751
2816.0,-9.43249324336648e-05
3072.0,0.0004196742083877325
3328.0,-0.0004869982658419758
3584.0,-0.0005101594724692404
3840.0,-0.0005134149687364697
4096.0,0.0002881140972021967
4608.0,-0.0002285814261995256
5120.0,0.00010977986676152796
5632.0,0.0002550682984292507
6144.0,-1.8856682800105773e-05
6656.0,0.00024011523055378348
7168.0,0.00026702976902015507
7680.0,0.0002501790295355022
8192.0,0.0003602577780839056
9216.0,-0.00037795264506712556
10240.0,-8.435945346718654e-05
11264.0,0.00014338748587761074
12288.0,-0.00033597482251934707
13312.0,0.0008296658634208143
14336.0,-0.0007191767217591405
end
