version,3.0
numOfCh,1
type,point
parent_name,1000-cuts
ch_type,1_1
kcount,1
numberNandB,1
brightnessNandB,1
carpet pos,0
pc,0
Time (ms),CH1 Auto-Correlation
1.0,0.039057306945323944
2.0,0.03596508875489235
3.0,0.03304161876440048
4.0,0.030289167538285255
5.0,0.02768329344689846
6.0,0.02542005106806755
7.0,0.023360924795269966
8.0,0.021436374634504318
9.0,0.01966341771185398
10.0,0.01802944391965866
11.0,0.016500014811754227
12.0,0.015111248008906841
13.0,0.01384374313056469
14.0,0.012727143242955208
15.0,0.011761524714529514
16.0,0.010907155461609364
18.0,0.009260979481041431
20.0,0.008013581857085228
22.0,0.0069941570982337
24.0,0.005997329950332642
26.0,0.005133957602083683
28.0,0.004488459788262844
30.0,0.0040807039476931095
32.0,0.0036882904823869467
36.0,0.0026835876051336527
40.0,0.001574847032316029
44.0,0.0006011448567733169
48.0,-0.0001186249137390405
52.0,-0.0003783825959544629
56.0,-0.00039879916585050523
60.0,-0.0006915829726494849
64.0,-0.0012371860211715102
72.0,-0.002179454080760479
80.0,-0.00251946784555912
88.0,-0.0029684973414987326
96.0,-0.0017940024845302105
104.0,-0.000594853307120502
112.0,0.0003225214604754001
120.0,-0.00021458222181536257
128.0,-0.0003903199394699186
144.0,-0.0007909237174317241
160.0,6.121576006989926e-05
176.0,-0.0008807913982309401
192.0,0.0002984969469252974
208.0,0.0004690717614721507
224.0,0.0004457127070054412
240.0,-0.0007141266250982881
256.0,-0.0004971048911102116
288.0,0.0006706203566864133
320.0,0.001879560062661767
352.0,-8.609377982793376e-05
384.0,-0.0010206463048234582
416.0,-2.9711041861446574e-05
448.0,-0.0001681913563515991
480.0,-0.001544696162454784
512.0,-0.000780340051278472
576.0,0.0007513071759603918
640.0,-0.0008540025446563959
704.0,-0.0005314410664141178
768.0,0.00020323631179053336
832.0,-0.0011447097640484571
896.0,0.001153068384155631
960.0,0.0018593863351270556
1024.0,-0.0005863026599399745
1152.0,2.9992288546054624e-05
1280.0,-0.0007318436400964856
1408.0,-0.00024466298054903746
1536.0,-0.001111258170567453
1664.0,0.00020211686205584556
1792.0,0.0009626923711039126
1920.0,-0.0001349600643152371
2048.0,-0.00036419666139408946
2304.0,-0.00047777118743397295
2560.0,0.00020875848713330925
2816.0,-0.0006042371387593448
3072.0,-0.00025441552861593664
3328.0,-0.0004335173580329865
3584.0,-8.670916577102616e-05
3840.0,2.397789285168983e-05
4096.0,1.85823500942206e-05
4608.0,-5.495694949786412e-06
5120.0,-8.902457921067253e-05
5632.0,-0.0002674427814781666
6144.0,9.670700819697231e-05
6656.0,0.0002819721703417599
7168.0,-0.00013049862172920257
7680.0,0.000298080500215292
8192.0,0.00036620834725908935
9216.0,-0.00040568405529484153
10240.0,0.00013582278916146606
11264.0,-0.0005671519902534783
12288.0,0.00038613524520769715
13312.0,-0.000363396480679512
14336.0,0.00015369777975138277
end
