version,3.0
numOfCh,1
type,point
parent_name,1000-cuts
ch_type,1_1
kcount,1
numberNandB,1
brightnessNandB,1
carpet pos,0
pc,0
Time (ms),CH1 Auto-Correlation
1.0,0.03280024230480194
2.0,0.030255027115345
3.0,0.02796677127480507
4.0,0.02580820396542549
5.0,0.023842554539442062
6.0,0.0221035685390234
7.0,0.020435189828276634
8.0,0.018879307433962822
9.0,0.01749650575220585
10.0,0.016204047948122025
11.0,0.015045218169689178
12.0,0.013988637365400791
13.0,0.012955349870026112
14.0,0.011986449360847473
15.0,0.011138769797980785
16.0,0.010368852876126766
18.0,0.009039834141731262
20.0,0.00800130981951952
22.0,0.0071504563093185425
24.0,0.006387356668710709
26.0,0.005839558783918619
28.0,0.005278433673083782
30.0,0.004796825814992189
32.0,0.004458841867744923
36.0,0.0037050603423267603
40.0,0.003000105731189251
44.0,0.0023864959366619587
48.0,0.0019044170621782541
52.0,0.001396999112330377
56.0,0.0007837956654839218
60.0,0.0006626427639275789
64.0,0.0004019468615297228
72.0,0.0009422535658814013
80.0,0.0014770982088521123
88.0,0.0008347323746420443
96.0,0.00030342896934598684
104.0,0.0011211058590561152
112.0,0.0012179901823401451
120.0,0.0008593377424404025
128.0,0.0005211185198277235
144.0,0.0008958601974882185
160.0,0.0012806298909708858
176.0,0.001074972446076572
192.0,9.419451089343056e-05
208.0,-0.0011949124746024609
224.0,-0.0014945936854928732
240.0,-0.0013075221795588732
256.0,-0.0007564260740764439
288.0,-0.000526852672919631
320.0,-0.0007917510229162872
352.0,-0.0006222218507900834
384.0,-0.0008756680181249976
416.0,0.000814263301435858
448.0,0.0019378071883693337
480.0,0.0005373450694605708
512.0,-0.0011944861616939306
576.0,-0.00029192675719968975
640.0,-0.00024878044496290386
704.0,0.0007313637179322541
768.0,0.0001798296143533662
832.0,-3.9780217775842175e-05
896.0,-0.0010138003854081035
960.0,-0.000472183630336076
1024.0,-0.0007311003864742815
1152.0,0.0003915718989446759
1280.0,-0.00033618617453612387
1408.0,6.543723429786041e-05
1536.0,0.00032223379821516573
1664.0,5.231861359789036e-05
1792.0,0.0006798994145356119
1920.0,8.572915248805657e-05
2048.0,-0.0009117589797824621
2304.0,-0.00015094751142896712
2560.0,-0.00040161784272640944
2816.0,-0.0002192930696764961
3072.0,0.0009432688821107149
3328.0,-2.389124347246252e-05
3584.0,0.0007882341742515564
3840.0,-0.000794531253632158
4096.0,-0.00021634332370012999
4608.0,-0.00016436011355835944
5120.0,-0.00026813754811882973
5632.0,-0.00040825121686793864
6144.0,0.0002269936230732128
6656.0,0.00020551345369312912
7168.0,7.99449990154244e-05
7680.0,-0.0001750536321196705
8192.0,-0.0008411774761043489
9216.0,4.0397360862698406e-05
10240.0,0.00042757755727507174
11264.0,-0.000713679357431829
12288.0,0.000289989315206185
13312.0,0.0012163884239271283
14336.0,-0.00017380893405061215
end
