version,3.0
numOfCh,1
type,point
parent_name,1000-cuts
ch_type,1_1
kcount,1
numberNandB,1
brightnessNandB,1
carpet pos,0
pc,0
Time (ms),CH1 Auto-Correlation
1.0,0.020009543746709824
2.0,0.018434301018714905
3.0,0.0170164555311203
4.0,0.015692006796598434
5.0,0.0144685423001647
6.0,0.013303917832672596
7.0,0.012237196788191795
8.0,0.011222158558666706
9.0,0.010288682766258717
10.0,0.009445234201848507
11.0,0.00866152998059988
12.0,0.007978595793247223
13.0,0.007318440359085798
14.0,0.006776235066354275
15.0,0.006331607699394226
16.0,0.005913027096539736
18.0,0.005172778386622667
20.0,0.004488775040954351
22.0,0.0038425815291702747
24.0,0.00328942877240479
26.0,0.0027784837875515223
28.0,0.0023423340171575546
30.0,0.0020465319976210594
32.0,0.0018365832511335611
36.0,0.001647874480113387
40.0,0.0013760477304458618
44.0,0.0008445129496976733
48.0,0.0003609936684370041
52.0,0.00011995289969490841
56.0,0.00012249601422809064
60.0,0.00012555676221381873
64.0,4.264093513484113e-05
72.0,-0.00016881384362932295
80.0,-0.00038208923069760203
88.0,-0.0005637118592858315
96.0,-0.0004514186002779752
104.0,-0.0007390834507532418
112.0,-0.000582020846195519
120.0,-0.00046675369958393276
128.0,-0.0007903312798589468
144.0,0.0001616009685676545
160.0,0.0006294492050074041
176.0,0.00017231053789146245
192.0,-0.00031638352083973587
208.0,-0.00047406103112734854
224.0,-0.0004244011652190238
240.0,-0.0008019343949854374
256.0,-0.0010564903495833278
288.0,-0.0009376524249091744
320.0,-0.0011673332192003727
352.0,-0.00014576828107237816
384.0,0.00017550509073771536
416.0,0.00019485941447783262
448.0,0.0010610147146508098
480.0,0.0010738247074186802
512.0,9.20032907743007e-05
576.0,0.00025992511655204
640.0,0.0001996866922127083
704.0,0.0006130841793492436
768.0,0.00013273129297886044
832.0,0.0003587303217500448
896.0,0.0005405222764238715
960.0,-0.00011637271381914616
1024.0,1.0465037121321075e-05
1152.0,0.00011389143764972687
1280.0,-6.693043542327359e-05
1408.0,-0.00014167652989272028
1536.0,0.000558884406927973
1664.0,-0.00022225045540835708
1792.0,-0.0003842803998850286
1920.0,-3.4992295695701614e-05
2048.0,-0.000151405853102915
2304.0,0.0002705252554733306
2560.0,5.2393803343875334e-05
2816.0,-7.090206509019481e-06
3072.0,-5.697954748029588e-07
3328.0,-0.0001430930569767952
3584.0,0.00025637797079980373
3840.0,6.309679883997887e-05
4096.0,-0.0004166987491771579
4608.0,0.00013660006516147405
5120.0,0.0001452113501727581
5632.0,1.0057091458293144e-05
6144.0,2.0709805539809167e-05
6656.0,-0.00014657214342150837
7168.0,-8.914683712646365e-05
7680.0,-5.1215163693996146e-05
8192.0,-2.9219496354926378e-05
9216.0,3.711501631187275e-05
10240.0,-0.000294092227704823
11264.0,-0.00028243701672181487
12288.0,-0.0005246360669843853
13312.0,-0.00025469178217463195
14336.0,0.00030960654839873314
end
