version,3.0
numOfCh,1
type,point
parent_name,1000-cuts
ch_type,1_1
kcount,1
numberNandB,1
brightnessNandB,1
carpet pos,0
pc,0
Time (ms),CH1 Auto-Correlation
1.0,0.031960126012563705
2.0,0.02932773344218731
3.0,0.02689192071557045
4.0,0.024692131206393242
5.0,0.022679854184389114
6.0,0.020862223580479622
7.0,0.01920480653643608
8.0,0.017654459923505783
9.0,0.016163650900125504
10.0,0.014791237190365791
11.0,0.013514362275600433
12.0,0.012325260788202286
13.0,0.011161528527736664
14.0,0.010159583762288094
15.0,0.009240871295332909
16.0,0.008349398151040077
18.0,0.006956716999411583
20.0,0.005785437300801277
22.0,0.004862095229327679
24.0,0.004155910573899746
26.0,0.0033886637538671494
28.0,0.0026427898555994034
30.0,0.002126450417563319
32.0,0.001661006361246109
36.0,0.000927652872633189
40.0,0.00027365118148736656
44.0,5.830814188811928e-05
48.0,6.871152436360717e-05
52.0,-6.949073576834053e-05
56.0,-0.0001915339526021853
60.0,-0.0004191639891359955
64.0,-0.0007294830284081399
72.0,-0.0013572258176282048
80.0,-0.000867454509716481
88.0,-0.0003209116985090077
96.0,-0.0004058852791786194
104.0,-0.000978258904069662
112.0,-0.0018704351969063282
120.0,-0.0023841012734919786
128.0,-0.002041434869170189
144.0,-0.0006482171593233943
160.0,0.0005447202129289508
176.0,0.0006206881953403354
192.0,0.0015647338004782796
208.0,0.0002237466542283073
224.0,-0.0007772416574880481
240.0,0.00032268030918203294
256.0,0.0010507901897653937
288.0,0.00038731968379579484
320.0,-0.00141326361335814
352.0,-0.0008230840903706849
384.0,0.000344742089509964
416.0,-4.012083445559256e-05
448.0,0.0006838046829216182
480.0,0.0006850034696981311
512.0,-0.000171341685927473
576.0,-0.0004866674426011741
640.0,0.0004685323510784656
704.0,0.00016169487207662314
768.0,-0.0008830526494421065
832.0,0.0001135916609200649
896.0,0.0003445864422246814
960.0,-0.0006615768070332706
1024.0,-0.0012782266130670905
1152.0,0.0004878315085079521
1280.0,-0.0002318892948096618
1408.0,-0.0004055212193634361
1536.0,0.0010566888377070427
1664.0,-0.000868125818669796
1792.0,0.0002036748337559402
1920.0,-7.93144790804945e-05
2048.0,-0.0003357358218636364
2304.0,0.0001867056853370741
2560.0,-0.0008819413487799466
2816.0,-2.6029389118775725e-05
3072.0,0.0005998634151183069
3328.0,1.924160824273713e-05
3584.0,0.0005115556996315718
3840.0,8.41852233861573e-05
4096.0,-0.0014314744621515274
4608.0,0.0003949431993532926
5120.0,0.00025797044509090483
5632.0,-0.0007253509829752147
6144.0,7.701530557824299e-05
6656.0,0.00026996611268259585
7168.0,-0.00037493548006750643
7680.0,-0.000383274833438918
8192.0,0.0007172952755354345
9216.0,-0.0003307604056317359
10240.0,-0.00028182644746266305
11264.0,0.00033569266088306904
12288.0,0.00038927755667828023
13312.0,9.055560076376423e-05
14336.0,-0.00018047605408355594
end
