version,3.0
numOfCh,1
type,point
parent_name,1000-cuts
ch_type,1_1
kcount,1
numberNandB,1
brightnessNandB,1
carpet pos,0
pc,0
Time (ms),CH1 Auto-Correlation
1.0,0.058978673070669174
2.0,0.054444365203380585
3.0,0.05021127685904503
4.0,0.046407733112573624
5.0,0.04276339337229729
6.0,0.039344269782304764
7.0,0.03629046306014061
8.0,0.03340141475200653
9.0,0.030712535604834557
10.0,0.028267541900277138
11.0,0.026132063940167427
12.0,0.02418161742389202
13.0,0.02246158942580223
14.0,0.020976006984710693
15.0,0.01953226514160633
16.0,0.018173523247241974
18.0,0.015799131244421005
20.0,0.013494006358087063
22.0,0.011595948599278927
24.0,0.009964143857359886
26.0,0.008470212109386921
28.0,0.006984416861087084
30.0,0.005893850699067116
32.0,0.004978539887815714
36.0,0.003301413496956229
40.0,0.0015816647792235017
44.0,-0.0001580411772010848
48.0,-0.001078541623428464
52.0,-0.0014317091554403305
56.0,-0.0015549588715657592
60.0,-0.001986798597499728
64.0,-0.002343345433473587
72.0,-0.002633726457133889
80.0,-0.003401130437850952
88.0,-0.003322665113955736
96.0,-0.0033619499299675226
104.0,-0.0025296672247350216
112.0,-0.0015855031087994576
120.0,-0.000922984501812607
128.0,-0.0007837899029254913
144.0,-0.0004743695608340204
160.0,-0.0011163229355588555
176.0,-0.0010669835610315204
192.0,-1.2105517271265853e-05
208.0,0.00017916481010615826
224.0,0.00111421721521765
240.0,0.0007483073277398944
256.0,0.00016044323274400085
288.0,-5.451944889500737e-05
320.0,0.0003910553641617298
352.0,0.002615427365526557
384.0,0.0038183960132300854
416.0,-0.001035406836308539
448.0,-0.0031468237284570932
480.0,-0.0042732045985758305
512.0,-0.002613951452076435
576.0,-0.0012340169632807374
640.0,-0.000932171125896275
704.0,0.0019450528779998422
768.0,-0.000813254271633923
832.0,-0.001976791536435485
896.0,-0.00013801585009787232
960.0,-0.0011473252670839429
1024.0,-0.002979767043143511
1152.0,0.001301111071370542
1280.0,0.0017084400169551373
1408.0,6.220970681170002e-05
1536.0,0.00047813577111810446
1664.0,0.00013325325562618673
1792.0,-0.0009009102359414101
1920.0,-0.0009667880949564278
2048.0,0.0010144946863874793
2304.0,-0.001127450494095683
2560.0,-0.0002531399659346789
2816.0,0.0005968380719423294
3072.0,0.0008925589499995112
3328.0,0.00011893826012965292
3584.0,-0.0007521433290094137
3840.0,-0.0006004724418744445
4096.0,0.00020857418712694198
4608.0,8.938207611208782e-05
5120.0,-0.0004892530268989503
5632.0,0.00031982953078113496
6144.0,-0.00017387668776791543
6656.0,3.05654903058894e-05
7168.0,-8.142242586473003e-05
7680.0,-0.000393570022424683
8192.0,-0.0007292297086678445
9216.0,0.00036916957469657063
10240.0,0.00022918966715224087
11264.0,-0.00010314599057892337
12288.0,-0.00014571528299711645
13312.0,0.0004725044418592006
14336.0,-0.0006900980952195823
end
