version,3.0
numOfCh,1
type,point
parent_name,1000-cuts
ch_type,1_1
kcount,1
numberNandB,1
brightnessNandB,1
carpet pos,0
pc,0
Time (ms),CH1 Auto-Correlation
1.0,0.062169257551431656
2.0,0.057418033480644226
3.0,0.05306658148765564
4.0,0.04899105429649353
5.0,0.04515661299228668
6.0,0.041625648736953735
7.0,0.038370050489902496
8.0,0.035296015441417694
9.0,0.032526761293411255
10.0,0.029986988753080368
11.0,0.02772771753370762
12.0,0.02558921091258526
13.0,0.023578202351927757
14.0,0.021710017696022987
15.0,0.019974153488874435
16.0,0.01838282123208046
18.0,0.015505071729421616
20.0,0.013148129917681217
22.0,0.010935795493423939
24.0,0.008938131853938103
26.0,0.007509883493185043
28.0,0.006531096994876862
30.0,0.005800470244139433
32.0,0.005193744320422411
36.0,0.004232428967952728
40.0,0.003509035799652338
44.0,0.0031547334510833025
48.0,0.002720834920182824
52.0,0.002040307503193617
56.0,0.0016592408064752817
60.0,0.001392715610563755
64.0,0.0008240617462433875
72.0,0.002207714132964611
80.0,0.002851227531209588
88.0,0.0024160451721400023
96.0,0.001597938477061689
104.0,0.0006616263999603689
112.0,0.0008591791265644133
120.0,0.0009458534768782556
128.0,0.00014402494707610458
144.0,0.0005943060969002545
160.0,0.001794144045561552
176.0,0.0006810218910686672
192.0,-0.0027718425262719393
208.0,-0.0044653951190412045
224.0,-0.0016059367917478085
240.0,-0.0017969710752367973
256.0,-0.0026239557191729546
288.0,-0.002284660469740629
320.0,-0.00020946201402693987
352.0,0.0007381835603155196
384.0,0.0013230758486315608
416.0,-0.0007955632754601538
448.0,-0.0002800689253490418
480.0,-0.0004149677697569132
512.0,0.001160193933174014
576.0,-0.0017548330361023545
640.0,-0.00047553383046761155
704.0,-0.0008122543222270906
768.0,0.0009678684291429818
832.0,0.001249685068614781
896.0,0.001018781797029078
960.0,0.00011310206900816411
1024.0,-0.0008617517887614667
1152.0,0.001213387935422361
1280.0,0.00025258632376790047
1408.0,2.4081780793494545e-05
1536.0,0.00020813828450627625
1664.0,-0.0013053539441898465
1792.0,0.00021058418496977538
1920.0,-0.00038324377965182066
2048.0,0.0018055223627015948
2304.0,-3.2071529858512804e-05
2560.0,-0.0007232028292492032
2816.0,-0.002090470166876912
3072.0,0.0010060482891276479
3328.0,0.0003697438514791429
3584.0,0.000529811077285558
3840.0,-0.0022508210968226194
4096.0,0.0008749223779886961
4608.0,-0.00014524573634844273
5120.0,0.0009416720131412148
5632.0,-0.00014640222070738673
6144.0,0.00010121765808435157
6656.0,0.0008589713834226131
7168.0,-0.00022574256581719965
7680.0,-0.0004095940967090428
8192.0,0.0001420641492586583
9216.0,-0.00028615843621082604
10240.0,-0.0005350610590539873
11264.0,0.0002614353143144399
12288.0,-0.0006436826661229134
13312.0,-8.256532964878716e-06
14336.0,-0.0006093424744904041
end
