version,3.0
numOfCh,1
type,point
parent_name,1000-cuts
ch_type,1_1
kcount,1
numberNandB,1
brightnessNandB,1
carpet pos,0
pc,0
Time (ms),CH1 Auto-Correlation
1.0,0.02976003848016262
2.0,0.027331043034791946
3.0,0.025119896978139877
4.0,0.023140156641602516
5.0,0.02131163887679577
6.0,0.019622527062892914
7.0,0.01808999851346016
8.0,0.016708536073565483
9.0,0.01548023521900177
10.0,0.014308915473520756
11.0,0.013262174092233181
12.0,0.012372416444122791
13.0,0.011515206657350063
14.0,0.010702716186642647
15.0,0.009974002838134766
16.0,0.00930618867278099
18.0,0.008076129481196404
20.0,0.007009120192378759
22.0,0.006087108980864286
24.0,0.005209046415984631
26.0,0.004434349946677685
28.0,0.003776741912588477
30.0,0.0032373524736613035
32.0,0.0027179704047739506
36.0,0.002071686089038849
40.0,0.0012758583761751652
44.0,0.0005671761464327574
48.0,6.599717744393274e-05
52.0,-0.0003470149531494826
56.0,-0.0006508013466373086
60.0,-0.0007475453894585371
64.0,-0.0007720620487816632
72.0,-0.0009431373327970505
80.0,-0.0010548938298597932
88.0,-0.0016690795309841633
96.0,-0.00223366916179657
104.0,-0.0020419065840542316
112.0,-0.0014132066862657666
120.0,-0.0007196718943305314
128.0,-0.0002665797364898026
144.0,0.0007204192224889994
160.0,0.0009897280251607299
176.0,0.0012467697961255908
192.0,0.0016690305201336741
208.0,0.0018686748808249831
224.0,0.001657581073231995
240.0,0.001011558691971004
256.0,0.00027452586800791323
288.0,0.00012425277964212
320.0,0.00047286515473388135
352.0,0.0008541508577764034
384.0,-0.0004722857556771487
416.0,-0.0009908521315082908
448.0,0.00032869810820557177
480.0,0.0018672447185963392
512.0,0.001538312528282404
576.0,0.0015581821789965034
640.0,-0.0004473660665098578
704.0,-8.473190246149898e-05
768.0,0.0007073187734931707
832.0,0.0001441735657863319
896.0,-0.0006716902717016637
960.0,0.0005999224376864731
1024.0,0.0005353621672838926
1152.0,-0.0007103322423063219
1280.0,-0.0003916979185305536
1408.0,-0.0005892297485843301
1536.0,0.0006185235106386244
1664.0,-0.0005425154813565314
1792.0,0.0003529310051817447
1920.0,-0.0007933774613775313
2048.0,0.0006592682329937816
2304.0,-0.00015141659241635352
2560.0,-0.0007267462788149714
2816.0,-0.0004053515731357038
3072.0,-0.0003782717976719141
3328.0,-0.0005857365904375911
3584.0,-0.00011290131078567356
3840.0,-0.0001979881344595924
4096.0,0.00020771156414411962
4608.0,0.00014264031779021025
5120.0,0.0006402209401130676
5632.0,-3.7970414268784225e-05
6144.0,-7.812361582182348e-05
6656.0,-1.034728302329313e-05
7168.0,2.7912030873267213e-06
7680.0,-0.0007830589893274009
8192.0,-0.0005268711829558015
9216.0,-0.00018701307999435812
10240.0,-0.00025761788128875196
11264.0,0.0003817638789769262
12288.0,0.00037850960507057607
13312.0,4.501030343817547e-05
14336.0,0.0002477254602126777
end
