version,3.0
numOfCh,1
type,point
parent_name,1000-cuts
ch_type,1_1
kcount,1
numberNandB,1
brightnessNandB,1
carpet pos,0
pc,0
Time (ms),CH1 Auto-Correlation
1.0,0.03565341979265213
2.0,0.03277023509144783
3.0,0.03016573004424572
4.0,0.027775483205914497
5.0,0.025643033906817436
6.0,0.0236541498452425
7.0,0.021723154932260513
8.0,0.019893936812877655
9.0,0.018218183889985085
10.0,0.016735492274165154
11.0,0.015395347960293293
12.0,0.014218499884009361
13.0,0.013136015273630619
14.0,0.012127322144806385
15.0,0.011160570196807384
16.0,0.010275393724441528
18.0,0.008720993995666504
20.0,0.007254517171531916
22.0,0.006003971211612225
24.0,0.005083361640572548
26.0,0.004399650264531374
28.0,0.0039692227728664875
30.0,0.003682842943817377
32.0,0.0034949341788887978
36.0,0.0034953774884343147
40.0,0.0034134946763515472
44.0,0.0030256242025643587
48.0,0.0021447453182190657
52.0,0.001056763343513012
56.0,0.0006077706930227578
60.0,0.0004504482785705477
64.0,0.0003409715718589723
72.0,0.00046693303738720715
80.0,6.508807564387098e-05
88.0,0.00023824135132599622
96.0,0.0004083922831341624
104.0,-0.00016274525842163712
112.0,-0.0005351544241420925
120.0,-0.0006391658098436892
128.0,-0.000553630234207958
144.0,-0.0007207986200228333
160.0,-0.0014015098568052053
176.0,-0.0017140110721811652
192.0,-0.0020740414038300514
208.0,-0.0018027102341875434
224.0,-0.001014498877339065
240.0,9.881795267574489e-05
256.0,0.000736311252694577
288.0,2.9737522709183395e-05
320.0,-0.00017280095198657364
352.0,-0.0006537445005960763
384.0,-0.00020300369942560792
416.0,-9.77811505435966e-05
448.0,0.00027743729879148304
480.0,0.00017166082398034632
512.0,-0.00025250265025533736
576.0,0.0005600830190815032
640.0,0.0014146609464660287
704.0,0.0013671757187694311
768.0,0.0001857124880189076
832.0,0.00027526760823093355
896.0,-0.0003039140428882092
960.0,-0.0012251554289832711
1024.0,-0.0016061444766819477
1152.0,-0.0001234590308740735
1280.0,0.00021434899826999754
1408.0,7.991315942490473e-05
1536.0,-0.00038908873102627695
1664.0,-0.0011960235424339771
1792.0,-0.0008966024033725262
1920.0,-4.705776973423781e-06
2048.0,0.0003658355271909386
2304.0,6.584945367649198e-05
2560.0,0.0007735640392638743
2816.0,0.00027939045685343444
3072.0,-0.00024167787341866642
3328.0,-0.0001319714792771265
3584.0,-0.0002835682244040072
3840.0,-0.0006588369724340737
4096.0,-0.0004130963352508843
4608.0,-0.00021948532958049327
5120.0,0.0004523158131632954
5632.0,-0.00019292185606900603
6144.0,-0.00014272317639552057
6656.0,-0.0006014303071424365
7168.0,-0.0001258210395462811
7680.0,0.0004951974842697382
8192.0,-0.00027491114451549947
9216.0,-0.0002827866410370916
10240.0,0.00048528952174820006
11264.0,-0.00018880046263802797
12288.0,-0.00023130876070354134
13312.0,0.0005136815598234534
14336.0,-0.0005744735826738179
end
