version,3.0
numOfCh,1
type,point
parent_name,1000-cuts
ch_type,1_1
kcount,1
numberNandB,1
brightnessNandB,1
carpet pos,0
pc,0
Time (ms),CH1 Auto-Correlation
1.0,0.0316716805100441
2.0,0.02933412604033947
3.0,0.0271417535841465
4.0,0.02512073516845703
5.0,0.02321862429380417
6.0,0.02142745442688465
7.0,0.019799284636974335
8.0,0.018372854217886925
9.0,0.017050867900252342
10.0,0.015885159373283386
11.0,0.014830801635980606
12.0,0.01386288832873106
13.0,0.012983611784875393
14.0,0.01215777825564146
15.0,0.011407093144953251
16.0,0.010675185360014439
18.0,0.009356074966490269
20.0,0.008177044801414013
22.0,0.007047915365546942
24.0,0.006123537663370371
26.0,0.005419071763753891
28.0,0.004789344966411591
30.0,0.004244862124323845
32.0,0.0038284542970359325
36.0,0.003330460051074624
40.0,0.0029488857835531235
44.0,0.002709042513743043
48.0,0.0023730769753456116
52.0,0.0020090541802346706
56.0,0.0018567136721685529
60.0,0.0016630584141239524
64.0,0.0011228148359805346
72.0,0.0010669344337657094
80.0,0.001375107909552753
88.0,0.001683073933236301
96.0,0.0014179337304085493
104.0,0.0007788746734149754
112.0,0.000570175179746002
120.0,0.0007288705091923475
128.0,0.00038397187017835677
144.0,-0.0007081673829816282
160.0,-0.0002185589401051402
176.0,0.0003389871562831104
192.0,0.0010534742614254355
208.0,0.00028533031581901014
224.0,-0.0005261803162284195
240.0,-0.0005555112729780376
256.0,-0.00034477459848858416
288.0,0.0009635249734856188
320.0,0.0008010662859305739
352.0,-0.0007868481916375458
384.0,-0.0002962782164104283
416.0,0.0005577506963163614
448.0,0.00042214299901388586
480.0,4.364431879366748e-05
512.0,-2.8861146347480826e-05
576.0,-0.000515615800395608
640.0,-0.00029697667923755944
704.0,0.0005549681955017149
768.0,0.0009773287456482649
832.0,-0.0007837428129278123
896.0,0.0005920137045904994
960.0,-0.00010077885235659778
1024.0,-0.0010133241303265095
1152.0,-3.984755676356144e-05
1280.0,-0.0008674826240167022
1408.0,-1.8776438082568347e-05
1536.0,-0.0006944392807781696
1664.0,0.0003621240903157741
1792.0,0.000651986978482455
1920.0,-0.0011954224901273847
2048.0,-0.0007272835355252028
2304.0,-0.0004944680840708315
2560.0,-0.00013668389874510467
2816.0,0.00025627482682466507
3072.0,-0.0002848380245268345
3328.0,0.0006087467772886157
3584.0,9.098123700823635e-05
3840.0,3.5756118450080976e-05
4096.0,9.07759167603217e-05
4608.0,-0.0010006307857111096
5120.0,-0.00018575580907054245
5632.0,0.00021530331287067384
6144.0,-0.0011274324497208
6656.0,8.682316547492519e-06
7168.0,0.0006181032513268292
7680.0,0.0001330648665316403
8192.0,0.000574648380279541
9216.0,0.00012064463953720406
10240.0,-0.000536491337697953
11264.0,0.0009051783126778901
12288.0,-0.0002098093245876953
13312.0,-0.0012390058254823089
14336.0,0.000784970645327121
end
