version,3.0
numOfCh,1
type,point
parent_name,1000-cuts
ch_type,1_1
kcount,1
numberNandB,1
brightnessNandB,1
carpet pos,0
pc,0
Time (ms),CH1 Auto-Correlation
1.0,0.05549950152635574
2.0,0.050784993916749954
3.0,0.04646746814250946
4.0,0.042537420988082886
5.0,0.03902972489595413
6.0,0.035857584327459335
7.0,0.032806094735860825
8.0,0.03003423660993576
9.0,0.027510881423950195
10.0,0.025262964889407158
11.0,0.023223672062158585
12.0,0.021294185891747475
13.0,0.01966712810099125
14.0,0.01810622215270996
15.0,0.016792701557278633
16.0,0.015527336858212948
18.0,0.013177819550037384
20.0,0.010926914401352406
22.0,0.008929533883929253
24.0,0.007156744599342346
26.0,0.005643054377287626
28.0,0.00456911651417613
30.0,0.003561079967767
32.0,0.002737124217674136
36.0,0.0018263696692883968
40.0,0.0012232076842337847
44.0,0.0016658648382872343
48.0,0.0023132464848458767
52.0,0.003269983921200037
56.0,0.003724738722667098
60.0,0.0035494857002049685
64.0,0.003249973291531205
72.0,0.0015756064094603062
80.0,-2.2049709514249116e-05
88.0,-0.0007232880452647805
96.0,-0.0008053415222093463
104.0,-0.0004621795960702002
112.0,-6.41363876638934e-05
120.0,0.0001637834939174354
128.0,0.0006376084056682885
144.0,-0.0003019259893335402
160.0,-0.001290957792662084
176.0,-0.001767435809597373
192.0,-0.0011630483204498887
208.0,0.00017835224571172148
224.0,-0.0005080826231278479
240.0,-0.0009903495665639639
256.0,0.0006663576350547373
288.0,-0.00036438286770135164
320.0,-0.001396799460053444
352.0,-0.002084992825984955
384.0,-0.0018767205765470862
416.0,0.0005134989623911679
448.0,0.0023876046761870384
480.0,0.0022910626139491796
512.0,-0.00022865143546368927
576.0,-0.0016850100364536047
640.0,-0.0010244444711133838
704.0,0.00038744453922845423
768.0,0.0005933443899266422
832.0,0.0009127414086833596
896.0,0.00303902430459857
960.0,-0.0007395323482342064
1024.0,-0.001452285097911954
1152.0,-0.0015161305200308561
1280.0,-0.0012021103175356984
1408.0,0.00034186721313744783
1536.0,-5.650544699165039e-05
1664.0,0.000777577341068536
1792.0,-0.001522457110695541
1920.0,0.0018573281122371554
2048.0,-0.002163621596992016
2304.0,0.0007544906693510711
2560.0,0.00021521458984352648
2816.0,0.00026745491777546704
3072.0,0.0007343210163526237
3328.0,0.000613526557572186
3584.0,-0.0003862267767544836
3840.0,-0.0006709551671519876
4096.0,-0.00038391214911825955
4608.0,-0.0009457349078729749
5120.0,-0.00024476880207657814
5632.0,0.0003438111743889749
6144.0,0.00022186842397786677
6656.0,-8.988181070890278e-05
7168.0,-0.00040752303902991116
7680.0,-0.0005476769874803722
8192.0,8.51470758789219e-05
9216.0,0.0008120983839035034
10240.0,-0.0012043204624205828
11264.0,0.0008359959465451539
12288.0,-0.00017542191199027002
13312.0,-0.0013042462524026632
14336.0,0.0016104631358757615
end
