version,3.0
numOfCh,1
type,point
parent_name,1000-cuts
ch_type,1_1
kcount,1
numberNandB,1
brightnessNandB,1
carpet pos,0
pc,0
Time (ms),CH1 Auto-Correlation
1.0,0.03006654605269432
2.0,0.02776041440665722
3.0,0.025638896971940994
4.0,0.023615220561623573
5.0,0.02180197462439537
6.0,0.02007034234702587
7.0,0.018448637798428535
8.0,0.016913527622818947
9.0,0.015440693125128746
10.0,0.014084195718169212
11.0,0.012815991416573524
12.0,0.011668345890939236
13.0,0.010589685291051865
14.0,0.009546235203742981
15.0,0.008662298321723938
16.0,0.0078060259111225605
18.0,0.00629166467115283
20.0,0.005077904090285301
22.0,0.004189155995845795
24.0,0.003408200340345502
26.0,0.0026953809428960085
28.0,0.0021151334512978792
30.0,0.0017865942791104317
32.0,0.0014841646188870072
36.0,0.0010536935878917575
40.0,0.0010390355018898845
44.0,0.0007456758758053184
48.0,0.00027361937100067735
52.0,-3.844980165013112e-05
56.0,-0.00026389260892756283
60.0,-0.0004116322670597583
64.0,-0.00047890879795886576
72.0,-0.0007487545371986926
80.0,-0.0008100303239189088
88.0,-0.0004116808413527906
96.0,-0.00028430510428734124
104.0,-0.0006285893032327294
112.0,-0.0013903271174058318
120.0,-0.0016083571827039123
128.0,-0.0015205900417640805
144.0,-0.0017563942819833755
160.0,-0.001153856166638434
176.0,-0.001180991530418396
192.0,-0.0014203692553564906
208.0,-0.00043756552622653544
224.0,-0.0002553411468397826
240.0,5.55629885639064e-05
256.0,-0.0002594417310319841
288.0,-4.237228131387383e-05
320.0,-0.0005434490740299225
352.0,-0.0005591224762611091
384.0,-0.00074600032530725
416.0,-0.00029865631950087845
448.0,0.0009994902648031712
480.0,0.0008806342375464737
512.0,-0.0004262056027073413
576.0,0.0005704636569134891
640.0,0.0006511096726171672
704.0,-0.000928117660805583
768.0,-0.0008253867854364216
832.0,-0.00036470769555307925
896.0,0.0008347069378942251
960.0,0.00010843064956134185
1024.0,-0.000549399177543819
1152.0,-9.571008376951795e-07
1280.0,-0.0005072680651210248
1408.0,-0.0001710849319351837
1536.0,0.00023019671789370477
1664.0,0.0004382470215205103
1792.0,-0.0009361039265058935
1920.0,0.0004338058643043041
2048.0,0.0003636448527686298
2304.0,-8.852764949551784e-06
2560.0,0.00024488396593369544
2816.0,-0.00035480380756780505
3072.0,0.0005099382251501083
3328.0,-0.0005674032145179808
3584.0,-3.405359893804416e-05
3840.0,0.00012425977911334485
4096.0,-0.0006260318332351744
4608.0,-0.00019101804355159402
5120.0,-3.049335464311298e-05
5632.0,0.00011932929919566959
6144.0,-4.37596499978099e-05
6656.0,3.292218389105983e-05
7168.0,0.00018306690617464483
7680.0,6.081196261220612e-06
8192.0,9.852834773482755e-05
9216.0,0.0001837397285271436
10240.0,-6.485953053925186e-05
11264.0,-0.000294848665362224
12288.0,0.00035460988874547184
13312.0,-0.0001677193067735061
14336.0,-0.00022892162087373435
end
