version,3.0
numOfCh,1
type,point
parent_name,1000-cuts
ch_type,1_1
kcount,1
numberNandB,1
brightnessNandB,1
carpet pos,0
pc,0
Time (ms),CH1 Auto-Correlation
1.0,0.052943404763936996
2.0,0.04867248237133026
3.0,0.0446823351085186
4.0,0.041019290685653687
5.0,0.037716325372457504
6.0,0.03465558961033821
7.0,0.031981538981199265
8.0,0.029460355639457703
9.0,0.02719850465655327
10.0,0.025217778980731964
11.0,0.023376045748591423
12.0,0.021652186289429665
13.0,0.020036833360791206
14.0,0.0184564758092165
15.0,0.016937484964728355
16.0,0.015317733399569988
18.0,0.012480895966291428
20.0,0.010010285302996635
22.0,0.0078974524512887
24.0,0.006031207740306854
26.0,0.004602009896188974
28.0,0.0033552509266883135
30.0,0.002073348267003894
32.0,0.0011636924464255571
36.0,0.00042821484385058284
40.0,0.0004644904984161258
44.0,0.0007110888254828751
48.0,0.0011085347505286336
52.0,0.0012103148037567735
56.0,0.000760696071665734
60.0,0.0005443739937618375
64.0,0.00015542717301286757
72.0,-0.00014997863036114722
80.0,-0.0011162514565512538
88.0,-0.00043483698391355574
96.0,-0.0003774873330257833
104.0,-0.0002239136811112985
112.0,0.00037732100463472307
120.0,0.0006037182756699622
128.0,7.325978367589414e-05
144.0,-0.0016817074501886964
160.0,-0.0021804585121572018
176.0,-0.0029806620441377163
192.0,-0.00047831865958869457
208.0,0.0006096622673794627
224.0,9.98508621705696e-05
240.0,-0.0002032984048128128
256.0,0.0006408317130990326
288.0,0.0018542628968134522
320.0,0.002712458139285445
352.0,0.0003249132423661649
384.0,-0.0009841342689469457
416.0,-0.0016904869116842747
448.0,0.0005801604711450636
480.0,0.0002800247457344085
512.0,-0.0030693344306200743
576.0,-0.0019623416010290384
640.0,-0.0007309790817089379
704.0,-0.0014811201253905892
768.0,-9.071407839655876e-05
832.0,-0.0009072157554328442
896.0,0.0004702626902144402
960.0,2.2021642507752404e-05
1024.0,-0.00022338992857839912
1152.0,-0.0001924682001117617
1280.0,0.001232880400493741
1408.0,-0.000778885674662888
1536.0,-0.0001689499622443691
1664.0,-0.00011080754484282807
1792.0,-0.0002702304336708039
1920.0,-0.002108028857037425
2048.0,-0.0004828284145332873
2304.0,0.00044687138870358467
2560.0,0.0015347193693742156
2816.0,0.0005484846187755466
3072.0,-0.0008730218978598714
3328.0,-0.00045695435255765915
3584.0,-2.4064083845587447e-05
3840.0,0.0012566009536385536
4096.0,-5.607299317489378e-05
4608.0,-0.0004972752067260444
5120.0,0.0006468966603279114
5632.0,-7.371235551545396e-05
6144.0,-0.0002336986071895808
6656.0,4.956273187417537e-05
7168.0,-0.0006153586436994374
7680.0,0.00021327193826436996
8192.0,0.0009264496038667858
9216.0,-0.0007024379447102547
10240.0,0.0003628292470239103
11264.0,0.00044000265188515186
12288.0,-0.0009177307947538793
13312.0,0.000401708937715739
14336.0,0.00047757825814187527
end
