version,3.0
numOfCh,1
type,point
parent_name,1000-cuts
ch_type,1_1
kcount,1
numberNandB,1
brightnessNandB,1
carpet pos,0
pc,0
Time (ms),CH1 Auto-Correlation
1.0,0.017326492816209793
2.0,0.015938488766551018
3.0,0.014691898599267006
4.0,0.013563289307057858
5.0,0.012491581030189991
6.0,0.011518407613039017
7.0,0.010621082037687302
8.0,0.009819396771490574
9.0,0.009113515727221966
10.0,0.008468923158943653
11.0,0.007877345196902752
12.0,0.007325436919927597
13.0,0.006832980550825596
14.0,0.006403788924217224
15.0,0.005984676070511341
16.0,0.005660051014274359
18.0,0.005105815827846527
20.0,0.004594843834638596
22.0,0.004143389407545328
24.0,0.0037289971951395273
26.0,0.003325548954308033
28.0,0.002888295566663146
30.0,0.0025124908424913883
32.0,0.002137578558176756
36.0,0.001444009249098599
40.0,0.0009199189371429384
44.0,0.0006525026983581483
48.0,0.0004494010645430535
52.0,0.00023724652419332415
56.0,-6.663735985057428e-05
60.0,-0.00026877716300077736
64.0,-0.0002551340439822525
72.0,-2.0965560906915925e-05
80.0,8.017360960366204e-05
88.0,-0.00017029258015099913
96.0,-0.00039971896330825984
104.0,-0.0002885600260924548
112.0,-0.00024472878430970013
120.0,-3.854683745885268e-05
128.0,0.00033845333382487297
144.0,0.00036542137968353927
160.0,-0.0001470953575335443
176.0,-0.000501867791172117
192.0,-0.00023195652465801686
208.0,-0.00041105446871370077
224.0,5.6395885621896014e-05
240.0,0.0006240365910343826
256.0,0.0002432502224110067
288.0,0.0001542314130347222
320.0,0.0010209522442892194
352.0,0.0010996254859492183
384.0,0.0005406404379755259
416.0,6.561935879290104e-05
448.0,-0.00028721950366161764
480.0,0.00017235246195923537
512.0,-0.00011973835353273898
576.0,-0.00040592477307654917
640.0,0.0005406849086284637
704.0,-5.681378024746664e-05
768.0,9.327101724920794e-05
832.0,-0.0002947207249235362
896.0,-0.00020352614228613675
960.0,0.00013662395940627903
1024.0,3.031174674106296e-05
1152.0,-0.0002883641282096505
1280.0,9.363560093333945e-05
1408.0,4.1636434616521e-05
1536.0,-5.1518072723411024e-05
1664.0,0.0002518155088182539
1792.0,-0.00018624195945449173
1920.0,-0.0002022592379944399
2048.0,0.00015632480790372938
2304.0,-0.0002373739262111485
2560.0,5.7586792536312714e-05
2816.0,-0.00020823873637709767
3072.0,-0.00045106507604941726
3328.0,-0.0003545961808413267
3584.0,-0.0004420275508891791
3840.0,-0.00025361747248098254
4096.0,9.311414760304615e-05
4608.0,6.578502507181838e-05
5120.0,0.00016739270358812064
5632.0,0.0002006480935961008
6144.0,0.0005224746419116855
6656.0,0.00013548611605074257
7168.0,-0.00025008051306940615
7680.0,3.719723463291302e-05
8192.0,-0.0001660773705225438
9216.0,-0.0003801814455073327
10240.0,0.00014239217853173614
11264.0,7.210001058410853e-05
12288.0,3.384530282346532e-05
13312.0,-2.8334034141153097e-05
14336.0,-0.0005624261102639139
end
