version,3.0
numOfCh,1
type,point
parent_name,1000-cuts
ch_type,1_1
kcount,1
numberNandB,1
brightnessNandB,1
carpet pos,0
pc,0
Time (ms),CH1 Auto-Correlation
1.0,0.05723430588841438
2.0,0.05280889570713043
3.0,0.048812612891197205
4.0,0.04527634009718895
5.0,0.041964091360569
6.0,0.03883218392729759
7.0,0.036022502928972244
8.0,0.033389490097761154
9.0,0.03087751194834709
10.0,0.028473377227783203
11.0,0.02625628374516964
12.0,0.024174578487873077
13.0,0.02225717529654503
14.0,0.020541226491332054
15.0,0.018863139674067497
16.0,0.017453452572226524
18.0,0.015100873075425625
20.0,0.013170105405151844
22.0,0.011604842729866505
24.0,0.010419529862701893
26.0,0.009263386018574238
28.0,0.008135955780744553
30.0,0.007220184430480003
32.0,0.006277342326939106
36.0,0.004995179362595081
40.0,0.004498507361859083
44.0,0.0042564463801681995
48.0,0.0037878830917179585
52.0,0.0029025261756032705
56.0,0.0017373057780787349
60.0,0.0011462803231552243
64.0,0.0009608659893274307
72.0,0.0012901308946311474
80.0,0.0013072746805846691
88.0,0.001035326742567122
96.0,-0.00036563939647749066
104.0,-0.0006345193833112717
112.0,-0.00037018832517787814
120.0,-8.508982136845589e-05
128.0,-0.0008242721669375896
144.0,-0.0011694818967953324
160.0,-0.0005818073404952884
176.0,-0.0006049267831258476
192.0,-0.0014175147516652942
208.0,-0.0030976010020822287
224.0,-0.002654216717928648
240.0,-0.0007868656539358199
256.0,0.0004922875086776912
288.0,-0.00015490753867197782
320.0,-0.0020469792652875185
352.0,-0.0001151072428910993
384.0,-0.00048580969450995326
416.0,-0.0012416731333360076
448.0,-0.001486709457822144
480.0,-0.0014360396889969707
512.0,-0.0004360593156889081
576.0,-3.069540252909064e-05
640.0,-0.0015018782578408718
704.0,-9.169859549729154e-05
768.0,0.0012983590131625533
832.0,0.000775944150518626
896.0,0.0005164958420209587
960.0,-0.0008062880951911211
1024.0,-9.743476402945817e-05
1152.0,-0.0017972649075090885
1280.0,-0.0005614448455162346
1408.0,5.462437911774032e-05
1536.0,-0.0009339256212115288
1664.0,0.0005662429030053318
1792.0,0.0012671751901507378
1920.0,0.0012060077860951424
2048.0,-0.001438693143427372
2304.0,-0.0011522993445396423
2560.0,-0.0007331879460252821
2816.0,0.00027114516706205904
3072.0,0.0005253899144008756
3328.0,0.00010280717833666131
3584.0,0.0005228467634879053
3840.0,0.0006681964732706547
4096.0,-0.0004602040571626276
4608.0,3.651703445939347e-05
5120.0,-0.00046759817632846534
5632.0,0.00010155551717616618
6144.0,0.00048305565724149346
6656.0,-0.00034673252957873046
7168.0,0.0007054341840557754
7680.0,-0.001015960704535246
8192.0,-0.00017141105490736663
9216.0,0.0007835097494535148
10240.0,-8.292585698654875e-05
11264.0,-0.000968704407569021
12288.0,0.0003743626002687961
13312.0,0.0019462769851088524
14336.0,-0.002445255173370242
end
