version,3.0
numOfCh,1
type,point
parent_name,1000-cuts
ch_type,1_1
kcount,1
numberNandB,1
brightnessNandB,1
carpet pos,0
pc,0
Time (ms),CH1 Auto-Correlation
1.0,0.019811028614640236
2.0,0.018336597830057144
3.0,0.01697721518576145
4.0,0.015694281086325645
5.0,0.014508971944451332
6.0,0.013408452272415161
7.0,0.01242810022085905
8.0,0.011538475751876831
9.0,0.010686741210520267
10.0,0.009978323243558407
11.0,0.009358993731439114
12.0,0.008803674019873142
13.0,0.008266597986221313
14.0,0.007786713074892759
15.0,0.007322358898818493
16.0,0.006907888688147068
18.0,0.006143456790596247
20.0,0.005461741704493761
22.0,0.004919899627566338
24.0,0.004481805954128504
26.0,0.004045616369694471
28.0,0.0035890694707632065
30.0,0.003153560683131218
32.0,0.0027044867165386677
36.0,0.0019096251344308257
40.0,0.0013077064650133252
44.0,0.0007022726349532604
48.0,0.00022990598517935723
52.0,4.611312397173606e-05
56.0,-6.266519631026313e-05
60.0,-0.0002520201669540256
64.0,-0.00028718533576466143
72.0,-2.9983351851115003e-05
80.0,9.020369361678604e-06
88.0,9.795522055355832e-05
96.0,0.00017970088811125606
104.0,-0.0001507826818851754
112.0,-0.00019257274107076228
120.0,0.00013311285874806345
128.0,0.00023296535073313862
144.0,-9.505380876362324e-05
160.0,0.000513763225171715
176.0,0.0006556477164849639
192.0,0.0010476503521203995
208.0,0.0007280682330019772
224.0,0.0003667149576358497
240.0,0.00024796227808110416
256.0,0.0010348873911425471
288.0,0.0012030472280457616
320.0,0.00010047289833892137
352.0,-0.0006744196871295571
384.0,-0.0011464975541457534
416.0,-0.0006903209141455591
448.0,0.00026749001699499786
480.0,8.684565545991063e-05
512.0,-7.184321293607354e-05
576.0,0.000613969808910042
640.0,0.00021826993906870484
704.0,4.9924151426239405e-06
768.0,0.0007518480997532606
832.0,0.0003476763085927814
896.0,-0.0010545854456722736
960.0,-0.0001782360632205382
1024.0,0.00046577429748140275
1152.0,0.000586859998293221
1280.0,0.00020924601994920522
1408.0,0.0004989468725398183
1536.0,-0.0005416889325715601
1664.0,-0.00021806878794450313
1792.0,0.00023588669137097895
1920.0,0.00043875069241039455
2048.0,8.436567441094667e-05
2304.0,-3.0469471312244423e-05
2560.0,5.069115104561206e-06
2816.0,-5.8114845160162076e-05
3072.0,-0.0002568709314800799
3328.0,-6.746439339622157e-06
3584.0,0.00016046594828367233
3840.0,-0.00033444954897277057
4096.0,0.0002548897755332291
4608.0,2.5315515813417733e-05
5120.0,0.0001795382413547486
5632.0,-0.000340506958309561
6144.0,0.00021994669805280864
6656.0,-0.00034812692319974303
7168.0,0.0004028707917314023
7680.0,-0.0005899116513319314
8192.0,0.0002921388659160584
9216.0,-0.0004233156214468181
10240.0,-0.00022613067994825542
11264.0,9.26058492041193e-05
12288.0,9.01952080312185e-06
13312.0,-0.0002033394994214177
14336.0,-8.12432772363536e-05
end
