version,3.0
numOfCh,1
type,point
parent_name,1000-cuts
ch_type,1_1
kcount,1
numberNandB,1
brightnessNandB,1
carpet pos,0
pc,0
Time (ms),CH1 Auto-Correlation
1.0,0.021787259727716446
2.0,0.020096218213438988
3.0,0.018569784238934517
4.0,0.017139818519353867
5.0,0.015826627612113953
6.0,0.014577518217265606
7.0,0.01338267233222723
8.0,0.012273887172341347
9.0,0.01124945655465126
10.0,0.010292711667716503
11.0,0.009417938068509102
12.0,0.008651013486087322
13.0,0.008035914041101933
14.0,0.0074591562151908875
15.0,0.006954571697860956
16.0,0.006529426202178001
18.0,0.005794087424874306
20.0,0.005137337371706963
22.0,0.004553191363811493
24.0,0.004077573772519827
26.0,0.0036470128688961267
28.0,0.0031669570598751307
30.0,0.0026703320909291506
32.0,0.002252462785691023
36.0,0.0016810614615678787
40.0,0.0014358729822561145
44.0,0.0013647277373820543
48.0,0.0011742478236556053
52.0,0.001145745743997395
56.0,0.001250667730346322
60.0,0.0011792026925832033
64.0,0.001198131707496941
72.0,0.0012079678708687425
80.0,0.0010172327747568488
88.0,0.00030135398264974356
96.0,-8.946472371462733e-05
104.0,-0.00036727511906065047
112.0,-0.0005086754099465907
120.0,-0.0006002372829243541
128.0,-0.0005794340977445245
144.0,-0.0009646817925386131
160.0,-0.00038932933239266276
176.0,0.0003046567435376346
192.0,0.0012507557403296232
208.0,0.0017021201783791184
224.0,0.00094217574223876
240.0,-9.458821295993403e-05
256.0,-0.0008838968351483345
288.0,-0.000886258203536272
320.0,-0.0007917119073681533
352.0,-0.00016013855929486454
384.0,0.00031288270838558674
416.0,-0.00026430320576764643
448.0,-0.000565613154321909
480.0,-0.0007748919306322932
512.0,1.2554010027088225e-06
576.0,3.618813934735954e-06
640.0,-0.0005615758709609509
704.0,-0.00018546392675489187
768.0,0.0007142310496419668
832.0,-1.4126836504146922e-05
896.0,-0.00039239012403413653
960.0,-0.00037362059811130166
1024.0,-0.000750728533603251
1152.0,-0.00027248659171164036
1280.0,-2.7129190129926428e-05
1408.0,-0.0008636477286927402
1536.0,0.0001272084191441536
1664.0,0.0002176733542000875
1792.0,0.00012600744958035648
1920.0,-0.00037055829307064414
2048.0,-0.0006633339216932654
2304.0,0.00010696458048187196
2560.0,7.334308611461893e-05
2816.0,7.450609700754285e-05
3072.0,0.0006411497597582638
3328.0,-0.00038049640716053545
3584.0,0.00012674291792791337
3840.0,-0.00020572863286361098
4096.0,-0.0002949603658635169
4608.0,0.0002071688650175929
5120.0,-9.81212142505683e-05
5632.0,0.00022005951905157417
6144.0,-0.00012854007945861667
6656.0,-0.0003640076902229339
7168.0,0.0004191465559415519
7680.0,0.00011385443940525874
8192.0,0.00013035853044129908
9216.0,-0.00024354489869438112
10240.0,-1.1390729014237877e-05
11264.0,-0.00012998799502383918
12288.0,0.0001342468021903187
13312.0,-0.00015436431567650288
14336.0,-2.798777677526232e-05
end
