version,3.0
numOfCh,1
type,point
parent_name,1000-cuts
ch_type,1_1
kcount,1
numberNandB,1
brightnessNandB,1
carpet pos,0
pc,0
Time (ms),CH1 Auto-Correlation
1.0,0.06696881353855133
2.0,0.06200109422206879
3.0,0.05747898295521736
4.0,0.053255874663591385
5.0,0.04931929334998131
6.0,0.04569922387599945
7.0,0.042345184832811356
8.0,0.03920678794384003
9.0,0.03631292283535004
10.0,0.033663421869277954
11.0,0.031206626445055008
12.0,0.029032686725258827
13.0,0.027025220915675163
14.0,0.025113631039857864
15.0,0.023289058357477188
16.0,0.02157443016767502
18.0,0.018194016069173813
20.0,0.01550802681595087
22.0,0.013323388993740082
24.0,0.01143214013427496
26.0,0.009815744124352932
28.0,0.008813248947262764
30.0,0.007682471536099911
32.0,0.0064240507781505585
36.0,0.004604663234204054
40.0,0.003273368813097477
44.0,0.002758713671937585
48.0,0.0023792488500475883
52.0,0.002033284166827798
56.0,0.001599704148247838
60.0,0.001257072202861309
64.0,0.0009459254215471447
72.0,0.0006273100734688342
80.0,-0.0008915005018934608
88.0,-0.002487750956788659
96.0,-0.003061941359192133
104.0,-0.0032247784547507763
112.0,-0.002775512170046568
120.0,-0.003000225406140089
128.0,-0.0024118798319250345
144.0,-0.0013576304772868752
160.0,0.001213105395436287
176.0,0.002270819153636694
192.0,0.0013878613244742155
208.0,0.0005393415340222418
224.0,-0.00022151521989144385
240.0,8.649243682157248e-05
256.0,-0.00045924363075755537
288.0,0.0024345663841813803
320.0,0.0014645574847236276
352.0,0.0010148846777155995
384.0,0.0029704116750508547
416.0,0.0004005792143289
448.0,-0.00303849414922297
480.0,-0.0014144834131002426
512.0,0.0006270994781516492
576.0,0.00055113056441769
640.0,-0.0004419444885570556
704.0,0.0001713448145892471
768.0,-0.0005463542183861136
832.0,-0.0005184987676329911
896.0,0.000839191663544625
960.0,0.0008211925160139799
1024.0,-0.0010991493472829461
1152.0,-0.0006770119071006775
1280.0,-0.0005326047539710999
1408.0,-0.0020261122845113277
1536.0,0.0012587999226525426
1664.0,-0.0008739924523979425
1792.0,-0.0015060240402817726
1920.0,-0.0005058512324467301
2048.0,-0.0019006625516340137
2304.0,1.901720133901108e-05
2560.0,-0.00026770090335048735
2816.0,-0.0003512929251883179
3072.0,0.0005858204094693065
3328.0,-0.00040637742495164275
3584.0,-0.0011246049543842673
3840.0,0.0002335652825422585
4096.0,-0.0003418235864955932
4608.0,0.0006754997884854674
5120.0,0.0005229617818258703
5632.0,0.00012787414016202092
6144.0,4.6913468395359814e-05
6656.0,-0.0003244472900405526
7168.0,-0.0009928852086886764
7680.0,-0.0002888056915253401
8192.0,0.0006795719382353127
9216.0,0.00014059887325856835
10240.0,0.0008285287767648697
11264.0,-0.0007594292983412743
12288.0,-0.0004986101994290948
13312.0,0.0009580694022588432
14336.0,-0.0008533461950719357
end
