version,3.0
numOfCh,1
type,point
parent_name,1000-cuts
ch_type,1_1
kcount,1
numberNandB,1
brightnessNandB,1
carpet pos,0
pc,0
Time (ms),CH1 Auto-Correlation
1.0,0.022178953513503075
2.0,0.02047858014702797
3.0,0.018894843757152557
4.0,0.017481202259659767
5.0,0.016128631308674812
6.0,0.014861349016427994
7.0,0.013659407384693623
8.0,0.012562649324536324
9.0,0.011607402935624123
10.0,0.010763159021735191
11.0,0.009964563883841038
12.0,0.00918114185333252
13.0,0.008471176028251648
14.0,0.007818096317350864
15.0,0.007243161555379629
16.0,0.006720134522765875
18.0,0.005775392986834049
20.0,0.00495860306546092
22.0,0.004248656798154116
24.0,0.0036785788834095
26.0,0.0032179730478674173
28.0,0.0028548515401780605
30.0,0.0025161616504192352
32.0,0.002118708100169897
36.0,0.0013554252218455076
40.0,0.000753041123971343
44.0,0.0002922591520473361
48.0,0.0002942759601864964
52.0,0.00044250363134779036
56.0,0.0004437031166162342
60.0,0.0006118782330304384
64.0,0.0007417250308208168
72.0,0.00036071790964342654
80.0,9.26207285374403e-05
88.0,7.354361150646582e-05
96.0,-0.0001877505419543013
104.0,-0.00023367087123915553
112.0,-4.163659468758851e-05
120.0,0.00024804368149489164
128.0,0.000314724980853498
144.0,0.0012025053147226572
160.0,0.0004005722003057599
176.0,-0.0002967305190395564
192.0,-0.000785669544711709
208.0,-0.001057382090948522
224.0,-0.0012682598317041993
240.0,-0.0014545328449457884
256.0,-0.0008305228548124433
288.0,-0.00011605308100115508
320.0,-0.0005785596440546215
352.0,-0.0010274664964526892
384.0,-0.0006470836233347654
416.0,-3.281862518633716e-05
448.0,1.8305123376194388e-05
480.0,-0.0005914361099712551
512.0,-0.0001886831596493721
576.0,-0.0005054717767052352
640.0,0.0006910855881869793
704.0,0.0008559632697142661
768.0,-0.0003097153385169804
832.0,0.00012624678493011743
896.0,-0.0004295768158044666
960.0,-0.0002526156895328313
1024.0,0.00023957822122611105
1152.0,-0.0007218953687697649
1280.0,1.767986213963013e-05
1408.0,-7.237202225951478e-05
1536.0,9.738133667269722e-05
1664.0,-0.0003211159200873226
1792.0,-0.0003394290106371045
1920.0,-0.00014340560301207006
2048.0,0.0007132240571081638
2304.0,-0.00013538527127820998
2560.0,-0.00021957319404464215
2816.0,-5.76135134906508e-05
3072.0,0.00016793422400951385
3328.0,-0.00033449349575676024
3584.0,-0.00035474388278089464
3840.0,-0.00016453744319733232
4096.0,-0.0002630777598824352
4608.0,3.065818236791529e-05
5120.0,0.0003848153864964843
5632.0,-0.0001515423209639266
6144.0,0.00017355699674226344
6656.0,0.00011796943726949394
7168.0,-2.001961001951713e-05
7680.0,-8.963242726167664e-05
8192.0,0.00027152718394063413
9216.0,-0.00018715248734224588
10240.0,3.389865378267132e-05
11264.0,-9.322507685283199e-05
12288.0,1.798577250156086e-05
13312.0,3.957609806093387e-05
14336.0,-3.4112810681108385e-05
end
