version,3.0
numOfCh,1
type,point
parent_name,1000-cuts
ch_type,1_1
kcount,1
numberNandB,1
brightnessNandB,1
carpet pos,0
pc,0
Time (ms),CH1 Auto-Correlation
1.0,0.06107868254184723
2.0,0.05640888959169388
3.0,0.0519716702401638
4.0,0.04789304733276367
5.0,0.04408573731780052
6.0,0.04044805467128754
7.0,0.0370967872440815
8.0,0.03415638953447342
9.0,0.03150248900055885
10.0,0.029181158170104027
11.0,0.02701668255031109
12.0,0.025010349228978157
13.0,0.02338840439915657
14.0,0.02194277197122574
15.0,0.02059752866625786
16.0,0.019460950046777725
18.0,0.017356034368276596
20.0,0.015633925795555115
22.0,0.014010682702064514
24.0,0.012605546973645687
26.0,0.011376835405826569
28.0,0.010120726190507412
30.0,0.0088223647326231
32.0,0.007592841982841492
36.0,0.005777266342192888
40.0,0.004285568371415138
44.0,0.0026961462572216988
48.0,0.0014499950921162963
52.0,0.0005075663793832064
56.0,-0.0004669486952479929
60.0,-0.0009812326170504093
64.0,-0.0011454166378825903
72.0,-0.0010507138213142753
80.0,-0.0005734178121201694
88.0,-0.0006588514079339802
96.0,0.00018166004156228155
104.0,0.0004785399651154876
112.0,0.001761451829224825
120.0,0.0021180317271500826
128.0,0.0007217208622023463
144.0,0.00046123648644424975
160.0,0.0024188386742025614
176.0,0.00413126265630126
192.0,0.0033716449979692698
208.0,0.002542200731113553
224.0,0.0033415418583899736
240.0,0.0042052119970321655
256.0,0.003196503734216094
288.0,-0.0013793768594041467
320.0,-0.0018180226907134056
352.0,0.0006021413719281554
384.0,0.0006693436880595982
416.0,0.0021809148602187634
448.0,-1.3895534721086733e-05
480.0,-0.0004616513615474105
512.0,0.002918947720900178
576.0,-0.0016410809475928545
640.0,0.0005544943269342184
704.0,-0.0007104967371560633
768.0,0.00015869943308643997
832.0,-0.0008089736220426857
896.0,0.0001910095743369311
960.0,-0.002355468925088644
1024.0,-0.0018427803879603744
1152.0,0.00034695526119321585
1280.0,0.0004541075322777033
1408.0,0.0009024484315887094
1536.0,0.0005403059185482562
1664.0,-0.0006339108804240823
1792.0,0.0007299454882740974
1920.0,0.0007370330858975649
2048.0,0.0018851071363314986
2304.0,0.00013774742546956986
2560.0,0.00038115784991532564
2816.0,-0.0006889989599585533
3072.0,0.0004594640922732651
3328.0,-3.082046896452084e-05
3584.0,-0.00026337982853874564
3840.0,0.0010099182836711407
4096.0,-0.0011530613992363214
4608.0,-0.00042230531107634306
5120.0,0.0016022917116060853
5632.0,-0.0010895482264459133
6144.0,-0.0010379976592957973
6656.0,0.0008301677880808711
7168.0,0.0005108258919790387
7680.0,0.0009324008133262396
8192.0,0.00039656326407566667
9216.0,-0.002078742254525423
10240.0,0.00010191844194196165
11264.0,-0.0016510424902662635
12288.0,-0.0012901992304250598
13312.0,-0.00039101895526982844
14336.0,-0.0005559313576668501
end
