version,3.0
numOfCh,1
type,point
parent_name,dirty_0dot08-0dot1
ch_type,1_1
kcount,1
numberNandB,1
brightnessNandB,1
carpet pos,0
pc,0
Time (ms),CH1 Auto-Correlation
1.0,1.5512261390686035
2.0,1.538710117340088
3.0,1.5257313251495361
4.0,1.5134963989257812
5.0,1.501867651939392
6.0,1.4902632236480713
7.0,1.4789035320281982
8.0,1.4677815437316895
9.0,1.4577476978302002
10.0,1.4469327926635742
11.0,1.4365360736846924
12.0,1.4262433052062988
13.0,1.4162336587905884
14.0,1.4054789543151855
15.0,1.395631194114685
16.0,1.3858275413513184
18.0,1.3661540746688843
20.0,1.3458912372589111
22.0,1.3253092765808105
24.0,1.3061820268630981
26.0,1.2885963916778564
28.0,1.2701376676559448
30.0,1.2528252601623535
32.0,1.236191749572754
36.0,1.205056071281433
40.0,1.1768243312835693
44.0,1.1477036476135254
48.0,1.1194738149642944
52.0,1.0934687852859497
56.0,1.0739061832427979
60.0,1.0569370985031128
64.0,1.0425831079483032
72.0,1.0261179208755493
80.0,1.0121091604232788
88.0,1.005950927734375
96.0,0.9989500045776367
104.0,0.9870415329933167
112.0,0.9682809114456177
120.0,0.9408127665519714
128.0,0.9151156544685364
144.0,0.8597918152809143
160.0,0.806506335735321
176.0,0.7435343265533447
192.0,0.6953164339065552
208.0,0.6722317934036255
224.0,0.6514808535575867
240.0,0.6369205713272095
256.0,0.6227090954780579
288.0,0.5395534038543701
320.0,0.4871692955493927
352.0,0.47300219535827637
384.0,0.48587721586227417
416.0,0.5156514644622803
448.0,0.5579335689544678
480.0,0.598690927028656
512.0,0.6245705485343933
576.0,0.5871037244796753
640.0,0.4800022542476654
704.0,0.4811607599258423
768.0,0.421764612197876
832.0,0.325298547744751
896.0,0.28158825635910034
960.0,0.2843325436115265
1024.0,0.32406339049339294
1152.0,0.25170791149139404
1280.0,0.29847627878189087
1408.0,0.35413938760757446
1536.0,0.49761590361595154
1664.0,0.41046708822250366
1792.0,0.3586496114730835
1920.0,0.31820082664489746
2048.0,0.3230808675289154
2304.0,0.25964680314064026
2560.0,0.05974015220999718
2816.0,-0.06758043169975281
3072.0,-0.12324337661266327
3328.0,-0.16386358439922333
3584.0,-0.14113184809684753
3840.0,-0.14520049095153809
4096.0,-0.23362304270267487
4608.0,-0.322081059217453
5120.0,-0.4590848386287689
5632.0,-0.48872700333595276
6144.0,-0.4077939987182617
6656.0,-0.4513621926307678
7168.0,-0.5102804899215698
7680.0,-0.481445848941803
8192.0,-0.23269549012184143
9216.0,-0.003978621680289507
10240.0,0.06062929332256317
11264.0,0.20362155139446259
12288.0,0.23957130312919617
13312.0,0.26330429315567017
14336.0,0.31578993797302246
end
