version,3.0
numOfCh,1
type,point
parent_name,dirty_0dot08-0dot1
ch_type,1_1
kcount,1
numberNandB,1
brightnessNandB,1
carpet pos,0
pc,0
Time (ms),CH1 Auto-Correlation
1.0,1.161672830581665
2.0,1.1505160331726074
3.0,1.1398520469665527
4.0,1.1295050382614136
5.0,1.119783639907837
6.0,1.1101033687591553
7.0,1.1004469394683838
8.0,1.0909738540649414
9.0,1.081470012664795
10.0,1.0728137493133545
11.0,1.0647650957107544
12.0,1.0567744970321655
13.0,1.0487862825393677
14.0,1.040932536125183
15.0,1.0324903726577759
16.0,1.0247681140899658
18.0,1.009468674659729
20.0,0.9938756823539734
22.0,0.9789062142372131
24.0,0.9628961682319641
26.0,0.9473891258239746
28.0,0.9322243928909302
30.0,0.9166853427886963
32.0,0.9018300771713257
36.0,0.8735060095787048
40.0,0.8468185663223267
44.0,0.8223410248756409
48.0,0.797204315662384
52.0,0.7734858989715576
56.0,0.752878725528717
60.0,0.7367903590202332
64.0,0.720726728439331
72.0,0.6911752820014954
80.0,0.6623275876045227
88.0,0.6313165426254272
96.0,0.6008511781692505
104.0,0.5721191763877869
112.0,0.5470232963562012
120.0,0.5223806500434875
128.0,0.5021417140960693
144.0,0.45947569608688354
160.0,0.4169866442680359
176.0,0.3741661310195923
192.0,0.3277498185634613
208.0,0.2863892912864685
224.0,0.24505051970481873
240.0,0.19816216826438904
256.0,0.15365494787693024
288.0,0.10594446212053299
320.0,0.07989268749952316
352.0,0.049354445189237595
384.0,0.016350068151950836
416.0,-0.0013459034962579608
448.0,-0.018735120072960854
480.0,-0.025808677077293396
512.0,-0.04603009298443794
576.0,-0.05660349875688553
640.0,-0.04086952656507492
704.0,-0.05833779647946358
768.0,-0.06128774955868721
832.0,-0.05001263692975044
896.0,-0.0671435296535492
960.0,-0.0765293762087822
1024.0,-0.08335765451192856
1152.0,-0.14989528059959412
1280.0,-0.22270604968070984
1408.0,-0.25757887959480286
1536.0,-0.25986140966415405
1664.0,-0.20519967377185822
1792.0,-0.08525890856981277
1920.0,-0.017705529928207397
2048.0,0.034892488270998
2304.0,0.1933469921350479
2560.0,0.11290217190980911
2816.0,0.025976411998271942
3072.0,-0.03755689039826393
3328.0,-0.18555021286010742
3584.0,-0.14117924869060516
3840.0,-0.13753709197044373
4096.0,-0.08844231069087982
4608.0,0.19288280606269836
5120.0,0.038765799254179
5632.0,0.06937848031520844
6144.0,-0.08941182494163513
6656.0,-0.06971126049757004
7168.0,0.015580320730805397
7680.0,0.04438969865441322
8192.0,0.10373210161924362
9216.0,-0.018447408452630043
10240.0,0.10606706142425537
11264.0,-0.10335882753133774
12288.0,0.07698086649179459
13312.0,-0.04880456626415253
14336.0,-0.12274713069200516
end
