version,3.0
numOfCh,1
type,point
parent_name,dirty_0dot08-0dot1
ch_type,1_1
kcount,1
numberNandB,1
brightnessNandB,1
carpet pos,0
pc,0
Time (ms),CH1 Auto-Correlation
1.0,1.3538830280303955
2.0,1.33808171749115
3.0,1.3233659267425537
4.0,1.3090572357177734
5.0,1.295263409614563
6.0,1.2815691232681274
7.0,1.2688349485397339
8.0,1.256716012954712
9.0,1.245007872581482
10.0,1.2340879440307617
11.0,1.2246296405792236
12.0,1.21551513671875
13.0,1.206984043121338
14.0,1.1987864971160889
15.0,1.190445899963379
16.0,1.1819908618927002
18.0,1.165495753288269
20.0,1.1483721733093262
22.0,1.1305032968521118
24.0,1.1128242015838623
26.0,1.0942109823226929
28.0,1.0765522718429565
30.0,1.0612629652023315
32.0,1.0456658601760864
36.0,1.0138293504714966
40.0,0.9801880121231079
44.0,0.9476422071456909
48.0,0.9210747480392456
52.0,0.896279513835907
56.0,0.8719074130058289
60.0,0.8487024903297424
64.0,0.830878734588623
72.0,0.7957916855812073
80.0,0.7455147504806519
88.0,0.6866139769554138
96.0,0.6301091909408569
104.0,0.5781114101409912
112.0,0.5409322381019592
120.0,0.5053439736366272
128.0,0.4761091470718384
144.0,0.44426965713500977
160.0,0.4300048351287842
176.0,0.4184628427028656
192.0,0.42619234323501587
208.0,0.43094512820243835
224.0,0.4255479872226715
240.0,0.40710166096687317
256.0,0.37807968258857727
288.0,0.33013999462127686
320.0,0.26865601539611816
352.0,0.25114309787750244
384.0,0.24503599107265472
416.0,0.27716687321662903
448.0,0.32918044924736023
480.0,0.34914445877075195
512.0,0.3369956612586975
576.0,0.28408244252204895
640.0,0.2206178903579712
704.0,0.18034936487674713
768.0,0.2139657735824585
832.0,0.19199708104133606
896.0,0.07110288739204407
960.0,0.003843116806820035
1024.0,0.006512166932225227
1152.0,0.04946059361100197
1280.0,0.16343477368354797
1408.0,0.11618806421756744
1536.0,0.01628470979630947
1664.0,0.07062630355358124
1792.0,0.05918673425912857
1920.0,0.08255136758089066
2048.0,0.10111474990844727
2304.0,0.05392620339989662
2560.0,0.043767545372247696
2816.0,-0.004069429822266102
3072.0,0.02069946750998497
3328.0,-0.03780597448348999
3584.0,-0.047820039093494415
3840.0,0.09341432899236679
4096.0,0.3419128954410553
4608.0,0.1525053083896637
5120.0,0.01420869305729866
5632.0,0.0011160760186612606
6144.0,-0.05166301876306534
6656.0,-0.0818169116973877
7168.0,-0.09482575953006744
7680.0,-0.14266850054264069
8192.0,-0.17653022706508636
9216.0,-0.25147414207458496
10240.0,-0.2153252810239792
11264.0,-0.21103641390800476
12288.0,-0.1386524885892868
13312.0,-0.25765281915664673
14336.0,-0.26618924736976624
end
