version,3.0
numOfCh,1
type,point
parent_name,dirty_0dot08-0dot1
ch_type,1_1
kcount,1
numberNandB,1
brightnessNandB,1
carpet pos,0
pc,0
Time (ms),CH1 Auto-Correlation
1.0,0.7861522436141968
2.0,0.7797528505325317
3.0,0.7737513184547424
4.0,0.7676122784614563
5.0,0.7614383101463318
6.0,0.7553811073303223
7.0,0.7496402263641357
8.0,0.7436935901641846
9.0,0.7378625869750977
10.0,0.7313905358314514
11.0,0.724534273147583
12.0,0.7178453803062439
13.0,0.7108378410339355
14.0,0.7038524150848389
15.0,0.6966217756271362
16.0,0.6895397901535034
18.0,0.6756139993667603
20.0,0.6623234748840332
22.0,0.6488471627235413
24.0,0.6347867846488953
26.0,0.6219102144241333
28.0,0.6103635430335999
30.0,0.5980257391929626
32.0,0.5853872299194336
36.0,0.5595700740814209
40.0,0.5337902903556824
44.0,0.5074463486671448
48.0,0.48164379596710205
52.0,0.4550451934337616
56.0,0.42952027916908264
60.0,0.4041960537433624
64.0,0.37962761521339417
72.0,0.33448654413223267
80.0,0.29354986548423767
88.0,0.25930383801460266
96.0,0.23184175789356232
104.0,0.21400456130504608
112.0,0.20069587230682373
120.0,0.18807412683963776
128.0,0.176482155919075
144.0,0.16480529308319092
160.0,0.15922348201274872
176.0,0.1569807529449463
192.0,0.14575858414173126
208.0,0.13003455102443695
224.0,0.11801601201295853
240.0,0.10820324718952179
256.0,0.10458862781524658
288.0,0.10696347057819366
320.0,0.09305236488580704
352.0,0.07620198279619217
384.0,0.07128940522670746
416.0,0.09471920877695084
448.0,0.11606208980083466
480.0,0.08348065614700317
512.0,0.03153249993920326
576.0,-0.01094543281942606
640.0,-0.02622835896909237
704.0,0.004937699064612389
768.0,0.08382104337215424
832.0,0.07166213542222977
896.0,0.03581232950091362
960.0,0.009059176780283451
1024.0,0.005672011058777571
1152.0,0.05594807490706444
1280.0,0.04622751846909523
1408.0,0.002944864332675934
1536.0,0.03277603164315224
1664.0,0.0009788749739527702
1792.0,-0.025183336809277534
1920.0,-0.038047365844249725
2048.0,-0.047590166330337524
2304.0,-0.00741527508944273
2560.0,-0.0009167816606350243
2816.0,-0.012414997443556786
3072.0,-0.025477968156337738
3328.0,-0.04406631365418434
3584.0,-0.0317724384367466
3840.0,-0.03102671541273594
4096.0,-0.04497281461954117
4608.0,-0.060630179941654205
5120.0,-0.03525466471910477
5632.0,-0.02341511659324169
6144.0,-0.03912316635251045
6656.0,-0.057810358703136444
7168.0,-0.06216488033533096
7680.0,-0.0524449348449707
8192.0,0.003894335823133588
9216.0,0.007499127648770809
10240.0,0.048115652054548264
11264.0,0.08063448965549469
12288.0,0.015867166221141815
13312.0,-0.024289151653647423
14336.0,-0.025090256705880165
end
