version,3.0
numOfCh,1
type,point
parent_name,dirty_0dot08-0dot1
ch_type,1_1
kcount,1
numberNandB,1
brightnessNandB,1
carpet pos,0
pc,0
Time (ms),CH1 Auto-Correlation
1.0,0.7208345532417297
2.0,0.7151172757148743
3.0,0.7095133066177368
4.0,0.7042496800422668
5.0,0.6991738080978394
6.0,0.6942422986030579
7.0,0.689941942691803
8.0,0.6856684684753418
9.0,0.6818633675575256
10.0,0.6780990362167358
11.0,0.673944890499115
12.0,0.6698381304740906
13.0,0.6655399203300476
14.0,0.6611533761024475
15.0,0.6572405695915222
16.0,0.6537466645240784
18.0,0.6474940776824951
20.0,0.6419695019721985
22.0,0.6363561153411865
24.0,0.6303452849388123
26.0,0.6242749094963074
28.0,0.6179401278495789
30.0,0.6121823787689209
32.0,0.6064903140068054
36.0,0.5961206555366516
40.0,0.5872488617897034
44.0,0.5784241557121277
48.0,0.5717788934707642
52.0,0.5661088228225708
56.0,0.5585108399391174
60.0,0.5509555339813232
64.0,0.541765034198761
72.0,0.5286446213722229
80.0,0.5144894123077393
88.0,0.49965447187423706
96.0,0.4894459545612335
104.0,0.4750029146671295
112.0,0.4535350799560547
120.0,0.42963266372680664
128.0,0.40761351585388184
144.0,0.36523160338401794
160.0,0.33581605553627014
176.0,0.30787193775177
192.0,0.27747756242752075
208.0,0.24930310249328613
224.0,0.21933861076831818
240.0,0.19263650476932526
256.0,0.17222857475280762
288.0,0.13795584440231323
320.0,0.10037200152873993
352.0,0.05854940041899681
384.0,0.0237211212515831
416.0,-0.005610262975096703
448.0,-0.03762681037187576
480.0,-0.051062777638435364
512.0,-0.05684906989336014
576.0,-0.06382683664560318
640.0,-0.06335899233818054
704.0,-0.05782495439052582
768.0,-0.05279119685292244
832.0,-0.04353659600019455
896.0,-0.024077707901597023
960.0,0.01671501435339451
1024.0,0.0474780909717083
1152.0,0.04150095209479332
1280.0,-0.005424285773187876
1408.0,-0.012775611132383347
1536.0,-0.023730941116809845
1664.0,-0.019421249628067017
1792.0,-0.018083013594150543
1920.0,0.0023343900684267282
2048.0,0.04578491672873497
2304.0,0.03638534992933273
2560.0,-0.030044620856642723
2816.0,-0.0395997017621994
3072.0,-0.020206375047564507
3328.0,-0.014014401473104954
3584.0,-0.022939831018447876
3840.0,0.0050614969804883
4096.0,0.007424946874380112
4608.0,-0.05057106539607048
5120.0,-0.04004642739892006
5632.0,-0.04259039834141731
6144.0,-0.020625663921236992
6656.0,-0.008173823356628418
7168.0,-0.028296900913119316
7680.0,-0.07568298280239105
8192.0,-0.05475520342588425
9216.0,-0.052549418061971664
10240.0,-0.0077155157923698425
11264.0,0.023942172527313232
12288.0,0.193376362323761
13312.0,0.13793964684009552
14336.0,-0.1642785370349884
end
