version,3.0
numOfCh,1
type,point
parent_name,dirty_0dot08-0dot1
ch_type,1_1
kcount,1
numberNandB,1
brightnessNandB,1
carpet pos,0
pc,0
Time (ms),CH1 Auto-Correlation
1.0,1.194132924079895
2.0,1.1846306324005127
3.0,1.176034927368164
4.0,1.1661357879638672
5.0,1.156166672706604
6.0,1.1470578908920288
7.0,1.1380469799041748
8.0,1.1293795108795166
9.0,1.1217361688613892
10.0,1.1130201816558838
11.0,1.104177713394165
12.0,1.0958032608032227
13.0,1.0873744487762451
14.0,1.078864574432373
15.0,1.0696322917938232
16.0,1.0611746311187744
18.0,1.0442148447036743
20.0,1.026519536972046
22.0,1.008922815322876
24.0,0.9910781383514404
26.0,0.9728885889053345
28.0,0.9542466998100281
30.0,0.9353421330451965
32.0,0.9176967144012451
36.0,0.8826178312301636
40.0,0.8458762168884277
44.0,0.8075485229492188
48.0,0.77088862657547
52.0,0.735304057598114
56.0,0.6995051503181458
60.0,0.6631661057472229
64.0,0.6272965669631958
72.0,0.5638027191162109
80.0,0.5149338245391846
88.0,0.47369325160980225
96.0,0.44238436222076416
104.0,0.4185149073600769
112.0,0.40007317066192627
120.0,0.3876572251319885
128.0,0.37377411127090454
144.0,0.33980852365493774
160.0,0.31328630447387695
176.0,0.29475948214530945
192.0,0.27027034759521484
208.0,0.23691599071025848
224.0,0.20764684677124023
240.0,0.18716555833816528
256.0,0.1642654538154602
288.0,0.1265772134065628
320.0,0.09792666882276535
352.0,0.09106127172708511
384.0,0.0906045064330101
416.0,0.0726873055100441
448.0,0.06855163723230362
480.0,0.06869395077228546
512.0,0.07427145540714264
576.0,0.07564546167850494
640.0,0.059204451739788055
704.0,0.03238362446427345
768.0,0.02630777657032013
832.0,-0.004334283526986837
896.0,-0.03128812462091446
960.0,-0.051987383514642715
1024.0,-0.04745463654398918
1152.0,0.03100411593914032
1280.0,-0.018837813287973404
1408.0,-0.038808539509773254
1536.0,-0.058222297579050064
1664.0,0.1375737339258194
1792.0,-0.0232901182025671
1920.0,-0.019857794046401978
2048.0,0.06697995960712433
2304.0,0.08374354243278503
2560.0,-0.00650544511154294
2816.0,0.04673871770501137
3072.0,-0.007311234716325998
3328.0,0.009965977631509304
3584.0,0.2114316076040268
3840.0,-0.11752236634492874
4096.0,-0.11331259459257126
4608.0,-0.07117609679698944
5120.0,0.042493756860494614
5632.0,0.13556380569934845
6144.0,-0.006869154516607523
6656.0,-0.11161821335554123
7168.0,-0.08556249737739563
7680.0,-0.10213662683963776
8192.0,-0.07319866865873337
9216.0,-0.08145759999752045
10240.0,-0.07792006433010101
11264.0,-0.0705898180603981
12288.0,-0.08132079243659973
13312.0,0.060535307973623276
14336.0,0.039556004106998444
end
