version,3.0
numOfCh,1
type,point
parent_name,dirty_0dot08-0dot1
ch_type,1_1
kcount,1
numberNandB,1
brightnessNandB,1
carpet pos,0
pc,0
Time (ms),CH1 Auto-Correlation
1.0,0.5787007212638855
2.0,0.5704034566879272
3.0,0.5620169043540955
4.0,0.5526763796806335
5.0,0.5435722470283508
6.0,0.534538209438324
7.0,0.5256168842315674
8.0,0.5159463286399841
9.0,0.5057540535926819
10.0,0.4967162311077118
11.0,0.4879786968231201
12.0,0.47941869497299194
13.0,0.4718644618988037
14.0,0.4642871618270874
15.0,0.45704036951065063
16.0,0.4509199261665344
18.0,0.44086435437202454
20.0,0.43221718072891235
22.0,0.42360755801200867
24.0,0.41611340641975403
26.0,0.408705472946167
28.0,0.400005042552948
30.0,0.3930702805519104
32.0,0.38766494393348694
36.0,0.3754768371582031
40.0,0.3596142828464508
44.0,0.3436600863933563
48.0,0.3299323618412018
52.0,0.3214017450809479
56.0,0.3135513663291931
60.0,0.3013501465320587
64.0,0.2867583930492401
72.0,0.2578314542770386
80.0,0.22715432941913605
88.0,0.19641539454460144
96.0,0.17415963113307953
104.0,0.1506301611661911
112.0,0.12559232115745544
120.0,0.10445408523082733
128.0,0.08749823272228241
144.0,0.06512444466352463
160.0,0.053831372410058975
176.0,0.0471535362303257
192.0,0.045458145439624786
208.0,0.041759274899959564
224.0,0.03454079478979111
240.0,0.03617320954799652
256.0,0.03898606076836586
288.0,0.02554880827665329
320.0,0.02530408650636673
352.0,0.03983378782868385
384.0,0.05376768484711647
416.0,0.054611966013908386
448.0,0.05043725669384003
480.0,0.03536307066679001
512.0,0.01848524808883667
576.0,0.018112245947122574
640.0,0.03381801024079323
704.0,0.02465241402387619
768.0,-0.008163642138242722
832.0,-0.024326322600245476
896.0,-0.035005129873752594
960.0,-0.040155552327632904
1024.0,-0.034242890775203705
1152.0,-0.023593667894601822
1280.0,0.0019042532658204436
1408.0,-0.011641081422567368
1536.0,-0.014479050412774086
1664.0,-0.015237183310091496
1792.0,-0.020241932943463326
1920.0,0.01971863955259323
2048.0,0.022377628833055496
2304.0,-0.029137510806322098
2560.0,-0.05460171028971672
2816.0,-0.04558321833610535
3072.0,-0.021766038611531258
3328.0,0.004416595678776503
3584.0,0.027081342414021492
3840.0,-0.02236231416463852
4096.0,-0.026530981063842773
4608.0,-0.03433142602443695
5120.0,0.025070423260331154
5632.0,0.083027683198452
6144.0,-0.011875174008309841
6656.0,-0.009269758127629757
7168.0,0.004383880645036697
7680.0,0.0010499475756660104
8192.0,-0.03578374907374382
9216.0,-0.03590269759297371
10240.0,-0.01357564702630043
11264.0,0.04923883453011513
12288.0,-0.0030772541649639606
13312.0,0.017432481050491333
14336.0,-0.01940763369202614
end
