version,3.0
numOfCh,1
type,point
parent_name,dirty_0dot08-0dot1
ch_type,1_1
kcount,1
numberNandB,1
brightnessNandB,1
carpet pos,0
pc,0
Time (ms),CH1 Auto-Correlation
1.0,0.8669492602348328
2.0,0.8585184812545776
3.0,0.8499534130096436
4.0,0.8413658738136292
5.0,0.8326355814933777
6.0,0.8243891596794128
7.0,0.8155660629272461
8.0,0.8077517151832581
9.0,0.8001211285591125
10.0,0.7926624417304993
11.0,0.7851496934890747
12.0,0.7779892683029175
13.0,0.7705143690109253
14.0,0.7634457349777222
15.0,0.7557114362716675
16.0,0.7477284669876099
18.0,0.7332481145858765
20.0,0.7196283340454102
22.0,0.7066395878791809
24.0,0.6938362717628479
26.0,0.6809531450271606
28.0,0.668354868888855
30.0,0.6558976173400879
32.0,0.6439390182495117
36.0,0.6238510012626648
40.0,0.6083136200904846
44.0,0.5948172211647034
48.0,0.579111635684967
52.0,0.5626899003982544
56.0,0.5465145111083984
60.0,0.5294359922409058
64.0,0.5112472176551819
72.0,0.47234871983528137
80.0,0.44204819202423096
88.0,0.4232982099056244
96.0,0.4147299528121948
104.0,0.40594813227653503
112.0,0.38804686069488525
120.0,0.36705389618873596
128.0,0.3428955078125
144.0,0.29354235529899597
160.0,0.2494780272245407
176.0,0.19258800148963928
192.0,0.15593968331813812
208.0,0.14184261858463287
224.0,0.13105620443820953
240.0,0.12515094876289368
256.0,0.11763585358858109
288.0,0.10221710801124573
320.0,0.10356318950653076
352.0,0.11185372620820999
384.0,0.09663783758878708
416.0,0.07840903848409653
448.0,0.0785398855805397
480.0,0.08935318887233734
512.0,0.09899751096963882
576.0,0.11353690177202225
640.0,0.09462371468544006
704.0,0.03475751727819443
768.0,-0.0065443976782262325
832.0,-0.009065465070307255
896.0,-0.016107579693198204
960.0,-0.029885681346058846
1024.0,-0.03167044743895531
1152.0,-0.03615475073456764
1280.0,-0.011621274054050446
1408.0,0.020671600475907326
1536.0,0.018290476873517036
1664.0,0.021615028381347656
1792.0,-3.645375181804411e-05
1920.0,-0.015056283213198185
2048.0,-0.017487870529294014
2304.0,-0.017191177234053612
2560.0,-0.002978269476443529
2816.0,-0.035478003323078156
3072.0,-0.038230471312999725
3328.0,0.07546600699424744
3584.0,0.15522287786006927
3840.0,0.024104632437229156
4096.0,0.12166770547628403
4608.0,-0.054842233657836914
5120.0,-0.011164376512169838
5632.0,-0.028165310621261597
6144.0,0.0014710695249959826
6656.0,-0.03410251438617706
7168.0,-0.07926791161298752
7680.0,-0.08216290175914764
8192.0,-0.08707857877016068
9216.0,-0.09340434521436691
10240.0,-0.0227716863155365
11264.0,-0.009650043211877346
12288.0,-0.049185581505298615
13312.0,-0.005896745715290308
14336.0,0.030656414106488228
end
