version,3.0
numOfCh,1
type,point
parent_name,dirty_0dot08-0dot1
ch_type,1_1
kcount,1
numberNandB,1
brightnessNandB,1
carpet pos,0
pc,0
Time (ms),CH1 Auto-Correlation
1.0,0.9500318765640259
2.0,0.9415291547775269
3.0,0.9334336519241333
4.0,0.9256045818328857
5.0,0.9176573753356934
6.0,0.909870445728302
7.0,0.9024636149406433
8.0,0.8952121734619141
9.0,0.8879134654998779
10.0,0.8810993432998657
11.0,0.8744232058525085
12.0,0.8678704500198364
13.0,0.8618702292442322
14.0,0.8557604551315308
15.0,0.8495423197746277
16.0,0.8435608744621277
18.0,0.8321484923362732
20.0,0.8215925693511963
22.0,0.8107641935348511
24.0,0.7996917366981506
26.0,0.7885313034057617
28.0,0.7764796018600464
30.0,0.7643359303474426
32.0,0.7523559927940369
36.0,0.7301032543182373
40.0,0.7094636559486389
44.0,0.688765823841095
48.0,0.6686115264892578
52.0,0.6509045958518982
56.0,0.6325223445892334
60.0,0.6148073673248291
64.0,0.5959731340408325
72.0,0.5612534880638123
80.0,0.529523491859436
88.0,0.49900004267692566
96.0,0.47166895866394043
104.0,0.44978901743888855
112.0,0.4318559765815735
120.0,0.41475096344947815
128.0,0.3998892605304718
144.0,0.37774112820625305
160.0,0.35280975699424744
176.0,0.32971158623695374
192.0,0.30162209272384644
208.0,0.2697206437587738
224.0,0.24595078825950623
240.0,0.23317772150039673
256.0,0.2248917520046234
288.0,0.19307585060596466
320.0,0.1668906807899475
352.0,0.1548234075307846
384.0,0.16206888854503632
416.0,0.18395137786865234
448.0,0.20565587282180786
480.0,0.20719483494758606
512.0,0.18183664977550507
576.0,0.1529056876897812
640.0,0.15212249755859375
704.0,0.1485135853290558
768.0,0.13217756152153015
832.0,0.10905566066503525
896.0,0.12856651842594147
960.0,0.16933293640613556
1024.0,0.18344217538833618
1152.0,0.21049049496650696
1280.0,0.12205729633569717
1408.0,0.026325099170207977
1536.0,0.09397108107805252
1664.0,0.15195350348949432
1792.0,0.17502903938293457
1920.0,0.13823120296001434
2048.0,0.1428125947713852
2304.0,0.1428501456975937
2560.0,0.10666310042142868
2816.0,0.20945093035697937
3072.0,0.19553548097610474
3328.0,0.15596774220466614
3584.0,0.11621138453483582
3840.0,0.16559937596321106
4096.0,0.13212528824806213
4608.0,-0.06969460844993591
5120.0,-0.014274870976805687
5632.0,-0.04946385696530342
6144.0,-0.0454753115773201
6656.0,-0.041473716497421265
7168.0,-0.11793413013219833
7680.0,-0.1708877831697464
8192.0,-0.20894087851047516
9216.0,-0.21344982087612152
10240.0,-0.2022213488817215
11264.0,-0.2238101214170456
12288.0,-0.2540135383605957
13312.0,-0.02034970000386238
14336.0,-0.31535419821739197
end
