version,3.0
numOfCh,1
type,point
parent_name,dirty_0dot08-0dot1
ch_type,1_1
kcount,1
numberNandB,1
brightnessNandB,1
carpet pos,0
pc,0
Time (ms),CH1 Auto-Correlation
1.0,1.3413574695587158
2.0,1.328299880027771
3.0,1.3148027658462524
4.0,1.3009169101715088
5.0,1.2874070405960083
6.0,1.274415373802185
7.0,1.2614144086837769
8.0,1.2480560541152954
9.0,1.2354398965835571
10.0,1.2237492799758911
11.0,1.212071180343628
12.0,1.2014957666397095
13.0,1.1910312175750732
14.0,1.1809637546539307
15.0,1.1713132858276367
16.0,1.1620670557022095
18.0,1.1440002918243408
20.0,1.1257574558258057
22.0,1.1068607568740845
24.0,1.0871821641921997
26.0,1.0683214664459229
28.0,1.050253987312317
30.0,1.033171534538269
32.0,1.01706063747406
36.0,0.9862704873085022
40.0,0.957352340221405
44.0,0.9309335947036743
48.0,0.9061936140060425
52.0,0.8822886347770691
56.0,0.8612321615219116
60.0,0.8433414697647095
64.0,0.8256941437721252
72.0,0.7893316745758057
80.0,0.7496986985206604
88.0,0.7132828235626221
96.0,0.6888427734375
104.0,0.6697660088539124
112.0,0.6499218344688416
120.0,0.6373417377471924
128.0,0.6202306747436523
144.0,0.5644745230674744
160.0,0.4824731647968292
176.0,0.41083765029907227
192.0,0.3683052361011505
208.0,0.3188212215900421
224.0,0.2731219530105591
240.0,0.2578774690628052
256.0,0.26294130086898804
288.0,0.2175331562757492
320.0,0.16801372170448303
352.0,0.11768560111522675
384.0,0.09108193218708038
416.0,0.08717186003923416
448.0,0.0669630914926529
480.0,0.02320043556392193
512.0,0.0035674457903951406
576.0,0.048582036048173904
640.0,0.09068410098552704
704.0,0.09497663378715515
768.0,0.03861632198095322
832.0,-0.005177567712962627
896.0,-0.040469590574502945
960.0,-0.08820892125368118
1024.0,-0.08838200569152832
1152.0,-0.09229311347007751
1280.0,-0.09485188871622086
1408.0,-0.0834008976817131
1536.0,-0.11774249374866486
1664.0,-0.0923415794968605
1792.0,-0.0806795209646225
1920.0,-0.1277901828289032
2048.0,-0.1359439492225647
2304.0,-0.03127608075737953
2560.0,-0.05368100479245186
2816.0,-0.023018507286906242
3072.0,0.15740354359149933
3328.0,0.04272541403770447
3584.0,-0.059115465730428696
3840.0,-0.1024073138833046
4096.0,-0.091892309486866
4608.0,-0.06410824507474899
5120.0,-0.04664810374379158
5632.0,-0.05436761677265167
6144.0,-0.08619491755962372
6656.0,0.06577888131141663
7168.0,0.2309703528881073
7680.0,-0.08704026788473129
8192.0,-0.17763830721378326
9216.0,0.008666732348501682
10240.0,0.36178481578826904
11264.0,-0.03106016106903553
12288.0,-0.031616587191820145
13312.0,-0.11786472797393799
14336.0,-0.3132009208202362
end
