version,3.0
numOfCh,1
type,point
parent_name,dirty_0dot08-0dot1
ch_type,1_1
kcount,1
numberNandB,1
brightnessNandB,1
carpet pos,0
pc,0
Time (ms),CH1 Auto-Correlation
1.0,1.0447416305541992
2.0,1.033635139465332
3.0,1.0227775573730469
4.0,1.0114105939865112
5.0,0.9998989701271057
6.0,0.9885162711143494
7.0,0.976782500743866
8.0,0.9650455713272095
9.0,0.9522213339805603
10.0,0.9398824572563171
11.0,0.9267935752868652
12.0,0.9137433767318726
13.0,0.9009429812431335
14.0,0.887590765953064
15.0,0.8743458986282349
16.0,0.86124587059021
18.0,0.8349241018295288
20.0,0.8093850016593933
22.0,0.7851834297180176
24.0,0.7604357600212097
26.0,0.736216127872467
28.0,0.7140049934387207
30.0,0.6939194202423096
32.0,0.6757548451423645
36.0,0.6494778394699097
40.0,0.6307555437088013
44.0,0.6165841817855835
48.0,0.607406735420227
52.0,0.6018603444099426
56.0,0.6007695198059082
60.0,0.6003178954124451
64.0,0.5996785759925842
72.0,0.6022524833679199
80.0,0.5959840416908264
88.0,0.5693966746330261
96.0,0.5313760638237
104.0,0.49536287784576416
112.0,0.4690658152103424
120.0,0.45784610509872437
128.0,0.442232221364975
144.0,0.3776372969150543
160.0,0.31338295340538025
176.0,0.2624497413635254
192.0,0.23755894601345062
208.0,0.22601012885570526
224.0,0.19649428129196167
240.0,0.17127344012260437
256.0,0.15988796949386597
288.0,0.09756030142307281
320.0,0.06123797968029976
352.0,0.0606493279337883
384.0,0.06938112527132034
416.0,0.10766924172639847
448.0,0.14574134349822998
480.0,0.15817447006702423
512.0,0.16036337614059448
576.0,0.13256128132343292
640.0,0.08823679387569427
704.0,0.08228994905948639
768.0,0.08847788721323013
832.0,0.0716654434800148
896.0,0.069129079580307
960.0,0.09586980938911438
1024.0,0.127594456076622
1152.0,0.2697278559207916
1280.0,0.3403680622577667
1408.0,0.18824650347232819
1536.0,0.022945132106542587
1664.0,-0.007399532478302717
1792.0,0.02857382223010063
1920.0,0.010309947654604912
2048.0,-0.03980054333806038
2304.0,-0.03538132086396217
2560.0,-0.07332104444503784
2816.0,-0.09590161591768265
3072.0,-0.09957992285490036
3328.0,-0.08899740129709244
3584.0,-0.09786198288202286
3840.0,-0.12962660193443298
4096.0,-0.11282141506671906
4608.0,-0.07978450506925583
5120.0,-0.10221250355243683
5632.0,-0.07397980988025665
6144.0,-0.08756829798221588
6656.0,-0.10237176716327667
7168.0,-0.09062403440475464
7680.0,-0.0395815372467041
8192.0,-0.04586394503712654
9216.0,0.025553425773978233
10240.0,0.04694664105772972
11264.0,0.03831155225634575
12288.0,0.030887644737958908
13312.0,0.030427241697907448
14336.0,0.02238071709871292
end
