version,3.0
numOfCh,1
type,point
parent_name,dirty_0dot08-0dot1
ch_type,1_1
kcount,1
numberNandB,1
brightnessNandB,1
carpet pos,0
pc,0
Time (ms),CH1 Auto-Correlation
1.0,1.3400676250457764
2.0,1.3285894393920898
3.0,1.3167319297790527
4.0,1.304450511932373
5.0,1.2921574115753174
6.0,1.280213713645935
7.0,1.2684543132781982
8.0,1.2571097612380981
9.0,1.247005581855774
10.0,1.2370187044143677
11.0,1.2272697687149048
12.0,1.2177550792694092
13.0,1.2085272073745728
14.0,1.199656367301941
15.0,1.191002368927002
16.0,1.1821768283843994
18.0,1.164742350578308
20.0,1.1471854448318481
22.0,1.1303555965423584
24.0,1.1144754886627197
26.0,1.0986149311065674
28.0,1.083130955696106
30.0,1.0659215450286865
32.0,1.049401044845581
36.0,1.021493911743164
40.0,0.9956647157669067
44.0,0.9700400233268738
48.0,0.9424675107002258
52.0,0.9149103164672852
56.0,0.8884874582290649
60.0,0.861217737197876
64.0,0.8330375552177429
72.0,0.7756820321083069
80.0,0.7364572882652283
88.0,0.7065106630325317
96.0,0.6837213635444641
104.0,0.6630138754844666
112.0,0.6329766511917114
120.0,0.5989074110984802
128.0,0.5681682229042053
144.0,0.5156529545783997
160.0,0.4623554050922394
176.0,0.41254928708076477
192.0,0.3688727915287018
208.0,0.33731046319007874
224.0,0.31730401515960693
240.0,0.28727900981903076
256.0,0.25562021136283875
288.0,0.22905510663986206
320.0,0.1698985993862152
352.0,0.08121030777692795
384.0,-0.00478380685672164
416.0,-0.06402134895324707
448.0,-0.0675787404179573
480.0,-0.042354173958301544
512.0,-0.008095952682197094
576.0,0.02700258232653141
640.0,0.034283947199583054
704.0,-0.002792172832414508
768.0,0.010893789120018482
832.0,0.013570628128945827
896.0,-0.032496411353349686
960.0,-0.10569533705711365
1024.0,-0.16119934618473053
1152.0,-0.20108453929424286
1280.0,-0.1814633309841156
1408.0,-0.18411025404930115
1536.0,-0.11184974759817123
1664.0,-0.004790696781128645
1792.0,-0.013579927384853363
1920.0,-0.06533287465572357
2048.0,-0.10344339162111282
2304.0,-0.17360426485538483
2560.0,-0.11327703297138214
2816.0,-0.008813154883682728
3072.0,-0.007094166241586208
3328.0,0.08106148988008499
3584.0,-0.06289350986480713
3840.0,-0.07490850239992142
4096.0,0.03967776149511337
4608.0,0.08582082390785217
5120.0,0.01820243149995804
5632.0,-0.07649820297956467
6144.0,-0.01841401308774948
6656.0,-0.059333935379981995
7168.0,-0.10565754026174545
7680.0,0.04729357734322548
8192.0,0.10204021632671356
9216.0,-0.07039450109004974
10240.0,0.20789730548858643
11264.0,-0.19822026789188385
12288.0,-0.1977885514497757
13312.0,0.2358306646347046
14336.0,0.015688255429267883
end
