version,3.0
numOfCh,1
type,point
parent_name,dirty_0dot08-0dot1
ch_type,1_1
kcount,1
numberNandB,1
brightnessNandB,1
carpet pos,0
pc,0
Time (ms),CH1 Auto-Correlation
1.0,0.24017396569252014
2.0,0.23610427975654602
3.0,0.232274129986763
4.0,0.22901083528995514
5.0,0.22626271843910217
6.0,0.22350791096687317
7.0,0.22060231864452362
8.0,0.2172883301973343
9.0,0.2145056128501892
10.0,0.21141062676906586
11.0,0.20836324989795685
12.0,0.2056548148393631
13.0,0.20235300064086914
14.0,0.19915682077407837
15.0,0.1963478922843933
16.0,0.1934996098279953
18.0,0.18730135262012482
20.0,0.18012581765651703
22.0,0.17404930293560028
24.0,0.16824215650558472
26.0,0.16200903058052063
28.0,0.15618357062339783
30.0,0.15074403584003448
32.0,0.14490506052970886
36.0,0.13192319869995117
40.0,0.11908639967441559
44.0,0.10738307237625122
48.0,0.09644900262355804
52.0,0.08720158785581589
56.0,0.07985447347164154
60.0,0.0747140496969223
64.0,0.07087098807096481
72.0,0.06317658722400665
80.0,0.05675647035241127
88.0,0.05382571369409561
96.0,0.05099937692284584
104.0,0.046793773770332336
112.0,0.04314664378762245
120.0,0.04040614515542984
128.0,0.03652407228946686
144.0,0.027649538591504097
160.0,0.02568504586815834
176.0,0.030189670622348785
192.0,0.036698952317237854
208.0,0.03894362971186638
224.0,0.0339222252368927
240.0,0.022957289591431618
256.0,0.015996597707271576
288.0,0.03330082446336746
320.0,0.045493341982364655
352.0,0.0338466502726078
384.0,0.0366516076028347
416.0,0.045671556144952774
448.0,0.04013683274388313
480.0,0.03694924712181091
512.0,0.032787173986434937
576.0,0.02266238071024418
640.0,0.01732541434466839
704.0,0.05819234624505043
768.0,0.050004828721284866
832.0,0.008161326870322227
896.0,0.0014483745908364654
960.0,-0.002375396667048335
1024.0,0.002880476415157318
1152.0,0.009699949994683266
1280.0,0.009483653120696545
1408.0,0.016496429219841957
1536.0,0.011517088860273361
1664.0,0.004496445879340172
1792.0,0.0007003383943811059
1920.0,0.0019847522489726543
2048.0,0.007656608708202839
2304.0,0.0028338669799268246
2560.0,-0.0006215142202563584
2816.0,-0.006051153410226107
3072.0,-0.006483742967247963
3328.0,0.005792552605271339
3584.0,0.005971931386739016
3840.0,0.01426677219569683
4096.0,0.0018576994771137834
4608.0,-0.00260389712639153
5120.0,-0.009623827412724495
5632.0,-0.004678526893258095
6144.0,-0.005747991148382425
6656.0,-0.015309629961848259
7168.0,0.005390957463532686
7680.0,0.016465546563267708
8192.0,0.0039789811708033085
9216.0,-0.006098413374274969
10240.0,-0.010857939720153809
11264.0,-0.0033136853016912937
12288.0,-0.020136680454015732
13312.0,-0.07005972415208817
14336.0,-0.083255834877491
end
