version,3.0
numOfCh,1
type,point
parent_name,dirty_0dot08-0dot1
ch_type,1_1
kcount,1
numberNandB,1
brightnessNandB,1
carpet pos,0
pc,0
Time (ms),CH1 Auto-Correlation
1.0,0.977148711681366
2.0,0.9680423140525818
3.0,0.959183394908905
4.0,0.9504356384277344
5.0,0.942536473274231
6.0,0.9350876808166504
7.0,0.9274590611457825
8.0,0.9198600053787231
9.0,0.9122929573059082
10.0,0.9048761129379272
11.0,0.8975232839584351
12.0,0.8898566365242004
13.0,0.8827787637710571
14.0,0.8755292296409607
15.0,0.8684666156768799
16.0,0.8617116808891296
18.0,0.8480236530303955
20.0,0.8344783186912537
22.0,0.8212990760803223
24.0,0.8072872161865234
26.0,0.7926758527755737
28.0,0.7786204218864441
30.0,0.7657446265220642
32.0,0.7542699575424194
36.0,0.7334005236625671
40.0,0.7120203971862793
44.0,0.6913715600967407
48.0,0.6706963777542114
52.0,0.651114284992218
56.0,0.6340242624282837
60.0,0.616736114025116
64.0,0.5995123386383057
72.0,0.5708808302879333
80.0,0.5438570976257324
88.0,0.5149496793746948
96.0,0.4881007671356201
104.0,0.46794700622558594
112.0,0.4494839608669281
120.0,0.4242643117904663
128.0,0.39609652757644653
144.0,0.35702085494995117
160.0,0.31755271553993225
176.0,0.2757008969783783
192.0,0.24793940782546997
208.0,0.22235985100269318
224.0,0.20265333354473114
240.0,0.18647396564483643
256.0,0.1763884723186493
288.0,0.16397921741008759
320.0,0.17643478512763977
352.0,0.16835911571979523
384.0,0.13831225037574768
416.0,0.11109978705644608
448.0,0.09491951763629913
480.0,0.09804901480674744
512.0,0.10264160484075546
576.0,0.10916399210691452
640.0,0.06490543484687805
704.0,0.0787777453660965
768.0,0.11208250373601913
832.0,0.17750898003578186
896.0,0.2494121491909027
960.0,0.3272577226161957
1024.0,0.3410073518753052
1152.0,0.16709096729755402
1280.0,0.06479460000991821
1408.0,0.006176957860589027
1536.0,-0.026743929833173752
1664.0,-0.0034720925614237785
1792.0,0.058569807559251785
1920.0,0.1502808928489685
2048.0,0.11666584014892578
2304.0,0.014254584908485413
2560.0,-0.028033899143338203
2816.0,-0.0036837467923760414
3072.0,0.053003378212451935
3328.0,-0.042807549238204956
3584.0,0.023407746106386185
3840.0,0.024743810296058655
4096.0,0.04737110435962677
4608.0,-0.027489058673381805
5120.0,0.002216639695689082
5632.0,-0.0020535767544060946
6144.0,-0.06141938641667366
6656.0,-0.15886324644088745
7168.0,-0.172437384724617
7680.0,-0.15836188197135925
8192.0,-0.19708138704299927
9216.0,-0.1393408477306366
10240.0,-0.08321908116340637
11264.0,0.001230859779752791
12288.0,-0.010189556516706944
13312.0,-0.0660981610417366
14336.0,0.05866027623414993
end
