version,3.0
numOfCh,1
type,point
parent_name,dirty_0dot08-0dot1
ch_type,1_1
kcount,1
numberNandB,1
brightnessNandB,1
carpet pos,0
pc,0
Time (ms),CH1 Auto-Correlation
1.0,0.5757029056549072
2.0,0.5684781074523926
3.0,0.5608724355697632
4.0,0.5539190769195557
5.0,0.5474894046783447
6.0,0.5407999753952026
7.0,0.5343925952911377
8.0,0.5279718041419983
9.0,0.5212777256965637
10.0,0.5148630142211914
11.0,0.5081413388252258
12.0,0.5012630224227905
13.0,0.49372294545173645
14.0,0.486956387758255
15.0,0.4804081916809082
16.0,0.4743882119655609
18.0,0.4630998969078064
20.0,0.4519067704677582
22.0,0.44091740250587463
24.0,0.43020740151405334
26.0,0.4208182990550995
28.0,0.4131772518157959
30.0,0.40617096424102783
32.0,0.39842289686203003
36.0,0.3817148506641388
40.0,0.36622336506843567
44.0,0.3506905734539032
48.0,0.3360758125782013
52.0,0.32316863536834717
56.0,0.3110884130001068
60.0,0.3009386956691742
64.0,0.29076048731803894
72.0,0.27069371938705444
80.0,0.25056684017181396
88.0,0.23408232629299164
96.0,0.22111046314239502
104.0,0.21413356065750122
112.0,0.21097278594970703
120.0,0.20745518803596497
128.0,0.20035159587860107
144.0,0.17713364958763123
160.0,0.1618650108575821
176.0,0.15745441615581512
192.0,0.1474977433681488
208.0,0.13248661160469055
224.0,0.13120831549167633
240.0,0.13339704275131226
256.0,0.12744218111038208
288.0,0.11585726588964462
320.0,0.09591023623943329
352.0,0.07319972664117813
384.0,0.06484760344028473
416.0,0.06458143889904022
448.0,0.0853971391916275
480.0,0.10522019118070602
512.0,0.09785034507513046
576.0,0.09764619171619415
640.0,0.07916558533906937
704.0,0.07165761291980743
768.0,0.07515987008810043
832.0,0.04364873096346855
896.0,0.011309572495520115
960.0,-0.019461892545223236
1024.0,-0.026480767875909805
1152.0,-0.04850646108388901
1280.0,-0.0609089694917202
1408.0,-0.04431682452559471
1536.0,-0.050829868763685226
1664.0,-0.06774568557739258
1792.0,-0.08062238246202469
1920.0,-0.07347200065851212
2048.0,-0.05331708490848541
2304.0,-0.007683750241994858
2560.0,-0.03929334133863449
2816.0,-0.04847443103790283
3072.0,-0.0186324380338192
3328.0,-0.06594322621822357
3584.0,-0.04624996706843376
3840.0,-0.006647721864283085
4096.0,-0.028744079172611237
4608.0,-5.45157199667301e-05
5120.0,0.046015139669179916
5632.0,0.06391724944114685
6144.0,0.07025173306465149
6656.0,-0.045559536665678024
7168.0,-0.08155403286218643
7680.0,-0.09614097326993942
8192.0,-0.03332515060901642
9216.0,0.02407834492623806
10240.0,0.009881853125989437
11264.0,0.011703399941325188
12288.0,-0.005823642481118441
13312.0,-0.0077797300182282925
14336.0,0.02187805250287056
end
