version,3.0
numOfCh,1
type,point
parent_name,dirty_0dot08-0dot1
ch_type,1_1
kcount,1
numberNandB,1
brightnessNandB,1
carpet pos,0
pc,0
Time (ms),CH1 Auto-Correlation
1.0,0.3804163336753845
2.0,0.37743520736694336
3.0,0.37453746795654297
4.0,0.3720269501209259
5.0,0.36996224522590637
6.0,0.36818599700927734
7.0,0.3659825325012207
8.0,0.363670289516449
9.0,0.36109113693237305
10.0,0.35808923840522766
11.0,0.35534048080444336
12.0,0.3526754081249237
13.0,0.3499077558517456
14.0,0.3471679389476776
15.0,0.3445299565792084
16.0,0.3421052098274231
18.0,0.3380797803401947
20.0,0.33404770493507385
22.0,0.3297632038593292
24.0,0.32599765062332153
26.0,0.32257312536239624
28.0,0.31929269433021545
30.0,0.3156135678291321
32.0,0.31177639961242676
36.0,0.30409643054008484
40.0,0.2969045341014862
44.0,0.2905886769294739
48.0,0.284042626619339
52.0,0.27748993039131165
56.0,0.2703862190246582
60.0,0.2615402638912201
64.0,0.25307661294937134
72.0,0.2363445907831192
80.0,0.222477987408638
88.0,0.20828603208065033
96.0,0.19510556757450104
104.0,0.18610239028930664
112.0,0.17847663164138794
120.0,0.1697309911251068
128.0,0.15897312760353088
144.0,0.137918159365654
160.0,0.12881618738174438
176.0,0.12861667573451996
192.0,0.12423479557037354
208.0,0.12376012653112411
224.0,0.12422376126050949
240.0,0.11765369772911072
256.0,0.1069994866847992
288.0,0.09125782549381256
320.0,0.07143675535917282
352.0,0.0643613263964653
384.0,0.04466146603226662
416.0,0.030809437856078148
448.0,0.02198333479464054
480.0,0.022155480459332466
512.0,0.02365786023437977
576.0,0.023050276562571526
640.0,0.017697904258966446
704.0,0.015267038717865944
768.0,0.011542363092303276
832.0,0.005944911390542984
896.0,0.004581834189593792
960.0,0.002342104446142912
1024.0,0.006806293502449989
1152.0,0.0034393155947327614
1280.0,0.016977615654468536
1408.0,0.012168644927442074
1536.0,0.0108247771859169
1664.0,0.004668163135647774
1792.0,0.017733866348862648
1920.0,0.02758023329079151
2048.0,0.03700704127550125
2304.0,0.02216104418039322
2560.0,0.01603032276034355
2816.0,0.036009762436151505
3072.0,0.02713051810860634
3328.0,0.023196730762720108
3584.0,-0.014492588117718697
3840.0,-0.03475251421332359
4096.0,-0.007116322405636311
4608.0,-0.0463203564286232
5120.0,-0.03903619199991226
5632.0,-0.04112386330962181
6144.0,-0.05136139318346977
6656.0,-0.055817972868680954
7168.0,-0.04347071051597595
7680.0,-0.04753857105970383
8192.0,-0.03294868394732475
9216.0,-0.00840130727738142
10240.0,-0.002339737256988883
11264.0,0.014651335775852203
12288.0,0.020533209666609764
13312.0,0.019470641389489174
14336.0,0.02881559170782566
end
