version,3.0
numOfCh,1
type,point
parent_name,dirty_0dot08-0dot1
ch_type,1_1
kcount,1
numberNandB,1
brightnessNandB,1
carpet pos,0
pc,0
Time (ms),CH1 Auto-Correlation
1.0,0.6860899329185486
2.0,0.6809758543968201
3.0,0.676371157169342
4.0,0.6716525554656982
5.0,0.667585551738739
6.0,0.6637701392173767
7.0,0.6601277589797974
8.0,0.6558340191841125
9.0,0.6515733599662781
10.0,0.6473623514175415
11.0,0.6430033445358276
12.0,0.6387935876846313
13.0,0.6346821188926697
14.0,0.6313146948814392
15.0,0.627659797668457
16.0,0.624675989151001
18.0,0.6181071400642395
20.0,0.610395073890686
22.0,0.6021034717559814
24.0,0.5935970544815063
26.0,0.5849417448043823
28.0,0.5765109658241272
30.0,0.5689198970794678
32.0,0.5617173314094543
36.0,0.5472183227539062
40.0,0.5352637767791748
44.0,0.5213339328765869
48.0,0.5071781277656555
52.0,0.4919949471950531
56.0,0.47888877987861633
60.0,0.4657425880432129
64.0,0.4515419900417328
72.0,0.42157453298568726
80.0,0.3859047591686249
88.0,0.3494511544704437
96.0,0.3095517158508301
104.0,0.2722318470478058
112.0,0.2349517047405243
120.0,0.2035364806652069
128.0,0.17954608798027039
144.0,0.1419970542192459
160.0,0.11083810776472092
176.0,0.07950368523597717
192.0,0.05472056567668915
208.0,0.04266921430826187
224.0,0.03653021529316902
240.0,0.02665901929140091
256.0,0.014707652851939201
288.0,0.004422055557370186
320.0,-0.003693542443215847
352.0,-0.010160678997635841
384.0,-0.01028500311076641
416.0,-0.007344312500208616
448.0,-0.0054198321886360645
480.0,-0.004247874952852726
512.0,-0.002297658007591963
576.0,-0.007244710344821215
640.0,-0.0033595007844269276
704.0,0.012079869396984577
768.0,0.019244711846113205
832.0,0.022233957424759865
896.0,0.006472778040915728
960.0,-0.016418710350990295
1024.0,-0.030138351023197174
1152.0,-0.03298521041870117
1280.0,-0.02798590064048767
1408.0,-0.03483903408050537
1536.0,-0.03054281696677208
1664.0,-0.0021084945183247328
1792.0,-0.01514902338385582
1920.0,-0.02948404848575592
2048.0,-0.033605363219976425
2304.0,-0.008090600371360779
2560.0,-0.0008606038754805923
2816.0,-0.022130783647298813
3072.0,-0.013397078029811382
3328.0,-0.00936286523938179
3584.0,-0.014326754957437515
3840.0,-0.012351364828646183
4096.0,-0.0004471970023587346
4608.0,-0.0023819005582481623
5120.0,-0.039738528430461884
5632.0,-0.05945771187543869
6144.0,-0.02915865182876587
6656.0,-0.044597078114748
7168.0,-0.006720753386616707
7680.0,0.20508679747581482
8192.0,-0.02526225708425045
9216.0,-0.013907353393733501
10240.0,-0.005847260821610689
11264.0,-0.012898275628685951
12288.0,0.04100639745593071
13312.0,-0.0677809789776802
14336.0,0.031219162046909332
end
