version,3.0
numOfCh,1
type,point
parent_name,fe81d_0dot2-0dot1
ch_type,1_1
kcount,1
numberNandB,1
brightnessNandB,1
carpet pos,0
pc,0
Time (ms),CH1 Auto-Correlation
1.0,0.058154940605163574
2.0,0.05689974129199982
3.0,0.05572330579161644
4.0,0.05457763001322746
5.0,0.05347937345504761
6.0,0.05241549760103226
7.0,0.05141549929976463
8.0,0.050405554473400116
9.0,0.04943472146987915
10.0,0.04850925877690315
11.0,0.04762091115117073
12.0,0.04673799127340317
13.0,0.04592643678188324
14.0,0.04512885585427284
15.0,0.04434201121330261
16.0,0.04362856596708298
18.0,0.04229554533958435
20.0,0.041064195334911346
22.0,0.039872683584690094
24.0,0.03875637426972389
26.0,0.03766721859574318
28.0,0.03650807589292526
30.0,0.03540290147066116
32.0,0.03428834676742554
36.0,0.03199135884642601
40.0,0.029763981699943542
44.0,0.02765713632106781
48.0,0.025873899459838867
52.0,0.02428067848086357
56.0,0.022855350747704506
60.0,0.02147885225713253
64.0,0.02011963538825512
72.0,0.017553048208355904
80.0,0.015460562892258167
88.0,0.013826891779899597
96.0,0.012712500989437103
104.0,0.012219998985528946
112.0,0.01186327077448368
120.0,0.01177464984357357
128.0,0.01174238696694374
144.0,0.011420615948736668
160.0,0.010302703827619553
176.0,0.00878553744405508
192.0,0.0072002410888671875
208.0,0.005046744830906391
224.0,0.0030754576437175274
240.0,0.0028570974245667458
256.0,0.0032131525222212076
288.0,0.0042653470300138
320.0,0.003733210964128375
352.0,0.001205266686156392
384.0,-0.0011214283294975758
416.0,-0.001667211065068841
448.0,-0.0014337338507175446
480.0,-0.0006682011298835278
512.0,0.0005273199640214443
576.0,-0.0008559953421354294
640.0,-0.002407659078016877
704.0,-0.000812709447927773
768.0,0.00035141027183271945
832.0,-0.002080403035506606
896.0,0.0004329389485064894
960.0,-0.000898231752216816
1024.0,-0.001889058738015592
1152.0,-0.004062737803906202
1280.0,-0.004342468921095133
1408.0,-0.0009877554839476943
1536.0,0.0008319868938997388
1664.0,0.005189057439565659
1792.0,-0.001571233500726521
1920.0,-0.0033304141834378242
2048.0,-0.0066266413778066635
2304.0,-0.004335104487836361
2560.0,-0.0005659258458763361
2816.0,-0.0023450253065675497
3072.0,-0.008797511458396912
3328.0,-0.0038710925728082657
3584.0,-0.003276337869465351
3840.0,0.0014116944512352347
4096.0,-0.00029875291511416435
4608.0,0.0014254237757995725
5120.0,0.0073493653908371925
5632.0,-0.0038966224528849125
6144.0,0.0020271725952625275
6656.0,0.0021826510783284903
7168.0,-0.00543668307363987
7680.0,-0.0010172673501074314
8192.0,-0.001021054806187749
end
