version,3.0
numOfCh,1
type,point
parent_name,fe81d_0dot2-0dot1
ch_type,1_1
kcount,1
numberNandB,1
brightnessNandB,1
carpet pos,0
pc,0
Time (ms),CH1 Auto-Correlation
1.0,0.06877484917640686
2.0,0.06752105802297592
3.0,0.06632911413908005
4.0,0.06517402827739716
5.0,0.0640120655298233
6.0,0.06291399896144867
7.0,0.061844248324632645
8.0,0.06079906225204468
9.0,0.059781890362501144
10.0,0.05879390239715576
11.0,0.05782165750861168
12.0,0.056877605617046356
13.0,0.05595594272017479
14.0,0.055016957223415375
15.0,0.054092347621917725
16.0,0.053160328418016434
18.0,0.051412034779787064
20.0,0.049749553203582764
22.0,0.04807576909661293
24.0,0.0465054027736187
26.0,0.04505135491490364
28.0,0.04368416219949722
30.0,0.042360786348581314
32.0,0.041018083691596985
36.0,0.03846457600593567
40.0,0.0359908863902092
44.0,0.03379533812403679
48.0,0.032074056565761566
52.0,0.030559951439499855
56.0,0.0292391087859869
60.0,0.028075121343135834
64.0,0.02696903422474861
72.0,0.025234205648303032
80.0,0.02404584176838398
88.0,0.023197326809167862
96.0,0.022218799218535423
104.0,0.02154196985065937
112.0,0.020522266626358032
120.0,0.019180908799171448
128.0,0.01803310588002205
144.0,0.016359638422727585
160.0,0.015925604850053787
176.0,0.016199907287955284
192.0,0.015078983269631863
208.0,0.013576519675552845
224.0,0.011764852330088615
240.0,0.010376895777881145
256.0,0.009007378481328487
288.0,0.005067088175565004
320.0,0.004220000002533197
352.0,0.00415758928284049
384.0,0.0032616739626973867
416.0,-0.00022832115064375103
448.0,-0.00040031003300100565
480.0,0.0006796346278861165
512.0,0.0031090888660401106
576.0,0.005214919336140156
640.0,0.000710593129042536
704.0,-0.00048153381794691086
768.0,0.0007258704863488674
832.0,0.0008322371868416667
896.0,-0.0011034345952793956
960.0,-0.0006732108886353672
1024.0,-6.770719483029097e-05
1152.0,0.004749278537929058
1280.0,0.009428584016859531
1408.0,0.006363057531416416
1536.0,-0.0030456185340881348
1664.0,-0.0012363526038825512
1792.0,0.0028093678411096334
1920.0,0.0033987462520599365
2048.0,-0.0034920682664960623
2304.0,-0.007098106201738119
2560.0,-0.001396037288941443
2816.0,-0.009563598781824112
3072.0,-0.003624171484261751
3328.0,-0.00452427938580513
3584.0,-0.0022936109453439713
3840.0,-0.005566636566072702
4096.0,-0.008211017586290836
4608.0,0.0004294294922146946
5120.0,-0.0005310826236382127
5632.0,0.00408247159793973
6144.0,-0.0007675518281757832
6656.0,0.001231869449838996
7168.0,0.0019494638545438647
7680.0,-0.0031372045632451773
8192.0,-0.001914853579364717
end
