version,3.0
numOfCh,1
type,point
parent_name,fe81d_0dot2-0dot1
ch_type,1_1
kcount,1
numberNandB,1
brightnessNandB,1
carpet pos,0
pc,0
Time (ms),CH1 Auto-Correlation
1.0,0.06907734274864197
2.0,0.06782004982233047
3.0,0.06660234183073044
4.0,0.06545715034008026
5.0,0.06432726979255676
6.0,0.06325063854455948
7.0,0.06222401559352875
8.0,0.061197590082883835
9.0,0.0602434016764164
10.0,0.059319715946912766
11.0,0.058463204652071
12.0,0.05766088888049126
13.0,0.056899480521678925
14.0,0.05614238604903221
15.0,0.05539592355489731
16.0,0.054664552211761475
18.0,0.053315065801143646
20.0,0.05210917443037033
22.0,0.05103405565023422
24.0,0.05002593994140625
26.0,0.049037955701351166
28.0,0.04813447967171669
30.0,0.04726182296872139
32.0,0.04642781987786293
36.0,0.044896200299263
40.0,0.04341661557555199
44.0,0.0420159213244915
48.0,0.04056636989116669
52.0,0.039083100855350494
56.0,0.037656497210264206
60.0,0.0362953245639801
64.0,0.03502189368009567
72.0,0.03279652073979378
80.0,0.030232742428779602
88.0,0.02769891545176506
96.0,0.025864310562610626
104.0,0.024797888472676277
112.0,0.023694874718785286
120.0,0.02271914854645729
128.0,0.02198066934943199
144.0,0.02082877978682518
160.0,0.018567878752946854
176.0,0.015530472621321678
192.0,0.013246259652078152
208.0,0.011284511536359787
224.0,0.009398344904184341
240.0,0.008338453248143196
256.0,0.008101078681647778
288.0,0.006462551653385162
320.0,0.006279693450778723
352.0,0.0056173549965023994
384.0,0.005626158323138952
416.0,0.00608297623693943
448.0,0.0064633917063474655
480.0,0.006229506339877844
512.0,0.003511762944981456
576.0,-0.00017035736527759582
640.0,-0.004095825366675854
704.0,-0.004372122697532177
768.0,-0.0059711080975830555
832.0,-0.007455919403582811
896.0,-0.004193008877336979
960.0,-0.0018728196155279875
1024.0,-0.0036807649303227663
1152.0,-0.008540546521544456
1280.0,-0.001416992861777544
1408.0,0.003585593542084098
1536.0,0.007214409299194813
1664.0,0.00953860767185688
1792.0,0.0014875320484861732
1920.0,-0.0006507768994197249
2048.0,0.005597213748842478
2304.0,0.003944828175008297
2560.0,0.0009159123292192817
2816.0,-0.002486269921064377
3072.0,-0.003639263566583395
3328.0,-0.004587728064507246
3584.0,-0.0015222717775031924
3840.0,0.007315836846828461
4096.0,0.00485576968640089
4608.0,-0.004011277109384537
5120.0,-0.007540435064584017
5632.0,-0.0003004862810485065
6144.0,-0.00037187986890785396
6656.0,-0.004888955503702164
7168.0,-0.005681418813765049
7680.0,0.002144294325262308
8192.0,-0.0014148592017591
end
