version,3.0
numOfCh,1
type,point
parent_name,fe81d_0dot2-0dot1
ch_type,1_1
kcount,1
numberNandB,1
brightnessNandB,1
carpet pos,0
pc,0
Time (ms),CH1 Auto-Correlation
1.0,0.059307295829057693
2.0,0.057929374277591705
3.0,0.056602247059345245
4.0,0.05529262498021126
5.0,0.05406516417860985
6.0,0.05292264372110367
7.0,0.05184388533234596
8.0,0.05081985890865326
9.0,0.04980676621198654
10.0,0.048864997923374176
11.0,0.04798276722431183
12.0,0.047098275274038315
13.0,0.04626815766096115
14.0,0.04547883942723274
15.0,0.04474833980202675
16.0,0.04409221187233925
18.0,0.04277905076742172
20.0,0.041480500251054764
22.0,0.04022747650742531
24.0,0.03899148106575012
26.0,0.03784865140914917
28.0,0.03679988160729408
30.0,0.03578871861100197
32.0,0.03475983813405037
36.0,0.03272390365600586
40.0,0.031003369018435478
44.0,0.029718030244112015
48.0,0.02860705927014351
52.0,0.02754310891032219
56.0,0.026507636532187462
60.0,0.025278860703110695
64.0,0.024066386744379997
72.0,0.022161459550261497
80.0,0.020541174337267876
88.0,0.019220789894461632
96.0,0.0179606806486845
104.0,0.01671256311237812
112.0,0.015291615389287472
120.0,0.013491344638168812
128.0,0.012187955901026726
144.0,0.010763508267700672
160.0,0.009318424388766289
176.0,0.007705967407673597
192.0,0.0053172120824456215
208.0,0.00467827171087265
224.0,0.005684814415872097
240.0,0.006776102818548679
256.0,0.007889809086918831
288.0,0.009632942266762257
320.0,0.00923717487603426
352.0,0.008328487165272236
384.0,0.008219384588301182
416.0,0.00874062068760395
448.0,0.007598303258419037
480.0,0.006357534788548946
512.0,0.005224361550062895
576.0,0.004632864613085985
640.0,0.005370352417230606
704.0,0.009684127755463123
768.0,0.012758578173816204
832.0,0.009557250887155533
896.0,0.005531089846044779
960.0,-0.0031740828417241573
1024.0,-0.0034678413067013025
1152.0,0.0006349867326207459
1280.0,-0.0013389645610004663
1408.0,-0.0022098692134022713
1536.0,0.0004678781551774591
1664.0,-0.001477405778132379
1792.0,-0.004222169518470764
1920.0,0.0008044249261729419
2048.0,0.00017321431369055063
2304.0,0.000659800018183887
2560.0,0.002348491456359625
2816.0,-0.0018391750054433942
3072.0,-0.002577104140073061
3328.0,0.000393431429984048
3584.0,-0.0032156677916646004
3840.0,-0.002214619889855385
4096.0,-0.003417817410081625
4608.0,-0.0060242414474487305
5120.0,-0.00623220345005393
5632.0,-0.006831441540271044
6144.0,0.0005486846202984452
6656.0,0.0008795821340754628
7168.0,-0.003397368360310793
7680.0,0.0012379343388602138
8192.0,0.002511903177946806
end
