version,3.0
numOfCh,1
type,point
parent_name,fe81d_0dot2-0dot1
ch_type,1_1
kcount,1
numberNandB,1
brightnessNandB,1
carpet pos,0
pc,0
Time (ms),CH1 Auto-Correlation
1.0,0.06016627699136734
2.0,0.059030886739492416
3.0,0.057970721274614334
4.0,0.05693557858467102
5.0,0.055956464260816574
6.0,0.05499381944537163
7.0,0.05407480522990227
8.0,0.053196270018815994
9.0,0.05236018821597099
10.0,0.05156165361404419
11.0,0.050779055804014206
12.0,0.04997974634170532
13.0,0.04922980070114136
14.0,0.048520755022764206
15.0,0.04784971848130226
16.0,0.047182295471429825
18.0,0.04590578377246857
20.0,0.04469617083668709
22.0,0.04357864707708359
24.0,0.04254985228180885
26.0,0.04160543531179428
28.0,0.040716398507356644
30.0,0.03987802192568779
32.0,0.03908093273639679
36.0,0.03752643242478371
40.0,0.036121778190135956
44.0,0.034855566918849945
48.0,0.03369038924574852
52.0,0.0324757844209671
56.0,0.03131946548819542
60.0,0.03037116304039955
64.0,0.029531478881835938
72.0,0.028016896918416023
80.0,0.026752080768346786
88.0,0.025688478723168373
96.0,0.02452312596142292
104.0,0.023249775171279907
112.0,0.02160666510462761
120.0,0.02012232132256031
128.0,0.018824484199285507
144.0,0.016864139586687088
160.0,0.015335571020841599
176.0,0.015104621648788452
192.0,0.015043643303215504
208.0,0.013644637539982796
224.0,0.012305082753300667
240.0,0.01177793089300394
256.0,0.012362509965896606
288.0,0.012724892236292362
320.0,0.011640177108347416
352.0,0.011809322983026505
384.0,0.012218455784022808
416.0,0.01050761342048645
448.0,0.010501012206077576
480.0,0.011344168335199356
512.0,0.011136510409414768
576.0,0.008377427235245705
640.0,0.009113918989896774
704.0,0.011634571477770805
768.0,0.011157743632793427
832.0,0.009651466272771358
896.0,0.005993689876049757
960.0,0.0018263711826875806
1024.0,-0.0015801455592736602
1152.0,-0.0031751361675560474
1280.0,0.00021173809363972396
1408.0,-0.0015548219671472907
1536.0,-0.0009250789298675954
1664.0,-0.0035037214402109385
1792.0,-0.0059142038226127625
1920.0,-0.004363028798252344
2048.0,-0.002162262564525008
2304.0,-0.000201768460101448
2560.0,-0.001274983980692923
2816.0,-0.0003351261839270592
3072.0,-0.0005949108744971454
3328.0,-0.004390554036945105
3584.0,-0.004628058988600969
3840.0,-0.0037951467093080282
4096.0,-0.005333184264600277
4608.0,-0.0035829420667141676
5120.0,-0.003395333420485258
5632.0,0.004820628557354212
6144.0,0.0058327349834144115
6656.0,0.002795010106638074
7168.0,-0.0017496453365311027
7680.0,-0.006811003666371107
8192.0,-0.011191808618605137
end
