version,3.0
numOfCh,1
type,point
parent_name,fe81d_0dot2-0dot1
ch_type,1_1
kcount,1
numberNandB,1
brightnessNandB,1
carpet pos,0
pc,0
Time (ms),CH1 Auto-Correlation
1.0,0.0698443204164505
2.0,0.0684988871216774
3.0,0.06718950718641281
4.0,0.06596443802118301
5.0,0.06480807065963745
6.0,0.06367996335029602
7.0,0.06258285045623779
8.0,0.06147708743810654
9.0,0.06044388562440872
10.0,0.05941341817378998
11.0,0.058408718556165695
12.0,0.05743473023176193
13.0,0.056456953287124634
14.0,0.05549750104546547
15.0,0.05462262034416199
16.0,0.05378947779536247
18.0,0.05223515257239342
20.0,0.050726525485515594
22.0,0.049325887113809586
24.0,0.0479595810174942
26.0,0.046652283519506454
28.0,0.0453447625041008
30.0,0.04406151920557022
32.0,0.04289007931947708
36.0,0.04064230993390083
40.0,0.038570597767829895
44.0,0.03690704330801964
48.0,0.03572005033493042
52.0,0.034765515476465225
56.0,0.03356163576245308
60.0,0.032263532280921936
64.0,0.031003400683403015
72.0,0.028813080862164497
80.0,0.026654576882719994
88.0,0.024371149018406868
96.0,0.022683292627334595
104.0,0.02215610072016716
112.0,0.021887708455324173
120.0,0.021434670314192772
128.0,0.020389031618833542
144.0,0.017453163862228394
160.0,0.015306074172258377
176.0,0.0144580639898777
192.0,0.014346216805279255
208.0,0.013433489017188549
224.0,0.012137169949710369
240.0,0.009993636049330235
256.0,0.008166695944964886
288.0,0.005545932333916426
320.0,0.004690088331699371
352.0,0.007425892166793346
384.0,0.00911496952176094
416.0,0.010011830367147923
448.0,0.00998649001121521
480.0,0.010398481041193008
512.0,0.009611362591385841
576.0,0.007911174558103085
640.0,0.003717641346156597
704.0,0.002977703232318163
768.0,0.00480928597971797
832.0,0.004337312653660774
896.0,0.004548829514533281
960.0,0.006039156578481197
1024.0,0.004328467883169651
1152.0,-0.00020597952243406326
1280.0,-0.0001194720680359751
1408.0,0.003811292350292206
1536.0,0.00015142378106247634
1664.0,-0.004904169123619795
1792.0,-0.003187740920111537
1920.0,-0.0019455396104604006
2048.0,-0.006825373973697424
2304.0,-0.013120961375534534
2560.0,-0.005874007940292358
2816.0,0.0015883310697972775
3072.0,0.0011149802012369037
3328.0,-0.002386671956628561
3584.0,-0.003540778998285532
3840.0,-0.0016256639501079917
4096.0,0.007685182616114616
4608.0,0.003985952120274305
5120.0,-0.0025206010323017836
5632.0,0.00042590219527482986
6144.0,0.0010445197112858295
6656.0,-0.0026557634118944407
7168.0,0.0002932764182332903
7680.0,-0.0062652756460011005
8192.0,-0.006461610086262226
end
