version,3.0
numOfCh,1
type,point
parent_name,fe81d_0dot2-0dot1
ch_type,1_1
kcount,1
numberNandB,1
brightnessNandB,1
carpet pos,0
pc,0
Time (ms),CH1 Auto-Correlation
1.0,0.057878315448760986
2.0,0.05672802776098251
3.0,0.05563150346279144
4.0,0.054558705538511276
5.0,0.053522344678640366
6.0,0.05253971740603447
7.0,0.05158456042408943
8.0,0.050672341138124466
9.0,0.04981601610779762
10.0,0.048995427787303925
11.0,0.04820345714688301
12.0,0.047410767525434494
13.0,0.04667620360851288
14.0,0.045969635248184204
15.0,0.04526876285672188
16.0,0.044604673981666565
18.0,0.0433468222618103
20.0,0.04209703579545021
22.0,0.04087807238101959
24.0,0.03975792974233627
26.0,0.03873119875788689
28.0,0.037755317986011505
30.0,0.036792099475860596
32.0,0.03587467968463898
36.0,0.03418935835361481
40.0,0.03262368589639664
44.0,0.031104620546102524
48.0,0.02969818376004696
52.0,0.028496718034148216
56.0,0.02737518586218357
60.0,0.026106873527169228
64.0,0.024992389604449272
72.0,0.023283515125513077
80.0,0.02184435725212097
88.0,0.020796187222003937
96.0,0.019790850579738617
104.0,0.018781235441565514
112.0,0.017770394682884216
120.0,0.01673920638859272
128.0,0.015441290102899075
144.0,0.013031551614403725
160.0,0.0113156633451581
176.0,0.01029905118048191
192.0,0.010021734051406384
208.0,0.010611510835587978
224.0,0.011315615847706795
240.0,0.010647900402545929
256.0,0.009294827468693256
288.0,0.007537452038377523
320.0,0.009254510514438152
352.0,0.012733317911624908
384.0,0.013829674571752548
416.0,0.011485963128507137
448.0,0.00902824942022562
480.0,0.005312427878379822
512.0,0.00325875380076468
576.0,0.003162985434755683
640.0,0.0021307049319148064
704.0,0.000526568153873086
768.0,0.003396024229004979
832.0,0.0034521655179560184
896.0,-0.002548117656260729
960.0,-0.004217201843857765
1024.0,-0.002592322649434209
1152.0,-0.0014980736887082458
1280.0,0.0017572545912116766
1408.0,-0.00259012496098876
1536.0,-0.00485484953969717
1664.0,-0.003264525206759572
1792.0,-0.00524908397346735
1920.0,-0.0008875143830664456
2048.0,0.0010408046655356884
2304.0,0.0025952686555683613
2560.0,0.005161375738680363
2816.0,0.001952432212419808
3072.0,0.000617323094047606
3328.0,0.0010699357371777296
3584.0,-0.001439644955098629
3840.0,0.0011063377605751157
4096.0,0.0007840965990908444
4608.0,0.005615549627691507
5120.0,0.002892191056162119
5632.0,-0.0012314975028857589
6144.0,-0.006114999298006296
6656.0,-0.010759523138403893
7168.0,-0.005716114770621061
7680.0,-0.001518700853921473
8192.0,0.0022184147965162992
end
