version,3.0
numOfCh,1
type,point
parent_name,fe81d_0dot2-0dot1
ch_type,1_1
kcount,1
numberNandB,1
brightnessNandB,1
carpet pos,0
pc,0
Time (ms),CH1 Auto-Correlation
1.0,0.056641388684511185
2.0,0.0554385632276535
3.0,0.054265495389699936
4.0,0.053099375218153
5.0,0.05189219117164612
6.0,0.05084746703505516
7.0,0.0494849868118763
8.0,0.04849898815155029
9.0,0.04754620045423508
10.0,0.04638257250189781
11.0,0.0455801859498024
12.0,0.04480912536382675
13.0,0.04399160295724869
14.0,0.04314226284623146
15.0,0.042362283915281296
16.0,0.04164957255125046
18.0,0.04031025990843773
20.0,0.03886429965496063
22.0,0.03749367594718933
24.0,0.036234237253665924
26.0,0.03512940928339958
28.0,0.03410618007183075
30.0,0.03311507776379585
32.0,0.03225129470229149
36.0,0.03079688735306263
40.0,0.029362451285123825
44.0,0.028020190075039864
48.0,0.026872655376791954
52.0,0.026003940030932426
56.0,0.025326455011963844
60.0,0.024691907688975334
64.0,0.02418004535138607
72.0,0.022816749289631844
80.0,0.021456655114889145
88.0,0.02041340246796608
96.0,0.019542312249541283
104.0,0.01885918900370598
112.0,0.018322179093956947
120.0,0.018086453899741173
128.0,0.017829805612564087
144.0,0.016838042065501213
160.0,0.015722135081887245
176.0,0.0147068090736866
192.0,0.013591738417744637
208.0,0.011911236681044102
224.0,0.011272517032921314
240.0,0.011991788633167744
256.0,0.011823335662484169
288.0,0.008670019917190075
320.0,0.00893929973244667
352.0,0.007526585832238197
384.0,0.004985320847481489
416.0,0.0016072404105216265
448.0,-0.0005415019113570452
480.0,-0.0017177971312776208
512.0,-0.002654383657500148
576.0,-0.003760164137929678
640.0,-0.005207481794059277
704.0,-0.004035647958517075
768.0,-0.003701736219227314
832.0,-0.005277096293866634
896.0,-0.003389237681403756
960.0,-0.004336725454777479
1024.0,-0.0012365406146273017
1152.0,0.0017811923753470182
1280.0,0.005153296515345573
1408.0,0.008450998924672604
1536.0,0.006660396233201027
1664.0,0.004381642211228609
1792.0,0.0017172325169667602
1920.0,0.0011807403061538935
2048.0,-0.005084262695163488
2304.0,-0.0009059396106749773
2560.0,0.0013360986486077309
2816.0,0.004110442474484444
3072.0,0.0030613176058977842
3328.0,0.0007072510197758675
3584.0,-0.00656521413475275
3840.0,-0.008399835787713528
4096.0,-0.004087144508957863
4608.0,0.0005391652230173349
5120.0,-0.001740931300446391
5632.0,0.0006093162228353322
6144.0,-0.009168245829641819
6656.0,-2.6913998226518743e-05
7168.0,-0.0007713165250606835
7680.0,-0.011962774209678173
8192.0,0.005252209957689047
end
