version,3.0
numOfCh,1
type,point
parent_name,fe81d_0dot2-0dot1
ch_type,1_1
kcount,1
numberNandB,1
brightnessNandB,1
carpet pos,0
pc,0
Time (ms),CH1 Auto-Correlation
1.0,0.09318916499614716
2.0,0.08874491602182388
3.0,0.08320432156324387
4.0,0.07728736847639084
5.0,0.07196033746004105
6.0,0.06661449372768402
7.0,0.06149696931242943
8.0,0.05832984298467636
9.0,0.054824505001306534
10.0,0.053896963596343994
11.0,0.05266040563583374
12.0,0.051494065672159195
13.0,0.050626836717128754
14.0,0.04977793246507645
15.0,0.04879502207040787
16.0,0.04787064343690872
18.0,0.04589832201600075
20.0,0.044014837592840195
22.0,0.04194314032793045
24.0,0.04034394398331642
26.0,0.038977377116680145
28.0,0.03769650682806969
30.0,0.036256060004234314
32.0,0.034203559160232544
36.0,0.030679887160658836
40.0,0.02837236039340496
44.0,0.026456907391548157
48.0,0.02433237060904503
52.0,0.02240132912993431
56.0,0.02056349255144596
60.0,0.019143030047416687
64.0,0.01756264641880989
72.0,0.011340858414769173
80.0,0.009401277638971806
88.0,0.007932406850159168
96.0,0.007369804661720991
104.0,0.006810013670474291
112.0,0.006897269282490015
120.0,0.006748045329004526
128.0,0.006719188764691353
144.0,0.005766787100583315
160.0,0.002333728363737464
176.0,0.0005867126164957881
192.0,-0.0024742356035858393
208.0,-0.0035689978394657373
224.0,-0.0035414223093539476
240.0,-0.002759872702881694
256.0,-0.0017554083606228232
288.0,-0.0012136371806263924
320.0,-0.001816152478568256
352.0,-0.0016783190658316016
384.0,0.0006850016652606428
416.0,0.0037502602208405733
448.0,0.005665195640176535
480.0,0.005855603609234095
512.0,0.0034981314092874527
576.0,-0.0013619712553918362
640.0,-0.002662956016138196
704.0,-0.0035834279842674732
768.0,-0.001747728674672544
832.0,-0.0024661102797836065
896.0,-0.003653785679489374
960.0,-0.0027910941280424595
1024.0,-0.004787219222635031
1152.0,0.00244012288749218
1280.0,0.0017152928048744798
1408.0,-0.0017875971971079707
1536.0,-0.003680274821817875
1664.0,0.00047390360850840807
1792.0,-0.004357562400400639
1920.0,-0.0018429311458021402
2048.0,-0.0006678972858935595
2304.0,0.004160655662417412
2560.0,-0.0019967262633144855
2816.0,0.003894834080711007
3072.0,-0.002516291569918394
3328.0,0.0020063165575265884
3584.0,0.002774406224489212
3840.0,-0.00485845934599638
4096.0,-0.004615046549588442
4608.0,0.0007073137676343322
5120.0,-0.0010278994450345635
5632.0,-0.001633158535696566
6144.0,-0.001979346852749586
6656.0,0.00012733903713524342
7168.0,0.003397490130737424
7680.0,-0.0009161592461168766
8192.0,0.0054412842728197575
end
