version,3.0
numOfCh,1
type,point
parent_name,fe81d_0dot2-0dot1
ch_type,1_1
kcount,1
numberNandB,1
brightnessNandB,1
carpet pos,0
pc,0
Time (ms),CH1 Auto-Correlation
1.0,0.06212841346859932
2.0,0.06082277372479439
3.0,0.05965075641870499
4.0,0.0585642009973526
5.0,0.05749788507819176
6.0,0.0564630888402462
7.0,0.05544636771082878
8.0,0.054453276097774506
9.0,0.05350258946418762
10.0,0.05264146253466606
11.0,0.05181353539228439
12.0,0.051001764833927155
13.0,0.050190217792987823
14.0,0.04938541725277901
15.0,0.048622507601976395
16.0,0.047872453927993774
18.0,0.04642248898744583
20.0,0.04515630751848221
22.0,0.043957214802503586
24.0,0.04281296953558922
26.0,0.04170650988817215
28.0,0.040636323392391205
30.0,0.039639148861169815
32.0,0.038668517023324966
36.0,0.03683016821742058
40.0,0.0350714847445488
44.0,0.03346872329711914
48.0,0.03190602362155914
52.0,0.03032723255455494
56.0,0.028906214982271194
60.0,0.02763029932975769
64.0,0.02645813301205635
72.0,0.02496488206088543
80.0,0.02387285605072975
88.0,0.022798532620072365
96.0,0.021042369306087494
104.0,0.019592411816120148
112.0,0.01878860779106617
120.0,0.017763201147317886
128.0,0.016664395108819008
144.0,0.015064558014273643
160.0,0.013437328860163689
176.0,0.01113977748900652
192.0,0.008747050538659096
208.0,0.006524501368403435
224.0,0.0051233116537332535
240.0,0.004438591655343771
256.0,0.0036370588932186365
288.0,0.0034022596664726734
320.0,0.002676752395927906
352.0,0.0019093194277957082
384.0,0.004260877147316933
416.0,0.006095267832279205
448.0,0.005898008588701487
480.0,0.0046753124333918095
512.0,0.0034365567844361067
576.0,0.0013981154188513756
640.0,0.0009880824945867062
704.0,0.0032092006877064705
768.0,0.0014252676628530025
832.0,0.0007353602559305727
896.0,-0.0035981975961476564
960.0,-0.006937284488230944
1024.0,-0.008345463313162327
1152.0,-0.0048804571852087975
1280.0,0.0003048729558940977
1408.0,-0.0018455684185028076
1536.0,-0.0009223343222402036
1664.0,0.0025369697250425816
1792.0,-0.0039087641052901745
1920.0,-0.00470118410885334
2048.0,-0.0037413770332932472
2304.0,-0.011312478221952915
2560.0,-0.010722623206675053
2816.0,-0.00911623239517212
3072.0,-0.0005228231311775744
3328.0,0.003713044337928295
3584.0,0.005440814886242151
3840.0,-0.002622040454298258
4096.0,-0.0009832566138356924
4608.0,0.009997026063501835
5120.0,0.006187529303133488
5632.0,-0.0006621107459068298
6144.0,-0.0025556529872119427
6656.0,-0.0024308236315846443
7168.0,-0.0061400108970701694
7680.0,-0.008812536485493183
8192.0,-0.0031077468302100897
end
