version,3.0
numOfCh,1
type,point
parent_name,fe81d_0dot2-0dot1
ch_type,1_1
kcount,1
numberNandB,1
brightnessNandB,1
carpet pos,0
pc,0
Time (ms),CH1 Auto-Correlation
1.0,0.08233926445245743
2.0,0.07743588089942932
3.0,0.07366442680358887
4.0,0.07040015608072281
5.0,0.06689806282520294
6.0,0.06253582239151001
7.0,0.0588248148560524
8.0,0.05794384703040123
9.0,0.05707623064517975
10.0,0.056195445358753204
11.0,0.05538976565003395
12.0,0.05440836027264595
13.0,0.05346312001347542
14.0,0.052581898868083954
15.0,0.051707684993743896
16.0,0.050898704677820206
18.0,0.04938741400837898
20.0,0.04795246198773384
22.0,0.04659970477223396
24.0,0.0453803725540638
26.0,0.04422258213162422
28.0,0.043151646852493286
30.0,0.04212639480829239
32.0,0.04111725464463234
36.0,0.0388341024518013
40.0,0.03672274947166443
44.0,0.03492499515414238
48.0,0.03381945565342903
52.0,0.032745711505413055
56.0,0.031848758459091187
60.0,0.031239425763487816
64.0,0.030521079897880554
72.0,0.029146665707230568
80.0,0.02785186469554901
88.0,0.026462199166417122
96.0,0.02510468289256096
104.0,0.023791102692484856
112.0,0.022777067497372627
120.0,0.022249022498726845
128.0,0.022374015301465988
144.0,0.022586362436413765
160.0,0.021292567253112793
176.0,0.019212976098060608
192.0,0.017503030598163605
208.0,0.015247480943799019
224.0,0.013459835201501846
240.0,0.012724915519356728
256.0,0.012953830882906914
288.0,0.01037924736738205
320.0,0.007456278428435326
352.0,0.005244439002126455
384.0,0.0032079992815852165
416.0,0.0001074070532922633
448.0,-0.0006138886674307287
480.0,-0.0020619905553758144
512.0,-0.005458661820739508
576.0,-0.007812465075403452
640.0,-0.007941783405840397
704.0,-0.006878122687339783
768.0,-0.005285096820443869
832.0,-0.007833193056285381
896.0,-0.005792842712253332
960.0,-0.0038235331885516644
1024.0,-0.0023154704831540585
1152.0,6.488589860964566e-05
1280.0,0.002675719326362014
1408.0,0.00696256710216403
1536.0,0.004585895221680403
1664.0,0.005130298435688019
1792.0,0.001245997496880591
1920.0,0.0016830404056236148
2048.0,-0.00032403584918938577
2304.0,0.0012164345243945718
2560.0,-0.005545377731323242
2816.0,-0.0009534858400002122
3072.0,0.0053938464261591434
3328.0,0.0039383117109537125
3584.0,-0.0001916499895742163
3840.0,-0.006545812822878361
4096.0,-0.008243152871727943
4608.0,0.009603219106793404
5120.0,-0.0008233034168370068
5632.0,-0.01421386655420065
6144.0,0.009488913230597973
6656.0,0.0034430231899023056
7168.0,-0.011816341429948807
7680.0,-0.0059118811041116714
8192.0,0.006834015715867281
end
