version,3.0
numOfCh,1
type,point
parent_name,fe81d_0dot2-0dot1
ch_type,1_1
kcount,1
numberNandB,1
brightnessNandB,1
carpet pos,0
pc,0
Time (ms),CH1 Auto-Correlation
1.0,0.06958364695310593
2.0,0.06834561377763748
3.0,0.06717298179864883
4.0,0.066070556640625
5.0,0.06500896066427231
6.0,0.06396793574094772
7.0,0.06288640946149826
8.0,0.061864569783210754
9.0,0.06086326017975807
10.0,0.05986793339252472
11.0,0.05892552062869072
12.0,0.058048758655786514
13.0,0.05719248950481415
14.0,0.056393180042505264
15.0,0.05565621703863144
16.0,0.054932739585638046
18.0,0.053521111607551575
20.0,0.05221237242221832
22.0,0.0509268157184124
24.0,0.04964394122362137
26.0,0.04828015714883804
28.0,0.04693066328763962
30.0,0.04566751793026924
32.0,0.044453129172325134
36.0,0.042208679020404816
40.0,0.04024771228432655
44.0,0.038454703986644745
48.0,0.03677617385983467
52.0,0.03533220291137695
56.0,0.03417491167783737
60.0,0.03330210968852043
64.0,0.032417237758636475
72.0,0.030155858024954796
80.0,0.027573145925998688
88.0,0.025200381875038147
96.0,0.023677095770835876
104.0,0.02231963351368904
112.0,0.020521491765975952
120.0,0.018630756065249443
128.0,0.016942327842116356
144.0,0.014967030845582485
160.0,0.013854953460395336
176.0,0.013655465096235275
192.0,0.013329866342246532
208.0,0.013580945320427418
224.0,0.013918165117502213
240.0,0.013234391808509827
256.0,0.012061656452715397
288.0,0.010272095911204815
320.0,0.007575411349534988
352.0,0.005348031409084797
384.0,0.006602335721254349
416.0,0.008846668526530266
448.0,0.009837686084210873
480.0,0.01163061149418354
512.0,0.010145522654056549
576.0,0.0058073615655303
640.0,0.005003137048333883
704.0,0.004532696213573217
768.0,0.005151835270226002
832.0,-3.7710877222707495e-05
896.0,-0.004704565275460482
960.0,-0.0015602551866322756
1024.0,-0.0007757402490824461
1152.0,-0.002032466698437929
1280.0,0.0008255637367255986
1408.0,-0.00042339161154814065
1536.0,0.00011308261309750378
1664.0,-0.0002241651527583599
1792.0,0.00116055051330477
1920.0,0.0009423279552720487
2048.0,0.0008522202260792255
2304.0,-0.0018108797958120704
2560.0,0.0006446323823183775
2816.0,-0.0005122033762745559
3072.0,-0.0039024376310408115
3328.0,-0.004570620600134134
3584.0,-0.005049168132245541
3840.0,-0.008030831813812256
4096.0,-0.00766976922750473
4608.0,-0.0010357297724112868
5120.0,-0.005927968304604292
5632.0,-0.013068110682070255
6144.0,-0.006770452484488487
6656.0,-0.005005194339901209
7168.0,-8.335930033354089e-05
7680.0,0.008049898780882359
8192.0,0.009948483668267727
end
