version,3.0
numOfCh,1
type,point
parent_name,fe81d_0dot2-0dot1
ch_type,1_1
kcount,1
numberNandB,1
brightnessNandB,1
carpet pos,0
pc,0
Time (ms),CH1 Auto-Correlation
1.0,0.07574442774057388
2.0,0.07373635470867157
3.0,0.07159584760665894
4.0,0.06950501352548599
5.0,0.06736475974321365
6.0,0.06536884605884552
7.0,0.06348627060651779
8.0,0.06188366189599037
9.0,0.06023571640253067
10.0,0.05921687185764313
11.0,0.05828425660729408
12.0,0.057391900569200516
13.0,0.05649564042687416
14.0,0.055605776607990265
15.0,0.05477367714047432
16.0,0.05397595465183258
18.0,0.05244620516896248
20.0,0.05099587142467499
22.0,0.049638185650110245
24.0,0.04840734228491783
26.0,0.047115474939346313
28.0,0.045863281935453415
30.0,0.04471613094210625
32.0,0.04359954595565796
36.0,0.04145478829741478
40.0,0.03982902690768242
44.0,0.03828302398324013
48.0,0.03647710755467415
52.0,0.0346188060939312
56.0,0.033059585839509964
60.0,0.031504325568675995
64.0,0.02979523316025734
72.0,0.027188636362552643
80.0,0.024801945313811302
88.0,0.023256564512848854
96.0,0.022225627675652504
104.0,0.02097126469016075
112.0,0.019420620054006577
120.0,0.0182291679084301
128.0,0.01783073879778385
144.0,0.018627997487783432
160.0,0.019383301958441734
176.0,0.019507359713315964
192.0,0.018836883828043938
208.0,0.017121683806180954
224.0,0.015885211527347565
240.0,0.014733468182384968
256.0,0.014193226583302021
288.0,0.014208872802555561
320.0,0.013420741073787212
352.0,0.011800025589764118
384.0,0.007298388052731752
416.0,0.003964980598539114
448.0,0.0045832316391170025
480.0,0.006926406174898148
512.0,0.008634665980935097
576.0,0.009153405204415321
640.0,0.0073234084993600845
704.0,0.00832557026296854
768.0,0.0071918475441634655
832.0,0.004945230204612017
896.0,0.0005741303903050721
960.0,-0.0006490445812232792
1024.0,-0.004138318356126547
1152.0,-0.009816541336476803
1280.0,-0.009486217983067036
1408.0,-0.009802686050534248
1536.0,-0.008048116229474545
1664.0,-0.009142138995230198
1792.0,-0.010443833656609058
1920.0,-0.012379503808915615
2048.0,-0.0065141902305185795
2304.0,0.001969677396118641
2560.0,0.005866475868970156
2816.0,0.008689465001225471
3072.0,0.012341182678937912
3328.0,0.007523426320403814
3584.0,0.0009509287774562836
3840.0,-0.0014489811146631837
4096.0,-0.009045162238180637
4608.0,-0.01380828395485878
5120.0,-0.004725131671875715
5632.0,0.006936677265912294
6144.0,0.012249073944985867
6656.0,0.007093857973814011
7168.0,-0.01164040993899107
7680.0,-0.014330931939184666
8192.0,-0.004383695777505636
end
