version,3.0
numOfCh,1
type,point
parent_name,fe81d_0dot2-0dot1
ch_type,1_1
kcount,1
numberNandB,1
brightnessNandB,1
carpet pos,0
pc,0
Time (ms),CH1 Auto-Correlation
1.0,0.06569061428308487
2.0,0.06445010006427765
3.0,0.06323592364788055
4.0,0.062079962342977524
5.0,0.060998424887657166
6.0,0.0599537268280983
7.0,0.05896767973899841
8.0,0.05796535313129425
9.0,0.05701890587806702
10.0,0.05615627393126488
11.0,0.055342353880405426
12.0,0.05460244044661522
13.0,0.05385707691311836
14.0,0.05312100052833557
15.0,0.052404794842004776
16.0,0.05168815329670906
18.0,0.050354279577732086
20.0,0.04904065281152725
22.0,0.047754351049661636
24.0,0.04656560719013214
26.0,0.04543513059616089
28.0,0.044329650700092316
30.0,0.043279774487018585
32.0,0.04227769747376442
36.0,0.04046786203980446
40.0,0.03862727805972099
44.0,0.03701137751340866
48.0,0.03567592427134514
52.0,0.03446312993764877
56.0,0.03317093104124069
60.0,0.03183349221944809
64.0,0.03054242581129074
72.0,0.028230154886841774
80.0,0.026560740545392036
88.0,0.02558469958603382
96.0,0.02483278140425682
104.0,0.024313800036907196
112.0,0.02361951395869255
120.0,0.0229844581335783
128.0,0.0221210066229105
144.0,0.020789077505469322
160.0,0.018820492550730705
176.0,0.016106082126498222
192.0,0.014108827337622643
208.0,0.012589368969202042
224.0,0.011288621462881565
240.0,0.010192080400884151
256.0,0.009745721705257893
288.0,0.009616609662771225
320.0,0.006288697011768818
352.0,0.005456989631056786
384.0,0.005168534815311432
416.0,0.0042930166237056255
448.0,0.0013212744379416108
480.0,-0.00021150225074961782
512.0,-0.002160676522180438
576.0,-0.003677854547277093
640.0,-0.0030661325436085463
704.0,-0.005328741855919361
768.0,-0.003123120404779911
832.0,-0.0008881235844455659
896.0,0.001902328571304679
960.0,0.0018995163263753057
1024.0,0.0022580113727599382
1152.0,-0.0017013775650411844
1280.0,-0.00013019426842220128
1408.0,0.00047045978135429323
1536.0,-0.0006204088567756116
1664.0,-0.005011852364987135
1792.0,-0.003352482570335269
1920.0,-0.000494384381454438
2048.0,-0.004242486320436001
2304.0,0.004364472813904285
2560.0,0.010694877244532108
2816.0,0.0033002705313265324
3072.0,-0.009195307269692421
3328.0,-0.001485632499679923
3584.0,0.004439062438905239
3840.0,0.006274681072682142
4096.0,0.002732114866375923
4608.0,-0.008830288425087929
5120.0,-0.008890277706086636
5632.0,-0.009343806654214859
6144.0,-0.0016766790067777038
6656.0,0.003146745264530182
7168.0,-0.005341539159417152
7680.0,-0.00424681231379509
8192.0,-0.002915650838986039
end
