version,3.0
numOfCh,1
type,point
parent_name,fe81d_0dot2-0dot1
ch_type,1_1
kcount,1
numberNandB,1
brightnessNandB,1
carpet pos,0
pc,0
Time (ms),CH1 Auto-Correlation
1.0,0.08084558695554733
2.0,0.07960887253284454
3.0,0.07841376960277557
4.0,0.07724925875663757
5.0,0.07610498368740082
6.0,0.07503173500299454
7.0,0.07400526851415634
8.0,0.07304699718952179
9.0,0.07210459560155869
10.0,0.0712033063173294
11.0,0.07030884921550751
12.0,0.06941529363393784
13.0,0.06854347139596939
14.0,0.06768521666526794
15.0,0.06686760485172272
16.0,0.06607243418693542
18.0,0.06447380036115646
20.0,0.0629926398396492
22.0,0.061632148921489716
24.0,0.060311559587717056
26.0,0.05913376808166504
28.0,0.05806926265358925
30.0,0.056998446583747864
32.0,0.05584897845983505
36.0,0.053463295102119446
40.0,0.051103394478559494
44.0,0.04878620803356171
48.0,0.046649280935525894
52.0,0.04480014741420746
56.0,0.043048202991485596
60.0,0.04138357192277908
64.0,0.03968160226941109
72.0,0.03692014142870903
80.0,0.03483443334698677
88.0,0.03322789445519447
96.0,0.03214119374752045
104.0,0.03107372485101223
112.0,0.030043181031942368
120.0,0.02937888912856579
128.0,0.02894778922200203
144.0,0.02841765061020851
160.0,0.027730392292141914
176.0,0.02758113481104374
192.0,0.02634868584573269
208.0,0.02533523365855217
224.0,0.024772804230451584
240.0,0.024162601679563522
256.0,0.023033341392874718
288.0,0.019501447677612305
320.0,0.015957431867718697
352.0,0.01341109536588192
384.0,0.01221245527267456
416.0,0.01135040633380413
448.0,0.00945801567286253
480.0,0.007688212674111128
512.0,0.006446246523410082
576.0,0.0025844171177595854
640.0,0.0016314723761752248
704.0,-6.186855171108618e-05
768.0,-0.0064482297748327255
832.0,-0.008267251774668694
896.0,-0.00605528149753809
960.0,-0.007841765880584717
1024.0,-0.009024093858897686
1152.0,-0.007254358381032944
1280.0,-0.005050312262028456
1408.0,-4.708458618551958e-06
1536.0,0.0059873191639781
1664.0,0.00021509607904590666
1792.0,0.0022657541558146477
1920.0,-0.0012108348309993744
2048.0,-0.00029913667822256684
2304.0,-0.001699249492958188
2560.0,-0.00020494803902693093
2816.0,0.003986082971096039
3072.0,0.008447489701211452
3328.0,0.007596657145768404
3584.0,0.0011985733872279525
3840.0,-0.005786703433841467
4096.0,-0.005649028345942497
4608.0,-0.0019916032906621695
5120.0,-0.00904848799109459
5632.0,-0.01303438562899828
6144.0,0.005544432904571295
6656.0,0.009878079406917095
7168.0,-0.01697363518178463
7680.0,-0.014333711937069893
8192.0,-0.004552530590444803
end
