version,3.0
numOfCh,1
type,point
parent_name,fe81d_0dot2-0dot1
ch_type,1_1
kcount,1
numberNandB,1
brightnessNandB,1
carpet pos,0
pc,0
Time (ms),CH1 Auto-Correlation
1.0,0.07444585114717484
2.0,0.07317110151052475
3.0,0.07197385281324387
4.0,0.07080895453691483
5.0,0.06969528645277023
6.0,0.06861010938882828
7.0,0.06754109263420105
8.0,0.06654161959886551
9.0,0.06557238101959229
10.0,0.06460490077733994
11.0,0.06369233876466751
12.0,0.06280551850795746
13.0,0.06192963942885399
14.0,0.06104378402233124
15.0,0.06016482412815094
16.0,0.059328842908144
18.0,0.05783725157380104
20.0,0.05636513605713844
22.0,0.05495111271739006
24.0,0.05362309515476227
26.0,0.05234196409583092
28.0,0.05115777999162674
30.0,0.050086360424757004
32.0,0.049035970121622086
36.0,0.04692066088318825
40.0,0.044874031096696854
44.0,0.04304087907075882
48.0,0.04139033704996109
52.0,0.039828237146139145
56.0,0.03832591325044632
60.0,0.03692174330353737
64.0,0.03572768345475197
72.0,0.033869970589876175
80.0,0.032099053263664246
88.0,0.030033336952328682
96.0,0.028210259974002838
104.0,0.02670425735414028
112.0,0.025226393714547157
120.0,0.023925868794322014
128.0,0.0225225742906332
144.0,0.019799046218395233
160.0,0.017818378284573555
176.0,0.015497544780373573
192.0,0.013794485479593277
208.0,0.014035867527127266
224.0,0.013862855732440948
240.0,0.012126201763749123
256.0,0.009708245284855366
288.0,0.009009997360408306
320.0,0.009291050024330616
352.0,0.009284699335694313
384.0,0.011021300218999386
416.0,0.012513766996562481
448.0,0.015046816319227219
480.0,0.014881431125104427
512.0,0.012974807061254978
576.0,0.006806133780628443
640.0,0.005577114876359701
704.0,0.004674532450735569
768.0,0.0036037869285792112
832.0,0.003250993089750409
896.0,0.00400638859719038
960.0,0.0014793724985793233
1024.0,-0.0006694808835163713
1152.0,0.0040062954649329185
1280.0,0.00762189319357276
1408.0,0.006263467948883772
1536.0,0.00327038811519742
1664.0,0.00412746099755168
1792.0,0.0010070790303871036
1920.0,-0.006852848455309868
2048.0,-0.007233760319650173
2304.0,-0.009963869117200375
2560.0,-0.009130340069532394
2816.0,-0.0068548559211194515
3072.0,-0.008824382908642292
3328.0,-0.0027589972596615553
3584.0,-8.481818554173515e-07
3840.0,-0.0027764425612986088
4096.0,0.00015379642718471587
4608.0,0.005488173570483923
5120.0,0.01583419367671013
5632.0,0.0003636860637925565
6144.0,0.001732744975015521
6656.0,0.0030329502187669277
7168.0,-0.015951648354530334
7680.0,-0.007951486855745316
8192.0,-0.009554848074913025
end
