version,3.0
numOfCh,1
type,point
parent_name,fe81d_0dot2-0dot1
ch_type,1_1
kcount,1
numberNandB,1
brightnessNandB,1
carpet pos,0
pc,0
Time (ms),CH1 Auto-Correlation
1.0,0.0987805426120758
2.0,0.09169138222932816
3.0,0.08453446626663208
4.0,0.0774400606751442
5.0,0.0702771469950676
6.0,0.06430456042289734
7.0,0.06279978156089783
8.0,0.061289675533771515
9.0,0.059833675622940063
10.0,0.058588918298482895
11.0,0.05760190263390541
12.0,0.05668463557958603
13.0,0.05580936372280121
14.0,0.054910171777009964
15.0,0.054029230028390884
16.0,0.05314638838171959
18.0,0.0517442412674427
20.0,0.05065743252635002
22.0,0.04943293705582619
24.0,0.04805464670062065
26.0,0.04664864391088486
28.0,0.04510169476270676
30.0,0.043539583683013916
32.0,0.042081568390131
36.0,0.04022108018398285
40.0,0.03847625479102135
44.0,0.03658773750066757
48.0,0.034764643758535385
52.0,0.03307585045695305
56.0,0.03081982024013996
60.0,0.028878310695290565
64.0,0.027091529220342636
72.0,0.024405259639024734
80.0,0.023005198687314987
88.0,0.021340802311897278
96.0,0.018672991544008255
104.0,0.01767353154718876
112.0,0.017370223999023438
120.0,0.016473587602376938
128.0,0.016170062124729156
144.0,0.013134094886481762
160.0,0.01292670052498579
176.0,0.011843117885291576
192.0,0.01076343934983015
208.0,0.008713818155229092
224.0,0.006600133143365383
240.0,0.0039535812102258205
256.0,0.0018479753052815795
288.0,0.0013519269414246082
320.0,-0.0002294095029355958
352.0,-0.0032220452558249235
384.0,-0.004638733342289925
416.0,-0.004062004387378693
448.0,-0.002589630661532283
480.0,-0.000579337531235069
512.0,0.0007028486579656601
576.0,-0.0012186039239168167
640.0,0.001535875373519957
704.0,0.002906164387241006
768.0,0.0015134434215724468
832.0,-0.002235845196992159
896.0,-0.0004494583990890533
960.0,-0.0011740170884877443
1024.0,-0.0010547179263085127
1152.0,0.0015898579731583595
1280.0,-0.004491877742111683
1408.0,-0.0013623113045468926
1536.0,0.003584217745810747
1664.0,0.0052579897455871105
1792.0,1.8946580894407816e-05
1920.0,-0.0016221620608121157
2048.0,0.00047184861614368856
2304.0,-0.002166240941733122
2560.0,-0.0068360380828380585
2816.0,0.0043380786664783955
3072.0,0.0075523885898292065
3328.0,0.0013733541127294302
3584.0,-0.007844322361052036
3840.0,-0.007109146565198898
4096.0,-0.003738928120583296
4608.0,-0.00015921040903776884
5120.0,0.0018777791410684586
5632.0,0.0001935255277203396
6144.0,-0.003684280440211296
6656.0,0.0013620317913591862
7168.0,0.0013600068632513285
7680.0,0.005250752903521061
8192.0,0.004465000703930855
end
