version,3.0
numOfCh,1
type,point
parent_name,fe81d_0dot2-0dot1
ch_type,1_1
kcount,1
numberNandB,1
brightnessNandB,1
carpet pos,0
pc,0
Time (ms),CH1 Auto-Correlation
1.0,0.06744794547557831
2.0,0.06614449620246887
3.0,0.06488513946533203
4.0,0.0636688843369484
5.0,0.06250974535942078
6.0,0.0613517202436924
7.0,0.06025733798742294
8.0,0.059191279113292694
9.0,0.05817439407110214
10.0,0.05718585103750229
11.0,0.05623471364378929
12.0,0.05530271306633949
13.0,0.05444076657295227
14.0,0.05358774960041046
15.0,0.052739907056093216
16.0,0.05188386142253876
18.0,0.0502827987074852
20.0,0.048709068447351456
22.0,0.04723021015524864
24.0,0.0458984337747097
26.0,0.044637590646743774
28.0,0.04339518025517464
30.0,0.0421154722571373
32.0,0.04086751118302345
36.0,0.0384991355240345
40.0,0.0362497940659523
44.0,0.03428397700190544
48.0,0.032525211572647095
52.0,0.030870681628584862
56.0,0.02931935526430607
60.0,0.02779795229434967
64.0,0.0263637937605381
72.0,0.02379089593887329
80.0,0.02167675644159317
88.0,0.0200803242623806
96.0,0.0187520831823349
104.0,0.01725040376186371
112.0,0.01583169400691986
120.0,0.014767383225262165
128.0,0.01369191613048315
144.0,0.010846167802810669
160.0,0.009506016969680786
176.0,0.009126659482717514
192.0,0.008537324145436287
208.0,0.007562845945358276
224.0,0.0059976158663630486
240.0,0.004809970501810312
256.0,0.003488966729491949
288.0,0.0027283644303679466
320.0,0.002012185985222459
352.0,0.0008236684952862561
384.0,-0.001174626057036221
416.0,-0.0009884829632937908
448.0,-0.0005331494030542672
480.0,0.00030879248515702784
512.0,0.0006661416264250875
576.0,-0.0008331452263519168
640.0,-0.0018468179041519761
704.0,-0.002883576089516282
768.0,-0.00034529416006989777
832.0,0.003822451224550605
896.0,0.002767121186479926
960.0,-0.0038673924282193184
1024.0,-0.003603943856433034
1152.0,-0.004697995726019144
1280.0,-0.0004922823281958699
1408.0,0.00284731131978333
1536.0,0.002708443673327565
1664.0,0.0026651029475033283
1792.0,0.0074427430517971516
1920.0,0.0035829455591738224
2048.0,0.0017672586254775524
2304.0,-0.0014256923459470272
2560.0,-0.001238389639183879
2816.0,-0.0015731962630525231
3072.0,-0.005074646789580584
3328.0,-2.958079130621627e-05
3584.0,-0.0026767482049763203
3840.0,-0.00650262925773859
4096.0,0.0007974363397806883
4608.0,-0.009118198417127132
5120.0,-0.0020284519996494055
5632.0,0.004726632963865995
6144.0,-7.016327435849234e-05
6656.0,-0.003918402828276157
7168.0,0.0008383800159208477
7680.0,-0.0010736162075772882
8192.0,0.005595882888883352
end
