version,3.0
numOfCh,1
type,point
parent_name,fe81d_0dot2-0dot1
ch_type,1_1
kcount,1
numberNandB,1
brightnessNandB,1
carpet pos,0
pc,0
Time (ms),CH1 Auto-Correlation
1.0,0.07011131197214127
2.0,0.06867244094610214
3.0,0.0673074871301651
4.0,0.06597631424665451
5.0,0.0646781325340271
6.0,0.06343462318181992
7.0,0.0622665174305439
8.0,0.06118358299136162
9.0,0.06015518307685852
10.0,0.059198006987571716
11.0,0.05832574889063835
12.0,0.05747292563319206
13.0,0.05667153745889664
14.0,0.05589352548122406
15.0,0.055101145058870316
16.0,0.054322000592947006
18.0,0.05282053351402283
20.0,0.05128311365842819
22.0,0.04988184943795204
24.0,0.04856201633810997
26.0,0.04730444774031639
28.0,0.046134985983371735
30.0,0.045101672410964966
32.0,0.044069208204746246
36.0,0.04181045666337013
40.0,0.039364274591207504
44.0,0.03694058582186699
48.0,0.03483721241354942
52.0,0.032964110374450684
56.0,0.031241904944181442
60.0,0.02981756255030632
64.0,0.028418343514204025
72.0,0.025604579597711563
80.0,0.02280694618821144
88.0,0.02072869800031185
96.0,0.018890749663114548
104.0,0.017209220677614212
112.0,0.015874454751610756
120.0,0.015452131628990173
128.0,0.015270398929715157
144.0,0.015372274443507195
160.0,0.014983324334025383
176.0,0.014624888077378273
192.0,0.01486279722303152
208.0,0.015197709202766418
224.0,0.015147034078836441
240.0,0.014444374479353428
256.0,0.012915278784930706
288.0,0.011301012709736824
320.0,0.0089271767064929
352.0,0.008158324286341667
384.0,0.007778962608426809
416.0,0.00656567607074976
448.0,0.00708483811467886
480.0,0.007870214991271496
512.0,0.009553386829793453
576.0,0.006911283824592829
640.0,0.003821680089458823
704.0,0.004726464860141277
768.0,0.010068176314234734
832.0,0.006863876711577177
896.0,0.00489795720204711
960.0,0.010101594030857086
1024.0,0.015337344259023666
1152.0,0.014936208724975586
1280.0,0.012447083368897438
1408.0,0.008921236731112003
1536.0,0.002119411714375019
1664.0,0.008290616795420647
1792.0,0.008671634830534458
1920.0,0.009734547697007656
2048.0,0.0025593293830752373
2304.0,0.004251602105796337
2560.0,-0.0019828875083476305
2816.0,-0.0002962418075185269
3072.0,-0.0015523062320426106
3328.0,-0.000413255620514974
3584.0,-0.008541742339730263
3840.0,-0.00695194024592638
4096.0,-0.008010812103748322
4608.0,-0.012189997360110283
5120.0,-0.009480261243879795
5632.0,-0.010629613883793354
6144.0,-0.009752316400408745
6656.0,-0.007521681487560272
7168.0,0.00087822723435238
7680.0,-0.013019202277064323
8192.0,0.003658896079286933
end
