version,3.0
numOfCh,1
type,point
parent_name,fe81d_0dot2-0dot1
ch_type,1_1
kcount,1
numberNandB,1
brightnessNandB,1
carpet pos,0
pc,0
Time (ms),CH1 Auto-Correlation
1.0,0.06501329690217972
2.0,0.0628383606672287
3.0,0.06078966706991196
4.0,0.05875003710389137
5.0,0.05659816786646843
6.0,0.05437018349766731
7.0,0.053245097398757935
8.0,0.052137620747089386
9.0,0.05112573504447937
10.0,0.050156619399785995
11.0,0.0492401085793972
12.0,0.04834140092134476
13.0,0.0475211925804615
14.0,0.04669458791613579
15.0,0.045978058129549026
16.0,0.04535330832004547
18.0,0.04406340420246124
20.0,0.04286768287420273
22.0,0.041634559631347656
24.0,0.04045780375599861
26.0,0.039272937923669815
28.0,0.038185004144907
30.0,0.03719104081392288
32.0,0.03639189153909683
36.0,0.034954071044921875
40.0,0.03323591500520706
44.0,0.031775861978530884
48.0,0.030302954837679863
52.0,0.02903750352561474
56.0,0.027665063738822937
60.0,0.02617746964097023
64.0,0.024888165295124054
72.0,0.02341662161052227
80.0,0.0220175813883543
88.0,0.020661020651459694
96.0,0.019062060862779617
104.0,0.017847055569291115
112.0,0.017052296549081802
120.0,0.016497723758220673
128.0,0.015563798137009144
144.0,0.01386449858546257
160.0,0.011935447342693806
176.0,0.00903052743524313
192.0,0.006151081528514624
208.0,0.0051010469906032085
224.0,0.004638922866433859
240.0,0.004655956290662289
256.0,0.005440640263259411
288.0,0.006760116666555405
320.0,0.007647055666893721
352.0,0.009249781258404255
384.0,0.011117120273411274
416.0,0.01189409289509058
448.0,0.010408421978354454
480.0,0.010154839605093002
512.0,0.011337210424244404
576.0,0.00816129706799984
640.0,0.004782233387231827
704.0,0.00124709855299443
768.0,8.435494964942336e-05
832.0,0.0047130463644862175
896.0,0.0045464918948709965
960.0,0.0025029757525771856
1024.0,0.0005330003914423287
1152.0,0.002389366738498211
1280.0,0.0038330506067723036
1408.0,0.005272651556879282
1536.0,0.00032462095259688795
1664.0,-0.0018289494328200817
1792.0,-0.002921324223279953
1920.0,-0.0017070354660972953
2048.0,-0.0033781765960156918
2304.0,-0.005685655400156975
2560.0,-0.003352084197103977
2816.0,0.002457802649587393
3072.0,-0.00037013215478509665
3328.0,-0.0002713633584789932
3584.0,-0.0019062889041379094
3840.0,-0.001095122890546918
4096.0,0.0007835006108507514
4608.0,0.004732623230665922
5120.0,0.005023440346121788
5632.0,0.005772891454398632
6144.0,0.002120198914781213
6656.0,-0.0036636318545788527
7168.0,-0.010331114754080772
7680.0,-0.007448466029018164
8192.0,-0.004884280264377594
end
