version,3.0
numOfCh,1
type,point
parent_name,fe81d_0dot2-0dot1
ch_type,1_1
kcount,1
numberNandB,1
brightnessNandB,1
carpet pos,0
pc,0
Time (ms),CH1 Auto-Correlation
1.0,0.062263231724500656
2.0,0.06091244891285896
3.0,0.05963511019945145
4.0,0.05843017250299454
5.0,0.05731743946671486
6.0,0.05624649301171303
7.0,0.05524095892906189
8.0,0.05425894260406494
9.0,0.053337883204221725
10.0,0.052425265312194824
11.0,0.0515381284058094
12.0,0.050733912736177444
13.0,0.04991313815116882
14.0,0.049111150205135345
15.0,0.04832380637526512
16.0,0.04758349433541298
18.0,0.04617282748222351
20.0,0.0449608750641346
22.0,0.04377783462405205
24.0,0.04253524914383888
26.0,0.041315898299217224
28.0,0.04015861451625824
30.0,0.0390181764960289
32.0,0.03798854351043701
36.0,0.03621622174978256
40.0,0.03463992848992348
44.0,0.03325626999139786
48.0,0.032049283385276794
52.0,0.030708996579051018
56.0,0.02942902408540249
60.0,0.028035007417201996
64.0,0.0266774483025074
72.0,0.024131355807185173
80.0,0.021674886345863342
88.0,0.02043253369629383
96.0,0.019897518679499626
104.0,0.018825462087988853
112.0,0.017325429245829582
120.0,0.016014378517866135
128.0,0.014704742468893528
144.0,0.012320601381361485
160.0,0.01059318333864212
176.0,0.008411342278122902
192.0,0.0061795590445399284
208.0,0.0053726607002317905
224.0,0.004595767240971327
240.0,0.003790268674492836
256.0,0.0034173913300037384
288.0,0.0030054885428398848
320.0,0.0019340061116963625
352.0,0.0008553200168535113
384.0,-0.0003696759813465178
416.0,0.00021466054022312164
448.0,0.0015922143356874585
480.0,0.002786066848784685
512.0,0.0023024501278996468
576.0,-0.00194560328964144
640.0,-0.003649319987744093
704.0,-0.0010058176703751087
768.0,0.0005856211064383388
832.0,-0.0026515142526477575
896.0,-0.0006555120926350355
960.0,0.00034950708504766226
1024.0,-7.786155947542284e-06
1152.0,-0.003322638338431716
1280.0,-0.004285171627998352
1408.0,-0.0007836571312509477
1536.0,-0.0015171171398833394
1664.0,-0.005228599067777395
1792.0,-0.0018806421430781484
1920.0,-0.0014659626176580787
2048.0,-0.004696907475590706
2304.0,-0.0023522835690528154
2560.0,0.0034974911250174046
2816.0,-0.0034793647937476635
3072.0,-0.009050530381500721
3328.0,-0.0011825727997347713
3584.0,0.00031576829496771097
3840.0,-0.004608839750289917
4096.0,-0.006930849514901638
4608.0,0.0029711949173361063
5120.0,0.003281836863607168
5632.0,-0.002128887688741088
6144.0,-0.0013850084505975246
6656.0,0.0023539818357676268
7168.0,0.00329683069139719
7680.0,0.004197712987661362
8192.0,-0.0036615252029150724
end
