version,3.0
numOfCh,1
type,point
parent_name,fe81d_0dot2-0dot1
ch_type,1_1
kcount,1
numberNandB,1
brightnessNandB,1
carpet pos,0
pc,0
Time (ms),CH1 Auto-Correlation
1.0,0.0878097265958786
2.0,0.08657953888177872
3.0,0.08536820858716965
4.0,0.08424408733844757
5.0,0.08318758755922318
6.0,0.08218403905630112
7.0,0.08120561391115189
8.0,0.08023569732904434
9.0,0.07930900901556015
10.0,0.07839938998222351
11.0,0.077518031001091
12.0,0.07666211575269699
13.0,0.07582330703735352
14.0,0.07501349598169327
15.0,0.07423307001590729
16.0,0.07351788878440857
18.0,0.07210185378789902
20.0,0.07074106484651566
22.0,0.06946784257888794
24.0,0.06828758120536804
26.0,0.06709953397512436
28.0,0.06596294790506363
30.0,0.06489590555429459
32.0,0.06378734856843948
36.0,0.061600081622600555
40.0,0.05966366454958916
44.0,0.057791389524936676
48.0,0.05605283007025719
52.0,0.054312851279973984
56.0,0.05261978134512901
60.0,0.05125506594777107
64.0,0.04996679350733757
72.0,0.047952789813280106
80.0,0.04611443355679512
88.0,0.044224344193935394
96.0,0.04225160926580429
104.0,0.04046802967786789
112.0,0.039045631885528564
120.0,0.03802904114127159
128.0,0.03670097514986992
144.0,0.03387734666466713
160.0,0.031638987362384796
176.0,0.029649855569005013
192.0,0.026873186230659485
208.0,0.024805841967463493
224.0,0.02264144830405712
240.0,0.02218685857951641
256.0,0.022552965208888054
288.0,0.024172380566596985
320.0,0.02409891039133072
352.0,0.02303837612271309
384.0,0.02077549882233143
416.0,0.018948994576931
448.0,0.01746024377644062
480.0,0.015775194391608238
512.0,0.012216546572744846
576.0,0.008075176738202572
640.0,0.004785980097949505
704.0,0.005261975806206465
768.0,0.005636072251945734
832.0,0.0054672290571033955
896.0,0.007554446812719107
960.0,0.005650566890835762
1024.0,0.005420968867838383
1152.0,0.004639464430510998
1280.0,0.008414266631007195
1408.0,0.004905154928565025
1536.0,0.00011509011528687552
1664.0,-0.0034127167891710997
1792.0,-0.009304609149694443
1920.0,-0.01251573022454977
2048.0,-0.018364230170845985
2304.0,-0.02112506330013275
2560.0,-0.02172606810927391
2816.0,-0.019966168329119682
3072.0,-0.019578374922275543
3328.0,-0.0167718306183815
3584.0,-0.00853050872683525
3840.0,0.0013707022881135345
4096.0,0.006801529787480831
4608.0,0.005544268526136875
5120.0,0.01618342474102974
5632.0,0.01529005728662014
6144.0,0.005727686453610659
6656.0,-0.0038134739734232426
7168.0,-0.01580910198390484
7680.0,-0.014871436171233654
8192.0,-0.019445646554231644
end
