version,3.0
numOfCh,1
type,point
parent_name,fe81d_0dot2-0dot1
ch_type,1_1
kcount,1
numberNandB,1
brightnessNandB,1
carpet pos,0
pc,0
Time (ms),CH1 Auto-Correlation
1.0,0.07544994354248047
2.0,0.07422628253698349
3.0,0.07306228578090668
4.0,0.07192087173461914
5.0,0.07085175812244415
6.0,0.06986824423074722
7.0,0.06891567260026932
8.0,0.0680057480931282
9.0,0.06711620092391968
10.0,0.06622645258903503
11.0,0.06536510586738586
12.0,0.06455156207084656
13.0,0.06375173479318619
14.0,0.06295735388994217
15.0,0.06216632202267647
16.0,0.0614192970097065
18.0,0.0599675290286541
20.0,0.05856648460030556
22.0,0.05722880735993385
24.0,0.0560489222407341
26.0,0.05496051535010338
28.0,0.053873904049396515
30.0,0.05285120755434036
32.0,0.051873501390218735
36.0,0.049935951828956604
40.0,0.04790696129202843
44.0,0.04601673781871796
48.0,0.04439687356352806
52.0,0.04294117912650108
56.0,0.041464079171419144
60.0,0.040199749171733856
64.0,0.038982801139354706
72.0,0.03666704148054123
80.0,0.034711338579654694
88.0,0.03292470425367355
96.0,0.031179657205939293
104.0,0.0296612735837698
112.0,0.02834503725171089
120.0,0.027487093582749367
128.0,0.027407852932810783
144.0,0.027253728359937668
160.0,0.02682182565331459
176.0,0.025428874418139458
192.0,0.02361954189836979
208.0,0.02144281193614006
224.0,0.01984655298292637
240.0,0.017692646011710167
256.0,0.01608111336827278
288.0,0.01265921350568533
320.0,0.009517828933894634
352.0,0.007550125941634178
384.0,0.0042204284109175205
416.0,0.0015281977830454707
448.0,-0.0012765794526785612
480.0,-0.002491684164851904
512.0,-0.001654910040087998
576.0,-0.0005149496137164533
640.0,0.002409435110166669
704.0,-0.0007900570053607225
768.0,-0.0025319592095911503
832.0,0.0008422909304499626
896.0,0.002909708069637418
960.0,0.0014889277517795563
1024.0,-0.0008687812369316816
1152.0,-0.002974639879539609
1280.0,-0.002757246606051922
1408.0,-0.008393531665205956
1536.0,-0.014391109347343445
1664.0,-0.017743920907378197
1792.0,-0.013504203408956528
1920.0,-0.010370470583438873
2048.0,-0.00844469852745533
2304.0,-0.010971873067319393
2560.0,-0.014026975259184837
2816.0,-0.004424840211868286
3072.0,0.00014112547796685249
3328.0,0.008448956534266472
3584.0,0.006282741669565439
3840.0,0.010052011348307133
4096.0,0.018943965435028076
4608.0,0.009827014990150928
5120.0,-0.000984695740044117
5632.0,-0.0044290111400187016
6144.0,-0.024776170030236244
6656.0,-0.00015352106129284948
7168.0,-0.0063168383203446865
7680.0,0.0035390688572078943
8192.0,0.013361865654587746
end
