version,3.0
numOfCh,1
type,point
parent_name,fe81d_0dot2-0dot1
ch_type,1_1
kcount,1
numberNandB,1
brightnessNandB,1
carpet pos,0
pc,0
Time (ms),CH1 Auto-Correlation
1.0,0.0701599270105362
2.0,0.06862442195415497
3.0,0.0672074407339096
4.0,0.06590162217617035
5.0,0.06458821147680283
6.0,0.06329011172056198
7.0,0.06204672530293465
8.0,0.0609193854033947
9.0,0.059839218854904175
10.0,0.05877961218357086
11.0,0.057702723890542984
12.0,0.05666394159197807
13.0,0.05566807836294174
14.0,0.054705675691366196
15.0,0.05375821888446808
16.0,0.05283184349536896
18.0,0.051195163279771805
20.0,0.049662038683891296
22.0,0.04814286157488823
24.0,0.04665620997548103
26.0,0.04524623602628708
28.0,0.04398299381136894
30.0,0.042608026415109634
32.0,0.04124894738197327
36.0,0.03877020999789238
40.0,0.03662221506237984
44.0,0.034615274518728256
48.0,0.03254551813006401
52.0,0.03065689094364643
56.0,0.028724871575832367
60.0,0.026739977300167084
64.0,0.02480871044099331
72.0,0.02215944044291973
80.0,0.020277226343750954
88.0,0.018846239894628525
96.0,0.017764028161764145
104.0,0.016332445666193962
112.0,0.014998202212154865
120.0,0.01397797092795372
128.0,0.013241821900010109
144.0,0.012371285818517208
160.0,0.012529265135526657
176.0,0.012443008832633495
192.0,0.011827489361166954
208.0,0.011257908307015896
224.0,0.011855649761855602
240.0,0.011894319206476212
256.0,0.011234477162361145
288.0,0.010625746101140976
320.0,0.009596982970833778
352.0,0.01089096162468195
384.0,0.008325809612870216
416.0,0.0013038292527198792
448.0,-0.004867225419729948
480.0,-0.005340573377907276
512.0,-0.0011586642358452082
576.0,0.0004343041800893843
640.0,0.0003351439954712987
704.0,0.0024500389117747545
768.0,-0.0007696530665270984
832.0,5.373455223889323e-06
896.0,0.0013927255058661103
960.0,0.001464793924242258
1024.0,0.0015566019574180245
1152.0,-0.004911956377327442
1280.0,0.0001360599126201123
1408.0,-0.0018131289398297668
1536.0,-5.9421596233733e-05
1664.0,-0.00023633980890735984
1792.0,0.00047896799515001476
1920.0,0.0039839171804487705
2048.0,-0.0020252838730812073
2304.0,-0.003936971537768841
2560.0,-0.0016550804721191525
2816.0,0.0011195893166586757
3072.0,-0.0025432908441871405
3328.0,-0.0027908000629395247
3584.0,-0.004875980317592621
3840.0,-0.004896955098956823
4096.0,-0.002476462395861745
4608.0,-0.0016017741290852427
5120.0,-0.0006342015694826841
5632.0,0.003657848108559847
6144.0,-0.0019404040649533272
6656.0,-0.008611593395471573
7168.0,-0.0046751536428928375
7680.0,-0.006833173800259829
8192.0,-0.005743276793509722
end
