version,3.0
numOfCh,1
type,point
parent_name,fe81d_0dot2-0dot1
ch_type,1_1
kcount,1
numberNandB,1
brightnessNandB,1
carpet pos,0
pc,0
Time (ms),CH1 Auto-Correlation
1.0,0.06673890352249146
2.0,0.06537605077028275
3.0,0.06409426778554916
4.0,0.062846340239048
5.0,0.06160731986165047
6.0,0.060439664870500565
7.0,0.0592292919754982
8.0,0.05805027112364769
9.0,0.056941572576761246
10.0,0.05585991591215134
11.0,0.05478876456618309
12.0,0.05382700636982918
13.0,0.052847862243652344
14.0,0.05193017050623894
15.0,0.05105668678879738
16.0,0.050227247178554535
18.0,0.048623986542224884
20.0,0.04706842824816704
22.0,0.045564327389001846
24.0,0.04414821043610573
26.0,0.04285484552383423
28.0,0.04157261177897453
30.0,0.040387269109487534
32.0,0.039192963391542435
36.0,0.03685598820447922
40.0,0.03479764983057976
44.0,0.03282080963253975
48.0,0.030771970748901367
52.0,0.028950868174433708
56.0,0.027397986501455307
60.0,0.02600647136569023
64.0,0.024691050872206688
72.0,0.02230471558868885
80.0,0.020810993388295174
88.0,0.019808344542980194
96.0,0.01884790137410164
104.0,0.01803291030228138
112.0,0.016878703609108925
120.0,0.01589278317987919
128.0,0.015187499113380909
144.0,0.014289673417806625
160.0,0.013582437299191952
176.0,0.013359560631215572
192.0,0.012505810707807541
208.0,0.010671810247004032
224.0,0.009465769864618778
240.0,0.0075067500583827496
256.0,0.005492675583809614
288.0,0.0020142944995313883
320.0,-0.0015162950148805976
352.0,-0.003561084158718586
384.0,-0.004728983622044325
416.0,-0.0063107931055128574
448.0,-0.005882709287106991
480.0,-0.005405090283602476
512.0,-0.004770937375724316
576.0,-0.003451666096225381
640.0,-0.002245547017082572
704.0,-0.0001352788385702297
768.0,0.0005057380767539144
832.0,0.0021217078901827335
896.0,0.005876969546079636
960.0,0.004621397238224745
1024.0,0.0033274877350777388
1152.0,0.0008907702867873013
1280.0,-0.0036938427947461605
1408.0,-0.004818569403141737
1536.0,0.0003845734754577279
1664.0,0.00020436145132407546
1792.0,-0.0012372985947877169
1920.0,-0.007358411327004433
2048.0,-0.004326742608100176
2304.0,0.004642931278795004
2560.0,-0.0025478359311819077
2816.0,-0.007840221747756004
3072.0,-0.002464643446728587
3328.0,-0.0009347525192424655
3584.0,-0.008099349215626717
3840.0,-0.005139077082276344
4096.0,0.0013868585228919983
4608.0,0.0034712522756308317
5120.0,-0.005870914552360773
5632.0,-0.0008893007761798799
6144.0,-0.002522552153095603
6656.0,0.005395411979407072
7168.0,0.004311740398406982
7680.0,0.0011249500093981624
8192.0,0.006438457872718573
end
