version,3.0
numOfCh,1
type,point
parent_name,fe81d_0dot2-0dot1
ch_type,1_1
kcount,1
numberNandB,1
brightnessNandB,1
carpet pos,0
pc,0
Time (ms),CH1 Auto-Correlation
1.0,0.06673333048820496
2.0,0.06546837836503983
3.0,0.0642358735203743
4.0,0.06303179264068604
5.0,0.061840690672397614
6.0,0.060707371681928635
7.0,0.059590380638837814
8.0,0.0585065521299839
9.0,0.057443100959062576
10.0,0.05646968632936478
11.0,0.05554187297821045
12.0,0.054617032408714294
13.0,0.05377773568034172
14.0,0.05294613167643547
15.0,0.052110880613327026
16.0,0.05134434625506401
18.0,0.0498572513461113
20.0,0.04839962720870972
22.0,0.04705556482076645
24.0,0.045856088399887085
26.0,0.04468658193945885
28.0,0.04359785467386246
30.0,0.04255875200033188
32.0,0.04156279191374779
36.0,0.039462458342313766
40.0,0.037525806576013565
44.0,0.03576487675309181
48.0,0.034218207001686096
52.0,0.032594356685876846
56.0,0.030937686562538147
60.0,0.029353387653827667
64.0,0.02790324203670025
72.0,0.02567206881940365
80.0,0.023715991526842117
88.0,0.02166549302637577
96.0,0.020016245543956757
104.0,0.01853070966899395
112.0,0.017108699306845665
120.0,0.015642669051885605
128.0,0.014418689534068108
144.0,0.012293467298150063
160.0,0.012044645845890045
176.0,0.013504652306437492
192.0,0.014202938415110111
208.0,0.01439757738262415
224.0,0.014598826877772808
240.0,0.013941657729446888
256.0,0.012562565505504608
288.0,0.010717137716710567
320.0,0.009229591116309166
352.0,0.006008035968989134
384.0,0.0022243086714297533
416.0,0.0002252640260849148
448.0,0.0009102317853830755
480.0,0.0002619654405862093
512.0,0.0009958039736375213
576.0,0.0016892021521925926
640.0,-0.0004982961108908057
704.0,-0.004545820876955986
768.0,-0.002909939968958497
832.0,0.0018199101323261857
896.0,-0.0008926325826905668
960.0,-0.004656437784433365
1024.0,-0.0028029978275299072
1152.0,-0.004002095200121403
1280.0,0.00046692945761606097
1408.0,-0.0036840136162936687
1536.0,6.188187398947775e-05
1664.0,-3.7103243812453e-05
1792.0,-0.0009470072109252214
1920.0,0.005695901811122894
2048.0,-0.00017916520300786942
2304.0,0.00395581591874361
2560.0,-0.0024452442303299904
2816.0,-0.00783450249582529
3072.0,-0.017144285142421722
3328.0,-0.007186750881373882
3584.0,0.0007883825455792248
3840.0,-0.005389893427491188
4096.0,-0.002877752762287855
4608.0,-0.0021934558171778917
5120.0,-0.003881717100739479
5632.0,0.002656053053215146
6144.0,0.0038566612638533115
6656.0,0.0006702030659653246
7168.0,-0.00031904265051707625
7680.0,0.0052415174432098866
8192.0,0.006322121247649193
end
