version,3.0
numOfCh,1
type,point
parent_name,400-cuts
ch_type,1_1
kcount,1
numberNandB,1
brightnessNandB,1
carpet pos,0
pc,0
Time (ms),CH1 Auto-Correlation
1.0,0.029103882610797882
2.0,0.02821059711277485
3.0,0.027335193008184433
4.0,0.02650497667491436
5.0,0.025692299008369446
6.0,0.024917542934417725
7.0,0.024178942665457726
8.0,0.02344103716313839
9.0,0.022704042494297028
10.0,0.022006824612617493
11.0,0.021328475326299667
12.0,0.020668940618634224
13.0,0.020047811791300774
14.0,0.019448794424533844
15.0,0.0188742745667696
16.0,0.018297594040632248
18.0,0.017198029905557632
20.0,0.016142498701810837
22.0,0.015240161679685116
24.0,0.014395608566701412
26.0,0.013608381152153015
28.0,0.012884884141385555
30.0,0.01215234026312828
32.0,0.01141752116382122
36.0,0.010021732188761234
40.0,0.008830688893795013
44.0,0.007826303131878376
48.0,0.0068901292979717255
52.0,0.006033140234649181
56.0,0.005397079978138208
60.0,0.00491834944114089
64.0,0.004467533901333809
72.0,0.0037043581251055002
80.0,0.0029063154943287373
88.0,0.0018978575244545937
96.0,0.000892845680937171
104.0,0.0003666432749014348
112.0,8.201921446016058e-05
120.0,-0.00021078623831272125
128.0,-0.00018198911857325584
144.0,7.00495729688555e-05
160.0,0.0001449252013117075
176.0,-0.00028073284192942083
192.0,-0.000942956015933305
208.0,-0.0013139460934326053
224.0,-0.0011737250024452806
240.0,-0.0010013935388997197
256.0,-0.001054762164130807
288.0,-0.0004429805267136544
320.0,1.90322934940923e-05
352.0,0.0009006544714793563
384.0,0.0006205167155712843
416.0,5.6733828387223184e-05
448.0,0.0008666596258990467
480.0,0.0019383347826078534
512.0,0.0009731817408464849
576.0,-0.0004138388321734965
640.0,-0.0008269062382169068
704.0,-5.888326995773241e-05
768.0,0.0002651871182024479
832.0,-0.0012412690557539463
896.0,-0.0026212665252387524
960.0,-0.0021135760471224785
1024.0,0.0002343749365536496
1152.0,0.0010111425071954727
1280.0,-0.00010751670924946666
1408.0,-0.0003814318624790758
1536.0,0.0008065429865382612
1664.0,0.0010920650092884898
1792.0,-7.417490269290283e-05
1920.0,-0.002420740434899926
2048.0,-0.002906504785642028
2304.0,-0.000993984518572688
2560.0,-0.0004295636317692697
2816.0,0.0028509050607681274
3072.0,0.001326021272689104
3328.0,-0.0004961497616022825
3584.0,-0.0012213391019031405
3840.0,0.00037571205757558346
4096.0,-0.0009288868750445545
4608.0,-0.0006144970539025962
5120.0,-0.0016832015244290233
5632.0,0.0018132970435544848
6144.0,-0.0002643209008965641
6656.0,-0.00037454633275046945
7168.0,-0.00022752900258637965
7680.0,-0.001488181995227933
8192.0,-0.00028362657758407295
9216.0,0.0002460324903950095
10240.0,-0.0007033151341602206
11264.0,9.51654656091705e-05
12288.0,0.0017242796020582318
13312.0,-0.000204140626010485
14336.0,-0.0011448801960796118
end
