version,3.0
numOfCh,1
type,point
parent_name,400-cuts
ch_type,1_1
kcount,1
numberNandB,1
brightnessNandB,1
carpet pos,0
pc,0
Time (ms),CH1 Auto-Correlation
1.0,0.06944914162158966
2.0,0.06746014952659607
3.0,0.0655192956328392
4.0,0.06365715712308884
5.0,0.06191166490316391
6.0,0.0601867139339447
7.0,0.05854007601737976
8.0,0.05691346153616905
9.0,0.05530838295817375
10.0,0.053694166243076324
11.0,0.052087631076574326
12.0,0.0505431592464447
13.0,0.049037832766771317
14.0,0.0475279726088047
15.0,0.046047333627939224
16.0,0.04463151842355728
18.0,0.04186918959021568
20.0,0.039287105202674866
22.0,0.036931537091732025
24.0,0.03463909402489662
26.0,0.03247185796499252
28.0,0.030518511310219765
30.0,0.028636345639824867
32.0,0.026976369321346283
36.0,0.023964302614331245
40.0,0.021434977650642395
44.0,0.019303256645798683
48.0,0.017328962683677673
52.0,0.015461635775864124
56.0,0.013822199776768684
60.0,0.012284346856176853
64.0,0.010933024808764458
72.0,0.008897359482944012
80.0,0.006987865548580885
88.0,0.005516085308045149
96.0,0.004286613315343857
104.0,0.00357179157435894
112.0,0.0034552309662103653
120.0,0.003411521203815937
128.0,0.0033379707019776106
144.0,0.003109693992882967
160.0,0.003174813697114587
176.0,0.0027803548146039248
192.0,0.0018196208402514458
208.0,0.0020939167588949203
224.0,0.002555574057623744
240.0,0.002919178456068039
256.0,0.0023397146724164486
288.0,0.0028397655114531517
320.0,0.003140897024422884
352.0,0.0032285216730087996
384.0,0.0031584000680595636
416.0,-0.0004547082644421607
448.0,-0.002418533433228731
480.0,-0.0041030640713870525
512.0,0.001770752016454935
576.0,0.002346661174669862
640.0,-0.002207936020568013
704.0,-0.004348709248006344
768.0,-0.005975538864731789
832.0,-0.0017251860117539763
896.0,-0.0015065160114318132
960.0,-0.00047443690709769726
1024.0,-0.0027159531600773335
1152.0,-0.0006822728901170194
1280.0,-0.0018107173964381218
1408.0,-0.0012010077480226755
1536.0,-0.0018234901363030076
1664.0,0.0008286706870421767
1792.0,0.0008065833244472742
1920.0,0.00040588932461105287
2048.0,0.001443303539417684
2304.0,9.07911999092903e-06
2560.0,0.003079082118347287
2816.0,0.002605091081932187
3072.0,-0.0009997871238738298
3328.0,-0.0007109660655260086
3584.0,-0.002828510943800211
3840.0,-0.003016467671841383
4096.0,0.0006394394440576434
4608.0,-0.0004506959521677345
5120.0,-0.0010202584089711308
5632.0,0.0018413843354210258
6144.0,-0.002573956036940217
6656.0,-0.003157354425638914
7168.0,-0.0009500875603407621
7680.0,0.0009563930216245353
8192.0,-0.0006255548796616495
9216.0,-0.000707646831870079
10240.0,-0.0012149971444159746
11264.0,0.005340880248695612
12288.0,-0.003211740870028734
13312.0,0.004592542536556721
14336.0,-0.007048482075333595
end
