version,3.0
numOfCh,1
type,point
parent_name,400-cuts
ch_type,1_1
kcount,1
numberNandB,1
brightnessNandB,1
carpet pos,0
pc,0
Time (ms),CH1 Auto-Correlation
1.0,0.0959312841296196
2.0,0.09305131435394287
3.0,0.09022806584835052
4.0,0.08753888309001923
5.0,0.08494620025157928
6.0,0.0824115201830864
7.0,0.07990897446870804
8.0,0.07747606933116913
9.0,0.07524418830871582
10.0,0.07318659126758575
11.0,0.07120978832244873
12.0,0.06922068446874619
13.0,0.0673144981265068
14.0,0.06547872722148895
15.0,0.06367766112089157
16.0,0.061956409364938736
18.0,0.05870372802019119
20.0,0.05571313202381134
22.0,0.05300932750105858
24.0,0.05070241913199425
26.0,0.04850805550813675
28.0,0.04627151042222977
30.0,0.04410964995622635
32.0,0.04206756874918938
36.0,0.038138143718242645
40.0,0.03433891013264656
44.0,0.030882781371474266
48.0,0.02792965993285179
52.0,0.02553100883960724
56.0,0.023363733664155006
60.0,0.02152235433459282
64.0,0.020158054307103157
72.0,0.017725050449371338
80.0,0.016363082453608513
88.0,0.01492841262370348
96.0,0.012530257925391197
104.0,0.01001092977821827
112.0,0.008374310098588467
120.0,0.007486802991479635
128.0,0.006455321796238422
144.0,0.0037229254376143217
160.0,0.002168971113860607
176.0,0.001614383771084249
192.0,0.0020276466384530067
208.0,0.0024508461356163025
224.0,0.000988413579761982
240.0,-0.001033558277413249
256.0,-0.0016900106566026807
288.0,-0.00268029747530818
320.0,-0.0018684160895645618
352.0,-0.0015664967941120267
384.0,-0.0020211124792695045
416.0,-0.003470752388238907
448.0,-0.0060205827467143536
480.0,-0.010113991796970367
512.0,-0.005143536254763603
576.0,0.0027053705416619778
640.0,0.0029601023998111486
704.0,-0.001558299525640905
768.0,-0.003019020427018404
832.0,-0.003269676584750414
896.0,-0.0033778066281229258
960.0,-0.0026106873992830515
1024.0,-0.0003416112158447504
1152.0,0.0031473843846470118
1280.0,0.005468857008963823
1408.0,0.006437585223466158
1536.0,0.007550178095698357
1664.0,0.0035375976003706455
1792.0,-0.004700032994151115
1920.0,-0.005725495051592588
2048.0,0.0003743581473827362
2304.0,-0.004494982305914164
2560.0,0.0015706977574154735
2816.0,8.168082422344014e-05
3072.0,-0.0024170454125851393
3328.0,-0.0024945694021880627
3584.0,-0.003227855544537306
3840.0,3.225383261451498e-05
4096.0,0.0006743243429809809
4608.0,-0.0028119576163589954
5120.0,-0.0015816573286429048
5632.0,-0.0027716204058378935
6144.0,0.0008506340673193336
6656.0,-0.0007944439421407878
7168.0,0.00017584730812814087
7680.0,0.002649105852469802
8192.0,-0.0008098483667708933
9216.0,0.0027381477411836386
10240.0,0.0018735966878011823
11264.0,-0.002221169648692012
12288.0,-0.0036283580120652914
13312.0,-0.006114478688687086
14336.0,0.0014031025348231196
end
