version,3.0
numOfCh,1
type,point
parent_name,400-cuts
ch_type,1_1
kcount,1
numberNandB,1
brightnessNandB,1
carpet pos,0
pc,0
Time (ms),CH1 Auto-Correlation
1.0,0.07993964105844498
2.0,0.07730089873075485
3.0,0.07477398216724396
4.0,0.07232417166233063
5.0,0.0699424222111702
6.0,0.06766021251678467
7.0,0.06538369506597519
8.0,0.06320089846849442
9.0,0.06113022193312645
10.0,0.05921193212270737
11.0,0.057391535490751266
12.0,0.05562002211809158
13.0,0.053945623338222504
14.0,0.05238236114382744
15.0,0.050879523158073425
16.0,0.04946804791688919
18.0,0.04666071757674217
20.0,0.04412510618567467
22.0,0.04183269664645195
24.0,0.03977486863732338
26.0,0.03790305554866791
28.0,0.036142747849226
30.0,0.034517206251621246
32.0,0.03294341638684273
36.0,0.02984381653368473
40.0,0.027217485010623932
44.0,0.024906177073717117
48.0,0.022943802177906036
52.0,0.021580101922154427
56.0,0.020141884684562683
60.0,0.01864066906273365
64.0,0.017425930127501488
72.0,0.015121749602258205
80.0,0.01225913967937231
88.0,0.010246016085147858
96.0,0.008540804497897625
104.0,0.0064743394032120705
112.0,0.005159784108400345
120.0,0.004278495907783508
128.0,0.0033100927248597145
144.0,0.00139083422254771
160.0,0.0003355219087097794
176.0,-0.000782318995334208
192.0,-0.0010976558551192284
208.0,0.00030344421975314617
224.0,0.0004740482254419476
240.0,-0.00042526412289589643
256.0,-0.0019249506294727325
288.0,-0.003882282879203558
320.0,-0.004492046311497688
352.0,-0.0014389782445505261
384.0,0.0009742695838212967
416.0,-0.0003024184552486986
448.0,-0.00010270456550642848
480.0,0.003336886176839471
512.0,0.005366126075387001
576.0,0.008012131787836552
640.0,0.005937026813626289
704.0,0.002648887224495411
768.0,0.0010169859742745757
832.0,-0.0015600795159116387
896.0,-0.0026893140748143196
960.0,-0.0022763372398912907
1024.0,0.0006926689529791474
1152.0,0.0028884457424283028
1280.0,-0.0026478953659534454
1408.0,-0.0018247616244480014
1536.0,0.0019100531935691833
1664.0,0.0036496249958872795
1792.0,0.0008508713217452168
1920.0,-0.004920019768178463
2048.0,0.0006754591013304889
2304.0,-0.0017103643622249365
2560.0,-0.002950713038444519
2816.0,-0.0023491298779845238
3072.0,-0.0020100788678973913
3328.0,-0.0006844280287623405
3584.0,-0.004249407444149256
3840.0,-0.0026678284630179405
4096.0,-0.0024528908543288708
4608.0,0.0016559904906898737
5120.0,0.001961633563041687
5632.0,0.002272209385409951
6144.0,0.0017761114286258817
6656.0,-0.0012693136231973767
7168.0,0.003866475773975253
7680.0,0.0012151733972132206
8192.0,-0.003004571422934532
9216.0,-0.002735672052949667
10240.0,-0.0017611493822187185
11264.0,-0.0019322979496791959
12288.0,-0.0004775188572239131
13312.0,-0.0005938250105828047
14336.0,0.003277537180110812
end
