version,3.0
numOfCh,1
type,point
parent_name,400-cuts
ch_type,1_1
kcount,1
numberNandB,1
brightnessNandB,1
carpet pos,0
pc,0
Time (ms),CH1 Auto-Correlation
1.0,0.13575869798660278
2.0,0.1319880336523056
3.0,0.12833522260189056
4.0,0.12471581250429153
5.0,0.12106911092996597
6.0,0.11763419955968857
7.0,0.11435317993164062
8.0,0.11112507432699203
9.0,0.1079731211066246
10.0,0.10495301336050034
11.0,0.10203690081834793
12.0,0.09926429390907288
13.0,0.0965663343667984
14.0,0.0939333513379097
15.0,0.09137538075447083
16.0,0.08889827132225037
18.0,0.08428160846233368
20.0,0.07980075478553772
22.0,0.07570899277925491
24.0,0.07205571979284286
26.0,0.06853307783603668
28.0,0.06503093987703323
30.0,0.06159093976020813
32.0,0.058191414922475815
36.0,0.05178436264395714
40.0,0.04598894715309143
44.0,0.04111788421869278
48.0,0.03622805327177048
52.0,0.03163348510861397
56.0,0.027133408933877945
60.0,0.02293427474796772
64.0,0.018894672393798828
72.0,0.012296798638999462
80.0,0.008798344992101192
88.0,0.006821920163929462
96.0,0.005743364803493023
104.0,0.005744674243032932
112.0,0.005438549909740686
120.0,0.004030204843729734
128.0,0.0025541323702782393
144.0,0.000692706264089793
160.0,-0.0017021686071529984
176.0,-0.004584819544106722
192.0,-0.00524783693253994
208.0,-0.004712025634944439
224.0,-0.00464556785300374
240.0,-0.002111957408487797
256.0,0.0007128869765438139
288.0,0.0048380340449512005
320.0,0.006022620014846325
352.0,0.004029265139251947
384.0,0.003420971566811204
416.0,0.006095800548791885
448.0,0.006689403206110001
480.0,0.002531652571633458
512.0,-0.001094982959330082
576.0,-0.0017363086808472872
640.0,-0.002514108782634139
704.0,-9.991407569032162e-05
768.0,-0.004462875425815582
832.0,-0.004976313095539808
896.0,-0.0025572963058948517
960.0,0.0002545581082813442
1024.0,-0.004478167742490768
1152.0,-0.003391984850168228
1280.0,-0.0032357280142605305
1408.0,0.001694823382422328
1536.0,-0.0006177109316922724
1664.0,0.005691401194781065
1792.0,0.0013574569020420313
1920.0,0.002280486049130559
2048.0,-0.0005710367113351822
2304.0,-0.008829823695123196
2560.0,-0.004342190455645323
2816.0,-0.0007876110030338168
3072.0,-0.0037498148158192635
3328.0,0.0007358922739513218
3584.0,-0.0030606400687247515
3840.0,-0.0023453582543879747
4096.0,0.004050476010888815
4608.0,0.0037995921447873116
5120.0,-0.0035501408856362104
5632.0,-0.003053805325180292
6144.0,0.0023153643123805523
6656.0,-0.0009495829581283033
7168.0,-0.006845263764262199
7680.0,0.007761847693473101
8192.0,-0.009022125974297523
9216.0,0.00017361243953928351
10240.0,0.004080173559486866
11264.0,0.003720097243785858
12288.0,0.00036255456507205963
13312.0,4.396919393911958e-05
14336.0,-0.008848822675645351
end
