version,3.0
numOfCh,1
type,point
parent_name,400-cuts
ch_type,1_1
kcount,1
numberNandB,1
brightnessNandB,1
carpet pos,0
pc,0
Time (ms),CH1 Auto-Correlation
1.0,0.0286222156137228
2.0,0.027829404920339584
3.0,0.027023345232009888
4.0,0.02623174898326397
5.0,0.02544340305030346
6.0,0.0246896930038929
7.0,0.023950796574354172
8.0,0.0232402216643095
9.0,0.0225484948605299
10.0,0.021896149963140488
11.0,0.021250944584608078
12.0,0.020641354843974113
13.0,0.020072776824235916
14.0,0.019508810713887215
15.0,0.018987853080034256
16.0,0.018480420112609863
18.0,0.01747039705514908
20.0,0.01650000549852848
22.0,0.015580456703901291
24.0,0.014736001379787922
26.0,0.013959981501102448
28.0,0.013196040876209736
30.0,0.012475182302296162
32.0,0.011799315921962261
36.0,0.010531075298786163
40.0,0.009420834481716156
44.0,0.0084121935069561
48.0,0.007487444672733545
52.0,0.006561560090631247
56.0,0.005758344661444426
60.0,0.005130945239216089
64.0,0.004577461630105972
72.0,0.003595632268115878
80.0,0.002841798821464181
88.0,0.002558484673500061
96.0,0.0022932919673621655
104.0,0.0022375737316906452
112.0,0.0022020945325493813
120.0,0.0021381613332778215
128.0,0.0021453232038766146
144.0,0.0020606014877557755
160.0,0.0014538485556840897
176.0,0.0007181717082858086
192.0,0.0003684107505250722
208.0,2.165980367863085e-05
224.0,-0.00034936057636514306
240.0,-0.00044242103467695415
256.0,-0.0006109161768108606
288.0,-0.0006023744354024529
320.0,-0.00011847320274682716
352.0,7.422373164445162e-05
384.0,-0.00021340744569897652
416.0,-0.0009611573186703026
448.0,-0.0012443544110283256
480.0,0.00010326640767743811
512.0,-0.00048318065819330513
576.0,-0.002581877401098609
640.0,-0.002842361107468605
704.0,-0.0027311420999467373
768.0,-0.0012058664578944445
832.0,-0.001073880703188479
896.0,-0.0011877850629389286
960.0,-0.0008067427552305162
1024.0,-0.0017306860536336899
1152.0,-3.910798841388896e-05
1280.0,0.0025173923932015896
1408.0,0.0022317401599138975
1536.0,0.00043203719542361796
1664.0,8.957801765063778e-05
1792.0,-0.0018484967295080423
1920.0,-0.0007396420114673674
2048.0,-0.00014708741218782961
2304.0,0.0005110605270601809
2560.0,-0.00033451925264671445
2816.0,0.0018864549929276109
3072.0,-0.0008174653048627079
3328.0,-0.00129044393543154
3584.0,-0.0008138801204040647
3840.0,-0.0012253019958734512
4096.0,-0.0009381977724842727
4608.0,-1.906598117784597e-05
5120.0,0.00021690825815312564
5632.0,-0.0005022827535867691
6144.0,-0.0004627169982995838
6656.0,0.0003448939532972872
7168.0,0.0005292119458317757
7680.0,-0.00036046013701707125
8192.0,0.00046896288404241204
9216.0,-0.0005548750050365925
10240.0,0.00014033900515642017
11264.0,1.95291249838192e-05
12288.0,0.00021491918596439064
13312.0,-0.00018168980022892356
14336.0,-0.0004892329452559352
end
