version,3.0
numOfCh,1
type,point
parent_name,400-cuts
ch_type,1_1
kcount,1
numberNandB,1
brightnessNandB,1
carpet pos,0
pc,0
Time (ms),CH1 Auto-Correlation
1.0,0.03054027631878853
2.0,0.02973746880888939
3.0,0.028967512771487236
4.0,0.0282344538718462
5.0,0.027518505230545998
6.0,0.02682093344628811
7.0,0.026139860972762108
8.0,0.025488991290330887
9.0,0.024854106828570366
10.0,0.024238262325525284
11.0,0.023628324270248413
12.0,0.023043176159262657
13.0,0.022447379305958748
14.0,0.021860338747501373
15.0,0.021256612613797188
16.0,0.020686892792582512
18.0,0.019571738317608833
20.0,0.018586324527859688
22.0,0.01770041510462761
24.0,0.01683926023542881
26.0,0.016032198444008827
28.0,0.01524483971297741
30.0,0.014538134448230267
32.0,0.013888096436858177
36.0,0.012763691134750843
40.0,0.011708795092999935
44.0,0.010743588209152222
48.0,0.009833362884819508
52.0,0.009003852494060993
56.0,0.008293564431369305
60.0,0.007663415279239416
64.0,0.007122438866645098
72.0,0.00622878223657608
80.0,0.00552425067871809
88.0,0.004613755736500025
96.0,0.0034846649505198
104.0,0.0023842966184020042
112.0,0.0015511014498770237
120.0,0.0009856424294412136
128.0,0.0004339549341239035
144.0,-0.00040048977825790644
160.0,-0.0006822255672886968
176.0,-0.0009408658370375633
192.0,-0.0010395904537290335
208.0,-0.0008851609309203923
224.0,-0.0012139319442212582
240.0,-0.001468166708946228
256.0,-0.0009314590133726597
288.0,-0.0006382385035976768
320.0,-0.0009477218263782561
352.0,-0.0006926582427695394
384.0,-0.0005402695969678462
416.0,-0.0007661120616830885
448.0,-0.0009307572618126869
480.0,-0.0015516409184783697
512.0,-0.0026918279472738504
576.0,-0.002507939003407955
640.0,-0.0031040848698467016
704.0,-0.003715117461979389
768.0,-0.0011280272156000137
832.0,0.0006179963238537312
896.0,0.0006480310694314539
960.0,0.001801666570827365
1024.0,0.003009884152561426
1152.0,0.0017054767813533545
1280.0,-0.0005761976353824139
1408.0,-0.0025902115739881992
1536.0,-0.0012963408371433616
1664.0,-0.002007084432989359
1792.0,-0.0015458756824955344
1920.0,0.0024877688847482204
2048.0,0.0013654393842443824
2304.0,0.0010639806278049946
2560.0,-0.0012041652807965875
2816.0,-0.001129200216382742
3072.0,0.0019314592937007546
3328.0,0.0006138942553661764
3584.0,-0.0021784412674605846
3840.0,-0.001829422195442021
4096.0,-2.6543188141658902e-05
4608.0,0.0015374439535662532
5120.0,-0.00018433709919918329
5632.0,-3.3237643947359174e-05
6144.0,-0.0007638728129677474
6656.0,7.829580863472074e-05
7168.0,-0.0010860101319849491
7680.0,0.0005391644081100821
8192.0,-0.000827347335871309
9216.0,0.00040640722727403045
10240.0,3.3393156627425924e-05
11264.0,6.962889165151864e-05
12288.0,-0.0005964632728137076
13312.0,0.00044816586887463927
14336.0,0.00027805616264231503
end
