version,3.0
numOfCh,1
type,point
parent_name,400-cuts
ch_type,1_1
kcount,1
numberNandB,1
brightnessNandB,1
carpet pos,0
pc,0
Time (ms),CH1 Auto-Correlation
1.0,0.02729886583983898
2.0,0.02654927968978882
3.0,0.025824209675192833
4.0,0.025102341547608376
5.0,0.02439984120428562
6.0,0.02371438965201378
7.0,0.023037169128656387
8.0,0.02238357812166214
9.0,0.021740293130278587
10.0,0.021125134080648422
11.0,0.02052362821996212
12.0,0.01993747614324093
13.0,0.01936718076467514
14.0,0.018817342817783356
15.0,0.018286889418959618
16.0,0.017801085487008095
18.0,0.016832493245601654
20.0,0.015900060534477234
22.0,0.015019554644823074
24.0,0.014253287576138973
26.0,0.013547112233936787
28.0,0.012883349321782589
30.0,0.012268849648535252
32.0,0.011647394858300686
36.0,0.0105291698127985
40.0,0.009561564773321152
44.0,0.00868762843310833
48.0,0.007876474410295486
52.0,0.00705775897949934
56.0,0.006299181375652552
60.0,0.005755945108830929
64.0,0.0052819568663835526
72.0,0.00412429915741086
80.0,0.0028700970578938723
88.0,0.001876520225778222
96.0,0.001558378804475069
104.0,0.0013857594458386302
112.0,0.0011199614964425564
120.0,0.0008277722517959774
128.0,0.0008231823449023068
144.0,0.0009587144013494253
160.0,0.0015903746243566275
176.0,0.0016287121688947082
192.0,0.0012596417218446732
208.0,0.0011134800733998418
224.0,0.0012597334571182728
240.0,0.0015673995949327946
256.0,0.0016670984914526343
288.0,0.0014629686484113336
320.0,0.0015887940535321832
352.0,0.0006382165593095124
384.0,-2.7961172236246057e-05
416.0,-8.510472980560735e-05
448.0,0.000654247822239995
480.0,0.0011649691732600331
512.0,0.0008088254253380001
576.0,-0.000945072271861136
640.0,-0.0004250297788530588
704.0,0.0006912437966093421
768.0,0.0006949855596758425
832.0,0.0009128774399869144
896.0,0.0013102656230330467
960.0,0.0010892951395362616
1024.0,0.00010032000136561692
1152.0,0.0003123289789073169
1280.0,-0.0016567696584388614
1408.0,0.000535741972271353
1536.0,0.00020729532116092741
1664.0,-0.0011133182561025023
1792.0,-0.000929345260374248
1920.0,-0.002039621351286769
2048.0,-0.0017184173921123147
2304.0,-0.0010957223130390048
2560.0,-0.00037334972876124084
2816.0,-0.0005449601449072361
3072.0,0.0004291454388294369
3328.0,2.501480412320234e-05
3584.0,0.0004915420431643724
3840.0,0.001246785745024681
4096.0,0.0009708153665997088
4608.0,6.138788012322038e-05
5120.0,0.0003450586518738419
5632.0,0.00016325981414411217
6144.0,-0.00010537742491578683
6656.0,-2.914032847911585e-05
7168.0,-0.0012370436452329159
7680.0,-0.0015054901596158743
8192.0,-0.0010499589843675494
9216.0,0.000734486326109618
10240.0,0.0005156088736839592
11264.0,-0.0008133184164762497
12288.0,-0.0005110976053401828
13312.0,0.0006534662679769099
14336.0,0.0010031360434368253
end
