version,3.0
numOfCh,1
type,point
parent_name,400-cuts
ch_type,1_1
kcount,1
numberNandB,1
brightnessNandB,1
carpet pos,0
pc,0
Time (ms),CH1 Auto-Correlation
1.0,0.05148765444755554
2.0,0.049893736839294434
3.0,0.04833381623029709
4.0,0.04682866856455803
5.0,0.045347101986408234
6.0,0.043886635452508926
7.0,0.042477913200855255
8.0,0.041108787059783936
9.0,0.03978799283504486
10.0,0.038460660725831985
11.0,0.0371573232114315
12.0,0.03588157892227173
13.0,0.034628722816705704
14.0,0.03344862535595894
15.0,0.032320886850357056
16.0,0.03124142624437809
18.0,0.029210053384304047
20.0,0.02731965109705925
22.0,0.02557266131043434
24.0,0.023933202028274536
26.0,0.022493524476885796
28.0,0.021176142618060112
30.0,0.019936371594667435
32.0,0.018731525167822838
36.0,0.016798699274659157
40.0,0.015204998664557934
44.0,0.013926947489380836
48.0,0.012892949394881725
52.0,0.011923550628125668
56.0,0.010834160260856152
60.0,0.00980463158339262
64.0,0.008749738335609436
72.0,0.007217143662273884
80.0,0.00563858775421977
88.0,0.004545884672552347
96.0,0.0039286185055971146
104.0,0.0035096004139631987
112.0,0.0028548554982990026
120.0,0.001970363315194845
128.0,0.0010692583164200187
144.0,-0.000658294593449682
160.0,-0.001939857378602028
176.0,-0.002522409660741687
192.0,-0.0022241745609790087
208.0,-0.00019209797028452158
224.0,0.001698233070783317
240.0,0.002168780192732811
256.0,0.0020521939732134342
288.0,0.002729396801441908
320.0,0.0005836544441990554
352.0,0.0010721898870542645
384.0,4.0356084355153143e-05
416.0,-0.003609315725043416
448.0,-0.0032161956187337637
480.0,-0.0005900787655264139
512.0,0.0007385905482806265
576.0,0.0025712072383612394
640.0,0.0009943674085661769
704.0,0.001747895497828722
768.0,0.003716810140758753
832.0,0.0026123723946511745
896.0,0.00014584604650735855
960.0,-0.0009190735290758312
1024.0,-0.00024710269644856453
1152.0,0.0012813074281439185
1280.0,-0.0003609514678828418
1408.0,-0.0004323546017985791
1536.0,0.0002617611608002335
1664.0,0.0004901032079942524
1792.0,-0.004306985531002283
1920.0,0.0020658548455685377
2048.0,0.0003668515710160136
2304.0,-0.0017346087843179703
2560.0,-0.00252738525159657
2816.0,-5.5591510317754e-05
3072.0,-0.0021042299922555685
3328.0,-0.0027839220128953457
3584.0,-0.0017293714918196201
3840.0,-0.0013552256859838963
4096.0,0.0025928437244147062
4608.0,0.0002459692186675966
5120.0,0.0015819737454876304
5632.0,0.0020444521214812994
6144.0,-0.0001230990601470694
6656.0,-0.0009006225736811757
7168.0,-0.0007103710668161511
7680.0,-0.0003974857972934842
8192.0,-0.0016126538394019008
9216.0,-0.00049482291797176
10240.0,0.00046292695333249867
11264.0,0.00023552529455628246
12288.0,3.771778938244097e-05
13312.0,-0.00035453049349598587
14336.0,-0.00026003230595961213
end
