version,3.0
numOfCh,1
type,point
parent_name,400-cuts
ch_type,1_1
kcount,1
numberNandB,1
brightnessNandB,1
carpet pos,0
pc,0
Time (ms),CH1 Auto-Correlation
1.0,0.02228447049856186
2.0,0.021533165127038956
3.0,0.020812712609767914
4.0,0.020123407244682312
5.0,0.019450603052973747
6.0,0.01880771853029728
7.0,0.018160849809646606
8.0,0.017560772597789764
9.0,0.017014628276228905
10.0,0.016512928530573845
11.0,0.016023842617869377
12.0,0.01556432619690895
13.0,0.015123846009373665
14.0,0.014697653241455555
15.0,0.014285475946962833
16.0,0.013892215676605701
18.0,0.013187093660235405
20.0,0.01249378826469183
22.0,0.011835562996566296
24.0,0.011275557801127434
26.0,0.010722141712903976
28.0,0.010167165659368038
30.0,0.009629555977880955
32.0,0.009110591374337673
36.0,0.008235632441937923
40.0,0.0074102869257330894
44.0,0.00664273789152503
48.0,0.005843093618750572
52.0,0.005027723498642445
56.0,0.00426100566983223
60.0,0.0035589251201599836
64.0,0.0029374591540545225
72.0,0.0022257014643400908
80.0,0.0016739566344767809
88.0,0.001152206677943468
96.0,0.0007273149094544351
104.0,0.0005747483810409904
112.0,0.00035283289616927505
120.0,0.00022260019613895565
128.0,0.0004028433177154511
144.0,0.0006225097458809614
160.0,0.00037235472700558603
176.0,6.170372944325209e-05
192.0,-0.0001372613332932815
208.0,-0.0006064634071663022
224.0,-0.0008305308292619884
240.0,-0.0004898486658930779
256.0,-0.0007564016850665212
288.0,-5.445199349196628e-05
320.0,0.0006141535704955459
352.0,0.0016377560095861554
384.0,0.002215289045125246
416.0,0.001649658428505063
448.0,4.7323424951173365e-05
480.0,-0.000987140228971839
512.0,-0.00025266403099521995
576.0,0.0015954379923641682
640.0,0.0007692851359024644
704.0,-0.0002908125752583146
768.0,-0.0005909143364988267
832.0,-0.001272106426768005
896.0,-0.0005175158148631454
960.0,4.371673276182264e-05
1024.0,-0.00040100261685438454
1152.0,-0.0009942295728251338
1280.0,0.00016494384908583015
1408.0,-0.0003463948960416019
1536.0,-0.0007925147656351328
1664.0,0.0001383062481181696
1792.0,-0.000788309786003083
1920.0,-0.0009108865051530302
2048.0,-0.0012212605215609074
2304.0,-0.0001051132203429006
2560.0,4.0281767724081874e-05
2816.0,-0.00047875745804049075
3072.0,-0.0009371537016704679
3328.0,0.00013625496649183333
3584.0,0.0006670515285804868
3840.0,0.0011634309776127338
4096.0,0.0005633577820844948
4608.0,-0.0002832930476870388
5120.0,0.00023034450714476407
5632.0,0.000363323837518692
6144.0,0.00030125316698104143
6656.0,-0.0010305196046829224
7168.0,-0.0009273799369111657
7680.0,-0.0001761902531143278
8192.0,-0.0007233336218632758
9216.0,0.00040847097989171743
10240.0,-0.00073902407893911
11264.0,-0.0001123605397879146
12288.0,-0.00013199204113334417
13312.0,-0.00035758764715865254
14336.0,0.001281790086068213
end
