version,3.0
numOfCh,1
type,point
parent_name,400-cuts
ch_type,1_1
kcount,1
numberNandB,1
brightnessNandB,1
carpet pos,0
pc,0
Time (ms),CH1 Auto-Correlation
1.0,0.024707168340682983
2.0,0.023923616856336594
3.0,0.02315652184188366
4.0,0.022451141849160194
5.0,0.02176288701593876
6.0,0.02109847404062748
7.0,0.02045060321688652
8.0,0.01980806514620781
9.0,0.01918940246105194
10.0,0.01857632026076317
11.0,0.01797124184668064
12.0,0.017376307398080826
13.0,0.0167852770537138
14.0,0.016196615993976593
15.0,0.01563914678990841
16.0,0.015108914114534855
18.0,0.014064190909266472
20.0,0.013130652718245983
22.0,0.01227295771241188
24.0,0.011457042768597603
26.0,0.010672551579773426
28.0,0.009944871999323368
30.0,0.009244232438504696
32.0,0.008589350618422031
36.0,0.007350217085331678
40.0,0.006205582991242409
44.0,0.005160079803317785
48.0,0.004362273961305618
52.0,0.003764545079320669
56.0,0.0032990318723022938
60.0,0.0029301645699888468
64.0,0.0026069695595651865
72.0,0.0018803362036123872
80.0,0.0011164876632392406
88.0,0.00044614821672439575
96.0,-0.0003194848832208663
104.0,-0.0007846172084100544
112.0,-0.0009207902476191521
120.0,-0.001022609882056713
128.0,-0.0011617399286478758
144.0,-0.0012817324604839087
160.0,-0.0006610462442040443
176.0,-2.3405013052979484e-05
192.0,0.0008158641867339611
208.0,0.001167125767096877
224.0,0.001009344239719212
240.0,0.0013262227876111865
256.0,0.0015514090191572905
288.0,0.0019847387447953224
320.0,0.0007143763941712677
352.0,-0.0004022014909423888
384.0,-0.00070788967423141
416.0,-0.0008970684139057994
448.0,-0.0003202114603482187
480.0,-0.00036639688187278807
512.0,-0.0005121884169057012
576.0,0.00016069078992586583
640.0,-0.0005990726058371365
704.0,-0.00020451874297577888
768.0,-0.0006212095031514764
832.0,0.00016621789836790413
896.0,0.0014053157065063715
960.0,0.0006395124946720898
1024.0,-0.0016784887993708253
1152.0,0.0003243520332034677
1280.0,-0.0006229050923138857
1408.0,-0.00047304044710472226
1536.0,-0.0009705484844744205
1664.0,-3.5765602660831064e-05
1792.0,-0.002313868375495076
1920.0,-0.00026412119041197
2048.0,-5.248779780231416e-05
2304.0,-0.0006739062955603004
2560.0,0.000119672084110789
2816.0,9.493524703430012e-05
3072.0,0.0005081777926534414
3328.0,-0.0002304062363691628
3584.0,0.00021979885059408844
3840.0,-0.0009183645597659051
4096.0,-0.0005362231750041246
4608.0,2.9887942218920216e-05
5120.0,0.0008512921049259603
5632.0,0.0004042654181830585
6144.0,0.000500679889228195
6656.0,-0.0002956755051854998
7168.0,-0.0004783553595189005
7680.0,0.00022789955255575478
8192.0,-0.0001697909174254164
9216.0,-0.00016587390564382076
10240.0,-0.00019370824156794697
11264.0,0.00025298490072600543
12288.0,-2.4327784558408894e-05
13312.0,-8.70165149535751e-06
14336.0,9.082629730983172e-06
end
