version,3.0
numOfCh,1
type,point
parent_name,400-cuts
ch_type,1_1
kcount,1
numberNandB,1
brightnessNandB,1
carpet pos,0
pc,0
Time (ms),CH1 Auto-Correlation
1.0,0.0279120784252882
2.0,0.027068687602877617
3.0,0.026282161474227905
4.0,0.02550465613603592
5.0,0.02473786473274231
6.0,0.02398599497973919
7.0,0.023302670568227768
8.0,0.022636473178863525
9.0,0.021962778642773628
10.0,0.021294619888067245
11.0,0.020651718601584435
12.0,0.02002095617353916
13.0,0.019406462088227272
14.0,0.018819008022546768
15.0,0.018265319988131523
16.0,0.01775101013481617
18.0,0.01674041897058487
20.0,0.015805525705218315
22.0,0.014933652244508266
24.0,0.01411806046962738
26.0,0.013409734703600407
28.0,0.012761426158249378
30.0,0.012138396501541138
32.0,0.011574311181902885
36.0,0.010579456575214863
40.0,0.00968463346362114
44.0,0.008881838992238045
48.0,0.00816757045686245
52.0,0.007427365053445101
56.0,0.00676319794729352
60.0,0.0062227267771959305
64.0,0.005610767751932144
72.0,0.004319150932133198
80.0,0.003127332543954253
88.0,0.00208627013489604
96.0,0.0012044934555888176
104.0,0.0006501447060145438
112.0,0.00033850938780233264
120.0,4.09423591918312e-05
128.0,-0.0005592030356638134
144.0,-0.0018753843614831567
160.0,-0.0027089661452919245
176.0,-0.002748463535681367
192.0,-0.0027699535712599754
208.0,-0.0020308939274400473
224.0,-0.0012432653456926346
240.0,-0.0007487453985959291
256.0,-0.0007063926314003766
288.0,-0.0006816903478465974
320.0,-0.0006352906348183751
352.0,-0.0012364742578938603
384.0,-0.002928841393440962
416.0,-0.003853202797472477
448.0,-0.0023075116332620382
480.0,-0.0020344299264252186
512.0,-0.0017773971194401383
576.0,-0.0003964398056268692
640.0,0.0005672528641298413
704.0,0.0020262945909053087
768.0,-0.0004916858742944896
832.0,-0.0011345831444486976
896.0,0.0008278912864625454
960.0,0.002033163094893098
1024.0,0.0016062220092862844
1152.0,0.0003516624856274575
1280.0,-0.001412480603903532
1408.0,-0.0020422283560037613
1536.0,-0.001941796625033021
1664.0,0.0022851114626973867
1792.0,0.0003925159981008619
1920.0,0.00019906456873286515
2048.0,-0.0005213615368120372
2304.0,-0.0006181240314617753
2560.0,5.373834937927313e-05
2816.0,0.0006715365452691913
3072.0,-0.0007047534454613924
3328.0,-0.0007761446759104729
3584.0,-0.0008286819793283939
3840.0,0.0012701116502285004
4096.0,-0.00038459175266325474
4608.0,-9.915209375321865e-05
5120.0,-0.00017789551930036396
5632.0,-0.0009034795803017914
6144.0,0.0010886234231293201
6656.0,-0.00042934605153277516
7168.0,0.00048046320443972945
7680.0,0.00051361252553761
8192.0,-0.0014912106562405825
9216.0,0.0005189980147406459
10240.0,-0.0003640358045231551
11264.0,-0.00024105038028210402
12288.0,-0.0005179457948543131
13312.0,0.0006176347378641367
14336.0,-0.00030781893292441964
end
