version,3.0
numOfCh,1
type,point
parent_name,400-cuts
ch_type,1_1
kcount,1
numberNandB,1
brightnessNandB,1
carpet pos,0
pc,0
Time (ms),CH1 Auto-Correlation
1.0,0.07765854150056839
2.0,0.07527265697717667
3.0,0.07296300679445267
4.0,0.07071654498577118
5.0,0.06853457540273666
6.0,0.06642773002386093
7.0,0.06436962634325027
8.0,0.06241351366043091
9.0,0.06053437665104866
10.0,0.05867673084139824
11.0,0.05682556703686714
12.0,0.05501215159893036
13.0,0.05324169993400574
14.0,0.05156812444329262
15.0,0.049935247749090195
16.0,0.04831971600651741
18.0,0.04520056024193764
20.0,0.04225996136665344
22.0,0.03937586024403572
24.0,0.036625102162361145
26.0,0.034127794206142426
28.0,0.031889162957668304
30.0,0.029662277549505234
32.0,0.027619771659374237
36.0,0.024171458557248116
40.0,0.02095642499625683
44.0,0.01786733604967594
48.0,0.015021048486232758
52.0,0.012798403389751911
56.0,0.011062161065638065
60.0,0.009309656918048859
64.0,0.0077565801329910755
72.0,0.004648134112358093
80.0,0.002031144220381975
88.0,0.0002849266747944057
96.0,-0.00048266322119161487
104.0,-0.0009068301878869534
112.0,-0.0013238777173683047
120.0,-0.001489016111008823
128.0,-0.001445314846932888
144.0,0.00010268664482282475
160.0,0.00241128820925951
176.0,0.0016541380900889635
192.0,0.0007662433781661093
208.0,0.00021319625375326723
224.0,-0.0019635308999568224
240.0,-0.004838703665882349
256.0,-0.004644431639462709
288.0,-0.0031735177617520094
320.0,-0.002481262432411313
352.0,-0.0012834860244765878
384.0,2.988755477417726e-05
416.0,-0.0007463534129783511
448.0,0.0017320022452622652
480.0,0.0011904288548976183
512.0,0.0018536935094743967
576.0,0.004194116685539484
640.0,0.002055312739685178
704.0,0.0024834303185343742
768.0,0.00021541422756854445
832.0,-0.0010097818449139595
896.0,-0.0018835386727005243
960.0,-0.00020512958872132003
1024.0,-0.00021565068163909018
1152.0,-0.0025344446767121553
1280.0,0.003612375818192959
1408.0,0.003861879464238882
1536.0,-0.002332020318135619
1664.0,0.00021894165547564626
1792.0,-0.0020739601459354162
1920.0,-0.002708178013563156
2048.0,-0.005013945046812296
2304.0,-0.0026810376439243555
2560.0,-0.0013578044017776847
2816.0,-0.0029419860802590847
3072.0,0.0027599590830504894
3328.0,-0.001187656307592988
3584.0,0.0013109976425766945
3840.0,0.0009612984140403569
4096.0,-0.00013981630036141723
4608.0,0.002507335739210248
5120.0,-0.0005692655686289072
5632.0,-0.003603364573791623
6144.0,0.0016830655513331294
6656.0,-0.0009110221290029585
7168.0,0.0008295251755043864
7680.0,0.0027044250164180994
8192.0,-0.0029467162676155567
9216.0,-0.0009761591209098697
10240.0,-0.0013935700990259647
11264.0,0.0015834057703614235
12288.0,-6.138318713055924e-05
13312.0,-0.007442043162882328
14336.0,-4.0424107282888144e-05
end
