version,3.0
numOfCh,1
type,point
parent_name,400-cuts
ch_type,1_1
kcount,1
numberNandB,1
brightnessNandB,1
carpet pos,0
pc,0
Time (ms),CH1 Auto-Correlation
1.0,0.07795742899179459
2.0,0.07544439285993576
3.0,0.0729701966047287
4.0,0.07054329663515091
5.0,0.06820158660411835
6.0,0.06595607101917267
7.0,0.0637635737657547
8.0,0.06170347332954407
9.0,0.05965026095509529
10.0,0.05765172094106674
11.0,0.0556848980486393
12.0,0.05369162932038307
13.0,0.0517718531191349
14.0,0.04999057203531265
15.0,0.04827020689845085
16.0,0.04654419794678688
18.0,0.0431421659886837
20.0,0.040115226060152054
22.0,0.037439681589603424
24.0,0.0349639430642128
26.0,0.032638635486364365
28.0,0.030388280749320984
30.0,0.028313446789979935
32.0,0.026395158842206
36.0,0.023148709908127785
40.0,0.020229585468769073
44.0,0.017838237807154655
48.0,0.01562967710196972
52.0,0.01341540738940239
56.0,0.011803246103227139
60.0,0.010558865033090115
64.0,0.00951768085360527
72.0,0.0072199441492557526
80.0,0.005553782917559147
88.0,0.004017464350908995
96.0,0.0022898861207067966
104.0,0.0007418036693707108
112.0,-0.0006381194107234478
120.0,-0.000555891718249768
128.0,-0.0002066470478894189
144.0,-0.0009223794913850725
160.0,-0.0024360986426472664
176.0,-0.0020057358779013157
192.0,-0.00161596923135221
208.0,-0.0009393065702170134
224.0,-0.0016519647324457765
240.0,0.0007766431663185358
256.0,0.001643104013055563
288.0,0.003603273769840598
320.0,0.0027398106176406145
352.0,0.002252802951261401
384.0,0.0031230179592967033
416.0,0.0005237149307504296
448.0,-0.0037269883323460817
480.0,-0.0058321175165474415
512.0,-0.006352907046675682
576.0,-0.0022606293205171824
640.0,0.0010111278388649225
704.0,0.0002753447915893048
768.0,-0.006234210450202227
832.0,-0.006608129944652319
896.0,-0.0038958140648901463
960.0,0.0009118288871832192
1024.0,0.0006683222018182278
1152.0,-0.0036563361063599586
1280.0,0.00273153162561357
1408.0,0.003096805652603507
1536.0,-0.0012434057425707579
1664.0,-0.0019372465321794152
1792.0,-0.001213881536386907
1920.0,-0.00464233523234725
2048.0,-0.0021277316845953465
2304.0,-0.0006268346915021539
2560.0,0.001352621242403984
2816.0,-0.0013344772160053253
3072.0,-0.0018869549967348576
3328.0,-0.00022085649834480137
3584.0,0.0007628073217347264
3840.0,0.00012161325867054984
4096.0,0.0011505904840305448
4608.0,0.0019663460552692413
5120.0,0.0016337045235559344
5632.0,-0.0017283454071730375
6144.0,0.001548690372146666
6656.0,-0.002487344667315483
7168.0,-0.00335702090524137
7680.0,0.0021282825618982315
8192.0,-0.002518668072298169
9216.0,0.0011290495749562979
10240.0,-0.0013596971984952688
11264.0,-5.3236257372191176e-05
12288.0,-0.0007060197531245649
13312.0,0.0016971258446574211
14336.0,-0.0015833020443096757
end
