version,3.0
numOfCh,1
type,point
parent_name,400-cuts
ch_type,1_1
kcount,1
numberNandB,1
brightnessNandB,1
carpet pos,0
pc,0
Time (ms),CH1 Auto-Correlation
1.0,0.030399465933442116
2.0,0.02954218164086342
3.0,0.02870284952223301
4.0,0.027874838560819626
5.0,0.027055010199546814
6.0,0.02625810168683529
7.0,0.025484926998615265
8.0,0.02474026195704937
9.0,0.024001894518733025
10.0,0.023296598345041275
11.0,0.0225980244576931
12.0,0.02191225439310074
13.0,0.02122313342988491
14.0,0.02058500424027443
15.0,0.01996365189552307
16.0,0.019353272393345833
18.0,0.0182249303907156
20.0,0.01719703897833824
22.0,0.016275005415081978
24.0,0.015465552918612957
26.0,0.014727004803717136
28.0,0.014092640019953251
30.0,0.013485537841916084
32.0,0.012884062714874744
36.0,0.011746496893465519
40.0,0.010652250610291958
44.0,0.009649639949202538
48.0,0.00877405609935522
52.0,0.00796279776841402
56.0,0.007187043782323599
60.0,0.006552158389240503
64.0,0.006098947953432798
72.0,0.00518756965175271
80.0,0.004535267129540443
88.0,0.00383709161542356
96.0,0.002876722952350974
104.0,0.0019127357518300414
112.0,0.000860486994497478
120.0,-0.00018022336007561535
128.0,-0.0007567151915282011
144.0,-0.0013938536867499352
160.0,-0.002153507201001048
176.0,-0.0018954752013087273
192.0,-0.0016073897713795304
208.0,-0.002052967669442296
224.0,-0.0022459481842815876
240.0,-0.002702770521864295
256.0,-0.0031979724299162626
288.0,-0.0021160368341952562
320.0,-0.0024566769134253263
352.0,-0.0035359894391149282
384.0,-0.0036306283436715603
416.0,-0.002742812968790531
448.0,-0.0017177482368424535
480.0,-0.0015844828449189663
512.0,-0.0018463771557435393
576.0,-0.00064044538885355
640.0,0.0017045693239197135
704.0,0.0030310892034322023
768.0,0.002883093198761344
832.0,0.0017391858855262399
896.0,-0.0002965328749269247
960.0,-0.0011745643569156528
1024.0,-0.0013550587464123964
1152.0,0.0001956290943780914
1280.0,0.0020545043516904116
1408.0,-0.00026920170057564974
1536.0,-0.0011800543870776892
1664.0,-0.0019037069287151098
1792.0,0.00028557184850797057
1920.0,0.002313195262104273
2048.0,0.0005375337204895914
2304.0,-0.0012348652817308903
2560.0,0.0009493778925389051
2816.0,-0.0005798088386654854
3072.0,0.00030127904028631747
3328.0,-0.0009698099456727505
3584.0,0.0007292291847988963
3840.0,-0.0009358581155538559
4096.0,-0.001376065774820745
4608.0,-0.0008958002435974777
5120.0,9.82760320766829e-05
5632.0,-0.0009717621142044663
6144.0,0.00021586130606010556
6656.0,-0.0016058062901720405
7168.0,0.0009723049588501453
7680.0,-0.0001956278138095513
8192.0,0.0008235261775553226
9216.0,0.00026851537404581904
10240.0,-3.0155020795064047e-05
11264.0,0.00036707299295812845
12288.0,0.0003017484559677541
13312.0,-0.0003944788477383554
14336.0,-0.00013142562238499522
end
