version,3.0
numOfCh,1
type,point
parent_name,400-cuts
ch_type,1_1
kcount,1
numberNandB,1
brightnessNandB,1
carpet pos,0
pc,0
Time (ms),CH1 Auto-Correlation
1.0,0.08999708294868469
2.0,0.08710136264562607
3.0,0.08426874130964279
4.0,0.08155500888824463
5.0,0.0788721963763237
6.0,0.0762576311826706
7.0,0.0737520381808281
8.0,0.0713285580277443
9.0,0.06896166503429413
10.0,0.06670587509870529
11.0,0.06456340104341507
12.0,0.062465500086545944
13.0,0.060457970947027206
14.0,0.058495886623859406
15.0,0.056729502975940704
16.0,0.055024389177560806
18.0,0.05176036059856415
20.0,0.04875577241182327
22.0,0.045930132269859314
24.0,0.04326168820261955
26.0,0.04092854633927345
28.0,0.03872310370206833
30.0,0.03662896901369095
32.0,0.03466548025608063
36.0,0.030765589326620102
40.0,0.027444392442703247
44.0,0.02448040060698986
48.0,0.021703805774450302
52.0,0.01909959875047207
56.0,0.016653334721922874
60.0,0.014158203266561031
64.0,0.011692731641232967
72.0,0.007437214720994234
80.0,0.0032352532725781202
88.0,-0.0004870040575042367
96.0,-0.003395170671865344
104.0,-0.00506544066593051
112.0,-0.00598261971026659
120.0,-0.007675627246499062
128.0,-0.008778314106166363
144.0,-0.007801303640007973
160.0,-0.00692755775526166
176.0,-0.005504581145942211
192.0,-0.0047342111356556416
208.0,-0.00318573834374547
224.0,-0.0032174582593142986
240.0,-0.003626207821071148
256.0,-0.004322497174143791
288.0,-0.007512707728892565
320.0,-0.00805995985865593
352.0,-0.005479964427649975
384.0,-0.0021556359715759754
416.0,0.0006343090790323913
448.0,-0.00022228604939300567
480.0,-0.0024684416130185127
512.0,-0.0015349057503044605
576.0,0.003197911661118269
640.0,0.0004126052663195878
704.0,-0.004910971503704786
768.0,-0.0031724986620247364
832.0,7.267083128681406e-05
896.0,0.005554812029004097
960.0,0.0007851674454286695
1024.0,-0.005708039738237858
1152.0,-0.003804541192948818
1280.0,0.0020499431993812323
1408.0,0.0025710719637572765
1536.0,-0.0002177131682401523
1664.0,-0.001493734191171825
1792.0,0.0007837829762138426
1920.0,0.002815950196236372
2048.0,-0.0009957051370292902
2304.0,-0.0020074828062206507
2560.0,0.003861407283693552
2816.0,0.0014606964541599154
3072.0,-0.003272562986239791
3328.0,-0.001952360151335597
3584.0,-0.0051415544003248215
3840.0,0.0032332190312445164
4096.0,-0.0001507345587015152
4608.0,-0.001602371223270893
5120.0,0.0014640408335253596
5632.0,-0.0009626534883864224
6144.0,-0.0011627845233306289
6656.0,0.0035355237778276205
7168.0,-0.0029455586336553097
7680.0,0.003093368373811245
8192.0,-0.0018373805796727538
9216.0,0.0004897105973213911
10240.0,0.00011853541946038604
11264.0,-0.0004927319241687655
12288.0,-0.0004831636615563184
13312.0,-0.0005151396035216749
14336.0,-7.776539132464677e-05
end
