version,3.0
numOfCh,1
type,point
parent_name,400-cuts
ch_type,1_1
kcount,1
numberNandB,1
brightnessNandB,1
carpet pos,0
pc,0
Time (ms),CH1 Auto-Correlation
1.0,0.07141724228858948
2.0,0.06949527561664581
3.0,0.0677122175693512
4.0,0.06594187021255493
5.0,0.06420782953500748
6.0,0.06252315640449524
7.0,0.060850199311971664
8.0,0.05925210192799568
9.0,0.05768990516662598
10.0,0.056143611669540405
11.0,0.054585762321949005
12.0,0.053067199885845184
13.0,0.05154874920845032
14.0,0.050075143575668335
15.0,0.04864727705717087
16.0,0.04727441072463989
18.0,0.04465880244970322
20.0,0.04230468347668648
22.0,0.04009491205215454
24.0,0.0380985401570797
26.0,0.03625692054629326
28.0,0.03438561037182808
30.0,0.03256307169795036
32.0,0.03088105283677578
36.0,0.027871733531355858
40.0,0.025294063612818718
44.0,0.023074913769960403
48.0,0.021008383482694626
52.0,0.018995054066181183
56.0,0.017360348254442215
60.0,0.016083192080259323
64.0,0.014970744960010052
72.0,0.013231683522462845
80.0,0.01162461843341589
88.0,0.009929787367582321
96.0,0.00840048398822546
104.0,0.007490894757211208
112.0,0.006159705109894276
120.0,0.005198530852794647
128.0,0.005096995271742344
144.0,0.0036830054596066475
160.0,0.001696461346000433
176.0,3.398373519303277e-05
192.0,-0.0005422299145720899
208.0,-0.0013503434602171183
224.0,-0.0023787026293575764
240.0,-0.0028780256398022175
256.0,-0.0028395773842930794
288.0,-0.0023995209485292435
320.0,-0.0019253635546192527
352.0,0.000802589813247323
384.0,0.001409814227372408
416.0,-0.0010387235088273883
448.0,-4.575282582663931e-05
480.0,0.0011542184511199594
512.0,0.0013981381198391318
576.0,0.0008420513477176428
640.0,-0.001368380500935018
704.0,-0.0009705764823593199
768.0,-0.002352305920794606
832.0,0.0002289452968398109
896.0,-0.0012546147918328643
960.0,0.004438424948602915
1024.0,0.0015563787892460823
1152.0,0.0009652347071096301
1280.0,0.0030183058697730303
1408.0,0.002287772949784994
1536.0,-0.003804192179813981
1664.0,-0.0025947007816284895
1792.0,0.000759474525693804
1920.0,-0.001633373205550015
2048.0,-0.0028940385673195124
2304.0,0.0019687539897859097
2560.0,-0.0003606731188483536
2816.0,-0.009063662961125374
3072.0,-0.006588770542293787
3328.0,0.0012634580489248037
3584.0,0.00011967951286351308
3840.0,-0.002613303018733859
4096.0,-0.0027943546883761883
4608.0,0.002278696745634079
5120.0,-6.4520922023803e-05
5632.0,0.0006188132683746517
6144.0,0.003108350560069084
6656.0,-0.00046189865679480135
7168.0,0.0004012584686279297
7680.0,0.0007564528496004641
8192.0,0.0016376817366108298
9216.0,0.0014888234436511993
10240.0,-0.001007382175885141
11264.0,-0.002748827449977398
12288.0,-0.001636695466004312
13312.0,-0.001517759868875146
14336.0,0.005192857701331377
end
