version,3.0
numOfCh,1
type,point
parent_name,400-cuts
ch_type,1_1
kcount,1
numberNandB,1
brightnessNandB,1
carpet pos,0
pc,0
Time (ms),CH1 Auto-Correlation
1.0,0.023552466183900833
2.0,0.02283414825797081
3.0,0.022157063707709312
4.0,0.021488891914486885
5.0,0.020839586853981018
6.0,0.020210109651088715
7.0,0.019591866061091423
8.0,0.018977198749780655
9.0,0.018387828022241592
10.0,0.017829470336437225
11.0,0.01727982982993126
12.0,0.01673034019768238
13.0,0.016189303249120712
14.0,0.0156864020973444
15.0,0.015217394568026066
16.0,0.014752035029232502
18.0,0.013865334913134575
20.0,0.013027344830334187
22.0,0.012260637246072292
24.0,0.011564016342163086
26.0,0.01090573612600565
28.0,0.010255723260343075
30.0,0.009653898887336254
32.0,0.00910887774080038
36.0,0.008158043026924133
40.0,0.007270198315382004
44.0,0.006428101100027561
48.0,0.005593392997980118
52.0,0.004857716150581837
56.0,0.004289173521101475
60.0,0.003851783461868763
64.0,0.003483966924250126
72.0,0.0030727486591786146
80.0,0.0026117118541151285
88.0,0.0022379301954060793
96.0,0.0019272477366030216
104.0,0.0016331964870914817
112.0,0.0013242680579423904
120.0,0.0008747708634473383
128.0,0.00042580877197906375
144.0,-4.831152637052583e-06
160.0,-8.149888162733987e-05
176.0,-0.0001748024660628289
192.0,-0.0003634954337030649
208.0,0.00017292691336479038
224.0,0.0006478899158537388
240.0,0.0011939296964555979
256.0,0.0012099102605134249
288.0,0.0014018337242305279
320.0,0.001177256228402257
352.0,0.0007472905563190579
384.0,0.0005605742917396128
416.0,0.0008242375333793461
448.0,0.0003328872553538531
480.0,0.0003220521903131157
512.0,0.0005145063041709363
576.0,-0.001729202806018293
640.0,-0.0007472452707588673
704.0,0.0008016019128262997
768.0,0.0013207965530455112
832.0,0.0012230586726218462
896.0,0.0013708958867937326
960.0,0.0010154030751436949
1024.0,-0.00035494478652253747
1152.0,0.0011198194697499275
1280.0,0.0008275100262835622
1408.0,-0.0004172316985204816
1536.0,-0.00012842871365137398
1664.0,5.6148644944187254e-05
1792.0,-0.0007598776719532907
1920.0,-0.0003974605642724782
2048.0,6.13734737271443e-05
2304.0,0.00032166598248295486
2560.0,0.0014928965829312801
2816.0,0.0005066768499091268
3072.0,0.0001880033960333094
3328.0,-0.0001956538762897253
3584.0,-0.0006117353914305568
3840.0,-0.0003188801638316363
4096.0,-0.00028562164516188204
4608.0,0.00030083380988799036
5120.0,0.00021203167852945626
5632.0,-0.00017293449491262436
6144.0,-0.0013744335155934095
6656.0,-0.000647378561552614
7168.0,-0.0002777125337161124
7680.0,6.372217467287555e-05
8192.0,-0.0006826369790360332
9216.0,-0.0011173079255968332
10240.0,-3.010331238328945e-05
11264.0,-0.0012825301382690668
12288.0,0.0004495887260418385
13312.0,0.000932810886297375
14336.0,8.546644676243886e-05
end
