version,3.0
numOfCh,1
type,point
parent_name,400-cuts
ch_type,1_1
kcount,1
numberNandB,1
brightnessNandB,1
carpet pos,0
pc,0
Time (ms),CH1 Auto-Correlation
1.0,0.06968524307012558
2.0,0.06750129908323288
3.0,0.06536437571048737
4.0,0.06325992941856384
5.0,0.06118623912334442
6.0,0.05921202525496483
7.0,0.057310692965984344
8.0,0.05545126646757126
9.0,0.053594768047332764
10.0,0.051729716360569
11.0,0.04989537596702576
12.0,0.04811147600412369
13.0,0.0464058481156826
14.0,0.04475413262844086
15.0,0.04318875074386597
16.0,0.04169122874736786
18.0,0.03872857987880707
20.0,0.03587077558040619
22.0,0.03315575793385506
24.0,0.030642768368124962
26.0,0.02828240767121315
28.0,0.026088330894708633
30.0,0.024018941447138786
32.0,0.022126328200101852
36.0,0.019145168364048004
40.0,0.016379443928599358
44.0,0.014245793223381042
48.0,0.012647775933146477
52.0,0.011192469857633114
56.0,0.009922156110405922
60.0,0.00899707805365324
64.0,0.008367830887436867
72.0,0.007384982891380787
80.0,0.005551392678171396
88.0,0.0033489454071968794
96.0,0.0010641273111104965
104.0,-0.001333136111497879
112.0,-0.0035645216703414917
120.0,-0.00536135770380497
128.0,-0.005439844913780689
144.0,-0.0026590528432279825
160.0,0.0006565708899870515
176.0,0.0012026233598589897
192.0,-0.0011505365837365389
208.0,-0.001809915411286056
224.0,7.715222454862669e-05
240.0,0.002219620393589139
256.0,0.0029517817310988903
288.0,0.0017369510605931282
320.0,0.0008579988498240709
352.0,-0.0025317405816167593
384.0,-0.0004326949128881097
416.0,0.0012501716846600175
448.0,-0.0036001536063849926
480.0,-0.005292016081511974
512.0,-0.0026332393754273653
576.0,0.0011541531421244144
640.0,-0.0003447154595050961
704.0,-0.002237486420199275
768.0,-0.005315239075571299
832.0,-0.0011296879965811968
896.0,-0.0003205971443094313
960.0,0.00180157576687634
1024.0,0.002898936392739415
1152.0,0.003526892513036728
1280.0,0.0004588067240547389
1408.0,-0.0025303917936980724
1536.0,-0.0006718626827932894
1664.0,-0.0014959106920287013
1792.0,0.0013250896008685231
1920.0,-0.0026973928324878216
2048.0,0.0017758711474016309
2304.0,-0.0026529720053076744
2560.0,-0.0014013027539476752
2816.0,0.0004993598558939993
3072.0,3.417018160689622e-05
3328.0,-0.0025192524772137403
3584.0,-0.0006735877250321209
3840.0,0.0016573072643950582
4096.0,0.0008979104459285736
4608.0,-0.0013950755819678307
5120.0,-0.000831805809866637
5632.0,-0.00040766235906630754
6144.0,0.0010544571559876204
6656.0,-0.0016935102175921202
7168.0,0.002248886041343212
7680.0,0.0018998758168891072
8192.0,-7.734551036264747e-05
9216.0,-0.0014778613112866879
10240.0,-0.00028666964499279857
11264.0,0.0017528985626995564
12288.0,-0.0011647772043943405
13312.0,-0.0007747984491288662
14336.0,0.001253349706530571
end
