version,3.0
numOfCh,1
type,point
parent_name,400-cuts
ch_type,1_1
kcount,1
numberNandB,1
brightnessNandB,1
carpet pos,0
pc,0
Time (ms),CH1 Auto-Correlation
1.0,0.08182334154844284
2.0,0.07952335476875305
3.0,0.07729856669902802
4.0,0.07518207281827927
5.0,0.07318207621574402
6.0,0.07121863961219788
7.0,0.06935781240463257
8.0,0.06755474954843521
9.0,0.06586962938308716
10.0,0.06424032896757126
11.0,0.06261397153139114
12.0,0.0609857439994812
13.0,0.05941800773143768
14.0,0.057822488248348236
15.0,0.056250009685754776
16.0,0.05475528538227081
18.0,0.05194897949695587
20.0,0.04925922304391861
22.0,0.0467090867459774
24.0,0.04433521255850792
26.0,0.04204839468002319
28.0,0.03983330354094505
30.0,0.037697456777095795
32.0,0.035645272582769394
36.0,0.03197620436549187
40.0,0.028612058609724045
44.0,0.02562025375664234
48.0,0.02290271781384945
52.0,0.020354555919766426
56.0,0.01787681132555008
60.0,0.01569031924009323
64.0,0.013819582760334015
72.0,0.010981068946421146
80.0,0.00842983927577734
88.0,0.005837336182594299
96.0,0.003594736335799098
104.0,0.0022191551979631186
112.0,0.0019238530658185482
120.0,0.002417329465970397
128.0,0.003161396598443389
144.0,0.004470351617783308
160.0,0.005150326527655125
176.0,0.004467315971851349
192.0,0.0017069020541384816
208.0,-0.00025965060922317207
224.0,-0.0019109444692730904
240.0,-0.0024632872082293034
256.0,-0.0018468768103048205
288.0,-0.0006475168629549444
320.0,0.0007139363442547619
352.0,0.001735801575705409
384.0,-0.0008511861087754369
416.0,-0.003862277138978243
448.0,-0.0033122266177088022
480.0,-0.0036494084633886814
512.0,-0.0032284213230013847
576.0,-0.004383043386042118
640.0,-0.0022752198856323957
704.0,-0.0014985144371166825
768.0,-0.0009194723097607493
832.0,-0.003071360755711794
896.0,0.0021446950268000364
960.0,0.004069013055413961
1024.0,0.0029439544305205345
1152.0,0.0040105185471475124
1280.0,-0.0009647259721532464
1408.0,-0.006010754965245724
1536.0,-0.003055964596569538
1664.0,0.0009026760817505419
1792.0,-0.0024782188702374697
1920.0,-1.8814474969985895e-05
2048.0,0.0013421591138467193
2304.0,-0.003307478269562125
2560.0,-0.0018626260571181774
2816.0,-0.0004215124645270407
3072.0,-0.0020673065446317196
3328.0,-0.0005815165350213647
3584.0,-1.9496879758662544e-05
3840.0,-0.002907242625951767
4096.0,0.003207385540008545
4608.0,-0.0024197068996727467
5120.0,0.005826618056744337
5632.0,-0.0018463691230863333
6144.0,-0.0017780925845727324
6656.0,0.0006114444695413113
7168.0,0.0013744073221459985
7680.0,0.0029687697533518076
8192.0,-0.003314297879114747
9216.0,-0.0007725271279923618
10240.0,-0.0012068378273397684
11264.0,-0.0015930439112707973
12288.0,0.004240528214722872
13312.0,-0.002301332773640752
14336.0,0.0017670689849182963
end
