version,3.0
numOfCh,1
type,point
parent_name,400-cuts
ch_type,1_1
kcount,1
numberNandB,1
brightnessNandB,1
carpet pos,0
pc,0
Time (ms),CH1 Auto-Correlation
1.0,0.08845633268356323
2.0,0.08572094142436981
3.0,0.08307589590549469
4.0,0.08050244301557541
5.0,0.07799210399389267
6.0,0.07563215494155884
7.0,0.07343801110982895
8.0,0.07130813598632812
9.0,0.0691804513335228
10.0,0.06719496101140976
11.0,0.06526201218366623
12.0,0.0633947029709816
13.0,0.06159229949116707
14.0,0.05983447656035423
15.0,0.058153968304395676
16.0,0.056464340537786484
18.0,0.053171928972005844
20.0,0.049963124096393585
22.0,0.04679274931550026
24.0,0.043742094188928604
26.0,0.04104940965771675
28.0,0.03864651918411255
30.0,0.03630075231194496
32.0,0.03392363712191582
36.0,0.02952839806675911
40.0,0.02588028833270073
44.0,0.022594809532165527
48.0,0.019422730430960655
52.0,0.016612248495221138
56.0,0.014454640448093414
60.0,0.012330999597907066
64.0,0.010290066711604595
72.0,0.007432189770042896
80.0,0.005139930173754692
88.0,0.0033999155275523663
96.0,0.002427749801427126
104.0,0.0026772862765938044
112.0,0.004236881621181965
120.0,0.005227234680205584
128.0,0.004806028679013252
144.0,0.004170128609985113
160.0,0.0031037249136716127
176.0,0.0017443449469283223
192.0,0.00045498996041715145
208.0,-0.002040975261479616
224.0,-0.004789966158568859
240.0,-0.0061250897124409676
256.0,-0.005544785410165787
288.0,-0.0020864037796854973
320.0,0.002798783127218485
352.0,0.0022286800667643547
384.0,-0.0008702659979462624
416.0,-0.0021512366365641356
448.0,-0.006284118164330721
480.0,-0.007780937943607569
512.0,-0.007800737861543894
576.0,-0.00260749738663435
640.0,0.0037842008750885725
704.0,0.0068913116119802
768.0,0.0026574907824397087
832.0,-0.0029100989922881126
896.0,-0.004837201442569494
960.0,-0.005463459063321352
1024.0,0.0027088201604783535
1152.0,0.0008760276832617819
1280.0,-0.0033408019226044416
1408.0,0.0028240967076271772
1536.0,0.0025384847540408373
1664.0,-0.0015357903903350234
1792.0,-0.0018891606014221907
1920.0,-0.004990611225366592
2048.0,0.0002496386005077511
2304.0,0.00402572937309742
2560.0,0.001408028183504939
2816.0,0.0018024086020886898
3072.0,-0.0031495278235524893
3328.0,-0.0037483535706996918
3584.0,-0.0012805096339434385
3840.0,-0.00042059263796545565
4096.0,0.003781653940677643
4608.0,-0.0003261054225731641
5120.0,1.4600836038880516e-05
5632.0,-0.0012661811197176576
6144.0,-0.0017364625819027424
6656.0,0.0007157893269322813
7168.0,0.0018152629490941763
7680.0,-0.00195468426682055
8192.0,-0.001899483846500516
9216.0,0.00022856201394461095
10240.0,-0.004504337441176176
11264.0,0.004049552138894796
12288.0,-0.007615973707288504
13312.0,0.00633790111169219
14336.0,-0.009603709913790226
end
