version,3.0
numOfCh,1
type,point
parent_name,400-cuts
ch_type,1_1
kcount,1
numberNandB,1
brightnessNandB,1
carpet pos,0
pc,0
Time (ms),CH1 Auto-Correlation
1.0,0.06096277013421059
2.0,0.059058286249637604
3.0,0.05724337697029114
4.0,0.05544620379805565
5.0,0.053734660148620605
6.0,0.05208614468574524
7.0,0.050471752882003784
8.0,0.048994388431310654
9.0,0.047566428780555725
10.0,0.04619872570037842
11.0,0.044922832399606705
12.0,0.043689094483852386
13.0,0.04253349453210831
14.0,0.04136157035827637
15.0,0.04018797352910042
16.0,0.03903685882687569
18.0,0.03672795370221138
20.0,0.03453489765524864
22.0,0.03246847912669182
24.0,0.030525198206305504
26.0,0.028675206005573273
28.0,0.026841947808861732
30.0,0.025103028863668442
32.0,0.02337055839598179
36.0,0.020426878705620766
40.0,0.017994912341237068
44.0,0.01602204330265522
48.0,0.014417540282011032
52.0,0.013013040646910667
56.0,0.011654541827738285
60.0,0.010168926790356636
64.0,0.008619907312095165
72.0,0.006797719281166792
80.0,0.0056001050397753716
88.0,0.003788946894928813
96.0,0.0017791124992072582
104.0,0.00024774379562586546
112.0,-0.0004270681238267571
120.0,-0.0008366302936337888
128.0,-0.001203326741233468
144.0,-0.0007064437377266586
160.0,-5.6261324061779305e-06
176.0,0.0011817378690466285
192.0,0.0024720500223338604
208.0,0.0044523561373353004
224.0,0.005024862475693226
240.0,0.004613497294485569
256.0,0.005668270867317915
288.0,0.0076753837056458
320.0,0.0046315924264490604
352.0,0.00285426271148026
384.0,0.002651642309501767
416.0,0.0026043979451060295
448.0,0.0011675837449729443
480.0,0.0007416432490572333
512.0,0.0020107461605221033
576.0,0.003395004430785775
640.0,0.004673677962273359
704.0,0.001809843466617167
768.0,0.0007854645955376327
832.0,0.0012261163210496306
896.0,0.0007016571471467614
960.0,0.001998684834688902
1024.0,0.002558161737397313
1152.0,0.0017710848478600383
1280.0,-0.0012960704043507576
1408.0,-0.00023825107200536877
1536.0,0.0019543846137821674
1664.0,0.0013243139255791903
1792.0,0.0017512637423351407
1920.0,9.509201845503412e-06
2048.0,-0.00260081235319376
2304.0,0.0024413380306214094
2560.0,-0.0011453286278992891
2816.0,0.0020489380694925785
3072.0,0.00281933113001287
3328.0,0.0027803555130958557
3584.0,-0.00031950671109370887
3840.0,0.0017522139241918921
4096.0,0.0009354676003567874
4608.0,-0.000748625083360821
5120.0,-0.0016422250773757696
5632.0,-0.0017855324549600482
6144.0,-0.0008930744370445609
6656.0,-0.00011743330833269283
7168.0,-0.0023942706175148487
7680.0,-0.004360151942819357
8192.0,-0.0047619035467505455
9216.0,-0.0003390530473552644
10240.0,-0.000944261031690985
11264.0,-0.0014121633721515536
12288.0,-0.0027064376045018435
13312.0,0.0010090068681165576
14336.0,-9.08671718207188e-05
end
