version,3.0
numOfCh,1
type,point
parent_name,400-cuts
ch_type,1_1
kcount,1
numberNandB,1
brightnessNandB,1
carpet pos,0
pc,0
Time (ms),CH1 Auto-Correlation
1.0,0.12454581260681152
2.0,0.12143496423959732
3.0,0.11840491741895676
4.0,0.1154395267367363
5.0,0.11245886981487274
6.0,0.10955946147441864
7.0,0.10668952763080597
8.0,0.10390359908342361
9.0,0.10119353979825974
10.0,0.09851988404989243
11.0,0.09598647058010101
12.0,0.09345947951078415
13.0,0.09094232320785522
14.0,0.0884782075881958
15.0,0.08600571751594543
16.0,0.08354050666093826
18.0,0.07902740687131882
20.0,0.07483642548322678
22.0,0.07094975560903549
24.0,0.06722308695316315
26.0,0.06360034644603729
28.0,0.06016094610095024
30.0,0.057056400924921036
32.0,0.05418878421187401
36.0,0.04912544786930084
40.0,0.04473176226019859
44.0,0.0410049669444561
48.0,0.037658292800188065
52.0,0.03459348902106285
56.0,0.03170095384120941
60.0,0.02884412556886673
64.0,0.02632407657802105
72.0,0.021478427574038506
80.0,0.01738431490957737
88.0,0.01452600210905075
96.0,0.012343170121312141
104.0,0.0105694979429245
112.0,0.008262814953923225
120.0,0.006257297471165657
128.0,0.005625542718917131
144.0,0.00522333150729537
160.0,0.005021772347390652
176.0,0.006140162702649832
192.0,0.00621312391012907
208.0,0.005202584434300661
224.0,0.003993363119661808
240.0,0.003794710384681821
256.0,0.005920329596847296
288.0,0.007094608619809151
320.0,0.004897966980934143
352.0,0.0015302600804716349
384.0,-0.002873781369999051
416.0,-0.0021054770331829786
448.0,0.0014077031519263983
480.0,0.0069954427890479565
512.0,0.007953798398375511
576.0,0.0013798908330500126
640.0,0.0018201740458607674
704.0,0.0030972794629633427
768.0,-0.0012193884467706084
832.0,-0.003083601361140609
896.0,-0.004713874775916338
960.0,-0.01047044713050127
1024.0,-0.012800783850252628
1152.0,-0.0015121432952582836
1280.0,0.0074315425008535385
1408.0,0.0069947619922459126
1536.0,0.002663618652150035
1664.0,0.004014155361801386
1792.0,0.008867457509040833
1920.0,0.004008661489933729
2048.0,0.0015751839382573962
2304.0,-0.006702970713376999
2560.0,-0.009425333701074123
2816.0,0.0004476126341614872
3072.0,-0.0004676380194723606
3328.0,0.004568619653582573
3584.0,-0.0015144625212997198
3840.0,-0.007318377960473299
4096.0,-0.013929697684943676
4608.0,-0.004589543677866459
5120.0,-0.0021636902820318937
5632.0,0.0012432808289304376
6144.0,-0.0006129940738901496
6656.0,-0.0018593106651678681
7168.0,0.000716623617336154
7680.0,-0.00011621228622971103
8192.0,0.0022211726754903793
9216.0,0.005408825818449259
10240.0,-0.003104418283328414
11264.0,0.004943849518895149
12288.0,-0.0062669506296515465
13312.0,-0.006421948317438364
14336.0,0.009024696424603462
end
