version,3.0
numOfCh,1
type,point
parent_name,400-cuts
ch_type,1_1
kcount,1
numberNandB,1
brightnessNandB,1
carpet pos,0
pc,0
Time (ms),CH1 Auto-Correlation
1.0,0.08627840131521225
2.0,0.0837230235338211
3.0,0.08122487366199493
4.0,0.078896164894104
5.0,0.07664129883050919
6.0,0.07439625263214111
7.0,0.07220306992530823
8.0,0.0701727569103241
9.0,0.06823346763849258
10.0,0.06626790016889572
11.0,0.06432607769966125
12.0,0.06246209144592285
13.0,0.060633569955825806
14.0,0.0589173249900341
15.0,0.05724833533167839
16.0,0.05567524582147598
18.0,0.052713170647621155
20.0,0.049884725362062454
22.0,0.04729284718632698
24.0,0.044902171939611435
26.0,0.04271586611866951
28.0,0.0407058484852314
30.0,0.03890395537018776
32.0,0.03730300813913345
36.0,0.034371647983789444
40.0,0.031494542956352234
44.0,0.028861049562692642
48.0,0.026745835319161415
52.0,0.024634405970573425
56.0,0.02242274023592472
60.0,0.020306803286075592
64.0,0.01825001649558544
72.0,0.01543731614947319
80.0,0.012940239161252975
88.0,0.011061234399676323
96.0,0.009454518556594849
104.0,0.008181172423064709
112.0,0.006865232717245817
120.0,0.00624409643933177
128.0,0.005977185443043709
144.0,0.005609932821244001
160.0,0.0054405382834374905
176.0,0.004591635428369045
192.0,0.0028164396062493324
208.0,0.0005820276564918458
224.0,0.00022577478375751525
240.0,0.0017057936638593674
256.0,0.0007913488079793751
288.0,-0.0029910323210060596
320.0,-0.0018261399818584323
352.0,-0.0015469735953956842
384.0,-0.00034825809416361153
416.0,-0.0014973129145801067
448.0,-0.0014492259360849857
480.0,-0.001666563330218196
512.0,-0.0027948368806391954
576.0,-0.0063236672431230545
640.0,-0.00810260884463787
704.0,-0.005082119721919298
768.0,-0.0013182435650378466
832.0,0.003185323439538479
896.0,-5.653535481542349e-05
960.0,0.0016344202449545264
1024.0,0.0040654391050338745
1152.0,0.0018944067414849997
1280.0,-0.0021998512092977762
1408.0,7.288392225746065e-05
1536.0,-0.004895674530416727
1664.0,0.003977238666266203
1792.0,0.0029025361873209476
1920.0,-0.0008962362771853805
2048.0,-0.0029386270325630903
2304.0,-0.0011359850177541375
2560.0,-0.00035418124753050506
2816.0,-0.0032013372983783484
3072.0,0.0021738973446190357
3328.0,-0.002302533248439431
3584.0,0.0005614580004476011
3840.0,-0.006468042265623808
4096.0,-0.0008316534222103655
4608.0,0.004500833339989185
5120.0,-0.0038282822351902723
5632.0,-0.0013033655704930425
6144.0,0.0013089212588965893
6656.0,-0.0019297944381833076
7168.0,0.001991446828469634
7680.0,0.0012792875058948994
8192.0,-0.0013240774860605597
9216.0,0.004016613122075796
10240.0,0.0007197055965662003
11264.0,-0.000848588184453547
12288.0,-0.0033632267732173204
13312.0,0.0011970316991209984
14336.0,-0.003010953078046441
end
