version,3.0
numOfCh,1
type,point
parent_name,400-cuts
ch_type,1_1
kcount,1
numberNandB,1
brightnessNandB,1
carpet pos,0
pc,0
Time (ms),CH1 Auto-Correlation
1.0,0.02474793791770935
2.0,0.023907892405986786
3.0,0.02309260331094265
4.0,0.022295789793133736
5.0,0.021534541621804237
6.0,0.020820636302232742
7.0,0.020165925845503807
8.0,0.01953570730984211
9.0,0.018932782113552094
10.0,0.018340161070227623
11.0,0.017749840393662453
12.0,0.017196791246533394
13.0,0.01667904108762741
14.0,0.016192734241485596
15.0,0.015708204358816147
16.0,0.015233801677823067
18.0,0.014264428056776524
20.0,0.013307366520166397
22.0,0.012361055240035057
24.0,0.01146344467997551
26.0,0.010593651793897152
28.0,0.009750052355229855
30.0,0.008969014510512352
32.0,0.008217747323215008
36.0,0.00687599228695035
40.0,0.005675748456269503
44.0,0.004485536366701126
48.0,0.003291553119197488
52.0,0.0021350120659917593
56.0,0.0011651301756501198
60.0,0.00040269384044222534
64.0,-0.00022545749379787594
72.0,-0.0010689054615795612
80.0,-0.0017521142726764083
88.0,-0.0020517976954579353
96.0,-0.0019570840522646904
104.0,-0.0016825484344735742
112.0,-0.0013640362303704023
120.0,-0.0010922047076746821
128.0,-0.0008641661261208355
144.0,-0.0004978200886398554
160.0,-0.00021408165048342198
176.0,-0.0002982338482979685
192.0,-0.0007950007566250861
208.0,-0.0005596273695118725
224.0,0.00047110262676142156
240.0,0.0014036225620657206
256.0,0.002093483926728368
288.0,0.001044709119014442
320.0,-0.000465644639916718
352.0,-5.839626828674227e-05
384.0,-0.00020652548118960112
416.0,-0.001359964138828218
448.0,-0.0023182379081845284
480.0,-0.000995907001197338
512.0,0.00024797991500236094
576.0,-0.0006268611759878695
640.0,-0.0006947210058569908
704.0,-0.0013230922631919384
768.0,2.122143814631272e-05
832.0,-0.00011083408026024699
896.0,-0.00043021325836889446
960.0,0.001918011694215238
1024.0,0.0018177320016548038
1152.0,-0.0005306997918523848
1280.0,0.0001401423360221088
1408.0,-0.0014230801025405526
1536.0,-8.45828890305711e-06
1664.0,-0.0007586691062897444
1792.0,0.000867650262080133
1920.0,-7.183990237535909e-05
2048.0,-8.924548637878615e-07
2304.0,-0.00024130013480316848
2560.0,-0.0009687280980870128
2816.0,6.986357766436413e-05
3072.0,-0.0003173555014654994
3328.0,0.00024341672542504966
3584.0,0.0001459001941839233
3840.0,0.0010463254293426871
4096.0,0.00023534971114713699
4608.0,-2.5725134037202224e-05
5120.0,0.0007035965682007372
5632.0,-0.000700285192579031
6144.0,-0.00014784322411287576
6656.0,-0.0003353292413521558
7168.0,0.0008141444413922727
7680.0,-0.0009587685926817358
8192.0,0.00016800040611997247
9216.0,0.0002959631965495646
10240.0,-5.738378968089819e-05
11264.0,-0.0002233293344033882
12288.0,-0.00010738203127402812
13312.0,-0.00015359368990175426
14336.0,0.00021919271966908127
end
