version,3.0
numOfCh,1
type,point
parent_name,400-cuts
ch_type,1_1
kcount,1
numberNandB,1
brightnessNandB,1
carpet pos,0
pc,0
Time (ms),CH1 Auto-Correlation
1.0,0.06018142029643059
2.0,0.05843421444296837
3.0,0.05672990530729294
4.0,0.05504976212978363
5.0,0.05340076610445976
6.0,0.05180410295724869
7.0,0.05028259754180908
8.0,0.04884219169616699
9.0,0.04745334014296532
10.0,0.04612838104367256
11.0,0.0448644682765007
12.0,0.04359116777777672
13.0,0.04234447330236435
14.0,0.041145551949739456
15.0,0.040004946291446686
16.0,0.038892146199941635
18.0,0.036763086915016174
20.0,0.034680720418691635
22.0,0.032746151089668274
24.0,0.030937671661376953
26.0,0.029183361679315567
28.0,0.027512183412909508
30.0,0.025893142446875572
32.0,0.024338766932487488
36.0,0.021438930183649063
40.0,0.018919259309768677
44.0,0.01687977835536003
48.0,0.015207400545477867
52.0,0.013587508350610733
56.0,0.012023607268929482
60.0,0.010900916531682014
64.0,0.010078325867652893
72.0,0.008903498761355877
80.0,0.007902183569967747
88.0,0.007040285039693117
96.0,0.0064510987140238285
104.0,0.005831429734826088
112.0,0.0050256336107850075
120.0,0.004329432733356953
128.0,0.003524166764691472
144.0,0.0012597404420375824
160.0,-0.00098142446950078
176.0,-0.001124190166592598
192.0,-0.0002455217472743243
208.0,0.00038448578561656177
224.0,0.00035260405275039375
240.0,0.0011077990056946874
256.0,0.0018705762922763824
288.0,0.0007786054047755897
320.0,-0.0007997347856871784
352.0,0.00041192350909113884
384.0,-0.00028270232724025846
416.0,-0.0022275811061263084
448.0,-0.0037379804998636246
480.0,-0.0029744498897343874
512.0,0.00010254443623125553
576.0,0.0011806050315499306
640.0,1.3425415090750903e-05
704.0,-0.001838432508520782
768.0,-0.0042647188529372215
832.0,0.0006818900583311915
896.0,0.003483920358121395
960.0,0.0008493243367411196
1024.0,-0.0022906174417585135
1152.0,0.0008727399399504066
1280.0,-0.0015789474127814174
1408.0,-0.0036006609443575144
1536.0,-0.0029312472324818373
1664.0,-0.003787550376728177
1792.0,0.0002372754825046286
1920.0,0.002025514841079712
2048.0,0.0021965207997709513
2304.0,0.0015008830232545733
2560.0,0.0028947065584361553
2816.0,0.0009739056113176048
3072.0,-0.000971905596088618
3328.0,-0.0007360011804848909
3584.0,0.000819469103589654
3840.0,0.0002310761046828702
4096.0,0.00011390834697522223
4608.0,-0.0005551525973714888
5120.0,-0.0009340833639726043
5632.0,-0.0007729023927822709
6144.0,0.00024185035726986825
6656.0,0.0008497817325405777
7168.0,-0.002901689847931266
7680.0,-0.0005068076425231993
8192.0,-0.000996882445178926
9216.0,-0.000418926210841164
10240.0,0.002033233642578125
11264.0,-0.004040364176034927
12288.0,0.0019818744622170925
13312.0,-0.001521458150818944
14336.0,0.002698479453101754
end
