version,3.0
numOfCh,1
type,point
parent_name,400-cuts
ch_type,1_1
kcount,1
numberNandB,1
brightnessNandB,1
carpet pos,0
pc,0
Time (ms),CH1 Auto-Correlation
1.0,0.023696230724453926
2.0,0.023040547966957092
3.0,0.02238631434738636
4.0,0.021741114556789398
5.0,0.021101560443639755
6.0,0.020496146753430367
7.0,0.019897304475307465
8.0,0.019304906949400902
9.0,0.018713172525167465
10.0,0.01812678575515747
11.0,0.01757417432963848
12.0,0.017046624794602394
13.0,0.016540588811039925
14.0,0.01603104919195175
15.0,0.01554905530065298
16.0,0.015079855918884277
18.0,0.014205764047801495
20.0,0.013391814194619656
22.0,0.012618636712431908
24.0,0.011884547770023346
26.0,0.011205657385289669
28.0,0.010571027174592018
30.0,0.009994854219257832
32.0,0.00946260616183281
36.0,0.008535983972251415
40.0,0.0077630397863686085
44.0,0.007074131164699793
48.0,0.0064092958346009254
52.0,0.005875575356185436
56.0,0.005376152694225311
60.0,0.004859492182731628
64.0,0.004413030110299587
72.0,0.003720225766301155
80.0,0.003484835848212242
88.0,0.0033524041064083576
96.0,0.0031590964645147324
104.0,0.0028971233405172825
112.0,0.0026442098896950483
120.0,0.002380233258008957
128.0,0.0022235808428376913
144.0,0.0019273384241387248
160.0,0.0014445207780227065
176.0,0.0006354908109642565
192.0,7.428817480104044e-05
208.0,2.1067206034786068e-05
224.0,-5.2707917348016053e-05
240.0,0.00038681254955008626
256.0,0.0010196005459874868
288.0,0.0005943378200754523
320.0,0.0012471972731873393
352.0,0.0008199763251468539
384.0,0.0005367451230995357
416.0,0.0011583209270611405
448.0,0.0007343021570704877
480.0,0.000849190924782306
512.0,0.0009789842879399657
576.0,1.1869271475006826e-05
640.0,0.0010576590429991484
704.0,0.0005476926453411579
768.0,-0.0004776424902956933
832.0,8.501177217112854e-05
896.0,0.0010104294633492827
960.0,0.0006036952836439013
1024.0,0.0009399130940437317
1152.0,-0.0010449686087667942
1280.0,-0.00031093944562599063
1408.0,-0.001723210560157895
1536.0,-0.0014581024879589677
1664.0,-0.0009069011430256069
1792.0,-8.573900413466617e-05
1920.0,0.0006458266288973391
2048.0,-0.00033189382520504296
2304.0,-0.0013044490478932858
2560.0,5.242181214271113e-05
2816.0,-0.0002412763424217701
3072.0,-0.0007014110451564193
3328.0,-0.002592413453385234
3584.0,-0.0005682949558831751
3840.0,-0.0009546055225655437
4096.0,-0.0003855849790852517
4608.0,0.0010332197416573763
5120.0,0.0010186517611145973
5632.0,0.0002615016419440508
6144.0,-0.000634864205494523
6656.0,0.00043007367639802396
7168.0,0.0016680486733093858
7680.0,-0.0005939158727414906
8192.0,-0.001936417887918651
9216.0,-0.0005618679570034146
10240.0,0.00014540865959133953
11264.0,0.0011787182884290814
12288.0,0.00042789109284058213
13312.0,-0.0007759782020002604
14336.0,-3.231460141250864e-05
end
