version,3.0
numOfCh,1
type,point
parent_name,400-cuts
ch_type,1_1
kcount,1
numberNandB,1
brightnessNandB,1
carpet pos,0
pc,0
Time (ms),CH1 Auto-Correlation
1.0,0.07979967445135117
2.0,0.077325239777565
3.0,0.07484739273786545
4.0,0.07244127988815308
5.0,0.07014170289039612
6.0,0.06795987486839294
7.0,0.06583655625581741
8.0,0.06375374644994736
9.0,0.06172327697277069
10.0,0.05975491553544998
11.0,0.05777719244360924
12.0,0.055870238691568375
13.0,0.05404648557305336
14.0,0.05238112434744835
15.0,0.05069763958454132
16.0,0.049165062606334686
18.0,0.046259041875600815
20.0,0.043510112911462784
22.0,0.041037190705537796
24.0,0.03885732591152191
26.0,0.03685332462191582
28.0,0.03486814722418785
30.0,0.03313183784484863
32.0,0.031449366360902786
36.0,0.02826419658958912
40.0,0.02499682642519474
44.0,0.021956685930490494
48.0,0.019414538517594337
52.0,0.017177999019622803
56.0,0.015127801336348057
60.0,0.013189747929573059
64.0,0.011358809657394886
72.0,0.008343891240656376
80.0,0.005882225465029478
88.0,0.005115271545946598
96.0,0.004652221221476793
104.0,0.003721035784110427
112.0,0.0025374102406203747
120.0,0.0014402462402358651
128.0,0.000998343457467854
144.0,-0.00016428421076852828
160.0,6.513685366371647e-05
176.0,-5.38359563506674e-05
192.0,0.001921326038427651
208.0,0.0012325511779636145
224.0,0.0012142469640821218
240.0,0.001238331082277
256.0,0.001296413131058216
288.0,0.004445372149348259
320.0,0.0072028315626084805
352.0,0.008851630613207817
384.0,0.005578857380896807
416.0,0.0023393677547574043
448.0,0.0007660373230464756
480.0,-0.0014961728593334556
512.0,-5.940833216300234e-05
576.0,0.0024583840277045965
640.0,0.0026848388370126486
704.0,0.0007116126362234354
768.0,-0.0010620407992973924
832.0,-0.004499030765146017
896.0,-0.007038827985525131
960.0,-0.006252712570130825
1024.0,-0.005656383465975523
1152.0,-0.004194546956568956
1280.0,-0.00024879517150111496
1408.0,-0.00150571099948138
1536.0,-0.005076742265373468
1664.0,-0.0021320818923413754
1792.0,-0.0005168513162061572
1920.0,0.0016013884451240301
2048.0,-0.0010882855858653784
2304.0,0.0024043607991188765
2560.0,-0.002825399162247777
2816.0,-0.006344274152070284
3072.0,0.0004844380891881883
3328.0,-0.004465794190764427
3584.0,0.002429909072816372
3840.0,0.0023636079858988523
4096.0,-0.000634490221273154
4608.0,0.0028590948786586523
5120.0,0.00042447095620445907
5632.0,-0.000787490454968065
6144.0,-0.0018051165388897061
6656.0,0.0008319694898091257
7168.0,0.0032830212730914354
7680.0,-8.198430441552773e-05
8192.0,-0.0024526456836611032
9216.0,-0.0018693124875426292
10240.0,-0.0027974764816462994
11264.0,0.004431464709341526
12288.0,0.0009299158700741827
13312.0,-0.0006081094616092741
14336.0,-0.0049642701633274555
end
