version,3.0
numOfCh,1
type,point
parent_name,400-cuts
ch_type,1_1
kcount,1
numberNandB,1
brightnessNandB,1
carpet pos,0
pc,0
Time (ms),CH1 Auto-Correlation
1.0,0.0289534293115139
2.0,0.028005177155137062
3.0,0.02712317556142807
4.0,0.026257062330842018
5.0,0.025408612564206123
6.0,0.02459808625280857
7.0,0.02381138689815998
8.0,0.023041727021336555
9.0,0.022315887734293938
10.0,0.0215928815305233
11.0,0.020875724032521248
12.0,0.02018020488321781
13.0,0.01949414797127247
14.0,0.018831675872206688
15.0,0.018173716962337494
16.0,0.017552727833390236
18.0,0.016385843977332115
20.0,0.015267160721123219
22.0,0.014253765344619751
24.0,0.013326254673302174
26.0,0.012444285675883293
28.0,0.011703788302838802
30.0,0.011054560542106628
32.0,0.010450519621372223
36.0,0.009238230995833874
40.0,0.008241306059062481
44.0,0.007406639400869608
48.0,0.0067336298525333405
52.0,0.006112059578299522
56.0,0.005669330712407827
60.0,0.005376080516725779
64.0,0.0050554536283016205
72.0,0.00442654499784112
80.0,0.0038234046660363674
88.0,0.003242711303755641
96.0,0.002785713877528906
104.0,0.002480510389432311
112.0,0.0021344046108424664
120.0,0.0016927201068028808
128.0,0.00142271991353482
144.0,0.0004584800626616925
160.0,-0.0003852916997857392
176.0,-0.0005761152133345604
192.0,-0.0007896866882219911
208.0,-0.001363044255413115
224.0,-0.0011283874046057463
240.0,-0.0009440045105293393
256.0,-0.0013061990030109882
288.0,-0.0023332301061600447
320.0,-0.0022639355156570673
352.0,-0.002202583011239767
384.0,-0.001843476900830865
416.0,-0.0008108657202683389
448.0,-0.0014461084501817822
480.0,-0.001967505319043994
512.0,0.00048719291226007044
576.0,0.000960994977504015
640.0,0.00128391501493752
704.0,0.0018808349268510938
768.0,0.0021964937914162874
832.0,0.0011977249523624778
896.0,0.00014533761714119464
960.0,2.0552972273435444e-05
1024.0,0.0005610344815067947
1152.0,0.00012334808707237244
1280.0,0.00041278087883256376
1408.0,-0.000407074490794912
1536.0,0.0002752647560555488
1664.0,0.0005259563913568854
1792.0,0.0011492923367768526
1920.0,0.0013067657127976418
2048.0,0.0005852455506101251
2304.0,4.4890723074786365e-05
2560.0,-0.001295309979468584
2816.0,0.0016152119496837258
3072.0,0.0012014377862215042
3328.0,-0.002573055448010564
3584.0,0.0016054882435128093
3840.0,-0.00036087556509301066
4096.0,-0.00047087983693927526
4608.0,-0.0005235694698058069
5120.0,0.00023819362104404718
5632.0,0.00013041048077866435
6144.0,-0.0009374149376526475
6656.0,-0.0006800431292504072
7168.0,-0.00031593572930432856
7680.0,-0.0011113742366433144
8192.0,-0.0021117946598678827
9216.0,-0.0008243353222496808
10240.0,6.226170080481097e-05
11264.0,-0.00022497898316942155
12288.0,-0.00032909351284615695
13312.0,0.0005885552382096648
14336.0,0.0003940975002478808
end
