version,3.0
numOfCh,1
type,point
parent_name,400-cuts
ch_type,1_1
kcount,1
numberNandB,1
brightnessNandB,1
carpet pos,0
pc,0
Time (ms),CH1 Auto-Correlation
1.0,0.046397898346185684
2.0,0.04486924782395363
3.0,0.043372366577386856
4.0,0.04196363687515259
5.0,0.040614333003759384
6.0,0.039281003177165985
7.0,0.03796086460351944
8.0,0.03667229786515236
9.0,0.03544162958860397
10.0,0.03424746170639992
11.0,0.033098794519901276
12.0,0.03194044902920723
13.0,0.030801068991422653
14.0,0.029728468507528305
15.0,0.02873840741813183
16.0,0.027719181030988693
18.0,0.025790922343730927
20.0,0.02396078035235405
22.0,0.022246189415454865
24.0,0.02073979750275612
26.0,0.019299225881695747
28.0,0.017936965450644493
30.0,0.01659957878291607
32.0,0.015362603589892387
36.0,0.012990514747798443
40.0,0.010900478810071945
44.0,0.00942436046898365
48.0,0.008385010994970798
52.0,0.007458167150616646
56.0,0.006614415440708399
60.0,0.005662328097969294
64.0,0.004639795981347561
72.0,0.0032638602424412966
80.0,0.0024230314884334803
88.0,0.0022343923337757587
96.0,0.0021459520794451237
104.0,0.0015846618916839361
112.0,0.0005138571723364294
120.0,0.00017565651796758175
128.0,0.00033242590143345296
144.0,0.0007207375601865351
160.0,0.0010175651405006647
176.0,0.0008396306075155735
192.0,0.00016091277939267457
208.0,-0.0007048307452350855
224.0,-0.0011100710835307837
240.0,-0.0006832077051512897
256.0,0.00018392685160506517
288.0,0.000718381255865097
320.0,0.0018313236068934202
352.0,0.0010542916133999825
384.0,-0.0011704632779583335
416.0,-0.0007755692931823432
448.0,-0.002264652168378234
480.0,-0.003630210179835558
512.0,-0.0017393933376297355
576.0,-0.000729951832909137
640.0,9.099876479012892e-06
704.0,0.0008347614202648401
768.0,-0.000614863121882081
832.0,-0.0020990108605474234
896.0,-0.0029599557165056467
960.0,-0.001518473494797945
1024.0,0.0025949524715542793
1152.0,-0.0028736141975969076
1280.0,-0.0010518915951251984
1408.0,-0.00040744521538726985
1536.0,0.000997459515929222
1664.0,-0.0001350882521364838
1792.0,8.505199366481975e-05
1920.0,-0.0005586124025285244
2048.0,-0.0024213679134845734
2304.0,-0.0009489192743785679
2560.0,0.00013033024151809514
2816.0,0.0006184596568346024
3072.0,6.898517312947661e-05
3328.0,-0.0004916712059639394
3584.0,0.0012861168943345547
3840.0,0.0010232379427179694
4096.0,-0.0007526862900704145
4608.0,-0.0008692123228684068
5120.0,0.0013592493487522006
5632.0,-0.0014713997952640057
6144.0,0.0009332849294878542
6656.0,0.0009035112452693284
7168.0,-0.00034875210258178413
7680.0,0.00017253939586225897
8192.0,-0.001658847788348794
9216.0,-0.0008597600972279906
10240.0,0.0018192084971815348
11264.0,-0.001303263008594513
12288.0,-0.0003628321865107864
13312.0,0.001346354023553431
14336.0,-0.00037935690488666296
end
