version,3.0
numOfCh,1
type,point
parent_name,400-cuts
ch_type,1_1
kcount,1
numberNandB,1
brightnessNandB,1
carpet pos,0
pc,0
Time (ms),CH1 Auto-Correlation
1.0,0.03301750868558884
2.0,0.03208897262811661
3.0,0.031189728528261185
4.0,0.030355220660567284
5.0,0.0295245461165905
6.0,0.028753962367773056
7.0,0.027997218072414398
8.0,0.02725481055676937
9.0,0.026505177840590477
10.0,0.025759369134902954
11.0,0.025050615891814232
12.0,0.024371206760406494
13.0,0.02371774986386299
14.0,0.02306203916668892
15.0,0.022427069023251534
16.0,0.02182198315858841
18.0,0.020620130002498627
20.0,0.019448230043053627
22.0,0.018339479342103004
24.0,0.017326854169368744
26.0,0.016362659633159637
28.0,0.015477817505598068
30.0,0.014609958976507187
32.0,0.013801262713968754
36.0,0.012327353470027447
40.0,0.010957242920994759
44.0,0.009615027345716953
48.0,0.008346039801836014
52.0,0.007197223603725433
56.0,0.0062095001339912415
60.0,0.005275252275168896
64.0,0.004537869710475206
72.0,0.0033605375792831182
80.0,0.0024815776851028204
88.0,0.0018938418943434954
96.0,0.0018999570747837424
104.0,0.002046840963885188
112.0,0.002158215269446373
120.0,0.0021105334162712097
128.0,0.002063497668132186
144.0,0.001886257203295827
160.0,0.002116004005074501
176.0,0.0023003483656793833
192.0,0.002251529134809971
208.0,0.002076231874525547
224.0,0.0019181648967787623
240.0,0.0016618592198938131
256.0,0.0008461958495900035
288.0,-0.00046588463010266423
320.0,-7.441195339197293e-05
352.0,0.0017833756282925606
384.0,0.0018977075815200806
416.0,0.0006847892072983086
448.0,2.7891303034266457e-05
480.0,-0.0004068421258125454
512.0,-0.00039278645999729633
576.0,0.0006564029026776552
640.0,4.71993516839575e-05
704.0,-0.00032441539224237204
768.0,-0.0004574681806843728
832.0,0.00047436743625439703
896.0,0.002159049967303872
960.0,0.0013781263260170817
1024.0,-0.0006855534738861024
1152.0,-0.0012079677544534206
1280.0,-0.0010528063867241144
1408.0,-0.0010352622484788299
1536.0,8.12169037089916e-06
1664.0,-0.0020281849429011345
1792.0,-0.0005357929039746523
1920.0,-0.0023293860722333193
2048.0,-0.0013251489726826549
2304.0,0.000712231732904911
2560.0,0.00018811131303664297
2816.0,-0.0017254860140383244
3072.0,-0.0013141685631126165
3328.0,-0.002303940476849675
3584.0,0.0002502653806004673
3840.0,0.0016723554581403732
4096.0,0.0017447121208533645
4608.0,0.0005725398659706116
5120.0,-0.002412524539977312
5632.0,-0.0013293367810547352
6144.0,0.0008823760435916483
6656.0,0.0017002129461616278
7168.0,-0.0002815215557347983
7680.0,0.001077589113265276
8192.0,0.0014081390108913183
9216.0,-0.0008865106501616538
10240.0,-3.008915882674046e-05
11264.0,-0.0009905501501634717
12288.0,-9.156081796390936e-05
13312.0,-0.0001722668530419469
14336.0,0.0007871757843531668
end
