version,3.0
numOfCh,1
type,point
parent_name,400-cuts
ch_type,1_1
kcount,1
numberNandB,1
brightnessNandB,1
carpet pos,0
pc,0
Time (ms),CH1 Auto-Correlation
1.0,0.07742125540971756
2.0,0.07537432014942169
3.0,0.07337278872728348
4.0,0.0713917538523674
5.0,0.06947525590658188
6.0,0.06759899109601974
7.0,0.0657600536942482
8.0,0.06396418064832687
9.0,0.06220681592822075
10.0,0.06042315065860748
11.0,0.05868346244096756
12.0,0.05699123069643974
13.0,0.055374592542648315
14.0,0.05379022657871246
15.0,0.052293844521045685
16.0,0.05089021101593971
18.0,0.04824267700314522
20.0,0.04568476602435112
22.0,0.04324658215045929
24.0,0.04091614484786987
26.0,0.03874470666050911
28.0,0.03670362010598183
30.0,0.034844446927309036
32.0,0.033159155398607254
36.0,0.03022809512913227
40.0,0.02758331410586834
44.0,0.02504699118435383
48.0,0.022487584501504898
52.0,0.020209379494190216
56.0,0.018147336319088936
60.0,0.0161945391446352
64.0,0.014173286966979504
72.0,0.010895157232880592
80.0,0.008228102698922157
88.0,0.005204581189900637
96.0,0.0022753977682441473
104.0,0.0004948132555000484
112.0,-0.0003000696888193488
120.0,-0.0007880855118855834
128.0,-0.0012005766620859504
144.0,-0.001307136146351695
160.0,-0.001724631292745471
176.0,-0.002757858019322157
192.0,-0.004656640812754631
208.0,-0.004202359355986118
224.0,-0.0008494480862282217
240.0,0.001695941318757832
256.0,0.0026312635745853186
288.0,0.0019392449175938964
320.0,0.00125958863645792
352.0,0.002334809163585305
384.0,0.002644472988322377
416.0,0.0013691611820831895
448.0,-0.001964474795386195
480.0,-0.0031273888889700174
512.0,-0.004083441570401192
576.0,-0.001982253510504961
640.0,0.0022990743163973093
704.0,0.0036426950246095657
768.0,-0.0017915951320901513
832.0,-0.00503051932901144
896.0,-0.003594128880649805
960.0,-0.0011660046875476837
1024.0,0.006086176261305809
1152.0,0.0016584565164521337
1280.0,-0.0013032419374212623
1408.0,0.0011950217885896564
1536.0,0.003142375499010086
1664.0,0.0006989407702349126
1792.0,0.0019899362232536077
1920.0,0.0046002729795873165
2048.0,0.0006077827420085669
2304.0,-0.0016955353785306215
2560.0,-0.0003843168669845909
2816.0,8.771578723099083e-05
3072.0,0.004226065240800381
3328.0,0.0019062317442148924
3584.0,-0.00014242323231883347
3840.0,-0.0047675734385848045
4096.0,-0.004077192861586809
4608.0,-0.00024001943529583514
5120.0,-0.00027147732907906175
5632.0,0.0015878176782280207
6144.0,0.0014908125158399343
6656.0,-0.002206797944381833
7168.0,-0.0027174167335033417
7680.0,0.0031471410766243935
8192.0,-0.005132958292961121
9216.0,-0.0017069062450900674
10240.0,-0.0010556026827543974
11264.0,-0.000683151709381491
12288.0,0.00023822423827368766
13312.0,-0.0015120425960049033
14336.0,-0.0011473099002614617
end
