version,3.0
numOfCh,1
type,point
parent_name,400-cuts
ch_type,1_1
kcount,1
numberNandB,1
brightnessNandB,1
carpet pos,0
pc,0
Time (ms),CH1 Auto-Correlation
1.0,0.06707082688808441
2.0,0.06481771171092987
3.0,0.06262132525444031
4.0,0.06046907976269722
5.0,0.05838177725672722
6.0,0.056315191090106964
7.0,0.054203253239393234
8.0,0.052159957587718964
9.0,0.050169941037893295
10.0,0.048284295946359634
11.0,0.04649391025304794
12.0,0.04475684091448784
13.0,0.04311533644795418
14.0,0.04150544852018356
15.0,0.039906397461891174
16.0,0.03840203583240509
18.0,0.035579975694417953
20.0,0.03290446847677231
22.0,0.030437998473644257
24.0,0.028200577944517136
26.0,0.02612638846039772
28.0,0.024203022941946983
30.0,0.022433491423726082
32.0,0.020846903324127197
36.0,0.01800188608467579
40.0,0.01538041140884161
44.0,0.013045055791735649
48.0,0.01111158262938261
52.0,0.009338625706732273
56.0,0.008070438168942928
60.0,0.007446450646966696
64.0,0.007163409609347582
72.0,0.006633606739342213
80.0,0.006236943881958723
88.0,0.006196310743689537
96.0,0.006200884468853474
104.0,0.005657079629600048
112.0,0.005472386255860329
120.0,0.004605285823345184
128.0,0.002948657376691699
144.0,0.00041179967229254544
160.0,-0.0009826788445934653
176.0,-0.0010107418056577444
192.0,-0.0013437016168609262
208.0,-0.0005650759558193386
224.0,0.0013514617457985878
240.0,0.001530601060949266
256.0,0.001176350051537156
288.0,0.0017422855598852038
320.0,0.0013645177241414785
352.0,0.004877686966210604
384.0,0.009573384188115597
416.0,0.007627491373568773
448.0,0.0028565595857799053
480.0,0.0022451409604400396
512.0,0.0038950154557824135
576.0,0.003679842920973897
640.0,0.006538321729749441
704.0,0.004449872300028801
768.0,0.0037840872537344694
832.0,0.0045703500509262085
896.0,0.002570507349446416
960.0,0.002537360182031989
1024.0,-0.0005401993985287845
1152.0,0.0023437405470758677
1280.0,0.007692387327551842
1408.0,0.0016905968077480793
1536.0,0.002896358957514167
1664.0,0.001109456061385572
1792.0,0.0034922766499221325
1920.0,0.0014964075526222587
2048.0,0.004891584627330303
2304.0,0.000514830113388598
2560.0,0.0011517091188579798
2816.0,-0.002884938381612301
3072.0,-0.0007766587659716606
3328.0,-0.0016283118166029453
3584.0,-0.0021305368281900883
3840.0,-0.0033897999674081802
4096.0,-0.003143143141642213
4608.0,-0.003128975396975875
5120.0,-0.003333331784233451
5632.0,-0.0027928873896598816
6144.0,-0.0028784580063074827
6656.0,-0.0002561462461017072
7168.0,0.0003401976136956364
7680.0,-0.0015041501028463244
8192.0,-0.001750341267324984
9216.0,-0.0012785997241735458
10240.0,-0.0005542936269193888
11264.0,0.00029080931562930346
12288.0,0.0002323916123714298
13312.0,0.0019531254656612873
14336.0,0.0010106174740940332
end
