version,3.0
numOfCh,1
type,point
parent_name,400-cuts
ch_type,1_1
kcount,1
numberNandB,1
brightnessNandB,1
carpet pos,0
pc,0
Time (ms),CH1 Auto-Correlation
1.0,0.05603082850575447
2.0,0.05439379811286926
3.0,0.05281400680541992
4.0,0.051272809505462646
5.0,0.04978545382618904
6.0,0.0483463853597641
7.0,0.04694593325257301
8.0,0.045657653361558914
9.0,0.04438723996281624
10.0,0.04319365695118904
11.0,0.0420672744512558
12.0,0.04094604402780533
13.0,0.03988635912537575
14.0,0.03893467038869858
15.0,0.03799595683813095
16.0,0.03713458031415939
18.0,0.03551691398024559
20.0,0.03409581631422043
22.0,0.0328703410923481
24.0,0.03172171115875244
26.0,0.03045501373708248
28.0,0.029165571555495262
30.0,0.027863550931215286
32.0,0.02659871056675911
36.0,0.024238521233201027
40.0,0.022065769881010056
44.0,0.02009226754307747
48.0,0.018389075994491577
52.0,0.01715429686009884
56.0,0.01597241498529911
60.0,0.014937374740839005
64.0,0.013956650160253048
72.0,0.011863969266414642
80.0,0.009637320414185524
88.0,0.007918859831988811
96.0,0.006742436438798904
104.0,0.005596308037638664
112.0,0.00462934747338295
120.0,0.0037567976396530867
128.0,0.0030556865967810154
144.0,0.0015135441208258271
160.0,0.0015899508725851774
176.0,0.002178206341341138
192.0,0.002408628584817052
208.0,0.0022636684589087963
224.0,0.002120872726663947
240.0,0.00226841913536191
256.0,0.002579504158347845
288.0,0.002978020813316107
320.0,0.0004047817492391914
352.0,-0.0011061668628826737
384.0,0.00015975088172126561
416.0,0.001166191534139216
448.0,0.000762204232160002
480.0,-6.12974472460337e-05
512.0,0.00033121139858849347
576.0,-0.0012928205542266369
640.0,-0.0013760277070105076
704.0,0.00021291615848895162
768.0,-0.0017631994560360909
832.0,-0.001423451816663146
896.0,-0.0027478511910885572
960.0,-0.001467995229177177
1024.0,-0.002218230627477169
1152.0,-0.0016168426955118775
1280.0,0.0003221016377210617
1408.0,0.001971328863874078
1536.0,0.0022367420606315136
1664.0,-0.0018123594345524907
1792.0,0.004161382094025612
1920.0,-0.0006504154298454523
2048.0,0.002353216987103224
2304.0,0.0016524391248822212
2560.0,0.0037372701335698366
2816.0,0.0004768285434693098
3072.0,-0.001608222140930593
3328.0,0.0020003081299364567
3584.0,-0.0012769907480105758
3840.0,0.0001385238574584946
4096.0,0.00425672996789217
4608.0,0.0016039585461840034
5120.0,-0.001250971807166934
5632.0,-0.002572133904322982
6144.0,-0.00023675065313000232
6656.0,0.00240587186999619
7168.0,0.0011214620899409056
7680.0,-0.0035682611633092165
8192.0,-0.0027642163913697004
9216.0,4.592115510604344e-05
10240.0,-0.0014594903914257884
11264.0,-0.0019174248445779085
12288.0,-0.002333642216399312
13312.0,-0.0030285348184406757
14336.0,-0.00034927803790196776
end
