version,3.0
numOfCh,1
type,point
parent_name,400-cuts
ch_type,1_1
kcount,1
numberNandB,1
brightnessNandB,1
carpet pos,0
pc,0
Time (ms),CH1 Auto-Correlation
1.0,0.07844986021518707
2.0,0.07596681267023087
3.0,0.07353294640779495
4.0,0.0711740031838417
5.0,0.06895862519741058
6.0,0.0668448880314827
7.0,0.06472897529602051
8.0,0.06268348544836044
9.0,0.060764871537685394
10.0,0.05894945561885834
11.0,0.05715585872530937
12.0,0.05536288768053055
13.0,0.053558167070150375
14.0,0.051850270479917526
15.0,0.050157807767391205
16.0,0.04847649484872818
18.0,0.04531266912817955
20.0,0.042360711842775345
22.0,0.0395834855735302
24.0,0.037125781178474426
26.0,0.03478332236409187
28.0,0.03256496414542198
30.0,0.030414709821343422
32.0,0.02835521474480629
36.0,0.024596434086561203
40.0,0.02153022773563862
44.0,0.018906133249402046
48.0,0.01670917496085167
52.0,0.015136235393583775
56.0,0.013809681870043278
60.0,0.012534338980913162
64.0,0.011269955895841122
72.0,0.008321843110024929
80.0,0.006377127952873707
88.0,0.004821891896426678
96.0,0.0035426781978458166
104.0,0.0026065781712532043
112.0,0.0013302603038027883
120.0,-2.6513016564422287e-06
128.0,-0.0008392003364861012
144.0,-0.0006119232275523245
160.0,0.0005382165545597672
176.0,0.0012420030543580651
192.0,0.001805650070309639
208.0,0.0018702264642342925
224.0,-9.832087380345911e-05
240.0,-0.000982945435680449
256.0,-0.00032577893580310047
288.0,0.0005015960778109729
320.0,0.0018008919432759285
352.0,0.002111826790496707
384.0,0.003487577196210623
416.0,0.00045450186007656157
448.0,-0.0007613800116814673
480.0,0.0012807477032765746
512.0,0.0032513104379177094
576.0,0.005174183752387762
640.0,0.0026667844504117966
704.0,-4.276536128600128e-05
768.0,-0.0026945644058287144
832.0,-0.0005213741096667945
896.0,0.0008802261436358094
960.0,0.0014214440016075969
1024.0,0.0019594968762248755
1152.0,-0.0014429653529077768
1280.0,9.392118954565376e-05
1408.0,-0.004034963436424732
1536.0,-0.00564721180126071
1664.0,-0.004517784342169762
1792.0,-0.0020285972859710455
1920.0,-0.0019487922545522451
2048.0,-0.005210538860410452
2304.0,-0.0012761261314153671
2560.0,-0.003538095625117421
2816.0,-0.0009056352428160608
3072.0,-0.00020865259284619242
3328.0,-0.00020879112707916647
3584.0,0.0003667357377707958
3840.0,2.992503323184792e-05
4096.0,0.004425713326781988
4608.0,0.0041387490928173065
5120.0,0.0019855794962495565
5632.0,-0.001966097392141819
6144.0,-0.004234290216118097
6656.0,-0.002421570010483265
7168.0,-8.237404836108908e-05
7680.0,0.001515580341219902
8192.0,-0.00048338458873331547
9216.0,0.00048353374586440623
10240.0,-0.00061447499319911
11264.0,-0.0009634836460463703
12288.0,0.0008692566188983619
13312.0,-0.0005926650483161211
14336.0,-0.0008448248845525086
end
