version,3.0
numOfCh,1
type,point
parent_name,400-cuts
ch_type,1_1
kcount,1
numberNandB,1
brightnessNandB,1
carpet pos,0
pc,0
Time (ms),CH1 Auto-Correlation
1.0,0.06241631880402565
2.0,0.06070713326334953
3.0,0.05907348170876503
4.0,0.05747736617922783
5.0,0.05595245957374573
6.0,0.054478760808706284
7.0,0.053075287491083145
8.0,0.05172310397028923
9.0,0.050371203571558
10.0,0.049029164016246796
11.0,0.04777593910694122
12.0,0.04656935855746269
13.0,0.045407332479953766
14.0,0.04428395628929138
15.0,0.04318459331989288
16.0,0.042104411870241165
18.0,0.04006218910217285
20.0,0.03813222795724869
22.0,0.036261677742004395
24.0,0.03437637910246849
26.0,0.032674070447683334
28.0,0.03107289969921112
30.0,0.029446514323353767
32.0,0.027904359623789787
36.0,0.025296689942479134
40.0,0.02326280064880848
44.0,0.02144998498260975
48.0,0.01987369917333126
52.0,0.01873145066201687
56.0,0.017882805317640305
60.0,0.017017178237438202
64.0,0.016117611899971962
72.0,0.014651850797235966
80.0,0.0132450507953763
88.0,0.011611311696469784
96.0,0.00970511045306921
104.0,0.007371478248387575
112.0,0.005376012530177832
120.0,0.00447956845164299
128.0,0.003644385375082493
144.0,0.0025672297924757004
160.0,0.0025084831286221743
176.0,0.0038622841238975525
192.0,0.003976412117481232
208.0,0.002843803260475397
224.0,0.0020235057454556227
240.0,0.0022665574215352535
256.0,0.003119677072390914
288.0,0.0026813161093741655
320.0,0.001799953868612647
352.0,0.0020303758792579174
384.0,0.0024959538131952286
416.0,0.0022998296190053225
448.0,0.003889174433425069
480.0,0.00401452137157321
512.0,0.004128540866076946
576.0,0.004203422460705042
640.0,0.003565728198736906
704.0,0.0012117730220779777
768.0,0.0017424275865778327
832.0,0.004489527083933353
896.0,0.006267115939408541
960.0,0.0012102010659873486
1024.0,0.00036689042462967336
1152.0,-1.7009719158522785e-05
1280.0,-0.004029741510748863
1408.0,0.0005438030930235982
1536.0,-0.00329478713683784
1664.0,0.0011557585094124079
1792.0,-0.0006713066250085831
1920.0,-0.0014403265668079257
2048.0,-0.0019503965741023421
2304.0,0.0008399367798119783
2560.0,0.0011481957044452429
2816.0,0.000983975944109261
3072.0,-0.000505253323353827
3328.0,0.0023957297671586275
3584.0,0.0005343167576938868
3840.0,-0.005121133290231228
4096.0,-0.0018660788191482425
4608.0,6.599489279324189e-05
5120.0,0.003976395353674889
5632.0,7.143800758058205e-05
6144.0,-0.002136287046596408
6656.0,-0.006889434531331062
7168.0,-0.0077531165443360806
7680.0,-0.0015583157073706388
8192.0,0.00018430979980621487
9216.0,-0.0002236551372334361
10240.0,-0.00014578226546291262
11264.0,9.940323798218742e-05
12288.0,0.0014226798666641116
13312.0,0.0005922069540247321
14336.0,0.0008153013768605888
end
