version,3.0
numOfCh,1
type,point
parent_name,400-cuts
ch_type,1_1
kcount,1
numberNandB,1
brightnessNandB,1
carpet pos,0
pc,0
Time (ms),CH1 Auto-Correlation
1.0,0.03258352354168892
2.0,0.03175649046897888
3.0,0.030950341373682022
4.0,0.03016951121389866
5.0,0.029409965500235558
6.0,0.028693493455648422
7.0,0.02802799642086029
8.0,0.027414308860898018
9.0,0.026804985478520393
10.0,0.026208646595478058
11.0,0.025591500103473663
12.0,0.024965617805719376
13.0,0.024351201951503754
14.0,0.02372806891798973
15.0,0.02310376986861229
16.0,0.022501863539218903
18.0,0.021335231140255928
20.0,0.020249702036380768
22.0,0.01919092796742916
24.0,0.018139638006687164
26.0,0.017158327624201775
28.0,0.016234124079346657
30.0,0.015366715379059315
32.0,0.014548271894454956
36.0,0.012975825928151608
40.0,0.011595649644732475
44.0,0.01039168145507574
48.0,0.009382803924381733
52.0,0.008472646586596966
56.0,0.007663021329790354
60.0,0.006867655087262392
64.0,0.006152917165309191
72.0,0.005091057159006596
80.0,0.004080870654433966
88.0,0.003154053818434477
96.0,0.002601519227027893
104.0,0.002145283157005906
112.0,0.0016030665719881654
120.0,0.000998813658952713
128.0,0.00027768424479290843
144.0,-0.0006088707596063614
160.0,-0.0011270737741142511
176.0,-0.0015054703690111637
192.0,-0.00197889213450253
208.0,-0.0019156745402142406
224.0,-0.002414507558569312
240.0,-0.002324370900169015
256.0,-0.0019415373681113124
288.0,-0.0013364740880206227
320.0,-0.0011664945632219315
352.0,-0.0011206984054297209
384.0,-0.0015150042017921805
416.0,0.001202614395879209
448.0,0.0028025524225085974
480.0,0.0015206941170617938
512.0,0.0008433696930296719
576.0,-0.0009413332445546985
640.0,-0.000208794983336702
704.0,-0.0006618648767471313
768.0,-7.887855463195592e-05
832.0,0.00016894954023882747
896.0,-0.0010289991041645408
960.0,0.00025474143330939114
1024.0,-0.0015375231159850955
1152.0,0.0005239624879322946
1280.0,0.0007605531718581915
1408.0,0.001816634088754654
1536.0,0.002068939618766308
1664.0,-0.0005328383995220065
1792.0,-1.6121317457873374e-05
1920.0,0.0003099215100519359
2048.0,-0.002183666918426752
2304.0,-0.0008307413081638515
2560.0,0.00033651755074970424
2816.0,-0.0005309138796292245
3072.0,-0.0014544968726113439
3328.0,-0.00038047946873120964
3584.0,-0.0020468197762966156
3840.0,-0.0007561995880678296
4096.0,0.0001598325907252729
4608.0,-0.0006428034976124763
5120.0,-0.0008306304807774723
5632.0,0.0006478494615294039
6144.0,0.00046501948963850737
6656.0,-0.00010600424866424873
7168.0,0.0019006319344043732
7680.0,0.00031257024966180325
8192.0,0.00038235829561017454
9216.0,-0.0008696509175933897
10240.0,-0.0013167965225875378
11264.0,-0.00013027862587478012
12288.0,-0.0011484897695481777
13312.0,0.001367379678413272
14336.0,0.00047327647916972637
end
