version,3.0
numOfCh,1
type,point
parent_name,400-cuts
ch_type,1_1
kcount,1
numberNandB,1
brightnessNandB,1
carpet pos,0
pc,0
Time (ms),CH1 Auto-Correlation
1.0,0.07936018705368042
2.0,0.07691717892885208
3.0,0.07459405064582825
4.0,0.07231888920068741
5.0,0.07009971886873245
6.0,0.06793342530727386
7.0,0.06589994579553604
8.0,0.0639503225684166
9.0,0.06215837225317955
10.0,0.06043986603617668
11.0,0.05881749093532562
12.0,0.05721334367990494
13.0,0.055661365389823914
14.0,0.054168809205293655
15.0,0.05271255224943161
16.0,0.05131836235523224
18.0,0.04859517514705658
20.0,0.04596228897571564
22.0,0.043419331312179565
24.0,0.040948834270238876
26.0,0.03867566958069801
28.0,0.03663944453001022
30.0,0.03480091318488121
32.0,0.03310125693678856
36.0,0.029899315908551216
40.0,0.02670651488006115
44.0,0.023445693776011467
48.0,0.02048189379274845
52.0,0.018007546663284302
56.0,0.015510009601712227
60.0,0.013450859114527702
64.0,0.012256493791937828
72.0,0.010670159012079239
80.0,0.008575513027608395
88.0,0.0061593023128807545
96.0,0.0034566668327897787
104.0,0.0013787514762952924
112.0,-0.00024929066421464086
120.0,-0.001659295056015253
128.0,-0.0024104209151118994
144.0,-0.0036021689884364605
160.0,-0.005074712913483381
176.0,-0.006867984309792519
192.0,-0.008406557142734528
208.0,-0.009962392970919609
224.0,-0.01053068321198225
240.0,-0.00970587320625782
256.0,-0.008144106715917587
288.0,-0.006698297802358866
320.0,-0.004928844049572945
352.0,-0.002331309951841831
384.0,-0.0008157292613759637
416.0,0.0012502219760790467
448.0,0.002322727581486106
480.0,0.0027934480458498
512.0,0.0020210130605846643
576.0,-0.0007989408913999796
640.0,0.0008131785434670746
704.0,0.0056915609166026115
768.0,0.010486476123332977
832.0,0.008113330230116844
896.0,0.0007946726400405169
960.0,-0.0033440669067204
1024.0,-0.004635805729776621
1152.0,-0.005025773774832487
1280.0,0.0030031828209757805
1408.0,0.0018563929479569197
1536.0,-0.0009816334350034595
1664.0,-0.005077393259853125
1792.0,-0.0011799042113125324
1920.0,0.002329100389033556
2048.0,-0.0007901414064690471
2304.0,-0.0035713587421923876
2560.0,0.0010183515259996057
2816.0,-0.0021196084562689066
3072.0,-0.00042129066423512995
3328.0,0.0015663363737985492
3584.0,-0.0016485379310324788
3840.0,-0.0010014119325205684
4096.0,-6.2810409872327e-05
4608.0,-0.00297142774797976
5120.0,0.0019201816758140922
5632.0,0.0007159960805438459
6144.0,0.0010577000211924314
6656.0,0.0008115611271932721
7168.0,-0.003050905652344227
7680.0,-0.0034144041128456593
8192.0,-1.3500575732905418e-05
9216.0,0.0014326588716357946
10240.0,0.0004147185245528817
11264.0,0.0014243684709072113
12288.0,0.00022858730517327785
13312.0,0.00036662438651546836
14336.0,-0.002192396903410554
end
