version,3.0
numOfCh,1
type,point
parent_name,400-cuts
ch_type,1_1
kcount,1
numberNandB,1
brightnessNandB,1
carpet pos,0
pc,0
Time (ms),CH1 Auto-Correlation
1.0,0.066588394343853
2.0,0.06483983993530273
3.0,0.0631575882434845
4.0,0.06154072284698486
5.0,0.05999366566538811
6.0,0.05851175636053085
7.0,0.057099685072898865
8.0,0.055727194994688034
9.0,0.05445149168372154
10.0,0.05321219190955162
11.0,0.0520925298333168
12.0,0.05101574584841728
13.0,0.04991981014609337
14.0,0.048821821808815
15.0,0.04772303253412247
16.0,0.04664938896894455
18.0,0.04456628859043121
20.0,0.04267079755663872
22.0,0.04093415290117264
24.0,0.039349913597106934
26.0,0.037816889584064484
28.0,0.036308757960796356
30.0,0.0349227711558342
32.0,0.03357567638158798
36.0,0.030832480639219284
40.0,0.02826215885579586
44.0,0.025902200490236282
48.0,0.023758599534630775
52.0,0.021793533116579056
56.0,0.019806772470474243
60.0,0.017928287386894226
64.0,0.016200201585888863
72.0,0.012708136811852455
80.0,0.009605223312973976
88.0,0.007286389824002981
96.0,0.005790411960333586
104.0,0.004344337619841099
112.0,0.0030137819703668356
120.0,0.0018673765007406473
128.0,0.0007649835315532982
144.0,-0.002239069901406765
160.0,-0.004296287894248962
176.0,-0.00507008284330368
192.0,-0.0053158653900027275
208.0,-0.006532364524900913
224.0,-0.0065818121656775475
240.0,-0.006060220766812563
256.0,-0.00640840083360672
288.0,-0.0058743590489029884
320.0,-0.00540002528578043
352.0,-0.004443165846168995
384.0,-0.004844479728490114
416.0,-0.004270228557288647
448.0,-0.0011612625094130635
480.0,0.00329435127787292
512.0,0.004857100546360016
576.0,0.00398925319314003
640.0,0.00575344217941165
704.0,0.0049151042476296425
768.0,0.0009784349240362644
832.0,-0.0038493762258440256
896.0,-0.002331540687009692
960.0,0.0023485689889639616
1024.0,0.001522735459730029
1152.0,0.0024921686854213476
1280.0,-0.0020298280287534
1408.0,-0.003831452690064907
1536.0,-0.004991669673472643
1664.0,0.0013015042059123516
1792.0,0.0018350158352404833
1920.0,-0.0020954529754817486
2048.0,-0.004286492243409157
2304.0,0.0038015334866940975
2560.0,-0.0038905893452465534
2816.0,0.0026463877875357866
3072.0,-0.003197944024577737
3328.0,0.0007584452396258712
3584.0,-0.0038866407703608274
3840.0,0.0018430226482450962
4096.0,-0.007008871529251337
4608.0,-0.0020139412954449654
5120.0,0.0007205204456113279
5632.0,0.0026953862980008125
6144.0,0.0022711248602718115
6656.0,-0.0016558971256017685
7168.0,-0.0009833858348429203
7680.0,-0.00034337685792706907
8192.0,0.00029428876587189734
9216.0,-0.0013063012156635523
10240.0,-0.0005647822981700301
11264.0,0.001855131471529603
12288.0,0.0013820127351209521
13312.0,-0.002522258320823312
14336.0,-0.0005732888239435852
end
