version,3.0
numOfCh,1
type,point
parent_name,400-cuts
ch_type,1_1
kcount,1
numberNandB,1
brightnessNandB,1
carpet pos,0
pc,0
Time (ms),CH1 Auto-Correlation
1.0,0.028808200731873512
2.0,0.02783285640180111
3.0,0.02688012830913067
4.0,0.025951065123081207
5.0,0.025079892948269844
6.0,0.024272464215755463
7.0,0.02350011095404625
8.0,0.022786153480410576
9.0,0.022106720134615898
10.0,0.021452736109495163
11.0,0.02082791179418564
12.0,0.02019844390451908
13.0,0.019581442698836327
14.0,0.018978798761963844
15.0,0.018368830904364586
16.0,0.01780753955245018
18.0,0.016721408814191818
20.0,0.015705516561865807
22.0,0.014714556746184826
24.0,0.013729737140238285
26.0,0.012766338884830475
28.0,0.011869356036186218
30.0,0.01104061584919691
32.0,0.010240813717246056
36.0,0.008795813657343388
40.0,0.007632349152117968
44.0,0.006602575071156025
48.0,0.005599868483841419
52.0,0.004749729763716459
56.0,0.0039018706884235144
60.0,0.003187517635524273
64.0,0.0026656254194676876
72.0,0.0017357844626531005
80.0,0.001150875585153699
88.0,0.0005661791656166315
96.0,-1.5775638530612923e-05
104.0,-0.0006768036400899291
112.0,-0.0009496514103375375
120.0,-0.0012029798235744238
128.0,-0.0011251996038481593
144.0,-0.0011713601415976882
160.0,-0.0012728722067549825
176.0,-0.00043926466605626047
192.0,0.0003111066180281341
208.0,0.0005647019715979695
224.0,0.0008475147769786417
240.0,0.0007003186619840562
256.0,0.0011299368925392628
288.0,0.001410957076586783
320.0,0.0006053487886674702
352.0,0.0003292852488812059
384.0,-0.0008920843247324228
416.0,-0.0021111387759447098
448.0,-0.0026438855566084385
480.0,-0.0018273305613547564
512.0,-0.0006222549127414823
576.0,9.594346192898229e-05
640.0,3.133855352643877e-05
704.0,-0.0006544789648614824
768.0,-0.0012096763821318746
832.0,-0.0005780945066362619
896.0,0.0004870030970778316
960.0,0.0008444578852504492
1024.0,-0.0012432170333340764
1152.0,-0.0004998046788387001
1280.0,0.00023319506726693362
1408.0,1.2655454156629276e-05
1536.0,0.0003719660162460059
1664.0,0.0009118586895056069
1792.0,-1.8356528016738594e-05
1920.0,-0.0010196783114224672
2048.0,-0.0005183921894058585
2304.0,-2.589877340142266e-06
2560.0,1.1147628356411587e-05
2816.0,-0.0009640658390708268
3072.0,1.6938415683398489e-06
3328.0,0.001292832545004785
3584.0,-0.0008351585129275918
3840.0,0.0003663670795504004
4096.0,2.9984115826664492e-05
4608.0,-0.0003571638371795416
5120.0,0.0004975031479261816
5632.0,-0.0006335219950415194
6144.0,-0.0004916380858048797
6656.0,0.0006473421817645431
7168.0,0.00010717482655309141
7680.0,-0.0007531722076237202
8192.0,-0.0010259844129905105
9216.0,0.0002549959463067353
10240.0,0.000367429485777393
11264.0,-0.00036308832932263613
12288.0,-0.00017602156731300056
13312.0,4.640768747776747e-05
14336.0,-0.0006704173283651471
end
