version,3.0
numOfCh,1
type,point
parent_name,400-cuts
ch_type,1_1
kcount,1
numberNandB,1
brightnessNandB,1
carpet pos,0
pc,0
Time (ms),CH1 Auto-Correlation
1.0,0.02403160184621811
2.0,0.023201098665595055
3.0,0.022379718720912933
4.0,0.021578894928097725
5.0,0.020807789638638496
6.0,0.02005700021982193
7.0,0.019338326528668404
8.0,0.01864616759121418
9.0,0.0179790947586298
10.0,0.01731872744858265
11.0,0.016664916649460793
12.0,0.016019510105252266
13.0,0.015379340387880802
14.0,0.01476188562810421
15.0,0.014163694344460964
16.0,0.013586479239165783
18.0,0.012491418980062008
20.0,0.011449052952229977
22.0,0.010486484505236149
24.0,0.009614277631044388
26.0,0.008833672851324081
28.0,0.008134772069752216
30.0,0.0074760159477591515
32.0,0.006864088587462902
36.0,0.005879619158804417
40.0,0.005120943766087294
44.0,0.004527551122009754
48.0,0.004043406806886196
52.0,0.003488156944513321
56.0,0.0029196622781455517
60.0,0.0024449671618640423
64.0,0.0020546414889395237
72.0,0.0016836869763210416
80.0,0.0013449351536110044
88.0,0.0010744169121608138
96.0,0.0010274910600855947
104.0,0.0011597159318625927
112.0,0.0013311266666278243
120.0,0.0014183089369907975
128.0,0.0012787802843376994
144.0,0.0008855831110849977
160.0,7.002148777246475e-05
176.0,-0.0007046280661597848
192.0,-0.0009337480296380818
208.0,-0.0008295148727484047
224.0,-0.0007804316701367497
240.0,-0.0005575717659667134
256.0,-4.635182267520577e-05
288.0,-0.00012389874609652907
320.0,-0.0007165957358665764
352.0,-0.0009609510307200253
384.0,-0.0012067926581948996
416.0,-0.0016809115186333656
448.0,-0.0018380586989223957
480.0,-0.0009410294587723911
512.0,-0.0001962940295925364
576.0,-0.0008958319085650146
640.0,0.00025290861958637834
704.0,-0.0011635780101642013
768.0,0.00038116579526104033
832.0,-0.0016054508741945028
896.0,-0.0014859604416415095
960.0,-0.0015597186284139752
1024.0,-6.036816193955019e-05
1152.0,0.0005877392832189798
1280.0,0.0005994540988467634
1408.0,0.000643750827293843
1536.0,0.00035294087138026953
1664.0,0.0005367838311940432
1792.0,0.00024045734608080238
1920.0,-0.0006532278493978083
2048.0,-0.00103684701025486
2304.0,-0.0006518237642012537
2560.0,0.0007435049628838897
2816.0,0.0003452411328908056
3072.0,7.316769188037142e-05
3328.0,-0.00011998627451248467
3584.0,-0.0006307701114565134
3840.0,-9.029080683831125e-05
4096.0,0.000777247769292444
4608.0,0.0001998328953050077
5120.0,0.00011563114821910858
5632.0,-7.528264541178942e-05
6144.0,-0.00020277009753044695
6656.0,0.0002356301120016724
7168.0,-0.000379617529688403
7680.0,0.00012742537364829332
8192.0,-0.0006661806255578995
9216.0,0.00011610542424023151
10240.0,-0.0004027841205243021
11264.0,-1.536478885100223e-05
12288.0,0.00024368090089410543
13312.0,-0.0001991939643630758
14336.0,0.00010521943477215245
end
