version,3.0
numOfCh,1
type,point
parent_name,400-cuts
ch_type,1_1
kcount,1
numberNandB,1
brightnessNandB,1
carpet pos,0
pc,0
Time (ms),CH1 Auto-Correlation
1.0,0.02554210089147091
2.0,0.024724239483475685
3.0,0.02392840012907982
4.0,0.023137874901294708
5.0,0.02239207923412323
6.0,0.021658191457390785
7.0,0.020954424515366554
8.0,0.020289311185479164
9.0,0.019640304148197174
10.0,0.019011477008461952
11.0,0.01839856430888176
12.0,0.01779676415026188
13.0,0.01724233105778694
14.0,0.016709087416529655
15.0,0.016182921826839447
16.0,0.015677034854888916
18.0,0.01476056594401598
20.0,0.01389321219176054
22.0,0.013066298328340054
24.0,0.0123083321377635
26.0,0.011605452746152878
28.0,0.010954097844660282
30.0,0.010303297080099583
32.0,0.00966462679207325
36.0,0.008556040935218334
40.0,0.007657521404325962
44.0,0.006902790162712336
48.0,0.006247300188988447
52.0,0.005703411530703306
56.0,0.00521423015743494
60.0,0.004771117586642504
64.0,0.004447683226317167
72.0,0.0036598765291273594
80.0,0.0028663526754826307
88.0,0.002456310670822859
96.0,0.002274518832564354
104.0,0.0020170097704976797
112.0,0.0016770618967711926
120.0,0.0013498711632564664
128.0,0.001162201864644885
144.0,0.0005684815696440637
160.0,0.00011743157665478066
176.0,-0.0005164710455574095
192.0,-0.0007562317186966538
208.0,-0.0005849443841725588
224.0,-0.00011067631567129865
240.0,0.00032528064912185073
256.0,0.00027253388543613255
288.0,0.000484361284179613
320.0,-0.00016001479525584728
352.0,0.0005111563950777054
384.0,0.00014948475291021168
416.0,0.0004677982651628554
448.0,0.0003388706245459616
480.0,-0.0005710117402486503
512.0,-0.0007166541763581336
576.0,-0.001618606154806912
640.0,-0.0015254989266395569
704.0,-0.0005036386428400874
768.0,0.0019263983704149723
832.0,0.0014728950336575508
896.0,-0.0002729013795033097
960.0,-0.0012391818454489112
1024.0,-2.9109723982401192e-06
1152.0,-8.363748929696158e-05
1280.0,0.0007500121719203889
1408.0,0.0007647299207746983
1536.0,0.0001288571220356971
1664.0,-0.00012188128312118351
1792.0,-0.000534203602001071
1920.0,0.0006649704882875085
2048.0,-0.0014838901115581393
2304.0,-0.0007124498370103538
2560.0,0.0003972808481194079
2816.0,-0.000142600285471417
3072.0,-0.0005612177774310112
3328.0,-0.0017790020210668445
3584.0,-0.0010212211636826396
3840.0,0.0012292263563722372
4096.0,0.0003546056104823947
4608.0,-0.0012920622248202562
5120.0,0.0007628066814504564
5632.0,0.0008260209579020739
6144.0,-3.818328332272358e-05
6656.0,0.00049183564260602
7168.0,-4.16737784689758e-05
7680.0,-0.0014220570446923375
8192.0,0.0008782548829913139
9216.0,-0.00029158670804463327
10240.0,0.00012390350457280874
11264.0,0.0002612256212159991
12288.0,0.0002141730801668018
13312.0,-0.0003748072194866836
14336.0,-7.652804924873635e-05
end
