version,3.0
numOfCh,1
type,point
parent_name,400-cuts
ch_type,1_1
kcount,1
numberNandB,1
brightnessNandB,1
carpet pos,0
pc,0
Time (ms),CH1 Auto-Correlation
1.0,0.0677170604467392
2.0,0.06537017226219177
3.0,0.06307844072580338
4.0,0.06085597351193428
5.0,0.05868322774767876
6.0,0.056558605283498764
7.0,0.054579250514507294
8.0,0.05264461040496826
9.0,0.05078449845314026
10.0,0.0489269457757473
11.0,0.047067947685718536
12.0,0.04527191072702408
13.0,0.04353174939751625
14.0,0.04180315136909485
15.0,0.040192872285842896
16.0,0.038670316338539124
18.0,0.03583357483148575
20.0,0.03328385204076767
22.0,0.030918847769498825
24.0,0.02872561290860176
26.0,0.02670767717063427
28.0,0.024784985929727554
30.0,0.022998789325356483
32.0,0.021240392699837685
36.0,0.017733406275510788
40.0,0.014719204045832157
44.0,0.012670840136706829
48.0,0.01108828466385603
52.0,0.009496724233031273
56.0,0.0082949697971344
60.0,0.007468199823051691
64.0,0.006846372503787279
72.0,0.005721390247344971
80.0,0.005187228322029114
88.0,0.005077371373772621
96.0,0.005146458745002747
104.0,0.005041660275310278
112.0,0.005580941215157509
120.0,0.005886373110115528
128.0,0.005473622586578131
144.0,0.005099494010210037
160.0,0.004428320098668337
176.0,0.0033099998254328966
192.0,0.002346608554944396
208.0,0.0011016953503713012
224.0,0.0011572659714147449
240.0,0.0016028641257435083
256.0,0.001138177583925426
288.0,0.0010474363807588816
320.0,0.001250287052243948
352.0,0.00237494008615613
384.0,-0.000418503099353984
416.0,0.0005816569901071489
448.0,0.0006837160908617079
480.0,-0.0003373717190697789
512.0,-0.0018288748105987906
576.0,-0.0033636391162872314
640.0,0.0012106711510568857
704.0,0.00031462410697713494
768.0,0.005842795595526695
832.0,0.002114645205438137
896.0,0.001336556044407189
960.0,0.0017645477782934904
1024.0,-0.0010264866286888719
1152.0,0.00022754004749003798
1280.0,-0.0020971610210835934
1408.0,-0.0032959117088466883
1536.0,0.00026600147248245776
1664.0,-0.0008789648418314755
1792.0,-0.0014723788481205702
1920.0,-0.00449439836665988
2048.0,-0.00022752406948711723
2304.0,-0.0015419721603393555
2560.0,-0.0013681395212188363
2816.0,-0.0033512378577142954
3072.0,-0.000849223171826452
3328.0,-0.0017880431842058897
3584.0,-0.0005048242164775729
3840.0,-0.001652047852985561
4096.0,-0.001920826151035726
4608.0,-1.8686108887777664e-05
5120.0,0.0009944424964487553
5632.0,0.0015161935007199645
6144.0,0.0032318795565515757
6656.0,0.002062801504507661
7168.0,0.000473480555228889
7680.0,-0.0011698284652084112
8192.0,-0.0006596045568585396
9216.0,-0.0027557415887713432
10240.0,-0.001094006816856563
11264.0,0.0005589928478002548
12288.0,0.003304950427263975
13312.0,0.0007504125242121518
14336.0,-0.0031926510855555534
end
