version,3.0
numOfCh,1
type,point
parent_name,400-cuts
ch_type,1_1
kcount,1
numberNandB,1
brightnessNandB,1
carpet pos,0
pc,0
Time (ms),CH1 Auto-Correlation
1.0,0.03695184737443924
2.0,0.03592175990343094
3.0,0.03491496294736862
4.0,0.03397723287343979
5.0,0.03308193013072014
6.0,0.032201215624809265
7.0,0.03134489804506302
8.0,0.030541248619556427
9.0,0.02978428825736046
10.0,0.02904468961060047
11.0,0.028275836259126663
12.0,0.027539994567632675
13.0,0.02680162340402603
14.0,0.026090992614626884
15.0,0.02539157308638096
16.0,0.02469279058277607
18.0,0.023347102105617523
20.0,0.022082621231675148
22.0,0.02089589275419712
24.0,0.019767258316278458
26.0,0.018707359209656715
28.0,0.01775204762816429
30.0,0.016842758283019066
32.0,0.015940865501761436
36.0,0.014189419336616993
40.0,0.012609991244971752
44.0,0.011159500107169151
48.0,0.009991061873733997
52.0,0.008847138844430447
56.0,0.007768589537590742
60.0,0.006955673452466726
64.0,0.006115585099905729
72.0,0.00477391853928566
80.0,0.0034748525358736515
88.0,0.001963401911780238
96.0,0.001205219654366374
104.0,0.0008913017227314413
112.0,0.0006003156886436045
120.0,0.0004555308842100203
128.0,0.000270738237304613
144.0,9.180320921586826e-05
160.0,-0.00010001360351452604
176.0,-0.00031682976987212896
192.0,-0.0006988750537857413
208.0,-0.0007172929472289979
224.0,-0.00017086630396079272
240.0,0.00016271555796265602
256.0,-0.0003121696354355663
288.0,-1.912297921080608e-05
320.0,0.0011928242165595293
352.0,0.0016758915735408664
384.0,0.001659776666201651
416.0,-0.00022849123342894018
448.0,-0.0012903682654723525
480.0,-0.002143009565770626
512.0,-0.003010335611179471
576.0,-0.0008404665277339518
640.0,-0.0008481586701236665
704.0,0.0015644558006897569
768.0,0.000170379105838947
832.0,0.0025650816969573498
896.0,-0.0006243782700039446
960.0,-0.0021300585940480232
1024.0,-0.0009142697672359645
1152.0,-0.0011458691442385316
1280.0,-0.0007109068683348596
1408.0,-0.0018754341872408986
1536.0,-0.0003170889976900071
1664.0,-0.0015176782617345452
1792.0,-0.0023436674382537603
1920.0,-0.000985784805379808
2048.0,-0.0010159320663660765
2304.0,0.0012307781726121902
2560.0,-0.0019175226334482431
2816.0,5.833704199176282e-05
3072.0,0.0003212760202586651
3328.0,-0.0011093359207734466
3584.0,-0.0007861701305955648
3840.0,0.0005377819179557264
4096.0,0.0007016073795966804
4608.0,0.0005019809468649328
5120.0,-0.0009250248549506068
5632.0,0.0007484115194529295
6144.0,0.0007624250138178468
6656.0,0.001338594825938344
7168.0,-0.0012085987254977226
7680.0,-0.001424618880264461
8192.0,0.00038694607792422175
9216.0,-0.00034687286824919283
10240.0,-0.0004977236967533827
11264.0,0.000372243404854089
12288.0,-0.00016937899636104703
13312.0,0.0005387167329899967
14336.0,-0.0006880398723296821
end
