version,3.0
numOfCh,1
type,point
parent_name,400-cuts
ch_type,1_1
kcount,1
numberNandB,1
brightnessNandB,1
carpet pos,0
pc,0
Time (ms),CH1 Auto-Correlation
1.0,0.0950029119849205
2.0,0.0922069102525711
3.0,0.08950220048427582
4.0,0.08695190399885178
5.0,0.08446181565523148
6.0,0.08196575939655304
7.0,0.0795830637216568
8.0,0.07726532220840454
9.0,0.07502389699220657
10.0,0.072884202003479
11.0,0.07078681886196136
12.0,0.06878456473350525
13.0,0.06676999479532242
14.0,0.06476066261529922
15.0,0.06279126554727554
16.0,0.06083362549543381
18.0,0.05710102617740631
20.0,0.05378495529294014
22.0,0.050792306661605835
24.0,0.04790089651942253
26.0,0.04524536803364754
28.0,0.0428837314248085
30.0,0.04047812893986702
32.0,0.038141511380672455
36.0,0.034201428294181824
40.0,0.030361780896782875
44.0,0.026583002880215645
48.0,0.023160751909017563
52.0,0.019992666319012642
56.0,0.01707509346306324
60.0,0.014436556957662106
64.0,0.011928323656320572
72.0,0.008259889669716358
80.0,0.005653811618685722
88.0,0.002927336608991027
96.0,0.0006819039117544889
104.0,-0.0005532392533496022
112.0,-0.0010981637751683593
120.0,-0.0013773428509011865
128.0,-0.0013044492807239294
144.0,0.0002943470317404717
160.0,0.0017006539274007082
176.0,0.002693949732929468
192.0,0.00442354055121541
208.0,0.004371431190520525
224.0,0.00351866171695292
240.0,0.0035328734666109085
256.0,0.004485016223043203
288.0,0.0037205033004283905
320.0,0.004994816146790981
352.0,0.003616842906922102
384.0,0.003973003942519426
416.0,0.003370059421285987
448.0,0.004520437680184841
480.0,0.007722401525825262
512.0,0.010640619322657585
576.0,0.0035359614994376898
640.0,0.0038123743142932653
704.0,0.001770598697476089
768.0,0.001739386934787035
832.0,-0.0027927388437092304
896.0,0.00021180375188123435
960.0,0.0024777573999017477
1024.0,0.0048340740613639355
1152.0,0.0019022306660190225
1280.0,0.004496736451983452
1408.0,0.0012502755271270871
1536.0,-0.003159355605021119
1664.0,-0.0011240140302106738
1792.0,0.0028062760829925537
1920.0,-0.0006189491832628846
2048.0,-0.000601869891397655
2304.0,-0.002219545654952526
2560.0,-0.003020225092768669
2816.0,-0.0040467893704771996
3072.0,-0.002263045636937022
3328.0,-0.003217298537492752
3584.0,0.0008118993137031794
3840.0,0.0023264761548489332
4096.0,-0.0023430786095559597
4608.0,0.0009865083266049623
5120.0,-0.0008930519106797874
5632.0,0.00035137543454766273
6144.0,-0.0016853343695402145
6656.0,-0.0020217413548380136
7168.0,-0.002777906134724617
7680.0,-0.004923766944557428
8192.0,-0.0013858589809387922
9216.0,0.002153021050617099
10240.0,0.0014716044533997774
11264.0,-0.001356140710413456
12288.0,-0.004956411197781563
13312.0,0.002425367943942547
14336.0,0.001509118010289967
end
