version,3.0
numOfCh,1
type,point
parent_name,400-cuts
ch_type,1_1
kcount,1
numberNandB,1
brightnessNandB,1
carpet pos,0
pc,0
Time (ms),CH1 Auto-Correlation
1.0,0.10411731153726578
2.0,0.10122400522232056
3.0,0.09840477257966995
4.0,0.09563470631837845
5.0,0.09297448396682739
6.0,0.09039830416440964
7.0,0.08784317225217819
8.0,0.08529665321111679
9.0,0.0828411802649498
10.0,0.08049598336219788
11.0,0.07818283140659332
12.0,0.07594379782676697
13.0,0.07379034906625748
14.0,0.0716533362865448
15.0,0.0697210356593132
16.0,0.06784814596176147
18.0,0.06418424844741821
20.0,0.060646552592515945
22.0,0.057345449924468994
24.0,0.054363928735256195
26.0,0.051467929035425186
28.0,0.04873741790652275
30.0,0.04624300077557564
32.0,0.04394467547535896
36.0,0.03968535363674164
40.0,0.03557075187563896
44.0,0.03204961493611336
48.0,0.029141781851649284
52.0,0.026347506791353226
56.0,0.023665526881814003
60.0,0.02120766043663025
64.0,0.01937984861433506
72.0,0.01684783585369587
80.0,0.0146932452917099
88.0,0.012564792297780514
96.0,0.010742989368736744
104.0,0.008411940187215805
112.0,0.005859652999788523
120.0,0.003318468341603875
128.0,0.0027183277998119593
144.0,0.002208441961556673
160.0,0.00311938114464283
176.0,0.004870675038546324
192.0,0.007898888550698757
208.0,0.008807385340332985
224.0,0.008556682616472244
240.0,0.007109162863343954
256.0,0.004872783552855253
288.0,0.002761626383289695
320.0,0.000509270466864109
352.0,-0.002931298455223441
384.0,-0.003322850214317441
416.0,-0.0032415296882390976
448.0,-0.00319113302975893
480.0,-0.0037085963413119316
512.0,-0.0029085050337016582
576.0,7.970388833200559e-05
640.0,0.0015323152765631676
704.0,0.005710622761398554
768.0,0.0007715027895756066
832.0,-0.00040957683813758194
896.0,-0.0012721569510176778
960.0,-0.005005196668207645
1024.0,-0.012821141630411148
1152.0,0.000495973858051002
1280.0,0.0031834463588893414
1408.0,0.007512548938393593
1536.0,0.004311615135520697
1664.0,-0.0052772825583815575
1792.0,-0.0051068756729364395
1920.0,-0.000762121519073844
2048.0,-0.001101359841413796
2304.0,-0.004592741373926401
2560.0,0.0037319508846849203
2816.0,0.010096865706145763
3072.0,0.00013052030408289284
3328.0,0.002374235074967146
3584.0,-0.0027858568355441093
3840.0,-0.005219011567533016
4096.0,0.004929327871650457
4608.0,-0.00043615480535663664
5120.0,0.0022120182402431965
5632.0,0.004007982090115547
6144.0,-0.0023545860312879086
6656.0,-0.002899336628615856
7168.0,-0.002112239133566618
7680.0,0.00204388122074306
8192.0,0.0003774686192627996
9216.0,-0.0006565502262674272
10240.0,-0.0024662588257342577
11264.0,-0.0052484190091490746
12288.0,-0.0027219236362725496
13312.0,0.0016641494585201144
14336.0,-0.008093932643532753
end
