version,3.0
numOfCh,1
type,point
parent_name,400-cuts
ch_type,1_1
kcount,1
numberNandB,1
brightnessNandB,1
carpet pos,0
pc,0
Time (ms),CH1 Auto-Correlation
1.0,0.04902743920683861
2.0,0.0473213754594326
3.0,0.0456509031355381
4.0,0.04400933161377907
5.0,0.042417269200086594
6.0,0.04088135436177254
7.0,0.03936167433857918
8.0,0.037850331515073776
9.0,0.03645207732915878
10.0,0.035074759274721146
11.0,0.03375506401062012
12.0,0.03248370811343193
13.0,0.03126755729317665
14.0,0.030085034668445587
15.0,0.028935879468917847
16.0,0.027890874072909355
18.0,0.025815803557634354
20.0,0.023833291605114937
22.0,0.02191891148686409
24.0,0.020264847204089165
26.0,0.018633076921105385
28.0,0.01705143228173256
30.0,0.01563326083123684
32.0,0.014316399581730366
36.0,0.01209177915006876
40.0,0.010075445286929607
44.0,0.008377418853342533
48.0,0.007146533112972975
52.0,0.006022682413458824
56.0,0.005033227149397135
60.0,0.004048770759254694
64.0,0.003181698964908719
72.0,0.0014777043834328651
80.0,0.0006474037072621286
88.0,0.0002778238558676094
96.0,0.0002485601289663464
104.0,0.0007663927972316742
112.0,0.0008709811372682452
120.0,0.00015882904699537903
128.0,-0.0005228767404332757
144.0,-0.001558485790155828
160.0,-0.0019154245965182781
176.0,-0.0010206056758761406
192.0,0.0016582031967118382
208.0,0.0024850680492818356
224.0,0.0030492062214761972
240.0,0.002931957133114338
256.0,0.002064995700493455
288.0,0.00145397474989295
320.0,0.00338276126421988
352.0,0.0031030909158289433
384.0,0.0004209004109725356
416.0,-0.0010450909612700343
448.0,-0.00015999976312741637
480.0,0.0006968388333916664
512.0,0.0005913578206673265
576.0,0.001752005540765822
640.0,0.0020330657716840506
704.0,-0.00015116704162210226
768.0,0.0002567065821494907
832.0,0.0007437660824507475
896.0,-0.0003363156283739954
960.0,0.0015774869825690985
1024.0,0.00048711089766584337
1152.0,-0.0003021389420609921
1280.0,-0.0011522169224917889
1408.0,-0.00024726829724386334
1536.0,-0.0009224073146469891
1664.0,-0.0006618988118134439
1792.0,-0.001346464967355132
1920.0,-0.001436285674571991
2048.0,-0.00031232417677529156
2304.0,-2.9371130949584767e-05
2560.0,-0.0008858160581439734
2816.0,0.0004753459943458438
3072.0,-0.0011249855160713196
3328.0,-0.0014399884967133403
3584.0,-0.001983975525945425
3840.0,-0.0014333437429741025
4096.0,-0.0025881780311465263
4608.0,-0.0010622614063322544
5120.0,0.00014394777826964855
5632.0,0.0014220860321074724
6144.0,0.0017437160713598132
6656.0,0.0007384884520433843
7168.0,-0.00042896257946267724
7680.0,-0.00043783130240626633
8192.0,0.000257387786405161
9216.0,0.00019718980183824897
10240.0,-0.001590405940078199
11264.0,0.0007845966028980911
12288.0,0.0011567360488697886
13312.0,-0.00012045814946759492
14336.0,0.0008595645194873214
end
