version,3.0
numOfCh,1
type,point
parent_name,400-cuts
ch_type,1_1
kcount,1
numberNandB,1
brightnessNandB,1
carpet pos,0
pc,0
Time (ms),CH1 Auto-Correlation
1.0,0.07396852970123291
2.0,0.07171505689620972
3.0,0.06962995231151581
4.0,0.06756764650344849
5.0,0.06558047980070114
6.0,0.06360019743442535
7.0,0.06170181185007095
8.0,0.05982433632016182
9.0,0.05808085948228836
10.0,0.056378073990345
11.0,0.054724931716918945
12.0,0.05308600887656212
13.0,0.05148105323314667
14.0,0.049916382879018784
15.0,0.04838147386908531
16.0,0.04685129225254059
18.0,0.043860841542482376
20.0,0.04109519347548485
22.0,0.03844989836215973
24.0,0.03577421233057976
26.0,0.03331942856311798
28.0,0.031070081517100334
30.0,0.028892479836940765
32.0,0.026716403663158417
36.0,0.022760063409805298
40.0,0.01961599476635456
44.0,0.016970396041870117
48.0,0.01448729820549488
52.0,0.01233944296836853
56.0,0.01065246481448412
60.0,0.009223658591508865
64.0,0.008161759935319424
72.0,0.0071707237511873245
80.0,0.006949648726731539
88.0,0.006345709785819054
96.0,0.005478927865624428
104.0,0.004991411697119474
112.0,0.0038131019100546837
120.0,0.0024816663935780525
128.0,0.0017394585302099586
144.0,0.00031570467399433255
160.0,-0.00126913923304528
176.0,-0.0006371702766045928
192.0,0.00043505633948370814
208.0,0.0007800708408467472
224.0,0.00025337652186863124
240.0,0.0004698783450294286
256.0,-0.0003885914047714323
288.0,-0.004799733869731426
320.0,-0.002893213415518403
352.0,-0.0011542632710188627
384.0,-0.0030656075105071068
416.0,-0.006126728840172291
448.0,-0.006092171184718609
480.0,-0.006740131881088018
512.0,-0.0033546925988048315
576.0,0.001542909536510706
640.0,0.0004490857245400548
704.0,-0.0014323580544441938
768.0,-0.0017282061744481325
832.0,-0.0011703668860718608
896.0,0.002626933855935931
960.0,-0.0001943105016835034
1024.0,-1.5746143617434427e-05
1152.0,-0.0008874248596839607
1280.0,-0.0011186801129952073
1408.0,0.00028011095128022134
1536.0,0.005377940833568573
1664.0,0.0008388294372707605
1792.0,0.0010043379152193666
1920.0,0.0008213616092689335
2048.0,2.868829142244067e-05
2304.0,-0.0020117019303143024
2560.0,-0.0019239952089264989
2816.0,-0.0016080914065241814
3072.0,0.003646615892648697
3328.0,0.002602121327072382
3584.0,0.0002979710989166051
3840.0,-0.0027393971104174852
4096.0,-0.0020131550263613462
4608.0,-7.291635120054707e-05
5120.0,-3.917418871424161e-05
5632.0,-0.000567983603104949
6144.0,0.00022964674280956388
6656.0,-0.0008248499361798167
7168.0,-0.0014862039824947715
7680.0,-0.0008988076006062329
8192.0,-0.00011231355165364221
9216.0,-0.0007874770672060549
10240.0,-0.0005536994431167841
11264.0,-0.0002565296308603138
12288.0,-0.002717900089919567
13312.0,0.003439231775701046
14336.0,-0.0018379715038463473
end
