version,3.0
numOfCh,1
type,point
parent_name,400-cuts
ch_type,1_1
kcount,1
numberNandB,1
brightnessNandB,1
carpet pos,0
pc,0
Time (ms),CH1 Auto-Correlation
1.0,0.04415256530046463
2.0,0.042748864740133286
3.0,0.04136915132403374
4.0,0.04004037007689476
5.0,0.038753531873226166
6.0,0.03750919923186302
7.0,0.036339275538921356
8.0,0.03518397733569145
9.0,0.034106675535440445
10.0,0.03305947780609131
11.0,0.0320722796022892
12.0,0.03109710104763508
13.0,0.030144162476062775
14.0,0.029230507090687752
15.0,0.028350509703159332
16.0,0.027474846690893173
18.0,0.025806237012147903
20.0,0.024165460839867592
22.0,0.022613508626818657
24.0,0.02108236588537693
26.0,0.019634390249848366
28.0,0.018275771290063858
30.0,0.016971899196505547
32.0,0.01575547084212303
36.0,0.013509877026081085
40.0,0.01155661791563034
44.0,0.009781021624803543
48.0,0.008153034374117851
52.0,0.00686902180314064
56.0,0.00583660276606679
60.0,0.005014695692807436
64.0,0.0043670111335814
72.0,0.0030421288684010506
80.0,0.002273998223245144
88.0,0.0014574301894754171
96.0,0.0007357390131801367
104.0,0.0006148905958980322
112.0,0.0007195601356215775
120.0,0.0010847457451745868
128.0,0.0013914360897615552
144.0,0.00036534364335238934
160.0,-0.0007002570200711489
176.0,-0.0003114517021458596
192.0,0.0009201202774420381
208.0,0.0009955362183973193
224.0,0.0002725055383052677
240.0,-0.0003388248442206532
256.0,-0.00047156127402558923
288.0,-0.000615886936429888
320.0,-0.00043521643965505064
352.0,-0.00044446115498431027
384.0,-0.00013184537237975746
416.0,0.000886064488440752
448.0,0.00026425730902701616
480.0,-0.002543820533901453
512.0,-0.003016312839463353
576.0,0.00011394571629352868
640.0,-0.002563860733062029
704.0,-0.002781565999612212
768.0,-0.0023579017724841833
832.0,-0.0010264023439958692
896.0,-0.003771320916712284
960.0,-0.0006628605187870562
1024.0,-0.000834364618640393
1152.0,0.0035964613780379295
1280.0,-0.0010651000775396824
1408.0,-0.0001050506834872067
1536.0,-0.00026034662732854486
1664.0,0.001482048537582159
1792.0,-0.0006049073999747634
1920.0,-0.0024875954259186983
2048.0,0.0002885576686821878
2304.0,-0.0008860952220857143
2560.0,-0.0017121447017416358
2816.0,-0.000374509982066229
3072.0,-0.0004106280393898487
3328.0,0.00029076123610138893
3584.0,0.0017433337634429336
3840.0,0.0013249635230749846
4096.0,-0.0015825529117137194
4608.0,0.0010587999131530523
5120.0,0.0015132088446989655
5632.0,-0.001284091267734766
6144.0,0.00027569386293180287
6656.0,0.0006246938137337565
7168.0,-0.0012034978717565536
7680.0,-0.0008966808090917766
8192.0,0.0002810691948980093
9216.0,0.00016109179705381393
10240.0,0.0006239321664907038
11264.0,-0.0005104553420096636
12288.0,-0.0014690971001982689
13312.0,0.0006484670448116958
14336.0,0.0002703517093323171
end
