version,3.0
numOfCh,1
type,point
parent_name,400-cuts
ch_type,1_1
kcount,1
numberNandB,1
brightnessNandB,1
carpet pos,0
pc,0
Time (ms),CH1 Auto-Correlation
1.0,0.061484139412641525
2.0,0.059637658298015594
3.0,0.0578700415790081
4.0,0.05616195872426033
5.0,0.054540667682886124
6.0,0.052987948060035706
7.0,0.05149238184094429
8.0,0.05000712722539902
9.0,0.04857351630926132
10.0,0.047160692512989044
11.0,0.045767344534397125
12.0,0.04445728287100792
13.0,0.04315290227532387
14.0,0.04187799617648125
15.0,0.04065651074051857
16.0,0.039464764297008514
18.0,0.03731363266706467
20.0,0.035273969173431396
22.0,0.03338273987174034
24.0,0.03171220049262047
26.0,0.030133066698908806
28.0,0.028574882075190544
30.0,0.027104178443551064
32.0,0.025699254125356674
36.0,0.022977987304329872
40.0,0.02036481350660324
44.0,0.017928997054696083
48.0,0.015673203393816948
52.0,0.013536271639168262
56.0,0.011616433970630169
60.0,0.01015619095414877
64.0,0.008805884048342705
72.0,0.006216590292751789
80.0,0.0038320000749081373
88.0,0.0018572518602013588
96.0,0.0006400017300620675
104.0,0.00016204957501031458
112.0,0.00033150866511277854
120.0,0.00023997538664843887
128.0,-0.0004530155274551362
144.0,-0.0009393577929586172
160.0,0.0009788806783035398
176.0,0.003122746478766203
192.0,0.0033887047320604324
208.0,0.0019086950924247503
224.0,0.00048484728904441
240.0,-0.0002524926676414907
256.0,-0.001296368194743991
288.0,-0.0033754457253962755
320.0,-0.005808013025671244
352.0,-0.005606495775282383
384.0,-0.0025904467329382896
416.0,-0.00230701663531363
448.0,-0.0022290723863989115
480.0,-0.0021714891772717237
512.0,-0.0014592010993510485
576.0,0.0015270770527422428
640.0,0.0008091084309853613
704.0,0.0006390944472514093
768.0,-0.0009894206887111068
832.0,-0.00020305959333200008
896.0,0.002199482638388872
960.0,-0.0022826651111245155
1024.0,-0.005159963387995958
1152.0,-0.00031755882082507014
1280.0,-0.0012543111806735396
1408.0,0.0027493711095303297
1536.0,0.0002979545679409057
1664.0,-0.003974191844463348
1792.0,-0.002392323687672615
1920.0,0.0005013643531128764
2048.0,0.0025814662221819162
2304.0,-0.003059749025851488
2560.0,0.0007062931545078754
2816.0,0.0031623607501387596
3072.0,0.001032492727972567
3328.0,-0.0022444683127105236
3584.0,0.00023946403234731406
3840.0,0.0006260809605009854
4096.0,-0.00013866054359823465
4608.0,-0.0008340597851201892
5120.0,-0.0009207235998474061
5632.0,-0.00014876930799800903
6144.0,0.0012410489143803716
6656.0,-0.001792561262845993
7168.0,0.0019598871003836393
7680.0,-0.0021122165489941835
8192.0,0.00391362002119422
9216.0,-0.000624801148660481
10240.0,-0.0007750650984235108
11264.0,0.0002471142215654254
12288.0,-0.0022142662201076746
13312.0,-0.0018716896884143353
14336.0,0.0017086559673771262
end
