version,3.0
numOfCh,1
type,point
parent_name,400-cuts
ch_type,1_1
kcount,1
numberNandB,1
brightnessNandB,1
carpet pos,0
pc,0
Time (ms),CH1 Auto-Correlation
1.0,0.07594534009695053
2.0,0.07364404201507568
3.0,0.07134701311588287
4.0,0.06913374364376068
5.0,0.06702256202697754
6.0,0.06496471911668777
7.0,0.06294646859169006
8.0,0.06098145991563797
9.0,0.05907431244850159
10.0,0.05721201375126839
11.0,0.05538642033934593
12.0,0.05359606072306633
13.0,0.051858995109796524
14.0,0.05017726495862007
15.0,0.048537157475948334
16.0,0.04691757261753082
18.0,0.04372558742761612
20.0,0.0406617745757103
22.0,0.037887658923864365
24.0,0.03533312678337097
26.0,0.03280932828783989
28.0,0.030417203903198242
30.0,0.0282977856695652
32.0,0.02640586346387863
36.0,0.02294669672846794
40.0,0.019953669980168343
44.0,0.017300091683864594
48.0,0.014896526001393795
52.0,0.012951444834470749
56.0,0.011416183784604073
60.0,0.010145485401153564
64.0,0.009091903455555439
72.0,0.006967110559344292
80.0,0.005573648028075695
88.0,0.003899800591170788
96.0,0.0020067545119673014
104.0,0.00038256400148384273
112.0,-0.0012400189880281687
120.0,-0.002518831752240658
128.0,-0.003488085698336363
144.0,-0.004605318885296583
160.0,-0.005471299402415752
176.0,-0.005942749325186014
192.0,-0.004760966170579195
208.0,-0.002189232502132654
224.0,-0.0009621609351597726
240.0,-0.0019935057498514652
256.0,-0.0026296526193618774
288.0,-0.0015148173552006483
320.0,0.0017290045507252216
352.0,0.004429984372109175
384.0,0.0011598332785069942
416.0,-0.002352963201701641
448.0,-0.0010133924661204219
480.0,0.0023549473844468594
512.0,0.0053625935688614845
576.0,0.0023611050564795732
640.0,0.002354938769713044
704.0,9.600549674360082e-05
768.0,-0.008127208799123764
832.0,-0.007359168492257595
896.0,0.005082464776933193
960.0,0.007988075725734234
1024.0,0.00368721061386168
1152.0,-0.006292680278420448
1280.0,-0.0013176363427191973
1408.0,-0.004931232426315546
1536.0,0.0032449623104184866
1664.0,0.001448861905373633
1792.0,-0.0027484074234962463
1920.0,-0.0020947649609297514
2048.0,-0.0015980819007381797
2304.0,0.0025301736313849688
2560.0,-0.00029197841649875045
2816.0,-7.891049608588219e-05
3072.0,0.0011053147027269006
3328.0,-0.001673440565355122
3584.0,-0.002301974454894662
3840.0,-0.0005447329604066908
4096.0,4.230623380863108e-05
4608.0,-0.0002105606981785968
5120.0,-0.0008155473624356091
5632.0,0.0010733117815107107
6144.0,0.001770976115949452
6656.0,0.0008506751619279385
7168.0,-0.0013241907581686974
7680.0,-0.0011204153997823596
8192.0,0.000821775000076741
9216.0,0.0012755078496411443
10240.0,-0.00035415467573329806
11264.0,-0.0001391166733810678
12288.0,-0.00299503724090755
13312.0,-0.0011165561154484749
14336.0,-0.002012046752497554
end
