version,3.0
numOfCh,1
type,point
parent_name,400-cuts
ch_type,1_1
kcount,1
numberNandB,1
brightnessNandB,1
carpet pos,0
pc,0
Time (ms),CH1 Auto-Correlation
1.0,0.029917247593402863
2.0,0.029106713831424713
3.0,0.02831478975713253
4.0,0.02754676155745983
5.0,0.02681536227464676
6.0,0.026086097583174706
7.0,0.025366827845573425
8.0,0.02468184567987919
9.0,0.023999502882361412
10.0,0.02336360141634941
11.0,0.022738231346011162
12.0,0.02214210294187069
13.0,0.021544022485613823
14.0,0.02095692977309227
15.0,0.020403405651450157
16.0,0.01985962875187397
18.0,0.018826259300112724
20.0,0.01785959117114544
22.0,0.01695128343999386
24.0,0.01612986996769905
26.0,0.015387095510959625
28.0,0.014716445468366146
30.0,0.014104089699685574
32.0,0.013532940298318863
36.0,0.012536942027509212
40.0,0.011646817438304424
44.0,0.010736824944615364
48.0,0.009845778346061707
52.0,0.009138398803770542
56.0,0.008516689762473106
60.0,0.00795808807015419
64.0,0.007479896768927574
72.0,0.006756072398275137
80.0,0.00641483161598444
88.0,0.0058746798895299435
96.0,0.005226821172982454
104.0,0.004760421812534332
112.0,0.0043405769392848015
120.0,0.0040109180845320225
128.0,0.003304466139525175
144.0,0.0026902551762759686
160.0,0.0025570658035576344
176.0,0.002785101067274809
192.0,0.0028192210011184216
208.0,0.0022274975199252367
224.0,0.0014610837679356337
240.0,0.0010337335988879204
256.0,0.0010647070594131947
288.0,0.00140563421882689
320.0,0.0006672257441096008
352.0,0.001273604342713952
384.0,0.001957667525857687
416.0,0.0027787103317677975
448.0,0.0023639295250177383
480.0,0.0016036811284720898
512.0,0.0018422674620524049
576.0,0.0004458492621779442
640.0,0.0010207758750766516
704.0,0.00111004791688174
768.0,0.00033787093707360327
832.0,0.0010533896274864674
896.0,0.002102286322042346
960.0,0.0018867214675992727
1024.0,0.0005763649824075401
1152.0,0.00030221734778024256
1280.0,0.0008012563921511173
1408.0,0.0012868171324953437
1536.0,0.0020779999904334545
1664.0,0.0005975788226351142
1792.0,-0.0005826068227179348
1920.0,0.0014754004077985883
2048.0,-5.602488818112761e-05
2304.0,-0.001989265438169241
2560.0,0.00013866786321159452
2816.0,-0.00047813792480155826
3072.0,-8.898253145162016e-05
3328.0,-0.0014339288463816047
3584.0,0.0002125433093169704
3840.0,-0.002272862708196044
4096.0,0.0006415158859454095
4608.0,6.402525468729436e-05
5120.0,5.724202128476463e-05
5632.0,-0.0012799707474187016
6144.0,-0.0012195059098303318
6656.0,-0.0007421862683258951
7168.0,-0.003034139284864068
7680.0,-0.0009834066731855273
8192.0,-0.002088343258947134
9216.0,-0.0011957538081333041
10240.0,0.0003804533916991204
11264.0,0.0024430667981505394
12288.0,0.002485628705471754
13312.0,0.00027147328364662826
14336.0,-0.00100473512429744
end
