version,3.0
numOfCh,1
type,point
parent_name,400-cuts
ch_type,1_1
kcount,1
numberNandB,1
brightnessNandB,1
carpet pos,0
pc,0
Time (ms),CH1 Auto-Correlation
1.0,0.06509233266115189
2.0,0.06282840669155121
3.0,0.06064430996775627
4.0,0.058603864163160324
5.0,0.05664375051856041
6.0,0.054758764803409576
7.0,0.052878282964229584
8.0,0.051043808460235596
9.0,0.04928520321846008
10.0,0.04755593091249466
11.0,0.04587165638804436
12.0,0.04425925761461258
13.0,0.04265831410884857
14.0,0.04107317328453064
15.0,0.03961873799562454
16.0,0.03820952773094177
18.0,0.035659994930028915
20.0,0.03331320360302925
22.0,0.03109080158174038
24.0,0.029149698093533516
26.0,0.027483005076646805
28.0,0.026074958965182304
30.0,0.024885406717658043
32.0,0.023768112063407898
36.0,0.02193688042461872
40.0,0.020254554226994514
44.0,0.01852378062903881
48.0,0.017017126083374023
52.0,0.015553583391010761
56.0,0.01389303244650364
60.0,0.012377878651022911
64.0,0.010796627029776573
72.0,0.007455643732100725
80.0,0.00400941725820303
88.0,0.0011909506283700466
96.0,-0.0006929409573785961
104.0,-0.001951523358002305
112.0,-0.0028205662965774536
120.0,-0.0036502729635685682
128.0,-0.004915030673146248
144.0,-0.006216599605977535
160.0,-0.005690984893590212
176.0,-0.0043337587267160416
192.0,-0.0033718235790729523
208.0,-0.0014731851406395435
224.0,0.00062128237914294
240.0,0.0019810490775853395
256.0,0.002216698369011283
288.0,-0.0005862642428837717
320.0,-0.0005800536600872874
352.0,-0.000613001175224781
384.0,-2.079262958432082e-05
416.0,0.0026604977902024984
448.0,0.003567214123904705
480.0,0.003049702849239111
512.0,0.0006983085768297315
576.0,-0.0031450954265892506
640.0,-0.0009656477486714721
704.0,0.003490923438221216
768.0,0.004466473124921322
832.0,0.0005302743520587683
896.0,-0.001229647547006607
960.0,-0.0016490131383761764
1024.0,0.0012580363545566797
1152.0,0.0007195385405793786
1280.0,-0.0036392586771398783
1408.0,-0.0015033477684482932
1536.0,-0.00017517711967229843
1664.0,0.0010401119943708181
1792.0,-0.002552054123952985
1920.0,0.0011963273864239454
2048.0,0.0028190298471599817
2304.0,0.0021922967862337828
2560.0,0.003448179457336664
2816.0,-0.00319387624040246
3072.0,-0.0008455239003524184
3328.0,0.0008366008987650275
3584.0,-0.002654723823070526
3840.0,-0.0009025759645737708
4096.0,0.0005631044041365385
4608.0,-0.001658545108512044
5120.0,-0.0009289677836932242
5632.0,0.0007380625465884805
6144.0,0.0020743936765938997
6656.0,0.002582284389063716
7168.0,-0.000518880900926888
7680.0,-0.0008352504810318351
8192.0,0.0010210650507360697
9216.0,-0.0006942882318980992
10240.0,-0.0009235129109583795
11264.0,-0.003116370178759098
12288.0,-0.0001038950213114731
13312.0,-0.0009164885268546641
14336.0,-0.0001746634516166523
end
