version,3.0
numOfCh,1
type,point
parent_name,400-cuts
ch_type,1_1
kcount,1
numberNandB,1
brightnessNandB,1
carpet pos,0
pc,0
Time (ms),CH1 Auto-Correlation
1.0,0.03388672322034836
2.0,0.03291301056742668
3.0,0.03197072073817253
4.0,0.031064443290233612
5.0,0.030175112187862396
6.0,0.02928921766579151
7.0,0.028414683416485786
8.0,0.02758202888071537
9.0,0.026776863262057304
10.0,0.025995902717113495
11.0,0.025214726105332375
12.0,0.024461589753627777
13.0,0.023736000061035156
14.0,0.02301023341715336
15.0,0.022320937365293503
16.0,0.021661367267370224
18.0,0.020435912534594536
20.0,0.01931387558579445
22.0,0.018205709755420685
24.0,0.017143074423074722
26.0,0.016118301078677177
28.0,0.01517895981669426
30.0,0.014284268021583557
32.0,0.013423246331512928
36.0,0.011883269995450974
40.0,0.010654737241566181
44.0,0.009518778882920742
48.0,0.008415409363806248
52.0,0.007503799628466368
56.0,0.006705396343022585
60.0,0.006034088786691427
64.0,0.005403193645179272
72.0,0.004406812600791454
80.0,0.0032958423253148794
88.0,0.002289007417857647
96.0,0.0014452944742515683
104.0,0.0007483424851670861
112.0,0.00031102512730285525
120.0,-0.00034079959732480347
128.0,-0.001011985819786787
144.0,-0.002305020112544298
160.0,-0.002835454884916544
176.0,-0.002559913555160165
192.0,-0.0013345851330086589
208.0,-0.0005833427421748638
224.0,-0.0009542641928419471
240.0,-0.002131446497514844
256.0,-0.003135533770546317
288.0,-0.0029501370154321194
320.0,-0.0004568470176309347
352.0,2.7107458663522266e-05
384.0,-0.0006070648087188601
416.0,-0.0006589022814296186
448.0,-0.00036939463461749256
480.0,0.00045878870878368616
512.0,0.0014396756887435913
576.0,0.000679957156535238
640.0,-0.0008932712371461093
704.0,0.0008723855717107654
768.0,6.985209620324895e-05
832.0,-0.00043002452002838254
896.0,-0.0010107305133715272
960.0,-0.003368860110640526
1024.0,-0.0029628013726323843
1152.0,0.0016397073632106185
1280.0,-0.00017872860189527273
1408.0,0.00038693976239301264
1536.0,-0.002448498038575053
1664.0,-0.0010436420561745763
1792.0,-0.0005606445483863354
1920.0,0.0010382388718426228
2048.0,0.0023345418740063906
2304.0,0.0012615049490705132
2560.0,0.0009532622643746436
2816.0,-0.001811323338188231
3072.0,-0.00028696851222775877
3328.0,-0.0004482659278437495
3584.0,-0.0007895364542491734
3840.0,0.00030426596640609205
4096.0,-4.5049175241729245e-05
4608.0,-0.000726348371244967
5120.0,-0.0011541867861524224
5632.0,-0.00024062349984887987
6144.0,0.00019859675376210362
6656.0,-0.00012670201249420643
7168.0,-0.0009263414540328085
7680.0,0.0007587754516862333
8192.0,9.690390288596973e-05
9216.0,0.00020247728389222175
10240.0,0.0003990955010522157
11264.0,-1.0431019290990662e-05
12288.0,0.00039360023220069706
13312.0,9.543079795548692e-05
14336.0,-0.0006404010928235948
end
