version,3.0
numOfCh,1
type,point
parent_name,400-cuts
ch_type,1_1
kcount,1
numberNandB,1
brightnessNandB,1
carpet pos,0
pc,0
Time (ms),CH1 Auto-Correlation
1.0,0.10440053790807724
2.0,0.10133382678031921
3.0,0.09830689430236816
4.0,0.09546217322349548
5.0,0.09267883747816086
6.0,0.08997505903244019
7.0,0.08734500408172607
8.0,0.08476945012807846
9.0,0.08228415995836258
10.0,0.07981512695550919
11.0,0.07741006463766098
12.0,0.0751008689403534
13.0,0.07290069013834
14.0,0.07070397585630417
15.0,0.06853096187114716
16.0,0.06642143428325653
18.0,0.062409527599811554
20.0,0.05890733003616333
22.0,0.055714115500450134
24.0,0.0526396818459034
26.0,0.04955580458045006
28.0,0.04650672525167465
30.0,0.04351826384663582
32.0,0.040731657296419144
36.0,0.03547035902738571
40.0,0.030642924830317497
44.0,0.026727085933089256
48.0,0.023563582450151443
52.0,0.02114645577967167
56.0,0.018880309537053108
60.0,0.01680006831884384
64.0,0.015107777900993824
72.0,0.010990153066813946
80.0,0.0070427642203867435
88.0,0.003787921043112874
96.0,0.0013000958133488894
104.0,-0.0010967266280204058
112.0,-0.003655792912468314
120.0,-0.005374966189265251
128.0,-0.0066496566869318485
144.0,-0.0073579163290560246
160.0,-0.008297936990857124
176.0,-0.007958738133311272
192.0,-0.007151107303798199
208.0,-0.0031413445249199867
224.0,0.00021571555407717824
240.0,0.004079542588442564
256.0,0.006452009081840515
288.0,0.008343475870788097
320.0,0.008358906023204327
352.0,0.007000607904046774
384.0,0.0012142494088038802
416.0,-0.0034153570886701345
448.0,-0.0028134852182120085
480.0,-0.006091328337788582
512.0,-0.007587868254631758
576.0,-0.00041042501106858253
640.0,0.003992283716797829
704.0,-0.00047251000069081783
768.0,-0.0063933804631233215
832.0,-0.002715073758736253
896.0,0.004995637573301792
960.0,0.003470763098448515
1024.0,0.0010566659038886428
1152.0,-0.0013306367909535766
1280.0,0.0032675534021109343
1408.0,-0.00036896258825436234
1536.0,0.002649785252287984
1664.0,-0.001459204126149416
1792.0,-1.3124252973284456e-06
1920.0,0.0021079652942717075
2048.0,0.004096147138625383
2304.0,0.0008289234829135239
2560.0,-0.0019492644350975752
2816.0,-0.0034686392173171043
3072.0,-0.0015023892046883702
3328.0,0.003326067002490163
3584.0,0.006804000120609999
3840.0,0.0006953253177925944
4096.0,-0.0032883535604923964
4608.0,-0.0008338367915712297
5120.0,-0.0005119616398587823
5632.0,0.002096923068165779
6144.0,-0.0031393845565617085
6656.0,0.0031104618683457375
7168.0,-0.002770299557596445
7680.0,-0.0011326867388561368
8192.0,-0.0030564344488084316
9216.0,0.0008706399239599705
10240.0,0.0012689545983448625
11264.0,-0.004132586997002363
12288.0,-0.0021130586974322796
13312.0,-0.005334044340997934
14336.0,-0.0033075676765292883
end
