version,3.0
numOfCh,1
type,point
parent_name,400-cuts
ch_type,1_1
kcount,1
numberNandB,1
brightnessNandB,1
carpet pos,0
pc,0
Time (ms),CH1 Auto-Correlation
1.0,0.030092010274529457
2.0,0.029175950214266777
3.0,0.028282834216952324
4.0,0.027439575642347336
5.0,0.026633670553565025
6.0,0.025866765528917313
7.0,0.02511901967227459
8.0,0.02437770366668701
9.0,0.023665884509682655
10.0,0.023002007976174355
11.0,0.02237400971353054
12.0,0.02175271324813366
13.0,0.021127447485923767
14.0,0.02051125280559063
15.0,0.019923893734812737
16.0,0.019344499334692955
18.0,0.018253348767757416
20.0,0.017220962792634964
22.0,0.016209568828344345
24.0,0.015275572426617146
26.0,0.01442199107259512
28.0,0.013649668544530869
30.0,0.012932543642818928
32.0,0.012249383144080639
36.0,0.010987676680088043
40.0,0.00988230761140585
44.0,0.008830656297504902
48.0,0.007821204140782356
52.0,0.006909187883138657
56.0,0.0060749598778784275
60.0,0.005415997002273798
64.0,0.004972204566001892
72.0,0.00442017475143075
80.0,0.0034442273899912834
88.0,0.0023979730904102325
96.0,0.00149432267062366
104.0,0.000912524526938796
112.0,0.0004315700789447874
120.0,-7.825524517102167e-05
128.0,-0.0005554023082368076
144.0,-0.0008975141681730747
160.0,-0.000999174197204411
176.0,-0.0008798889466561377
192.0,-0.0010483624646440148
208.0,-0.0010722276056185365
224.0,-0.0007575374329462647
240.0,-0.0005742834764532745
256.0,-0.00027677876641973853
288.0,-0.00013726565521210432
320.0,-0.0009385855519212782
352.0,-0.0010100548388436437
384.0,-7.729395292699337e-05
416.0,0.00047539256047457457
448.0,0.0006058142171241343
480.0,0.00023567750758957118
512.0,-0.0007041359785944223
576.0,-1.342967698292341e-05
640.0,0.00132103415671736
704.0,0.0009176722378470004
768.0,-0.0013368306681513786
832.0,-0.0012883540475741029
896.0,-0.0006408542394638062
960.0,0.001662408816628158
1024.0,0.000942969461902976
1152.0,-0.00023538303503300995
1280.0,-0.0013693905202671885
1408.0,-0.001651027356274426
1536.0,0.00015628276742063463
1664.0,0.0007752646342851222
1792.0,0.0012560983886942267
1920.0,-0.001421575085259974
2048.0,-0.0014965175651013851
2304.0,-0.0006420777062885463
2560.0,0.0002769150596577674
2816.0,-0.0002375843614572659
3072.0,-0.0009753998019732535
3328.0,-0.0004632883064914495
3584.0,-6.916337588336319e-05
3840.0,0.00019928457913920283
4096.0,0.0008439239463768899
4608.0,-6.422753358492628e-05
5120.0,-0.00030658498872071505
5632.0,-0.0007085420656949282
6144.0,0.0005898512899875641
6656.0,6.300957466010004e-05
7168.0,1.3217904779594392e-05
7680.0,-0.00034681064425967634
8192.0,0.0010335070546716452
9216.0,-0.00012799171963706613
10240.0,-0.0005212763207964599
11264.0,0.00012695053010247648
12288.0,0.00029066563001833856
13312.0,-0.0008596550324000418
14336.0,-0.0020171720534563065
end
