version,3.0
numOfCh,1
type,point
parent_name,400-cuts
ch_type,1_1
kcount,1
numberNandB,1
brightnessNandB,1
carpet pos,0
pc,0
Time (ms),CH1 Auto-Correlation
1.0,0.06466478854417801
2.0,0.06264649331569672
3.0,0.060761015862226486
4.0,0.058910612016916275
5.0,0.057090017944574356
6.0,0.055303189903497696
7.0,0.05354105681180954
8.0,0.051837094128131866
9.0,0.05015832930803299
10.0,0.048518795520067215
11.0,0.04688920080661774
12.0,0.04527668654918671
13.0,0.04374462366104126
14.0,0.04225324094295502
15.0,0.04080668091773987
16.0,0.03935703635215759
18.0,0.03671697527170181
20.0,0.034299515187740326
22.0,0.032046448439359665
24.0,0.02987976372241974
26.0,0.027831794694066048
28.0,0.025914954021573067
30.0,0.024129213765263557
32.0,0.022404180839657784
36.0,0.019137298688292503
40.0,0.016330726444721222
44.0,0.01408641878515482
48.0,0.012447260320186615
52.0,0.011397427879273891
56.0,0.010450919158756733
60.0,0.009403029456734657
64.0,0.008262496441602707
72.0,0.006307435687631369
80.0,0.004620483610779047
88.0,0.0030813487246632576
96.0,0.0013938365736976266
104.0,-0.00027271281578578055
112.0,-0.0010082876542583108
120.0,-0.0011242203181609511
128.0,-0.00080819649156183
144.0,-0.0007836955483071506
160.0,0.0003439925203565508
176.0,0.002155566355213523
192.0,0.003349103033542633
208.0,0.004380710422992706
224.0,0.004166468977928162
240.0,0.0024061333388090134
256.0,0.0016218656674027443
288.0,0.003094693413004279
320.0,0.003136691637337208
352.0,0.0004916780162602663
384.0,-0.0004354403354227543
416.0,-0.0003629836137406528
448.0,0.002149326493963599
480.0,0.002572947181761265
512.0,0.003160756314173341
576.0,0.0014958912506699562
640.0,0.0010112287709489465
704.0,0.0009986739605665207
768.0,0.0021588944364339113
832.0,-0.00121585326269269
896.0,-0.0023021406959742308
960.0,-0.0034780073910951614
1024.0,-0.002725196536630392
1152.0,0.002633959287777543
1280.0,0.0008391799638047814
1408.0,-0.00029860413633286953
1536.0,0.0006734248017892241
1664.0,-0.0007355539710260928
1792.0,-0.0024565954227000475
1920.0,0.0021201602648943663
2048.0,7.072602602420375e-05
2304.0,-0.0006594387232325971
2560.0,0.00030294564203359187
2816.0,-0.0012212685542181134
3072.0,0.00019798266293946654
3328.0,-0.0002357872435823083
3584.0,-0.0003861880977638066
3840.0,0.00063909194432199
4096.0,-0.0015112829860299826
4608.0,-0.0026336528826504946
5120.0,-0.0027112276293337345
5632.0,0.0008386381668969989
6144.0,-0.0016871949192136526
6656.0,-0.0023308719974011183
7168.0,-5.8003453887067735e-05
7680.0,-0.0014713688287883997
8192.0,0.002368171466514468
9216.0,0.0018197235185652971
10240.0,-0.00016868601960595697
11264.0,-0.00015278013597708195
12288.0,-0.0010070393327623606
13312.0,0.00016861464246176183
14336.0,0.0006415563984774053
end
