version,3.0
numOfCh,1
type,point
parent_name,400-cuts
ch_type,1_1
kcount,1
numberNandB,1
brightnessNandB,1
carpet pos,0
pc,0
Time (ms),CH1 Auto-Correlation
1.0,0.03290221840143204
2.0,0.031820137053728104
3.0,0.030789073556661606
4.0,0.029793698340654373
5.0,0.028833093121647835
6.0,0.02791973203420639
7.0,0.02703743241727352
8.0,0.0262137483805418
9.0,0.025462688878178596
10.0,0.02471807226538658
11.0,0.023995622992515564
12.0,0.02331484667956829
13.0,0.0226131584495306
14.0,0.02193622477352619
15.0,0.021268952637910843
16.0,0.020629700273275375
18.0,0.01939682476222515
20.0,0.018229899927973747
22.0,0.01714053377509117
24.0,0.016080381348729134
26.0,0.015011699870228767
28.0,0.01395222544670105
30.0,0.012953659519553185
32.0,0.011996735818684101
36.0,0.010318982414901257
40.0,0.008855737745761871
44.0,0.007652421947568655
48.0,0.006616873666644096
52.0,0.005741472356021404
56.0,0.005072352010756731
60.0,0.004480653442442417
64.0,0.003919624723494053
72.0,0.002858594059944153
80.0,0.0022394766565412283
88.0,0.0020945926662534475
96.0,0.002206021687015891
104.0,0.0023321781773120165
112.0,0.002284956630319357
120.0,0.0020956348162144423
128.0,0.001784626510925591
144.0,0.0008832322200760245
160.0,-0.00032575224759057164
176.0,-0.001415139646269381
192.0,-0.0011084172874689102
208.0,-0.00096946582198143
224.0,-0.000951436348259449
240.0,-0.0005498637910932302
256.0,2.1813051716890186e-05
288.0,0.0008005902636796236
320.0,-0.00014794706657994539
352.0,-0.0009338764939457178
384.0,-9.718734509078786e-05
416.0,0.0006289441371336579
448.0,0.0005864872946403921
480.0,0.00029804749647155404
512.0,0.002197380643337965
576.0,0.00018926833581645042
640.0,-0.0007666786550544202
704.0,-0.0008257615845650434
768.0,-0.0007469840929843485
832.0,2.7840829716296867e-05
896.0,-0.0002219575399067253
960.0,0.0009857348632067442
1024.0,0.0015455154934898019
1152.0,0.0011035407660529017
1280.0,0.0007277214899659157
1408.0,0.0002662493207026273
1536.0,-0.0014284742064774036
1664.0,-0.00149422453250736
1792.0,0.0004187425074633211
1920.0,-0.0006053258548490703
2048.0,-0.0006666015251539648
2304.0,-0.001143003348261118
2560.0,-0.0004456924507394433
2816.0,-0.0013465274823829532
3072.0,0.000898447644431144
3328.0,-0.00034625569242052734
3584.0,-0.0004819153400603682
3840.0,0.0012134142452850938
4096.0,0.00133740424644202
4608.0,-0.00048724765656515956
5120.0,-0.00035210500936955214
5632.0,-0.0009331885958090425
6144.0,-0.00033950782380998135
6656.0,-0.0015495067927986383
7168.0,-0.0003625989775173366
7680.0,6.768829189240932e-05
8192.0,0.00030407350277528167
9216.0,4.281724613974802e-05
10240.0,0.00018398795509710908
11264.0,0.00028675852809101343
12288.0,0.0005509682814590633
13312.0,0.0003175820456817746
14336.0,2.7324735128786415e-05
end
