version,3.0
numOfCh,1
type,point
parent_name,400-cuts
ch_type,1_1
kcount,1
numberNandB,1
brightnessNandB,1
carpet pos,0
pc,0
Time (ms),CH1 Auto-Correlation
1.0,0.08965764939785004
2.0,0.08702912926673889
3.0,0.08447631448507309
4.0,0.08199706673622131
5.0,0.07950719445943832
6.0,0.07707235217094421
7.0,0.07474616914987564
8.0,0.07254820317029953
9.0,0.07036431133747101
10.0,0.06823167949914932
11.0,0.06615585088729858
12.0,0.06409996002912521
13.0,0.06214362382888794
14.0,0.06022357568144798
15.0,0.058444757014513016
16.0,0.05677362158894539
18.0,0.05358937382698059
20.0,0.05066400021314621
22.0,0.04790285602211952
24.0,0.04543798044323921
26.0,0.04308445379137993
28.0,0.04091763496398926
30.0,0.0390017144382
32.0,0.03727778419852257
36.0,0.03454166278243065
40.0,0.03208290785551071
44.0,0.029587840661406517
48.0,0.027091508731245995
52.0,0.024584995582699776
56.0,0.022383391857147217
60.0,0.020380564033985138
64.0,0.018035784363746643
72.0,0.01323217898607254
80.0,0.00901944749057293
88.0,0.007077060639858246
96.0,0.005846949759870768
104.0,0.005391938611865044
112.0,0.004952013026922941
120.0,0.003612290369346738
128.0,0.002120895544067025
144.0,0.001072365092113614
160.0,0.0007401040056720376
176.0,0.00014636873675044626
192.0,0.0004395819269120693
208.0,-0.001266110222786665
224.0,-0.0031402907334268093
240.0,-0.0023490514140576124
256.0,-0.0012103421613574028
288.0,0.00028251169715076685
320.0,-0.0025556592736393213
352.0,-0.0019585227128118277
384.0,-0.004475518129765987
416.0,-0.004395339172333479
448.0,0.0003026954655069858
480.0,0.005568209104239941
512.0,0.005154503043740988
576.0,0.00216230982914567
640.0,0.002895399695262313
704.0,-0.000896494253538549
768.0,0.007314104121178389
832.0,0.004574926570057869
896.0,-0.001444243360310793
960.0,-0.005277020391076803
1024.0,-0.008920150808990002
1152.0,-0.001584469573572278
1280.0,0.003069936763495207
1408.0,0.0011287053348496556
1536.0,-0.0005426005809567869
1664.0,-0.0003183921508025378
1792.0,-0.004284827969968319
1920.0,0.0015025432221591473
2048.0,0.0012415432138368487
2304.0,0.0045960647985339165
2560.0,0.0007180303218774498
2816.0,-0.0009095720597542822
3072.0,0.0021031685173511505
3328.0,-0.006327712908387184
3584.0,-0.001943279174156487
3840.0,-0.006101037375628948
4096.0,-0.008887229487299919
4608.0,-0.0004301728622522205
5120.0,-0.0018326742574572563
5632.0,-0.0019045108929276466
6144.0,-0.003561911638826132
6656.0,-0.0028623684775084257
7168.0,0.0020854626782238483
7680.0,0.003120272886008024
8192.0,0.0013177996734157205
9216.0,0.0033814578782767057
10240.0,0.0022319236304610968
11264.0,0.0018440564163029194
12288.0,-0.00031662199762649834
13312.0,-0.0024316313210874796
14336.0,-0.0031368050258606672
end
