version,3.0
numOfCh,1
type,point
parent_name,400-cuts
ch_type,1_1
kcount,1
numberNandB,1
brightnessNandB,1
carpet pos,0
pc,0
Time (ms),CH1 Auto-Correlation
1.0,0.0678957998752594
2.0,0.06587310135364532
3.0,0.06391289830207825
4.0,0.06196822598576546
5.0,0.060136497020721436
6.0,0.05830966681241989
7.0,0.05650479719042778
8.0,0.054727084934711456
9.0,0.05299367755651474
10.0,0.051336869597435
11.0,0.04972422122955322
12.0,0.048205964267253876
13.0,0.04669414460659027
14.0,0.0452214814722538
15.0,0.04377871751785278
16.0,0.042370423674583435
18.0,0.03975807875394821
20.0,0.03732763230800629
22.0,0.034961193799972534
24.0,0.032637014985084534
26.0,0.03037741407752037
28.0,0.0282471664249897
30.0,0.026236288249492645
32.0,0.02435273677110672
36.0,0.020886151120066643
40.0,0.017868319526314735
44.0,0.01530073769390583
48.0,0.012876905500888824
52.0,0.01065494678914547
56.0,0.009063147008419037
60.0,0.007659638300538063
64.0,0.006316027138382196
72.0,0.004250263329595327
80.0,0.0024870585184544325
88.0,0.0015743219992145896
96.0,0.0010463673388585448
104.0,0.000381416582968086
112.0,-0.000496506632771343
120.0,-0.00106317107565701
128.0,-0.0011399645591154695
144.0,1.5375973816844635e-05
160.0,0.0004129420267418027
176.0,0.0005033600609749556
192.0,0.000752589083276689
208.0,-0.00023984527797438204
224.0,-0.0009383909055031836
240.0,-0.00025834087864495814
256.0,-0.00030759244691580534
288.0,0.0017029161099344492
320.0,0.004029323812574148
352.0,0.0011392158921808004
384.0,-8.867653377819806e-05
416.0,-0.0005575840477831662
448.0,-0.00021322637621778995
480.0,0.000688722007907927
512.0,-0.0013021535705775023
576.0,-0.0057768672704696655
640.0,-0.0007170999888330698
704.0,-0.0013973694294691086
768.0,0.000621310668066144
832.0,0.003306710859760642
896.0,-0.0011895614443346858
960.0,0.0035688558127731085
1024.0,0.005085311364382505
1152.0,0.0041086673736572266
1280.0,0.0025906709488481283
1408.0,-0.0035520971287041903
1536.0,-0.0032199020497500896
1664.0,-0.0005668760277330875
1792.0,-0.002165315905585885
1920.0,-0.0020131354685872793
2048.0,-0.0020888822618871927
2304.0,0.0011904241982847452
2560.0,-0.00021964928600937128
2816.0,-0.001210886868648231
3072.0,-0.0029794913716614246
3328.0,-0.0003047118952963501
3584.0,0.002103283302858472
3840.0,5.253554627415724e-05
4096.0,0.0020191145595163107
4608.0,-0.0014272094704210758
5120.0,0.0007889081607572734
5632.0,-0.0028995138127356768
6144.0,0.002066249493509531
6656.0,-0.0013381339376792312
7168.0,-0.00023444426187779754
7680.0,0.0007354141562245786
8192.0,-0.0020133142825216055
9216.0,-0.0007567022694274783
10240.0,-0.0012594676809385419
11264.0,-0.0009078288567252457
12288.0,0.0009242211235687137
13312.0,0.0019798018038272858
14336.0,0.001435263198800385
end
