version,3.0
numOfCh,1
type,point
parent_name,400-cuts
ch_type,1_1
kcount,1
numberNandB,1
brightnessNandB,1
carpet pos,0
pc,0
Time (ms),CH1 Auto-Correlation
1.0,0.06623522937297821
2.0,0.06438356637954712
3.0,0.06257657706737518
4.0,0.06090518832206726
5.0,0.05930033698678017
6.0,0.05772930756211281
7.0,0.05617287755012512
8.0,0.05465106666088104
9.0,0.05320503190159798
10.0,0.05175861716270447
11.0,0.05039625242352486
12.0,0.049128368496894836
13.0,0.04789181426167488
14.0,0.04667770490050316
15.0,0.04550117254257202
16.0,0.044342465698719025
18.0,0.042190466076135635
20.0,0.04020677134394646
22.0,0.03822043910622597
24.0,0.03633292019367218
26.0,0.03458127751946449
28.0,0.032957710325717926
30.0,0.03142757713794708
32.0,0.029986049979925156
36.0,0.027200039476156235
40.0,0.024741478264331818
44.0,0.02266368828713894
48.0,0.02068330906331539
52.0,0.018675290048122406
56.0,0.016769250854849815
60.0,0.015060356818139553
64.0,0.013752502389252186
72.0,0.01183425635099411
80.0,0.009966710582375526
88.0,0.008475563488900661
96.0,0.007363319396972656
104.0,0.006609087344259024
112.0,0.005720934830605984
120.0,0.004198949784040451
128.0,0.002090331632643938
144.0,0.001039383583702147
160.0,0.0014879469526931643
176.0,0.0013094547903165221
192.0,0.0009203381487168372
208.0,0.0004338366852607578
224.0,0.00014249965897761285
240.0,-0.000431320775533095
256.0,-0.0019522368675097823
288.0,-0.0014806095277890563
320.0,-0.0019857147708535194
352.0,-0.002146543934941292
384.0,-0.00316802179440856
416.0,-0.002346827182918787
448.0,-0.0015974219422787428
480.0,-0.0015922731254249811
512.0,-0.0020067717414349318
576.0,-0.004602464381605387
640.0,-0.002831065794453025
704.0,-0.00018738833023235202
768.0,-0.0006027512717992067
832.0,-0.0010628631571307778
896.0,-0.0017419946379959583
960.0,-0.0016971258446574211
1024.0,0.0007814646232873201
1152.0,0.0008022550027817488
1280.0,-0.00046031654346734285
1408.0,-0.0010594791965559125
1536.0,-0.0002910165931098163
1664.0,0.0015557490987703204
1792.0,0.004224475473165512
1920.0,0.004048926755785942
2048.0,-0.003394459607079625
2304.0,0.0013484196970239282
2560.0,-0.0009948500664904714
2816.0,-0.0027250659186393023
3072.0,-0.0011984632583335042
3328.0,0.0013307081535458565
3584.0,-0.00015830389747861773
3840.0,-0.0037005296908318996
4096.0,0.0029592029750347137
4608.0,-0.0006777829839847982
5120.0,-0.0010274926899001002
5632.0,0.0012266557896509767
6144.0,-0.00488193379715085
6656.0,0.0012060130247846246
7168.0,0.00022779610299039632
7680.0,0.0014381450600922108
8192.0,-0.0008793495944701135
9216.0,-0.0005261247279122472
10240.0,-0.0004731274675577879
11264.0,-0.0007656043162569404
12288.0,-0.00022878567688167095
13312.0,0.00010905871022259817
14336.0,-0.0006227869889698923
end
