version,3.0
numOfCh,1
type,point
parent_name,400-cuts
ch_type,1_1
kcount,1
numberNandB,1
brightnessNandB,1
carpet pos,0
pc,0
Time (ms),CH1 Auto-Correlation
1.0,0.05220387130975723
2.0,0.050557710230350494
3.0,0.049045074731111526
4.0,0.047585587948560715
5.0,0.04618440940976143
6.0,0.04483570158481598
7.0,0.04350478574633598
8.0,0.04225859418511391
9.0,0.04110239818692207
10.0,0.040011487901210785
11.0,0.038979485630989075
12.0,0.0379946306347847
13.0,0.03703182935714722
14.0,0.03609079867601395
15.0,0.03518742322921753
16.0,0.03432456776499748
18.0,0.03278163820505142
20.0,0.03136051073670387
22.0,0.029977252706885338
24.0,0.028645014390349388
26.0,0.027354678139090538
28.0,0.026205310598015785
30.0,0.025210965424776077
32.0,0.02423989214003086
36.0,0.022476907819509506
40.0,0.021075956523418427
44.0,0.01977146789431572
48.0,0.018417585641145706
52.0,0.017189996317029
56.0,0.01605946756899357
60.0,0.015183364041149616
64.0,0.014231535606086254
72.0,0.012747114524245262
80.0,0.011514993384480476
88.0,0.010054932907223701
96.0,0.009005765430629253
104.0,0.007962733507156372
112.0,0.007157283369451761
120.0,0.006001630332320929
128.0,0.0046478318981826305
144.0,0.0023465873673558235
160.0,0.0012951339595019817
176.0,0.0003760448016691953
192.0,2.176038469769992e-05
208.0,-0.00017096049850806594
224.0,-0.00032339984318241477
240.0,-0.00015328997687902302
256.0,-7.464749069185928e-05
288.0,-0.0030232551507651806
320.0,-0.0032020581420511007
352.0,-0.0015796420630067587
384.0,0.00016989313007798046
416.0,0.0007496775360777974
448.0,0.0010527775157243013
480.0,0.0010845803190022707
512.0,0.001051034196279943
576.0,-0.002012562472373247
640.0,1.4788349744776497e-06
704.0,-0.0028713548090308905
768.0,-0.005776482168585062
832.0,-0.005279671400785446
896.0,-0.003305649384856224
960.0,-0.0024345358833670616
1024.0,-0.002666774671524763
1152.0,0.0013777450658380985
1280.0,0.0013570457231253386
1408.0,-0.0005149947828613222
1536.0,0.00041350271203555167
1664.0,0.0020442132372409105
1792.0,-0.0027399351820349693
1920.0,-0.0014079773100093007
2048.0,0.002873273566365242
2304.0,-0.0021838173270225525
2560.0,0.0023989612236618996
2816.0,-0.001093511120416224
3072.0,0.0009577153250575066
3328.0,0.0035945188719779253
3584.0,-0.0017194272950291634
3840.0,0.002208275720477104
4096.0,-0.0019926794338971376
4608.0,0.000932622526306659
5120.0,-0.0007676941459067166
5632.0,-0.0021567055955529213
6144.0,0.002541918773204088
6656.0,0.0005488618626259267
7168.0,-0.00200826907530427
7680.0,-0.001495799282565713
8192.0,-0.0012199290795251727
9216.0,-0.0008774688467383385
10240.0,0.0014690321404486895
11264.0,-0.0036206908989697695
12288.0,0.00060339889023453
13312.0,-0.0020100849214941263
14336.0,-0.0013456621672958136
end
