version,3.0
numOfCh,1
type,point
parent_name,400-cuts
ch_type,1_1
kcount,1
numberNandB,1
brightnessNandB,1
carpet pos,0
pc,0
Time (ms),CH1 Auto-Correlation
1.0,0.05202570557594299
2.0,0.05030398443341255
3.0,0.04864123463630676
4.0,0.04700541868805885
5.0,0.04536545276641846
6.0,0.043784186244010925
7.0,0.04230418801307678
8.0,0.04088710993528366
9.0,0.03951935097575188
10.0,0.03818671777844429
11.0,0.036891013383865356
12.0,0.03567539155483246
13.0,0.03450430557131767
14.0,0.0334111750125885
15.0,0.032347965985536575
16.0,0.03130520507693291
18.0,0.029512077569961548
20.0,0.02783971093595028
22.0,0.0262356735765934
24.0,0.024829452857375145
26.0,0.02346855401992798
28.0,0.02220272086560726
30.0,0.020991390570998192
32.0,0.019827308133244514
36.0,0.017769457772374153
40.0,0.01617664098739624
44.0,0.014937113039195538
48.0,0.013951802626252174
52.0,0.012877244502305984
56.0,0.012039820663630962
60.0,0.0111715542152524
64.0,0.010341799817979336
72.0,0.009075694717466831
80.0,0.008195655420422554
88.0,0.007333289831876755
96.0,0.006814400665462017
104.0,0.006339205428957939
112.0,0.005476491525769234
120.0,0.004137280397117138
128.0,0.003057641675695777
144.0,0.002124723745509982
160.0,0.0018600811017677188
176.0,0.0014142667641863227
192.0,0.00048194537521339953
208.0,-0.0002296108432346955
224.0,-0.0002806091506499797
240.0,0.00036552632809616625
256.0,-2.0762492567882873e-05
288.0,-0.0004067810659762472
320.0,-0.0008770409040153027
352.0,-0.0012617730535566807
384.0,-0.0034409104846417904
416.0,-0.003499852493405342
448.0,-0.002289901953190565
480.0,-0.0022964521776884794
512.0,-0.0021308637224137783
576.0,-0.003490730654448271
640.0,-0.0036695003509521484
704.0,-0.001657251501455903
768.0,-0.00046062859473749995
832.0,2.489297003194224e-05
896.0,0.0012794299982488155
960.0,-0.0006940364837646484
1024.0,-0.0031512666027992964
1152.0,0.0004867308016400784
1280.0,-0.0011012580944225192
1408.0,0.0011114758672192693
1536.0,0.002547619864344597
1664.0,-0.0007958495407365263
1792.0,-0.00017027412832248956
1920.0,0.000709722051396966
2048.0,0.0017998232506215572
2304.0,0.0014687945367768407
2560.0,-0.00038426750688813627
2816.0,-0.0005975906387902796
3072.0,-0.0013004617067053914
3328.0,0.00033755178446881473
3584.0,-0.0002222227049060166
3840.0,-0.0021302737295627594
4096.0,0.0008667406509630382
4608.0,-0.0004942456725984812
5120.0,-0.000983698177151382
5632.0,-0.00166907103266567
6144.0,5.1771941798506305e-05
6656.0,-0.001513393595814705
7168.0,-0.0009910156950354576
7680.0,0.0013193258782848716
8192.0,-0.002999821910634637
9216.0,0.002174322260543704
10240.0,-0.001514642033725977
11264.0,0.0004807779041584581
12288.0,0.00048601231537759304
13312.0,0.002805546158924699
14336.0,-0.002096986398100853
end
