version,3.0
numOfCh,1
type,point
parent_name,400-cuts
ch_type,1_1
kcount,1
numberNandB,1
brightnessNandB,1
carpet pos,0
pc,0
Time (ms),CH1 Auto-Correlation
1.0,0.13662469387054443
2.0,0.13289950788021088
3.0,0.12920603156089783
4.0,0.12577113509178162
5.0,0.12246689945459366
6.0,0.11935123801231384
7.0,0.11623664945363998
8.0,0.11308539658784866
9.0,0.1099763885140419
10.0,0.10696876049041748
11.0,0.10400772094726562
12.0,0.10117083787918091
13.0,0.09847024083137512
14.0,0.09578970074653625
15.0,0.09318548440933228
16.0,0.0905383974313736
18.0,0.08549617975950241
20.0,0.08084599673748016
22.0,0.07627739757299423
24.0,0.07202912867069244
26.0,0.0679682195186615
28.0,0.06425382196903229
30.0,0.06094693765044212
32.0,0.05783182010054588
36.0,0.051904190331697464
40.0,0.04607577994465828
44.0,0.04075188562273979
48.0,0.03614699840545654
52.0,0.03210445120930672
56.0,0.028362028300762177
60.0,0.025075124576687813
64.0,0.022114867344498634
72.0,0.01745821163058281
80.0,0.013181610964238644
88.0,0.009301611222326756
96.0,0.005360629875212908
104.0,0.0005834786570630968
112.0,-0.0038200814742594957
120.0,-0.006566688418388367
128.0,-0.008921997621655464
144.0,-0.011321524158120155
160.0,-0.01322423480451107
176.0,-0.013873957097530365
192.0,-0.010696343146264553
208.0,-0.008076262660324574
224.0,-0.006778292823582888
240.0,-0.006534209940582514
256.0,-0.006626270245760679
288.0,0.0010085906833410263
320.0,0.0030954114627093077
352.0,-0.002900240942835808
384.0,-0.004699495155364275
416.0,0.0037867368664592505
448.0,0.008384219370782375
480.0,0.011236846446990967
512.0,0.007980715483427048
576.0,-0.009090771898627281
640.0,-0.007044089492410421
704.0,0.0016160440864041448
768.0,0.012621554546058178
832.0,0.008745424449443817
896.0,-0.0026610151398926973
960.0,-0.007478478830307722
1024.0,0.0012426668545231223
1152.0,0.001226106658577919
1280.0,0.00638479832559824
1408.0,-0.0032836985774338245
1536.0,0.011681687086820602
1664.0,-0.003880842821672559
1792.0,0.0055100140161812305
1920.0,-0.001964678755030036
2048.0,0.0028964534867554903
2304.0,0.004874329548329115
2560.0,0.00017322550411336124
2816.0,-0.0026611301582306623
3072.0,0.0020976632367819548
3328.0,-0.006327142007648945
3584.0,0.0004949403228238225
3840.0,-0.00352116534486413
4096.0,-0.0007627611048519611
4608.0,0.0021306639537215233
5120.0,0.00027450360357761383
5632.0,-0.005039256531745195
6144.0,0.000660368415992707
6656.0,-0.0027520591393113136
7168.0,-0.0005533858202397823
7680.0,-0.0014966788003221154
8192.0,-0.003290011780336499
9216.0,-0.0010936952894553542
10240.0,-0.0008211328531615436
11264.0,0.0004580090753734112
12288.0,0.0007209994946606457
13312.0,-0.00016955533646978438
14336.0,0.0003560638288035989
end
