version,3.0
numOfCh,1
type,point
parent_name,400-cuts
ch_type,1_1
kcount,1
numberNandB,1
brightnessNandB,1
carpet pos,0
pc,0
Time (ms),CH1 Auto-Correlation
1.0,0.06449324637651443
2.0,0.06246360391378403
3.0,0.060453590005636215
4.0,0.05849159508943558
5.0,0.056578412652015686
6.0,0.05474377050995827
7.0,0.05296679213643074
8.0,0.05119487643241882
9.0,0.04945866018533707
10.0,0.04777422174811363
11.0,0.046121466904878616
12.0,0.0445525199174881
13.0,0.04299600049853325
14.0,0.04154989868402481
15.0,0.04012199118733406
16.0,0.038749903440475464
18.0,0.03620485961437225
20.0,0.03372153267264366
22.0,0.03143415227532387
24.0,0.029233042150735855
26.0,0.027179721742868423
28.0,0.025231843814253807
30.0,0.023440567776560783
32.0,0.021767927333712578
36.0,0.018445206806063652
40.0,0.015415363013744354
44.0,0.012820960953831673
48.0,0.010558758862316608
52.0,0.008451174013316631
56.0,0.006547491066157818
60.0,0.004980797413736582
64.0,0.004032820928841829
72.0,0.0030492309015244246
80.0,0.0021507628262043
88.0,0.0013515972532331944
96.0,0.0009067498031072319
104.0,0.0004130466841161251
112.0,9.99481781036593e-05
120.0,-0.0006720002857036889
128.0,-0.001898237969726324
144.0,-0.0030006386805325747
160.0,-0.001792465802282095
176.0,0.0007030437118373811
192.0,0.0026100703980773687
208.0,0.002881676657125354
224.0,0.0013117495691403747
240.0,-0.000811814796179533
256.0,-0.0015069472137838602
288.0,-0.0008417984354309738
320.0,3.865577309625223e-05
352.0,0.0011126087047159672
384.0,0.0008558969711884856
416.0,0.0006800495903007686
448.0,0.00026843920932151377
480.0,-0.0002278504689456895
512.0,0.0009297109791077673
576.0,0.004185729194432497
640.0,0.0017694068374112248
704.0,-3.733972698682919e-05
768.0,-0.003817889606580138
832.0,-0.0018339576199650764
896.0,-0.0019134528702124953
960.0,-0.0013099908828735352
1024.0,0.005235657095909119
1152.0,0.0006130138644948602
1280.0,0.0033420869149267673
1408.0,0.004651212599128485
1536.0,0.0028233330231159925
1664.0,0.0033036135137081146
1792.0,0.0002607898786664009
1920.0,8.934982179198414e-05
2048.0,0.0013141159433871508
2304.0,-0.0008394613396376371
2560.0,0.002399630378931761
2816.0,0.003694585058838129
3072.0,0.0014960648259148002
3328.0,-0.0016878542955964804
3584.0,0.000499625806696713
3840.0,0.00020377006148919463
4096.0,0.0015838542021811008
4608.0,0.0014299777103587985
5120.0,-0.0015130770625546575
5632.0,0.00040060761966742575
6144.0,-0.0002002689434448257
6656.0,-0.002339450642466545
7168.0,0.0002688284730538726
7680.0,-0.0010841432958841324
8192.0,-0.002414917340502143
9216.0,-0.001172635005787015
10240.0,-0.0017400133656337857
11264.0,-0.0029483933467417955
12288.0,-0.0022233466152101755
13312.0,-0.0017616570694372058
14336.0,-0.003476977115496993
end
