version,3.0
numOfCh,1
type,point
parent_name,400-cuts
ch_type,1_1
kcount,1
numberNandB,1
brightnessNandB,1
carpet pos,0
pc,0
Time (ms),CH1 Auto-Correlation
1.0,0.028482526540756226
2.0,0.02749340422451496
3.0,0.026514485478401184
4.0,0.02555101551115513
5.0,0.024607978761196136
6.0,0.023717623203992844
7.0,0.02285604737699032
8.0,0.02204483188688755
9.0,0.021295445039868355
10.0,0.020589489489793777
11.0,0.01991940662264824
12.0,0.01925813965499401
13.0,0.01865185983479023
14.0,0.018042776733636856
15.0,0.017437338829040527
16.0,0.016844363883137703
18.0,0.01573796570301056
20.0,0.014726468361914158
22.0,0.01381581462919712
24.0,0.012989293783903122
26.0,0.012236122973263264
28.0,0.01150716282427311
30.0,0.010774009861052036
32.0,0.01004954893141985
36.0,0.008743819780647755
40.0,0.007563459221273661
44.0,0.00648699002340436
48.0,0.0054161143489181995
52.0,0.0044395532459020615
56.0,0.003672514809295535
60.0,0.003059866139665246
64.0,0.002715139649808407
72.0,0.0021663361694663763
80.0,0.0018167177913710475
88.0,0.0015317384386435151
96.0,0.0010450752452015877
104.0,0.0006611229619011283
112.0,0.0004084305837750435
120.0,0.0002566530311014503
128.0,-8.638833242002875e-05
144.0,-0.0003023565805051476
160.0,2.6135425287066028e-05
176.0,-3.305950667709112e-05
192.0,-0.0002904347493313253
208.0,-0.00011798238119808957
224.0,-0.00012792136112693697
240.0,-0.00046290908358059824
256.0,-0.0002357872435823083
288.0,-0.0009402098949067295
320.0,-0.00111288670450449
352.0,-0.0008257976151071489
384.0,-0.00030460767447948456
416.0,0.0003699440567288548
448.0,-0.0004724138998426497
480.0,-0.0009803504217416048
512.0,-0.0011460882378742099
576.0,9.92341447272338e-05
640.0,-3.37810670316685e-05
704.0,-0.0005400192458182573
768.0,1.9398936274228618e-05
832.0,0.00043540584738366306
896.0,-0.0014403800014406443
960.0,-0.002340475330129266
1024.0,-0.002117518335580826
1152.0,-0.0010592829203233123
1280.0,-0.000955351977609098
1408.0,0.0013052080757915974
1536.0,0.0005755593883804977
1664.0,0.0010743523016571999
1792.0,0.0009293884504586458
1920.0,0.0006980719044804573
2048.0,-0.0011296790326014161
2304.0,-0.001294857356697321
2560.0,-0.0005344747332856059
2816.0,-0.00042086493340320885
3072.0,0.0005886080325581133
3328.0,-0.0003570345288608223
3584.0,0.0005135643295943737
3840.0,-0.00035804801154881716
4096.0,0.0010210010223090649
4608.0,-0.00043408427154645324
5120.0,-3.840971112367697e-05
5632.0,0.0017909570597112179
6144.0,-0.0002502824063412845
6656.0,-0.0015383869176730514
7168.0,0.000701043929439038
7680.0,-0.000559271196834743
8192.0,-0.0008629783405922353
9216.0,-4.372117109596729e-05
10240.0,9.834991215029731e-05
11264.0,0.00024888155166991055
12288.0,-0.001057904795743525
13312.0,0.000563657027669251
14336.0,6.406004104064777e-05
end
