version,3.0
numOfCh,1
type,point
parent_name,400-cuts
ch_type,1_1
kcount,1
numberNandB,1
brightnessNandB,1
carpet pos,0
pc,0
Time (ms),CH1 Auto-Correlation
1.0,0.08188550174236298
2.0,0.07946155965328217
3.0,0.0771283358335495
4.0,0.07485893368721008
5.0,0.07273212820291519
6.0,0.07067668437957764
7.0,0.06882020831108093
8.0,0.06697385758161545
9.0,0.06514901667833328
10.0,0.06335635483264923
11.0,0.06156662479043007
12.0,0.05994151532649994
13.0,0.058340396732091904
14.0,0.05676066502928734
15.0,0.05520184338092804
16.0,0.05365800857543945
18.0,0.05058416351675987
20.0,0.04749229550361633
22.0,0.04468488320708275
24.0,0.042101964354515076
26.0,0.039644356817007065
28.0,0.03735003620386124
30.0,0.035177066922187805
32.0,0.03310747444629669
36.0,0.02946038544178009
40.0,0.02639596536755562
44.0,0.02336847223341465
48.0,0.020733119919896126
52.0,0.018496839329600334
56.0,0.016664955765008926
60.0,0.014874941669404507
64.0,0.013338934630155563
72.0,0.01091059111058712
80.0,0.008766493760049343
88.0,0.007194765843451023
96.0,0.006403735373169184
104.0,0.005685214418917894
112.0,0.005073538050055504
120.0,0.00485822232440114
128.0,0.0042846365831792355
144.0,0.0027967351488769054
160.0,0.0026626368053257465
176.0,0.002128665568307042
192.0,6.4997082517948e-05
208.0,-0.001189360162243247
224.0,-0.0013370399829000235
240.0,-0.0012957332655787468
256.0,-0.0027213660068809986
288.0,-0.003961184062063694
320.0,-0.0008272540289908648
352.0,0.00046474570990540087
384.0,-0.0007276606047526002
416.0,-0.003362602787092328
448.0,-0.003932057414203882
480.0,-0.00625112559646368
512.0,-0.00493900291621685
576.0,0.00028469241806305945
640.0,-0.0005841003148816526
704.0,-0.0002040477265836671
768.0,-0.002250608056783676
832.0,-0.004808400291949511
896.0,-0.005557141732424498
960.0,-0.006421471014618874
1024.0,-0.0028614713810384274
1152.0,0.002858186373487115
1280.0,0.0010536680929362774
1408.0,-0.0013247320894151926
1536.0,-0.0035326797515153885
1664.0,-0.00237200316041708
1792.0,-0.000670442299451679
1920.0,0.0017408045241609216
2048.0,0.002686037914827466
2304.0,0.0026327965315431356
2560.0,-0.0016897371970117092
2816.0,-0.001764642889611423
3072.0,-0.003224296262487769
3328.0,5.098922338220291e-05
3584.0,0.003310177940875292
3840.0,5.478430102812126e-05
4096.0,-0.002041848376393318
4608.0,0.0021211975254118443
5120.0,-0.0009323274134658277
5632.0,-0.0026806911919265985
6144.0,0.0016111370641738176
6656.0,-0.0003915579873137176
7168.0,0.0013248069444671273
7680.0,-0.0016948229167610407
8192.0,-0.0021401129197329283
9216.0,0.0017562968423590064
10240.0,0.0014275095891207457
11264.0,-0.001122837420552969
12288.0,-0.0020210365764796734
13312.0,-0.0006531003746204078
14336.0,-0.0002571623190306127
end
