version,3.0
numOfCh,1
type,point
parent_name,400-cuts
ch_type,1_1
kcount,1
numberNandB,1
brightnessNandB,1
carpet pos,0
pc,0
Time (ms),CH1 Auto-Correlation
1.0,0.08280801773071289
2.0,0.0802369937300682
3.0,0.07772369682788849
4.0,0.07521084696054459
5.0,0.07273867726325989
6.0,0.07029567658901215
7.0,0.06800729036331177
8.0,0.06577989459037781
9.0,0.06361833959817886
10.0,0.06152501702308655
11.0,0.059457503259181976
12.0,0.057425808161497116
13.0,0.055481500923633575
14.0,0.05365406349301338
15.0,0.051939427852630615
16.0,0.050248805433511734
18.0,0.047024525701999664
20.0,0.044055674225091934
22.0,0.04134894162416458
24.0,0.0388546921312809
26.0,0.03653860092163086
28.0,0.03438032791018486
30.0,0.03236682713031769
32.0,0.030230365693569183
36.0,0.026165949180722237
40.0,0.02217034436762333
44.0,0.01861431449651718
48.0,0.015314597636461258
52.0,0.012481237761676311
56.0,0.010223669931292534
60.0,0.008411896415054798
64.0,0.0067063868045806885
72.0,0.003915138076990843
80.0,0.0011341694043949246
88.0,-0.0010065657552331686
96.0,-0.0012244965182617307
104.0,-0.0010981290834024549
112.0,-0.0009592223796062171
120.0,-0.0007324118632823229
128.0,-9.500704436504748e-06
144.0,0.001322663389146328
160.0,0.004520103335380554
176.0,0.006890017073601484
192.0,0.009398913942277431
208.0,0.010667744092643261
224.0,0.011082854121923447
240.0,0.0088574830442667
256.0,0.005154154729098082
288.0,-0.0011659120209515095
320.0,-0.0007092597079463303
352.0,0.002918258775025606
384.0,0.006368302274495363
416.0,0.0076794554479420185
448.0,0.008128245361149311
480.0,0.0027617712039500475
512.0,0.00039804662810638547
576.0,0.0029444594401866198
640.0,0.005028927233070135
704.0,0.0030809398740530014
768.0,0.006294778548181057
832.0,0.006167091429233551
896.0,0.007699714973568916
960.0,0.0031270936597138643
1024.0,0.0006578146712854505
1152.0,0.001787288929335773
1280.0,0.0038610619958490133
1408.0,0.0032243956811726093
1536.0,0.0020179213024675846
1664.0,0.00040505672222934663
1792.0,0.0016951208235695958
1920.0,-0.0038022941444069147
2048.0,-0.0017297955928370357
2304.0,-0.0015140059404075146
2560.0,0.0008733807480894029
2816.0,-0.0007820610189810395
3072.0,0.0028117329347878695
3328.0,0.0009064219193533063
3584.0,0.0007310944492928684
3840.0,-0.0017763982759788632
4096.0,0.0005099505069665611
4608.0,-0.0020910478197038174
5120.0,-0.00505743408575654
5632.0,-0.0049141026102006435
6144.0,-0.004205943085253239
6656.0,-0.0016908319666981697
7168.0,0.00037512838025577366
7680.0,0.00042384272092022
8192.0,0.0008900373359210789
9216.0,-0.0027309125289320946
10240.0,-0.000987888895906508
11264.0,0.00042433186899870634
12288.0,0.000625018437858671
13312.0,-0.0007330950465984643
14336.0,9.899435099214315e-05
end
