version,3.0
numOfCh,1
type,point
parent_name,400-cuts
ch_type,1_1
kcount,1
numberNandB,1
brightnessNandB,1
carpet pos,0
pc,0
Time (ms),CH1 Auto-Correlation
1.0,0.02761121466755867
2.0,0.026812011376023293
3.0,0.02603336051106453
4.0,0.025304067879915237
5.0,0.02460983768105507
6.0,0.023973219096660614
7.0,0.023351646959781647
8.0,0.022750424221158028
9.0,0.022164639085531235
10.0,0.021602343767881393
11.0,0.021067926660180092
12.0,0.020535118877887726
13.0,0.020010964944958687
14.0,0.0194927379488945
15.0,0.018982822075486183
16.0,0.018461888656020164
18.0,0.0174848809838295
20.0,0.016531692817807198
22.0,0.015694819390773773
24.0,0.014965128153562546
26.0,0.014257035218179226
28.0,0.013581212610006332
30.0,0.012918380089104176
32.0,0.012274759821593761
36.0,0.011153469793498516
40.0,0.010164490900933743
44.0,0.009355280548334122
48.0,0.008684500120580196
52.0,0.008070333860814571
56.0,0.007538427133113146
60.0,0.006984903942793608
64.0,0.006467910949140787
72.0,0.00571879418566823
80.0,0.005188434384763241
88.0,0.004649181850254536
96.0,0.004195014480501413
104.0,0.0037077104207128286
112.0,0.003199536120519042
120.0,0.0026365425437688828
128.0,0.002213693456724286
144.0,0.0014034396735951304
160.0,0.00043035412090830505
176.0,-0.0006754178320989013
192.0,-0.0016457955352962017
208.0,-0.002381769707426429
224.0,-0.003068814752623439
240.0,-0.0030310528818517923
256.0,-0.002626631408929825
288.0,-0.002987765707075596
320.0,-0.002758797723799944
352.0,-0.001480569364503026
384.0,-0.0008053772617131472
416.0,-0.0014389577554538846
448.0,-0.002630770904943347
480.0,-0.0014433346223086119
512.0,-0.0006395074888132513
576.0,-0.0014271620893850923
640.0,-0.0009777016239240766
704.0,0.00020918570226058364
768.0,0.000809625955298543
832.0,0.00015826040180400014
896.0,0.0003476977290119976
960.0,-0.0007678902475163341
1024.0,0.0004484646487981081
1152.0,-0.0002830178418662399
1280.0,-0.0011808457784354687
1408.0,-0.0002561899309512228
1536.0,0.0015813091304153204
1664.0,0.0006737165385857224
1792.0,-0.0019359439611434937
1920.0,-0.0007353791734203696
2048.0,0.0013881758786737919
2304.0,0.0019181800307705998
2560.0,-0.001953897764906287
2816.0,-0.0009130464750342071
3072.0,0.0017854089383035898
3328.0,-0.0006656222976744175
3584.0,-0.0015297298086807132
3840.0,0.00020211395167279989
4096.0,0.000799507659394294
4608.0,-0.0008891351171769202
5120.0,-0.00013549566210713238
5632.0,-0.0012946577044203877
6144.0,0.0003228402929380536
6656.0,0.0005813493044115603
7168.0,3.862263110931963e-05
7680.0,-0.001402138383127749
8192.0,0.0009261119994334877
9216.0,0.0003417856351006776
10240.0,-0.0004663651343435049
11264.0,0.0002567603369243443
12288.0,0.00012505035556387156
13312.0,0.0007966277771629393
14336.0,-0.0011634392431005836
end
