version,3.0
numOfCh,1
type,point
parent_name,400-cuts
ch_type,1_1
kcount,1
numberNandB,1
brightnessNandB,1
carpet pos,0
pc,0
Time (ms),CH1 Auto-Correlation
1.0,0.031214725226163864
2.0,0.030311306938529015
3.0,0.029426859691739082
4.0,0.02855013497173786
5.0,0.027697695419192314
6.0,0.026892708614468575
7.0,0.02609480544924736
8.0,0.025334155187010765
9.0,0.0245998352766037
10.0,0.023926345631480217
11.0,0.023258360102772713
12.0,0.02260521985590458
13.0,0.021979711949825287
14.0,0.02136099711060524
15.0,0.020772650837898254
16.0,0.02020023949444294
18.0,0.0191351268440485
20.0,0.018114455044269562
22.0,0.017157813534140587
24.0,0.01625160686671734
26.0,0.015354546718299389
28.0,0.01446722261607647
30.0,0.013598082587122917
32.0,0.01278372947126627
36.0,0.011425632052123547
40.0,0.01034038607031107
44.0,0.009442176669836044
48.0,0.008715632371604443
52.0,0.0081504937261343
56.0,0.007543947082012892
60.0,0.006922856904566288
64.0,0.006371891126036644
72.0,0.005417900159955025
80.0,0.0046932087279856205
88.0,0.004253055900335312
96.0,0.0036712144501507282
104.0,0.0029163723811507225
112.0,0.002205148572102189
120.0,0.0016120985383167863
128.0,0.0014542806893587112
144.0,0.001602279837243259
160.0,0.0022146988194435835
176.0,0.0018966486677527428
192.0,0.0011377102928236127
208.0,0.0002918860991485417
224.0,-0.00011104466102551669
240.0,-0.00017410240252502263
256.0,-0.0005640795570798218
288.0,-0.0017312515992671251
320.0,-0.0016961132641881704
352.0,-0.0014968650648370385
384.0,-0.001862962613813579
416.0,-0.001842029974795878
448.0,-0.0021898928098380566
480.0,-0.0007876811432652175
512.0,0.0007267543114721775
576.0,0.0007553037139587104
640.0,0.0003847968182526529
704.0,0.00016871812113095075
768.0,0.0013841565232723951
832.0,0.0008504966972395778
896.0,0.0003148626710753888
960.0,-0.0006344032008200884
1024.0,-0.00040367073961533606
1152.0,0.0014778993790969253
1280.0,0.0007542747189290822
1408.0,-0.0005162915913388133
1536.0,8.528108992322814e-06
1664.0,-0.0009221251239068806
1792.0,-0.0010831644758582115
1920.0,-0.0013561630621552467
2048.0,-0.00014759416808374226
2304.0,-0.00038893241435289383
2560.0,-0.00094303407240659
2816.0,-0.0027469140477478504
3072.0,-0.0009576079319231212
3328.0,-0.0018661159556359053
3584.0,-0.0004915749304927886
3840.0,-0.0004796984139829874
4096.0,-0.0015762659022584558
4608.0,0.0008045697468332946
5120.0,0.0007594060734845698
5632.0,0.0017226665513589978
6144.0,0.002165765268728137
6656.0,-0.00012535805581137538
7168.0,0.00048694954602979124
7680.0,-4.740030271932483e-05
8192.0,-0.0016204528510570526
9216.0,-0.0010050967102870345
10240.0,0.0011236534919589758
11264.0,-0.00022795975382905453
12288.0,0.0007748405914753675
13312.0,-0.00015193955914583057
14336.0,-0.001066624652594328
end
