version,3.0
numOfCh,1
type,point
parent_name,400-cuts
ch_type,1_1
kcount,1
numberNandB,1
brightnessNandB,1
carpet pos,0
pc,0
Time (ms),CH1 Auto-Correlation
1.0,0.07140785455703735
2.0,0.06906945258378983
3.0,0.06682009249925613
4.0,0.06473521143198013
5.0,0.06268175691366196
6.0,0.06068756431341171
7.0,0.05877227336168289
8.0,0.05688526853919029
9.0,0.0550457239151001
10.0,0.05329705774784088
11.0,0.051643792539834976
12.0,0.05001761019229889
13.0,0.04845600202679634
14.0,0.04693218693137169
15.0,0.045505624264478683
16.0,0.04412214830517769
18.0,0.04144705459475517
20.0,0.038883425295352936
22.0,0.03650746867060661
24.0,0.03443475812673569
26.0,0.032495010644197464
28.0,0.03080451674759388
30.0,0.02927413210272789
32.0,0.027718758210539818
36.0,0.02493429370224476
40.0,0.02240932546555996
44.0,0.01989591494202614
48.0,0.01731780730187893
52.0,0.014714056625962257
56.0,0.012266887351870537
60.0,0.010245364159345627
64.0,0.008403045125305653
72.0,0.004514158237725496
80.0,0.001229283050633967
88.0,-0.0012178004253655672
96.0,-0.0027879979461431503
104.0,-0.0038292603567242622
112.0,-0.0044565568678081036
120.0,-0.005122724454849958
128.0,-0.005351328290998936
144.0,-0.005905738566070795
160.0,-0.005154813639819622
176.0,-0.003962368704378605
192.0,-0.0026706743519753218
208.0,0.001109860371798277
224.0,0.005132725927978754
240.0,0.007957883179187775
256.0,0.00977008044719696
288.0,0.012786610051989555
320.0,0.007407869677990675
352.0,0.0013295924291014671
384.0,-0.003485247725620866
416.0,-0.003973713610321283
448.0,-0.0012755541829392314
480.0,-0.0006568851531483233
512.0,-0.0005495663499459624
576.0,-0.00013226781447883695
640.0,0.0006724450504407287
704.0,-0.0002219287707703188
768.0,-0.0012032658560201526
832.0,-0.0032423664815723896
896.0,0.0004304534522816539
960.0,0.0032362169586122036
1024.0,-0.001364257070235908
1152.0,0.0015603777719661593
1280.0,-0.004356671124696732
1408.0,0.00017123643192462623
1536.0,-0.00010236467642243952
1664.0,0.002466405974701047
1792.0,-0.00487480079755187
1920.0,0.004709512460976839
2048.0,-0.0011009156005457044
2304.0,0.00272728456184268
2560.0,0.001150093274191022
2816.0,-0.001537113799713552
3072.0,-0.0017132305074483156
3328.0,-0.0010774466209113598
3584.0,-0.002134630223736167
3840.0,-0.0020333509892225266
4096.0,-0.0006855989340692759
4608.0,0.0013015941949561238
5120.0,0.00020896542991977185
5632.0,-0.0007339768926613033
6144.0,0.0007929738494567573
6656.0,-0.0007069773273542523
7168.0,-0.0021443606819957495
7680.0,0.00013878698518965393
8192.0,0.0038663761224597692
9216.0,-0.003653145395219326
10240.0,0.0038122176192700863
11264.0,-0.0036842140834778547
12288.0,0.0013691269559785724
13312.0,-0.00374462828040123
14336.0,-0.001810216112062335
end
