version,3.0
numOfCh,1
type,point
parent_name,400-cuts
ch_type,1_1
kcount,1
numberNandB,1
brightnessNandB,1
carpet pos,0
pc,0
Time (ms),CH1 Auto-Correlation
1.0,0.02657809481024742
2.0,0.025714756920933723
3.0,0.02486952394247055
4.0,0.024083571508526802
5.0,0.02333516627550125
6.0,0.022608324885368347
7.0,0.021902715787291527
8.0,0.021222298964858055
9.0,0.02054469659924507
10.0,0.01989412121474743
11.0,0.01927301287651062
12.0,0.018676353618502617
13.0,0.01809515617787838
14.0,0.017531614750623703
15.0,0.016982045024633408
16.0,0.01645740307867527
18.0,0.015475657768547535
20.0,0.014541609212756157
22.0,0.013672414235770702
24.0,0.012844296172261238
26.0,0.012090755626559258
28.0,0.011389435268938541
30.0,0.010725298896431923
32.0,0.010087971575558186
36.0,0.008976570330560207
40.0,0.008020350709557533
44.0,0.007271620910614729
48.0,0.0066413008607923985
52.0,0.006075369659811258
56.0,0.0056623974815011024
60.0,0.005224256310611963
64.0,0.0047771804966032505
72.0,0.003745736787095666
80.0,0.002935838419944048
88.0,0.0023209089413285255
96.0,0.0020223541650921106
104.0,0.001625395962037146
112.0,0.0011612653033807874
120.0,0.0009314269991591573
128.0,0.0009494639234617352
144.0,0.001279186108149588
160.0,0.001004666555672884
176.0,8.173157402779907e-05
192.0,-0.0002618822909425944
208.0,-0.00036394037306308746
224.0,-0.0010445571970194578
240.0,-0.0008076648227870464
256.0,-1.9900757251889445e-05
288.0,0.00021841928537469357
320.0,0.0006095527205616236
352.0,0.0004070803988724947
384.0,0.0003468503418844193
416.0,0.00022863269259687513
448.0,0.0006609484553337097
480.0,-0.0002935713855549693
512.0,-0.00052178546320647
576.0,-0.0016371955862268806
640.0,-0.001941706403158605
704.0,-0.001149249030277133
768.0,0.0016633920604363084
832.0,0.0017002676613628864
896.0,0.0008109451737254858
960.0,0.0012993611162528396
1024.0,0.0016585506964474916
1152.0,0.0005613385001197457
1280.0,0.0006295224884524941
1408.0,3.690116500365548e-05
1536.0,-0.0018639256013557315
1664.0,-0.0015093829715624452
1792.0,-0.0004257540567778051
1920.0,0.0006691888556815684
2048.0,0.0005026509170420468
2304.0,0.0005611752276308835
2560.0,0.00038731066160835326
2816.0,-0.00011984925367869437
3072.0,-0.00010584328265395015
3328.0,-0.0004394958959892392
3584.0,0.00017997306713368744
3840.0,2.968645640066825e-05
4096.0,-0.001934527070261538
4608.0,-0.00045474269427359104
5120.0,0.0001353705010842532
5632.0,-6.702765676891431e-05
6144.0,-0.0007877933094277978
6656.0,-0.0005689383833669126
7168.0,-0.0009234610479325056
7680.0,0.000365029409294948
8192.0,-0.0006708182045258582
9216.0,-0.00039857288356870413
10240.0,0.0011484470451250672
11264.0,9.016130934469402e-05
12288.0,9.248942660633475e-06
13312.0,0.00023339971085079014
14336.0,-0.0011533349752426147
end
