version,3.0
numOfCh,1
type,point
parent_name,400-cuts
ch_type,1_1
kcount,1
numberNandB,1
brightnessNandB,1
carpet pos,0
pc,0
Time (ms),CH1 Auto-Correlation
1.0,0.07985451817512512
2.0,0.07735753804445267
3.0,0.07498478889465332
4.0,0.07268281280994415
5.0,0.07048891484737396
6.0,0.06838605552911758
7.0,0.06632622331380844
8.0,0.06433457881212234
9.0,0.062396273016929626
10.0,0.06049894541501999
11.0,0.058669038116931915
12.0,0.0568869523704052
13.0,0.055143095552921295
14.0,0.05350657179951668
15.0,0.05187040939927101
16.0,0.050364669412374496
18.0,0.047497671097517014
20.0,0.044872816652059555
22.0,0.04229309782385826
24.0,0.039852987974882126
26.0,0.03769967332482338
28.0,0.035706497728824615
30.0,0.03377384692430496
32.0,0.03182350844144821
36.0,0.028447581455111504
40.0,0.025579258799552917
44.0,0.023432714864611626
48.0,0.021808486431837082
52.0,0.020465800538659096
56.0,0.018795497715473175
60.0,0.017355119809508324
64.0,0.016200633719563484
72.0,0.014162469655275345
80.0,0.012605087831616402
88.0,0.011240696534514427
96.0,0.009199152700603008
104.0,0.007571984548121691
112.0,0.006594098638743162
120.0,0.005903266370296478
128.0,0.0057556526735424995
144.0,0.00407597329467535
160.0,0.0002255167783005163
176.0,-0.0019251538906246424
192.0,-0.000551406352315098
208.0,-0.001200915314257145
224.0,-0.0005906496080569923
240.0,0.0015061252051964402
256.0,0.0016955432947725058
288.0,-0.0010734472889453173
320.0,-0.0014311576960608363
352.0,-0.0002191282983403653
384.0,9.913367102853954e-05
416.0,-0.0011164146708324552
448.0,-0.0016573305474594235
480.0,-0.0007081270450726151
512.0,0.0010968981077894568
576.0,0.0032100658863782883
640.0,0.002318534068763256
704.0,0.0029307701624929905
768.0,-0.00025658850790932775
832.0,-0.0013775945408269763
896.0,-0.002084365114569664
960.0,-0.0015036918921396136
1024.0,-0.001141675398685038
1152.0,0.00021102670871187001
1280.0,-0.00023107424203772098
1408.0,-0.0030544272158294916
1536.0,-0.00476385373622179
1664.0,-0.0034291031770408154
1792.0,-0.0015521942405030131
1920.0,-0.0018726424314081669
2048.0,-0.0025256150402128696
2304.0,0.002037631580606103
2560.0,-0.0011153905652463436
2816.0,6.541120001202216e-06
3072.0,0.002205870347097516
3328.0,0.003835042705759406
3584.0,0.002177433343604207
3840.0,-0.004295884165912867
4096.0,0.0006868113996461034
4608.0,-0.002105148509144783
5120.0,-0.0025861207395792007
5632.0,0.000675602350383997
6144.0,0.0005971388309262693
6656.0,0.003867162624374032
7168.0,-7.489613199140877e-05
7680.0,-0.002646437846124172
8192.0,-0.00017044722335413098
9216.0,0.0008143229060806334
10240.0,0.00039138959255069494
11264.0,-0.004369447939097881
12288.0,-0.0022580204531550407
13312.0,0.002290136646479368
14336.0,0.004287408664822578
end
