version,3.0
numOfCh,1
type,point
parent_name,400-cuts
ch_type,1_1
kcount,1
numberNandB,1
brightnessNandB,1
carpet pos,0
pc,0
Time (ms),CH1 Auto-Correlation
1.0,0.03407813236117363
2.0,0.03308969736099243
3.0,0.032126400619745255
4.0,0.031191332265734673
5.0,0.03029344230890274
6.0,0.029410626739263535
7.0,0.028545130044221878
8.0,0.027703536674380302
9.0,0.0268875565379858
10.0,0.026086991652846336
11.0,0.02530422806739807
12.0,0.02459646575152874
13.0,0.02389609068632126
14.0,0.02320992946624756
15.0,0.02254967950284481
16.0,0.021909786388278008
18.0,0.020780736580491066
20.0,0.019721603021025658
22.0,0.018672797828912735
24.0,0.01768306829035282
26.0,0.016757318750023842
28.0,0.015870476141572
30.0,0.01498246006667614
32.0,0.014132088981568813
36.0,0.012568146921694279
40.0,0.011177834123373032
44.0,0.009959617629647255
48.0,0.008904648013412952
52.0,0.007932335138320923
56.0,0.00704682944342494
60.0,0.006255183834582567
64.0,0.005468916613608599
72.0,0.003850979497656226
80.0,0.0024144069757312536
88.0,0.0011753267608582973
96.0,0.00037167451228015125
104.0,0.0001731941883917898
112.0,0.000385170744266361
120.0,0.0004940227954648435
128.0,0.0004324563778936863
144.0,0.0002669338427949697
160.0,0.0007355905254371464
176.0,0.0013206196017563343
192.0,0.0006741167744621634
208.0,-0.00024222418142016977
224.0,-0.0013192632468417287
240.0,-0.001579849049448967
256.0,-0.0017818276537582278
288.0,-0.0018096446292474866
320.0,-0.0004467027902137488
352.0,0.0009542567422613502
384.0,0.001418080530129373
416.0,0.0006522036856040359
448.0,0.00019748529302887619
480.0,-0.00046694750199094415
512.0,-0.0012487543281167746
576.0,-0.0012963337358087301
640.0,0.0011539682745933533
704.0,0.0015188747784122825
768.0,-0.0001383613416692242
832.0,-0.00043114516302011907
896.0,-0.0010130992159247398
960.0,-0.001041219336912036
1024.0,-0.00036282092332839966
1152.0,-0.0002638870500959456
1280.0,0.000752011954318732
1408.0,-0.0008746051462367177
1536.0,-0.0014051578473299742
1664.0,-0.0005106037715449929
1792.0,-0.000348951987689361
1920.0,-0.001402523135766387
2048.0,0.00013151952589396387
2304.0,-0.0016397008439525962
2560.0,-0.00014435681805480272
2816.0,0.00030437277746386826
3072.0,0.0002479661488905549
3328.0,0.0010947862174361944
3584.0,-0.0004552175523713231
3840.0,0.0003528509696479887
4096.0,0.001222202437929809
4608.0,-0.0011760246707126498
5120.0,-0.0015219560591503978
5632.0,0.0012367169838398695
6144.0,0.0004371285904198885
6656.0,0.00028121197829023004
7168.0,-0.0009756956133060157
7680.0,-0.000593308883253485
8192.0,-0.000924714608117938
9216.0,0.00013748406490776688
10240.0,0.0014055592473596334
11264.0,0.00040395581163465977
12288.0,-0.00038631295319646597
13312.0,0.0002600834413897246
14336.0,-0.002043880522251129
end
