version,3.0
numOfCh,1
type,point
parent_name,400-cuts
ch_type,1_1
kcount,1
numberNandB,1
brightnessNandB,1
carpet pos,0
pc,0
Time (ms),CH1 Auto-Correlation
1.0,0.07269679754972458
2.0,0.07040580362081528
3.0,0.06819791346788406
4.0,0.06607010960578918
5.0,0.06396058946847916
6.0,0.061888933181762695
7.0,0.05989973247051239
8.0,0.05801059305667877
9.0,0.05620500072836876
10.0,0.05441061407327652
11.0,0.0526752769947052
12.0,0.051027812063694
13.0,0.04946093261241913
14.0,0.04791846126317978
15.0,0.0464748851954937
16.0,0.04509833827614784
18.0,0.042365022003650665
20.0,0.0397862084209919
22.0,0.03723683953285217
24.0,0.034764327108860016
26.0,0.03250395134091377
28.0,0.03035752847790718
30.0,0.028285633772611618
32.0,0.026391400024294853
36.0,0.023077720776200294
40.0,0.02030166983604431
44.0,0.017758699133992195
48.0,0.015517025254666805
52.0,0.013338572345674038
56.0,0.011280209757387638
60.0,0.009164506569504738
64.0,0.007232520263642073
72.0,0.004551369231194258
80.0,0.0024415613152086735
88.0,0.0011080354452133179
96.0,-0.0004049188573844731
104.0,-0.0021043543238192797
112.0,-0.003205821616575122
120.0,-0.004245099611580372
128.0,-0.004156864248216152
144.0,-0.003572877263650298
160.0,-0.004839494824409485
176.0,-0.006046179216355085
192.0,-0.00572052551433444
208.0,-0.0035848927218466997
224.0,-0.002252176869660616
240.0,-0.0005761037464253604
256.0,0.0014848794089630246
288.0,0.0015470358775928617
320.0,-0.0014501854311674833
352.0,-0.002150610787793994
384.0,-0.0005069065955467522
416.0,0.0006621358916163445
448.0,0.005240133963525295
480.0,0.007397981360554695
512.0,0.00582905113697052
576.0,0.000402220175601542
640.0,-0.001595871290192008
704.0,-0.0027525736950337887
768.0,-0.0006306159775704145
832.0,7.66984376241453e-05
896.0,0.003922829404473305
960.0,0.0010971716837957501
1024.0,-0.0013500531204044819
1152.0,0.001544169383123517
1280.0,-0.001236849115230143
1408.0,-0.005182689521461725
1536.0,6.548065721290186e-05
1664.0,0.0001288125349674374
1792.0,0.003039164934307337
1920.0,-0.0027348953299224377
2048.0,0.0008730075787752867
2304.0,0.0009660927462391555
2560.0,0.0020400946959853172
2816.0,-0.002614351222291589
3072.0,-0.0003475880657788366
3328.0,-0.0026992487255483866
3584.0,-0.0011725194053724408
3840.0,-0.002387376269325614
4096.0,0.001695771818049252
4608.0,0.0016381535679101944
5120.0,-0.0005678432062268257
5632.0,-0.00011868782166857272
6144.0,-0.0012518586590886116
6656.0,0.00040085933869704604
7168.0,0.00043032009853050113
7680.0,-0.004174856003373861
8192.0,-0.000653460097964853
9216.0,0.00023575972591061145
10240.0,-0.00048820098163560033
11264.0,0.0011252263793721795
12288.0,-0.0012373087229207158
13312.0,0.0008914425270631909
14336.0,-0.0007807450601831079
end
