version,3.0
numOfCh,1
type,point
parent_name,400-cuts
ch_type,1_1
kcount,1
numberNandB,1
brightnessNandB,1
carpet pos,0
pc,0
Time (ms),CH1 Auto-Correlation
1.0,0.08302342146635056
2.0,0.08063215017318726
3.0,0.07826908677816391
4.0,0.0758863016963005
5.0,0.07348267734050751
6.0,0.07111410796642303
7.0,0.06878086924552917
8.0,0.0665518268942833
9.0,0.06439998745918274
10.0,0.062287040054798126
11.0,0.06021164357662201
12.0,0.05824899300932884
13.0,0.05633901432156563
14.0,0.05445295199751854
15.0,0.05263267830014229
16.0,0.05083946883678436
18.0,0.04765186831355095
20.0,0.04488907381892204
22.0,0.04239348694682121
24.0,0.04011720046401024
26.0,0.03801443427801132
28.0,0.03609262406826019
30.0,0.03434333577752113
32.0,0.03272158280014992
36.0,0.029664814472198486
40.0,0.02635505609214306
44.0,0.023404086008667946
48.0,0.020878411829471588
52.0,0.01876229979097843
56.0,0.016906222328543663
60.0,0.015318723395466805
64.0,0.013874506577849388
72.0,0.012146293185651302
80.0,0.010716687887907028
88.0,0.009785176254808903
96.0,0.009309426881372929
104.0,0.009175409562885761
112.0,0.008252250030636787
120.0,0.007003445643931627
128.0,0.006292902398854494
144.0,0.0035969875752925873
160.0,0.000653154740575701
176.0,-0.00023675795819144696
192.0,-0.0016276800306513906
208.0,-0.0008312773425132036
224.0,0.002047918736934662
240.0,0.004549025092273951
256.0,0.003888085950165987
288.0,0.0022501612547785044
320.0,-0.0002477482194080949
352.0,-0.0006979890167713165
384.0,-0.001933316350914538
416.0,0.0007127415155991912
448.0,-0.0008063918794505298
480.0,-0.0048132967203855515
512.0,-0.003793395822867751
576.0,-0.0035520230885595083
640.0,-0.006779414135962725
704.0,-0.006585156079381704
768.0,-0.0021658942569047213
832.0,-0.00338658201508224
896.0,0.0019258154788985848
960.0,0.004133514128625393
1024.0,-0.0013906956883147359
1152.0,-0.005773614160716534
1280.0,-0.003679706482216716
1408.0,-0.00016318904818035662
1536.0,0.0004222164861857891
1664.0,-0.0022068575490266085
1792.0,0.004012095741927624
1920.0,0.005001622252166271
2048.0,-0.0013979453360661864
2304.0,-0.003894967958331108
2560.0,-0.002282962203025818
2816.0,0.0006131656700745225
3072.0,-0.005054861772805452
3328.0,-0.00207915878854692
3584.0,0.0009867260232567787
3840.0,0.00398121727630496
4096.0,0.002714819274842739
4608.0,-0.0014715646393597126
5120.0,-0.0019954112358391285
5632.0,0.006483007222414017
6144.0,-0.00010445812222314999
6656.0,-0.0023233306128531694
7168.0,-0.004122049547731876
7680.0,0.0020679139997810125
8192.0,9.3062364612706e-05
9216.0,0.0008143462473526597
10240.0,0.0017851580632850528
11264.0,-0.0017382674850523472
12288.0,-0.0001395552681060508
13312.0,-0.00019528310804162174
14336.0,0.0010798248695209622
end
