version,3.0
numOfCh,1
type,point
parent_name,34a6d_0dot069-0dot1
ch_type,1_1
kcount,1
numberNandB,1
brightnessNandB,1
carpet pos,0
pc,0
Time (ms),CH1 Auto-Correlation
1.0,0.05039769411087036
2.0,0.04994533583521843
3.0,0.04950914904475212
4.0,0.04906382039189339
5.0,0.048646531999111176
6.0,0.04822642356157303
7.0,0.047813549637794495
8.0,0.04741642251610756
9.0,0.04702603071928024
10.0,0.046628568321466446
11.0,0.046241991221904755
12.0,0.0458509735763073
13.0,0.045451678335666656
14.0,0.045073501765728
15.0,0.044721465557813644
16.0,0.04435828700661659
18.0,0.0436745211482048
20.0,0.04301216080784798
22.0,0.042353566735982895
24.0,0.04174100607633591
26.0,0.041182827204465866
28.0,0.04060502350330353
30.0,0.04003819078207016
32.0,0.03945494443178177
36.0,0.03843457251787186
40.0,0.037462785840034485
44.0,0.036545220762491226
48.0,0.03565644100308418
52.0,0.034827373921871185
56.0,0.034068379551172256
60.0,0.03333846107125282
64.0,0.03265358507633209
72.0,0.03124164417386055
80.0,0.029954541474580765
88.0,0.02864605188369751
96.0,0.027306027710437775
104.0,0.02597842365503311
112.0,0.024698833003640175
120.0,0.02350681647658348
128.0,0.02246503159403801
144.0,0.020635664463043213
160.0,0.019316276535391808
176.0,0.018197447061538696
192.0,0.01705866865813732
208.0,0.01564132794737816
224.0,0.01454547792673111
240.0,0.013685394078493118
256.0,0.013489680364727974
288.0,0.012203113175928593
320.0,0.009986702352762222
352.0,0.007751164026558399
384.0,0.006196143105626106
416.0,0.005530187394469976
448.0,0.005299618933349848
480.0,0.0050445906817913055
512.0,0.0039038362447172403
576.0,0.0032031896989792585
640.0,0.0033920868299901485
704.0,0.002574990503489971
768.0,0.003100787056609988
832.0,0.0028650821186602116
896.0,0.0002558959531597793
960.0,-0.0026425623800605536
1024.0,-0.004583694506436586
1152.0,-0.004267185460776091
1280.0,-0.004028887953609228
1408.0,-0.004639248829334974
1536.0,-0.0028347917832434177
1664.0,-0.0027331016026437283
1792.0,-0.0064574540592730045
1920.0,-0.004796150140464306
2048.0,-0.0007133473409339786
2304.0,-0.003540558973327279
2560.0,-0.003446134738624096
2816.0,0.006969709414988756
3072.0,0.004936837125569582
3328.0,0.0035782181657850742
3584.0,0.00916204135864973
3840.0,0.006705507170408964
4096.0,-0.00241176038980484
4608.0,-0.01112509984523058
5120.0,-0.014405417256057262
5632.0,-0.014416382648050785
6144.0,-0.00010442044731462374
6656.0,0.009386220946907997
7168.0,-0.0020507064182311296
7680.0,-0.003662936855107546
8192.0,0.0028518892358988523
end
