version,3.0
numOfCh,1
type,point
parent_name,34a6d_0dot069-0dot1
ch_type,1_1
kcount,1
numberNandB,1
brightnessNandB,1
carpet pos,0
pc,0
Time (ms),CH1 Auto-Correlation
1.0,0.07634083926677704
2.0,0.07525124400854111
3.0,0.07426153868436813
4.0,0.07340096682310104
5.0,0.07252050191164017
6.0,0.07171393185853958
7.0,0.07100654393434525
8.0,0.07038569450378418
9.0,0.06976860016584396
10.0,0.06921225041151047
11.0,0.06868578493595123
12.0,0.06819964200258255
13.0,0.06771805882453918
14.0,0.06721967458724976
15.0,0.06675288826227188
16.0,0.06625692546367645
18.0,0.06548257172107697
20.0,0.06480330228805542
22.0,0.06407010555267334
24.0,0.06336810439825058
26.0,0.06264586001634598
28.0,0.061937279999256134
30.0,0.061170026659965515
32.0,0.06042148172855377
36.0,0.05915175750851631
40.0,0.05781305581331253
44.0,0.05628018081188202
48.0,0.05484066531062126
52.0,0.05350904539227486
56.0,0.05252627655863762
60.0,0.05158077925443649
64.0,0.050593506544828415
72.0,0.04909070208668709
80.0,0.0475347638130188
88.0,0.04598257690668106
96.0,0.04448620602488518
104.0,0.043001264333724976
112.0,0.04168571159243584
120.0,0.04004742577672005
128.0,0.03882872685790062
144.0,0.03680526837706566
160.0,0.03503463417291641
176.0,0.033076249063014984
192.0,0.03037036582827568
208.0,0.027551904320716858
224.0,0.024108290672302246
240.0,0.021158860996365547
256.0,0.01850593090057373
288.0,0.014032205566763878
320.0,0.010801003314554691
352.0,0.008719640783965588
384.0,0.007485995534807444
416.0,0.006551471538841724
448.0,0.005219583865255117
480.0,0.0035803683567792177
512.0,0.0023132632486522198
576.0,0.001002002856694162
640.0,-0.002899874234572053
704.0,-0.007109448313713074
768.0,-0.010430448688566685
832.0,-0.012704562395811081
896.0,-0.012430229224264622
960.0,-0.010604958981275558
1024.0,-0.007937831804156303
1152.0,0.0016213604249060154
1280.0,0.005450546275824308
1408.0,0.0008099809638224542
1536.0,-0.008049428462982178
1664.0,-0.014941509813070297
1792.0,-0.018900811672210693
1920.0,-0.01908738911151886
2048.0,-0.022122753784060478
2304.0,-0.004282721318304539
2560.0,0.010480361990630627
2816.0,0.015102810226380825
3072.0,0.009428937919437885
3328.0,0.006505034863948822
3584.0,-0.00023988363682292402
3840.0,-0.006316853687167168
4096.0,0.001980615546926856
4608.0,-0.0052117775194346905
5120.0,-0.004207474645227194
5632.0,0.004786013625562191
6144.0,-0.003183883847668767
6656.0,-0.010034238919615746
7168.0,-0.007946401834487915
7680.0,-0.00859932042658329
8192.0,0.006784772500395775
end
