version,3.0
numOfCh,1
type,point
parent_name,34a6d_0dot069-0dot1
ch_type,1_1
kcount,1
numberNandB,1
brightnessNandB,1
carpet pos,0
pc,0
Time (ms),CH1 Auto-Correlation
1.0,0.06589417159557343
2.0,0.0652567520737648
3.0,0.0646769180893898
4.0,0.06411334872245789
5.0,0.06357966363430023
6.0,0.0630837082862854
7.0,0.06260577589273453
8.0,0.062118202447891235
9.0,0.06164804846048355
10.0,0.06114180013537407
11.0,0.06064467877149582
12.0,0.060186974704265594
13.0,0.05975852906703949
14.0,0.05931403115391731
15.0,0.05888758599758148
16.0,0.058468565344810486
18.0,0.0576564185321331
20.0,0.056866008788347244
22.0,0.056112680584192276
24.0,0.05537575110793114
26.0,0.05463274568319321
28.0,0.053884852677583694
30.0,0.05321930721402168
32.0,0.05260207876563072
36.0,0.05146499350667
40.0,0.05035926774144173
44.0,0.04936389997601509
48.0,0.04843822121620178
52.0,0.047498732805252075
56.0,0.04664062708616257
60.0,0.04583088308572769
64.0,0.04508479684591293
72.0,0.043703995645046234
80.0,0.04237734526395798
88.0,0.04100901633501053
96.0,0.03965698927640915
104.0,0.03829927742481232
112.0,0.037204645574092865
120.0,0.03620835766196251
128.0,0.035207558423280716
144.0,0.03344070166349411
160.0,0.03158202022314072
176.0,0.02903873287141323
192.0,0.026441439986228943
208.0,0.02496138960123062
224.0,0.023537389934062958
240.0,0.021710440516471863
256.0,0.020127257332205772
288.0,0.01753263548016548
320.0,0.015187233686447144
352.0,0.01217217929661274
384.0,0.01019451767206192
416.0,0.008024525828659534
448.0,0.007309555541723967
480.0,0.0073163146153092384
512.0,0.007918765768408775
576.0,0.006944096181541681
640.0,0.006662257947027683
704.0,0.006846325937658548
768.0,0.009108801372349262
832.0,0.008899996057152748
896.0,0.008668421767652035
960.0,0.008690273389220238
1024.0,0.008775847032666206
1152.0,0.008319308049976826
1280.0,0.007765189744532108
1408.0,0.0050460644997656345
1536.0,0.0020229865331202745
1664.0,0.0008280008914880455
1792.0,0.0036024008877575397
1920.0,0.008783748373389244
2048.0,0.00742725282907486
2304.0,-0.005211515352129936
2560.0,-0.012434992007911205
2816.0,-0.006473677232861519
3072.0,-0.0006716090138070285
3328.0,-0.0048065390437841415
3584.0,-0.008586929179728031
3840.0,-0.0043115620501339436
4096.0,-0.0005165283801034093
4608.0,-0.009571566246449947
5120.0,0.002751092193648219
5632.0,-0.013706724159419537
6144.0,-0.015691593289375305
6656.0,-0.014090867713093758
7168.0,-0.0017674071714282036
7680.0,-0.015315324999392033
8192.0,-0.006034127436578274
end
