version,3.0
numOfCh,1
type,point
parent_name,34a6d_0dot069-0dot1
ch_type,1_1
kcount,1
numberNandB,1
brightnessNandB,1
carpet pos,0
pc,0
Time (ms),CH1 Auto-Correlation
1.0,0.06122955307364464
2.0,0.06055573746562004
3.0,0.059954266995191574
4.0,0.05938173085451126
5.0,0.058838870376348495
6.0,0.0583178885281086
7.0,0.0578213669359684
8.0,0.05736112967133522
9.0,0.05688297748565674
10.0,0.056402046233415604
11.0,0.05593510717153549
12.0,0.05548134446144104
13.0,0.05503378435969353
14.0,0.05461655184626579
15.0,0.05422798544168472
16.0,0.05385209619998932
18.0,0.053117476403713226
20.0,0.052358850836753845
22.0,0.051607757806777954
24.0,0.0508834570646286
26.0,0.050222910940647125
28.0,0.049637578427791595
30.0,0.049076784402132034
32.0,0.04850052297115326
36.0,0.04745928570628166
40.0,0.046430040150880814
44.0,0.04536981135606766
48.0,0.04433158040046692
52.0,0.043275896459817886
56.0,0.042065102607011795
60.0,0.04080485925078392
64.0,0.03974306955933571
72.0,0.0378977470099926
80.0,0.03612576797604561
88.0,0.034334003925323486
96.0,0.032470062375068665
104.0,0.03089991770684719
112.0,0.02962268702685833
120.0,0.028593696653842926
128.0,0.027620380744338036
144.0,0.02519676834344864
160.0,0.02291095070540905
176.0,0.02088039740920067
192.0,0.01912316121160984
208.0,0.01781821995973587
224.0,0.016751883551478386
240.0,0.015629662200808525
256.0,0.014584674499928951
288.0,0.012763524428009987
320.0,0.011468418873846531
352.0,0.011653434485197067
384.0,0.010947487317025661
416.0,0.009571748785674572
448.0,0.009086654521524906
480.0,0.007702201139181852
512.0,0.006809812970459461
576.0,0.005722366273403168
640.0,0.0033403923735022545
704.0,0.0010264295851811767
768.0,0.0012366716982796788
832.0,0.0018213641596958041
896.0,2.0404862880241126e-05
960.0,-0.0026010770816355944
1024.0,-0.003337254049256444
1152.0,-0.010746585205197334
1280.0,-0.013727220706641674
1408.0,-0.01566750928759575
1536.0,-0.017386361956596375
1664.0,-0.015229539945721626
1792.0,-0.014593900181353092
1920.0,-0.01233922503888607
2048.0,-0.012493165209889412
2304.0,-0.006587301380932331
2560.0,-0.0025387313216924667
2816.0,0.0016022074269130826
3072.0,0.014418908394873142
3328.0,0.018593402579426765
3584.0,0.01470085047185421
3840.0,0.0059148212894797325
4096.0,-0.00038286647759377956
4608.0,-0.006165345199406147
5120.0,-0.006706176325678825
5632.0,-0.005524731706827879
6144.0,0.002437629969790578
6656.0,0.0034343081060796976
7168.0,-0.004208579193800688
7680.0,-0.004250619560480118
8192.0,0.00034020308521576226
end
