version,3.0
numOfCh,1
type,point
parent_name,34a6d_0dot069-0dot1
ch_type,1_1
kcount,1
numberNandB,1
brightnessNandB,1
carpet pos,0
pc,0
Time (ms),CH1 Auto-Correlation
1.0,0.08473320305347443
2.0,0.08425422012805939
3.0,0.08378183841705322
4.0,0.0833209753036499
5.0,0.0828784629702568
6.0,0.08245868235826492
7.0,0.08202947676181793
8.0,0.08162780106067657
9.0,0.08121760189533234
10.0,0.08081989735364914
11.0,0.08043556660413742
12.0,0.0800524577498436
13.0,0.07966220378875732
14.0,0.07927026599645615
15.0,0.07887844741344452
16.0,0.07849354296922684
18.0,0.07776819914579391
20.0,0.07706467807292938
22.0,0.07637594640254974
24.0,0.0756864920258522
26.0,0.0750265121459961
28.0,0.07442175596952438
30.0,0.07382292300462723
32.0,0.07322842627763748
36.0,0.07207676768302917
40.0,0.07093886286020279
44.0,0.06983329355716705
48.0,0.06880941241979599
52.0,0.06775083392858505
56.0,0.06659484654664993
60.0,0.0654459074139595
64.0,0.06443266570568085
72.0,0.06261958181858063
80.0,0.06098822131752968
88.0,0.05948086455464363
96.0,0.05800682306289673
104.0,0.05648201331496239
112.0,0.05492758750915527
120.0,0.05350407585501671
128.0,0.05217054486274719
144.0,0.04957469925284386
160.0,0.04713033512234688
176.0,0.04484915733337402
192.0,0.042590077966451645
208.0,0.04030246287584305
224.0,0.03777251020073891
240.0,0.0355042926967144
256.0,0.03341517597436905
288.0,0.029238365590572357
320.0,0.026664983481168747
352.0,0.024538343772292137
384.0,0.023294975981116295
416.0,0.022276906296610832
448.0,0.021483762189745903
480.0,0.02031048946082592
512.0,0.019070155918598175
576.0,0.015232543461024761
640.0,0.013787449337542057
704.0,0.011939004994928837
768.0,0.009566514752805233
832.0,0.007129485718905926
896.0,0.007912538945674896
960.0,0.010123481042683125
1024.0,0.011945419944822788
1152.0,0.015187782235443592
1280.0,0.017465347424149513
1408.0,0.015594670549035072
1536.0,0.012247676029801369
1664.0,0.013977396301925182
1792.0,0.015759380534291267
1920.0,0.01584182307124138
2048.0,0.015376726165413857
2304.0,0.010700033977627754
2560.0,-0.002734590321779251
2816.0,0.002579590305685997
3072.0,-0.004638513550162315
3328.0,-0.0006586412782780826
3584.0,0.0017317872261628509
3840.0,0.0010462463833391666
4096.0,-0.00620014825835824
4608.0,-0.016140151768922806
5120.0,-0.018200432881712914
5632.0,-0.010670465417206287
6144.0,-0.003850237000733614
6656.0,-0.019427768886089325
7168.0,-0.012474076822400093
7680.0,-0.0016887228703126311
8192.0,0.011184027418494225
end
