version,3.0
numOfCh,1
type,point
parent_name,34a6d_0dot069-0dot1
ch_type,1_1
kcount,1
numberNandB,1
brightnessNandB,1
carpet pos,0
pc,0
Time (ms),CH1 Auto-Correlation
1.0,0.0508277527987957
2.0,0.05038920417428017
3.0,0.04995177686214447
4.0,0.049547675997018814
5.0,0.04912694916129112
6.0,0.04872238636016846
7.0,0.0483078733086586
8.0,0.04790060594677925
9.0,0.04749317839741707
10.0,0.047094665467739105
11.0,0.04670105129480362
12.0,0.04630441591143608
13.0,0.04591378942131996
14.0,0.0455332025885582
15.0,0.04517446830868721
16.0,0.04481715336441994
18.0,0.044128067791461945
20.0,0.04345302656292915
22.0,0.042784903198480606
24.0,0.042123112827539444
26.0,0.041472144424915314
28.0,0.040850840508937836
30.0,0.04025968536734581
32.0,0.03966309502720833
36.0,0.038559816777706146
40.0,0.037485357373952866
44.0,0.036463890224695206
48.0,0.0354345440864563
52.0,0.03439779952168465
56.0,0.033483318984508514
60.0,0.032670121639966965
64.0,0.03186396509408951
72.0,0.030344899743795395
80.0,0.02887810952961445
88.0,0.02759481593966484
96.0,0.02653583511710167
104.0,0.025586439296603203
112.0,0.024771176278591156
120.0,0.023976914584636688
128.0,0.022990290075540543
144.0,0.020831214264035225
160.0,0.01889842376112938
176.0,0.017612159252166748
192.0,0.01734181120991707
208.0,0.017483659088611603
224.0,0.017483796924352646
240.0,0.017258571460843086
256.0,0.016924967989325523
288.0,0.0165017731487751
320.0,0.016331911087036133
352.0,0.016405628994107246
384.0,0.016327615827322006
416.0,0.015594338066875935
448.0,0.014230606146156788
480.0,0.011865072883665562
512.0,0.008971325121819973
576.0,0.0032803984358906746
640.0,-0.00010264950105920434
704.0,-0.0009345205617137253
768.0,-0.0004774238041136414
832.0,0.0007656210800632834
896.0,9.408855839865282e-05
960.0,-0.002859298372641206
1024.0,-0.0026454338803887367
1152.0,-0.002457842230796814
1280.0,0.00028418112196959555
1408.0,0.005405860487371683
1536.0,0.0065301815047860146
1664.0,0.004506140481680632
1792.0,0.011187314055860043
1920.0,0.011354357935488224
2048.0,0.00836552120745182
2304.0,0.0049347965978085995
2560.0,0.0018535149283707142
2816.0,0.0020068034064024687
3072.0,0.004043004475533962
3328.0,0.00811845250427723
3584.0,0.003607627237215638
3840.0,-0.004865012131631374
4096.0,-0.00803788285702467
4608.0,-0.0013412775006145239
5120.0,0.001194998505525291
5632.0,-0.002174091525375843
6144.0,-0.0044914791360497475
6656.0,-8.769956912146881e-05
7168.0,-0.013312204740941525
7680.0,-0.01243590284138918
8192.0,-0.004255120176821947
end
