version,3.0
numOfCh,1
type,point
parent_name,34a6d_0dot069-0dot1
ch_type,1_1
kcount,1
numberNandB,1
brightnessNandB,1
carpet pos,0
pc,0
Time (ms),CH1 Auto-Correlation
1.0,0.08174967020750046
2.0,0.08114331215620041
3.0,0.08058825135231018
4.0,0.08004423975944519
5.0,0.07951360940933228
6.0,0.07897835224866867
7.0,0.07843789458274841
8.0,0.0779232457280159
9.0,0.07741410285234451
10.0,0.07690005004405975
11.0,0.0764082595705986
12.0,0.07591806352138519
13.0,0.07546242326498032
14.0,0.07501913607120514
15.0,0.07456304877996445
16.0,0.07412099838256836
18.0,0.0732244998216629
20.0,0.07236658036708832
22.0,0.07153701782226562
24.0,0.07068217545747757
26.0,0.06985776126384735
28.0,0.0690799355506897
30.0,0.06834063678979874
32.0,0.06763897836208344
36.0,0.0663025826215744
40.0,0.06508232653141022
44.0,0.06405118107795715
48.0,0.0630631074309349
52.0,0.06208421662449837
56.0,0.0611044280230999
60.0,0.060101933777332306
64.0,0.059059709310531616
72.0,0.057118725031614304
80.0,0.055253397673368454
88.0,0.05339716747403145
96.0,0.05162176117300987
104.0,0.04998011887073517
112.0,0.04833861440420151
120.0,0.046803247183561325
128.0,0.04542437568306923
144.0,0.04271835833787918
160.0,0.03972070664167404
176.0,0.036709561944007874
192.0,0.03453410416841507
208.0,0.032934922724962234
224.0,0.03110833279788494
240.0,0.028884965926408768
256.0,0.02692367136478424
288.0,0.025145355612039566
320.0,0.02488328143954277
352.0,0.02465883456170559
384.0,0.02499144710600376
416.0,0.02493242174386978
448.0,0.025347333401441574
480.0,0.026715999469161034
512.0,0.026938049122691154
576.0,0.024007320404052734
640.0,0.020242005586624146
704.0,0.017859743908047676
768.0,0.016592204570770264
832.0,0.015042203478515148
896.0,0.014975305646657944
960.0,0.015486768446862698
1024.0,0.016579635441303253
1152.0,0.018176481127738953
1280.0,0.015872087329626083
1408.0,0.011736497282981873
1536.0,0.005976916756480932
1664.0,0.004060194827616215
1792.0,0.0009540304890833795
1920.0,-0.00510454224422574
2048.0,-0.011789512820541859
2304.0,-0.00951614324003458
2560.0,-0.011293302290141582
2816.0,-0.008466294966638088
3072.0,-0.012323427014052868
3328.0,-0.008472362533211708
3584.0,-0.005799139849841595
3840.0,-0.003896596608683467
4096.0,-0.012184851802885532
4608.0,-0.0021385489962995052
5120.0,-0.005194688681513071
5632.0,-0.013973214663565159
6144.0,0.001313226530328393
6656.0,-0.008804233744740486
7168.0,-0.005862853955477476
7680.0,-0.0006684655672870576
8192.0,-0.006270875222980976
end
