version,3.0
numOfCh,1
type,point
parent_name,34a6d_0dot069-0dot1
ch_type,1_1
kcount,1
numberNandB,1
brightnessNandB,1
carpet pos,0
pc,0
Time (ms),CH1 Auto-Correlation
1.0,0.08554621040821075
2.0,0.08472751826047897
3.0,0.0839841216802597
4.0,0.08324385434389114
5.0,0.08251628279685974
6.0,0.08180936425924301
7.0,0.08112829178571701
8.0,0.08040156215429306
9.0,0.07975941151380539
10.0,0.07910960912704468
11.0,0.07847367972135544
12.0,0.07782461494207382
13.0,0.07716657966375351
14.0,0.07652238756418228
15.0,0.07590034604072571
16.0,0.07530741393566132
18.0,0.07412739098072052
20.0,0.07301811873912811
22.0,0.07193810492753983
24.0,0.07091047614812851
26.0,0.06988359242677689
28.0,0.06888682395219803
30.0,0.06795709580183029
32.0,0.06708259880542755
36.0,0.06557931005954742
40.0,0.06424784660339355
44.0,0.06285232305526733
48.0,0.06139963120222092
52.0,0.06006729602813721
56.0,0.05878552049398422
60.0,0.057541005313396454
64.0,0.05628586933016777
72.0,0.053594864904880524
80.0,0.05111650004982948
88.0,0.04933439567685127
96.0,0.04774961620569229
104.0,0.04614722728729248
112.0,0.04461923614144325
120.0,0.04282095655798912
128.0,0.041048452258110046
144.0,0.03702932968735695
160.0,0.03331785276532173
176.0,0.030268531292676926
192.0,0.02745497226715088
208.0,0.025023987516760826
224.0,0.022310955449938774
240.0,0.02010136842727661
256.0,0.01706399954855442
288.0,0.0092672910541296
320.0,0.004971550311893225
352.0,0.0029408365953713655
384.0,0.0016435323050245643
416.0,0.0016305579338222742
448.0,0.0030938200652599335
480.0,0.0054627968929708
512.0,0.0070321145467460155
576.0,0.009089159779250622
640.0,0.007409294135868549
704.0,0.004010619129985571
768.0,0.0011491421610116959
832.0,-0.0022557859774678946
896.0,-0.004892571829259396
960.0,-0.007525905501097441
1024.0,-0.008408577181398869
1152.0,-0.013980930671095848
1280.0,-0.02139916829764843
1408.0,-0.020489025861024857
1536.0,-0.013725978322327137
1664.0,-0.014127456583082676
1792.0,-0.017768291756510735
1920.0,-0.017731761559844017
2048.0,-0.015791289508342743
2304.0,-0.005712168291211128
2560.0,0.0075437333434820175
2816.0,0.004401114769279957
3072.0,0.007865745574235916
3328.0,0.016642771661281586
3584.0,0.0005813061143271625
3840.0,0.01666376180946827
4096.0,-0.0008922251290641725
4608.0,-0.01215912215411663
5120.0,-0.00459660030901432
5632.0,0.008748166263103485
6144.0,0.015202322974801064
6656.0,0.010608630254864693
7168.0,-0.005686352960765362
7680.0,-0.03844556584954262
8192.0,-0.03511999920010567
end
