version,3.0
numOfCh,1
type,point
parent_name,34a6d_0dot069-0dot1
ch_type,1_1
kcount,1
numberNandB,1
brightnessNandB,1
carpet pos,0
pc,0
Time (ms),CH1 Auto-Correlation
1.0,0.06064599007368088
2.0,0.06007659062743187
3.0,0.059521209448575974
4.0,0.058971114456653595
5.0,0.058421965688467026
6.0,0.05788290128111839
7.0,0.057336654514074326
8.0,0.05683037266135216
9.0,0.05635679140686989
10.0,0.0558793880045414
11.0,0.0554148368537426
12.0,0.054965224117040634
13.0,0.05454857274889946
14.0,0.0541350357234478
15.0,0.05374056473374367
16.0,0.0533478744328022
18.0,0.05263762176036835
20.0,0.0519111305475235
22.0,0.05117084085941315
24.0,0.05042744800448418
26.0,0.049691516906023026
28.0,0.04894908145070076
30.0,0.04819340631365776
32.0,0.04750550910830498
36.0,0.0461876280605793
40.0,0.0450000986456871
44.0,0.04393612593412399
48.0,0.04296591505408287
52.0,0.0420021191239357
56.0,0.04100047051906586
60.0,0.03995927795767784
64.0,0.0389227420091629
72.0,0.036987632513046265
80.0,0.035104602575302124
88.0,0.0333821102976799
96.0,0.03186396136879921
104.0,0.030514327809214592
112.0,0.02920335717499256
120.0,0.027971176430583
128.0,0.026810679584741592
144.0,0.02487458847463131
160.0,0.022998441010713577
176.0,0.021154750138521194
192.0,0.02012382075190544
208.0,0.019204281270503998
224.0,0.01825779862701893
240.0,0.017114661633968353
256.0,0.01594245806336403
288.0,0.012900260277092457
320.0,0.010073095560073853
352.0,0.008352265693247318
384.0,0.00836422760039568
416.0,0.008210559375584126
448.0,0.007873998023569584
480.0,0.008319704793393612
512.0,0.009290382266044617
576.0,0.011914814822375774
640.0,0.013024401850998402
704.0,0.011253469623625278
768.0,0.009989832527935505
832.0,0.00829366222023964
896.0,0.0019367600325495005
960.0,-0.0010053229052573442
1024.0,0.0013186887372285128
1152.0,-0.002484014257788658
1280.0,-0.00423884904012084
1408.0,-0.003967126831412315
1536.0,-0.006753475405275822
1664.0,-0.007167411968111992
1792.0,-0.00650013005360961
1920.0,-0.0071653202176094055
2048.0,-0.01108373049646616
2304.0,-0.008428945206105709
2560.0,-0.006739926524460316
2816.0,-0.011481484398245811
3072.0,-0.007308751344680786
3328.0,-0.010027071461081505
3584.0,-0.00447157071903348
3840.0,0.0026266397908329964
4096.0,-0.004015145357698202
4608.0,0.0029451479203999043
5120.0,0.005692391190677881
5632.0,0.00620677275583148
6144.0,0.009017761796712875
6656.0,0.009833338670432568
7168.0,0.004572791513055563
7680.0,-0.006000700872391462
8192.0,-0.011521467939019203
end
