version,3.0
numOfCh,1
type,point
parent_name,34a6d_0dot069-0dot1
ch_type,1_1
kcount,1
numberNandB,1
brightnessNandB,1
carpet pos,0
pc,0
Time (ms),CH1 Auto-Correlation
1.0,0.0545218363404274
2.0,0.05401959642767906
3.0,0.05352971702814102
4.0,0.05303693562746048
5.0,0.05255971848964691
6.0,0.052109647542238235
7.0,0.05167190730571747
8.0,0.051240548491477966
9.0,0.05080015957355499
10.0,0.05036213621497154
11.0,0.04994085431098938
12.0,0.04951358586549759
13.0,0.0490945503115654
14.0,0.048689961433410645
15.0,0.048299577087163925
16.0,0.0479079969227314
18.0,0.04714832827448845
20.0,0.046400025486946106
22.0,0.04567848891019821
24.0,0.04495979845523834
26.0,0.044226303696632385
28.0,0.04348547384142876
30.0,0.04277418926358223
32.0,0.042120181024074554
36.0,0.04090936481952667
40.0,0.03971126675605774
44.0,0.0385018065571785
48.0,0.03731178864836693
52.0,0.0361788235604763
56.0,0.03511626645922661
60.0,0.03404930979013443
64.0,0.03296644240617752
72.0,0.030990922823548317
80.0,0.029252655804157257
88.0,0.02768814004957676
96.0,0.026189951226115227
104.0,0.02477240189909935
112.0,0.02342909947037697
120.0,0.022101057693362236
128.0,0.02084451913833618
144.0,0.018353747203946114
160.0,0.015622060745954514
176.0,0.013245665468275547
192.0,0.011377358809113503
208.0,0.009926537983119488
224.0,0.008905667811632156
240.0,0.008598282933235168
256.0,0.008725517429411411
288.0,0.009926430881023407
320.0,0.010523563250899315
352.0,0.010466217063367367
384.0,0.009462700225412846
416.0,0.008738508448004723
448.0,0.007110814563930035
480.0,0.00669257715344429
512.0,0.0067930505611002445
576.0,0.005944161210209131
640.0,0.0040526618249714375
704.0,0.001475485390983522
768.0,-0.0010600531240925193
832.0,-0.0020886012353003025
896.0,-0.0021352916955947876
960.0,-0.0018020158167928457
1024.0,-0.00519456947222352
1152.0,-0.005223331972956657
1280.0,8.755348244449124e-05
1408.0,-0.000645729131065309
1536.0,-0.003947483841329813
1664.0,-0.004971672780811787
1792.0,-0.0010757127311080694
1920.0,-0.003969052340835333
2048.0,-0.006237607449293137
2304.0,-0.00830682460218668
2560.0,0.000874009623657912
2816.0,-0.001904973411001265
3072.0,-0.004451169166713953
3328.0,-0.0033678002655506134
3584.0,0.00010107806883752346
3840.0,0.004371935501694679
4096.0,0.006916367448866367
4608.0,0.0032016681507229805
5120.0,0.0013409616658464074
5632.0,0.004821597132831812
6144.0,-0.0012667253613471985
6656.0,-0.006667964160442352
7168.0,-0.005451862700283527
7680.0,-0.0027330380398780107
8192.0,0.002607762347906828
end
