version,3.0
numOfCh,1
type,point
parent_name,34a6d_0dot069-0dot1
ch_type,1_1
kcount,1
numberNandB,1
brightnessNandB,1
carpet pos,0
pc,0
Time (ms),CH1 Auto-Correlation
1.0,0.07724315673112869
2.0,0.07657595723867416
3.0,0.07596295326948166
4.0,0.07540479302406311
5.0,0.0748688206076622
6.0,0.07434903830289841
7.0,0.07385896146297455
8.0,0.07336917519569397
9.0,0.0728805735707283
10.0,0.07239943742752075
11.0,0.07190241664648056
12.0,0.07143685221672058
13.0,0.07099118083715439
14.0,0.07058008015155792
15.0,0.07016808539628983
16.0,0.06977466493844986
18.0,0.06900335848331451
20.0,0.06824265420436859
22.0,0.06751109659671783
24.0,0.06680215895175934
26.0,0.06608805805444717
28.0,0.06536974012851715
30.0,0.06470739841461182
32.0,0.06408566236495972
36.0,0.06291095167398453
40.0,0.061663202941417694
44.0,0.06040199100971222
48.0,0.05926922708749771
52.0,0.05826997011899948
56.0,0.05735921114683151
60.0,0.05639460310339928
64.0,0.05541727691888809
72.0,0.05360531806945801
80.0,0.0519237145781517
88.0,0.0505497083067894
96.0,0.04912736639380455
104.0,0.04793136566877365
112.0,0.04704790562391281
120.0,0.04602848365902901
128.0,0.04498611018061638
144.0,0.04353867843747139
160.0,0.042189132422208786
176.0,0.04125047102570534
192.0,0.04022222384810448
208.0,0.03899792581796646
224.0,0.037835340946912766
240.0,0.0371047779917717
256.0,0.03661922737956047
288.0,0.03522951900959015
320.0,0.034518271684646606
352.0,0.03420884534716606
384.0,0.034505680203437805
416.0,0.033217377960681915
448.0,0.03182480111718178
480.0,0.029639264568686485
512.0,0.027171555906534195
576.0,0.02671731449663639
640.0,0.02403852716088295
704.0,0.020558055490255356
768.0,0.017143065109848976
832.0,0.014124233275651932
896.0,0.012801438570022583
960.0,0.011527529917657375
1024.0,0.012378834187984467
1152.0,0.011461599729955196
1280.0,0.011697856709361076
1408.0,0.01041932962834835
1536.0,0.004518347326666117
1664.0,0.008523253723978996
1792.0,0.008814948610961437
1920.0,0.0026231359224766493
2048.0,0.0002619071747176349
2304.0,-0.002272686455398798
2560.0,-0.013135048560798168
2816.0,-0.020640995353460312
3072.0,-0.03207226097583771
3328.0,-0.036133211106061935
3584.0,-0.03345223143696785
3840.0,-0.025707460939884186
4096.0,-0.020589761435985565
4608.0,-0.03480968624353409
5120.0,-0.020568467676639557
5632.0,-0.004172626417130232
6144.0,0.0069832275621593
6656.0,0.01151933055371046
7168.0,0.021180564537644386
7680.0,0.02256081812083721
8192.0,0.022083723917603493
end
