version,3.0
numOfCh,1
type,point
parent_name,34a6d_0dot069-0dot1
ch_type,1_1
kcount,1
numberNandB,1
brightnessNandB,1
carpet pos,0
pc,0
Time (ms),CH1 Auto-Correlation
1.0,0.06471500545740128
2.0,0.06411914527416229
3.0,0.06357479840517044
4.0,0.06302379816770554
5.0,0.06252560764551163
6.0,0.062023140490055084
7.0,0.06150876358151436
8.0,0.061034396290779114
9.0,0.060584597289562225
10.0,0.06014601141214371
11.0,0.05973581597208977
12.0,0.05934078246355057
13.0,0.058927107602357864
14.0,0.05853646993637085
15.0,0.05814594402909279
16.0,0.05775732919573784
18.0,0.05696553364396095
20.0,0.05617056414484978
22.0,0.05538821965456009
24.0,0.054637134075164795
26.0,0.05390029773116112
28.0,0.05321468412876129
30.0,0.0525403656065464
32.0,0.051907747983932495
36.0,0.05075297877192497
40.0,0.04973350092768669
44.0,0.048729851841926575
48.0,0.04780813679099083
52.0,0.046880073845386505
56.0,0.045996688306331635
60.0,0.045124202966690063
64.0,0.04423957318067551
72.0,0.042590562254190445
80.0,0.04099026322364807
88.0,0.03943612799048424
96.0,0.037859249860048294
104.0,0.036326512694358826
112.0,0.03505411744117737
120.0,0.03360097110271454
128.0,0.032259006053209305
144.0,0.03039023093879223
160.0,0.02808583527803421
176.0,0.02527436800301075
192.0,0.022804327309131622
208.0,0.020893234759569168
224.0,0.01919855922460556
240.0,0.017779191955924034
256.0,0.015769192948937416
288.0,0.011730010621249676
320.0,0.009628312662243843
352.0,0.008820517919957638
384.0,0.00794784165918827
416.0,0.006646905560046434
448.0,0.005318208131939173
480.0,0.004511698614805937
512.0,0.005241199396550655
576.0,0.004397241398692131
640.0,0.002118307165801525
704.0,-0.002291717566549778
768.0,-0.007285949774086475
832.0,-0.009671559557318687
896.0,-0.009846330620348454
960.0,-0.010667403228580952
1024.0,-0.012982864864170551
1152.0,-0.013351147063076496
1280.0,-0.012466959655284882
1408.0,-0.007607331033796072
1536.0,-0.005970423575490713
1664.0,-0.007158349268138409
1792.0,-0.008640295825898647
1920.0,-0.010619042441248894
2048.0,-0.0055354079231619835
2304.0,-0.008417012169957161
2560.0,-0.001031561871059239
2816.0,0.0046155727468431
3072.0,0.0036596148274838924
3328.0,-4.9999278417089954e-05
3584.0,-0.002094424329698086
3840.0,0.00520866084843874
4096.0,0.0027565411292016506
4608.0,0.002047388581559062
5120.0,0.010328719392418861
5632.0,-0.003972911275923252
6144.0,-0.017893068492412567
6656.0,0.0030075840186327696
7168.0,0.014760012738406658
7680.0,0.0002904564025811851
8192.0,-0.004938315600156784
end
