version,3.0
numOfCh,1
type,point
parent_name,34a6d_0dot069-0dot1
ch_type,1_1
kcount,1
numberNandB,1
brightnessNandB,1
carpet pos,0
pc,0
Time (ms),CH1 Auto-Correlation
1.0,0.05919121578335762
2.0,0.058428339660167694
3.0,0.05769234523177147
4.0,0.0570107065141201
5.0,0.05634104833006859
6.0,0.05570008233189583
7.0,0.05504819378256798
8.0,0.05442450940608978
9.0,0.05384865030646324
10.0,0.053284335881471634
11.0,0.05275681987404823
12.0,0.05223197117447853
13.0,0.05172859877347946
14.0,0.05128015577793121
15.0,0.050843704491853714
16.0,0.05040712282061577
18.0,0.04952121898531914
20.0,0.04865090176463127
22.0,0.04783928766846657
24.0,0.04707174748182297
26.0,0.046403948217630386
28.0,0.04582827538251877
30.0,0.04527405649423599
32.0,0.044752273708581924
36.0,0.04373544082045555
40.0,0.04265197366476059
44.0,0.04160669445991516
48.0,0.04065423458814621
52.0,0.03979233652353287
56.0,0.0391167588531971
60.0,0.03847245126962662
64.0,0.03781837597489357
72.0,0.0365452915430069
80.0,0.03526384010910988
88.0,0.03426229953765869
96.0,0.03314192593097687
104.0,0.03168870508670807
112.0,0.03021007776260376
120.0,0.029143076390028
128.0,0.028326140716671944
144.0,0.026373524218797684
160.0,0.024727974086999893
176.0,0.02328995056450367
192.0,0.02222370356321335
208.0,0.021408578380942345
224.0,0.020387569442391396
240.0,0.019461488351225853
256.0,0.018249766901135445
288.0,0.016696827486157417
320.0,0.016334349289536476
352.0,0.016317004337906837
384.0,0.012801002711057663
416.0,0.01039145328104496
448.0,0.008300354704260826
480.0,0.005829318426549435
512.0,0.002787642879411578
576.0,-0.003172357566654682
640.0,-0.007198250852525234
704.0,-0.004992304835468531
768.0,-0.006387925706803799
832.0,-0.009979423135519028
896.0,-0.011577623896300793
960.0,-0.01129635889083147
1024.0,-0.009343836456537247
1152.0,-0.0082141924649477
1280.0,-0.011362599208950996
1408.0,-0.011005938984453678
1536.0,-0.009100700728595257
1664.0,-0.009146738797426224
1792.0,-0.00711477966979146
1920.0,-0.0018614149885252118
2048.0,-0.0006343187997117639
2304.0,0.0008499259711243212
2560.0,-0.001660001347772777
2816.0,-0.004736730363219976
3072.0,-0.004458351526409388
3328.0,-0.005746657028794289
3584.0,0.0003730333992280066
3840.0,0.007566316053271294
4096.0,0.011735910549759865
4608.0,0.012604438699781895
5120.0,0.0009253088501282036
5632.0,-0.010265826247632504
6144.0,-0.005879443604499102
6656.0,-0.0009660720825195312
7168.0,-0.01733861304819584
7680.0,0.004048025235533714
8192.0,0.01181976031512022
end
