version,3.0
numOfCh,1
type,point
parent_name,34a6d_0dot069-0dot1
ch_type,1_1
kcount,1
numberNandB,1
brightnessNandB,1
carpet pos,0
pc,0
Time (ms),CH1 Auto-Correlation
1.0,0.0791907012462616
2.0,0.07865330576896667
3.0,0.07813107967376709
4.0,0.07760196179151535
5.0,0.07710238546133041
6.0,0.07660545408725739
7.0,0.07609721273183823
8.0,0.07562030851840973
9.0,0.07515669614076614
10.0,0.07469137012958527
11.0,0.07424499839544296
12.0,0.07379747182130814
13.0,0.07335659861564636
14.0,0.07294724881649017
15.0,0.07253997027873993
16.0,0.07213489711284637
18.0,0.07134449481964111
20.0,0.0706077516078949
22.0,0.0699467733502388
24.0,0.06933847069740295
26.0,0.06878534704446793
28.0,0.06829377263784409
30.0,0.06781041622161865
32.0,0.06728241592645645
36.0,0.0662054494023323
40.0,0.06507685035467148
44.0,0.06394904106855392
48.0,0.06277183443307877
52.0,0.061557453125715256
56.0,0.060410477221012115
60.0,0.059366170316934586
64.0,0.058421265333890915
72.0,0.05659427493810654
80.0,0.054934099316596985
88.0,0.05341333523392677
96.0,0.05192791670560837
104.0,0.05058245360851288
112.0,0.049291305243968964
120.0,0.048117686063051224
128.0,0.04710939899086952
144.0,0.04478921741247177
160.0,0.042105525732040405
176.0,0.03984370082616806
192.0,0.03783845901489258
208.0,0.03600316494703293
224.0,0.03454543277621269
240.0,0.032676033675670624
256.0,0.030923902988433838
288.0,0.029493018984794617
320.0,0.029157288372516632
352.0,0.028037095442414284
384.0,0.026818905025720596
416.0,0.024923568591475487
448.0,0.022535324096679688
480.0,0.020827284082770348
512.0,0.019922994077205658
576.0,0.015966692939400673
640.0,0.012549753300845623
704.0,0.01066602673381567
768.0,0.008081331849098206
832.0,0.005583790130913258
896.0,0.0038137705996632576
960.0,0.002336181467399001
1024.0,-0.0012631327845156193
1152.0,-0.0035193494986742735
1280.0,-0.0018153925193473697
1408.0,-0.0007206237642094493
1536.0,-0.004747060127556324
1664.0,-0.012923133559525013
1792.0,-0.015252700075507164
1920.0,-0.015108245424926281
2048.0,-0.014907827600836754
2304.0,-0.013651134446263313
2560.0,-0.010768554173409939
2816.0,-0.005185269750654697
3072.0,-0.00870059709995985
3328.0,-0.0078019336797297
3584.0,0.0008956165984272957
3840.0,0.0006259374204091728
4096.0,0.002224747324362397
4608.0,0.0030782483518123627
5120.0,0.0074712964706122875
5632.0,0.014315466396510601
6144.0,0.018589813262224197
6656.0,-0.0005891537293791771
7168.0,-0.022980062291026115
7680.0,-0.02382822148501873
8192.0,-0.014037984423339367
end
