version,3.0
numOfCh,1
type,point
parent_name,34a6d_0dot069-0dot1
ch_type,1_1
kcount,1
numberNandB,1
brightnessNandB,1
carpet pos,0
pc,0
Time (ms),CH1 Auto-Correlation
1.0,0.047244906425476074
2.0,0.046751633286476135
3.0,0.04627440124750137
4.0,0.04580997675657272
5.0,0.04536059871315956
6.0,0.04491480439901352
7.0,0.0444655679166317
8.0,0.04400937259197235
9.0,0.04357657581567764
10.0,0.04315224662423134
11.0,0.04275025427341461
12.0,0.04237019643187523
13.0,0.041976433247327805
14.0,0.04158473014831543
15.0,0.04119020327925682
16.0,0.040791336447000504
18.0,0.04003498703241348
20.0,0.0392717607319355
22.0,0.0385315902531147
24.0,0.03782651945948601
26.0,0.03714091330766678
28.0,0.03643755614757538
30.0,0.035753197968006134
32.0,0.03505662828683853
36.0,0.03376579284667969
40.0,0.03264392912387848
44.0,0.03157498314976692
48.0,0.030507158488035202
52.0,0.029481764882802963
56.0,0.028512369841337204
60.0,0.027511658146977425
64.0,0.02649599313735962
72.0,0.024652797728776932
80.0,0.02284211292862892
88.0,0.02112780697643757
96.0,0.019549112766981125
104.0,0.01810147985816002
112.0,0.01691279374063015
120.0,0.0158695075660944
128.0,0.01479340996593237
144.0,0.013088001869618893
160.0,0.011657871305942535
176.0,0.010443026199936867
192.0,0.00980484951287508
208.0,0.009185717441141605
224.0,0.008371826261281967
240.0,0.007722094189375639
256.0,0.0069943075068295
288.0,0.0048346146941185
320.0,0.003368851263076067
352.0,0.0036234522704035044
384.0,0.0031696814112365246
416.0,0.002131335437297821
448.0,0.002204060321673751
480.0,0.0027758360374718904
512.0,0.004450288601219654
576.0,0.006910787895321846
640.0,0.004573401995003223
704.0,0.0025972567964345217
768.0,0.002398858079686761
832.0,9.238020720658824e-05
896.0,-0.002202467294409871
960.0,-0.004150549881160259
1024.0,-0.00686685973778367
1152.0,-0.00021928694332018495
1280.0,0.001118852524086833
1408.0,-0.0010891269193962216
1536.0,-0.0038303323090076447
1664.0,-0.00020920380484312773
1792.0,0.001531299320049584
1920.0,-0.00110789411701262
2048.0,-0.003516613505780697
2304.0,-0.0026212299708276987
2560.0,6.622746150242165e-05
2816.0,-0.0012050432851538062
3072.0,-0.0026134245563298464
3328.0,-0.005963372532278299
3584.0,-4.030803756904788e-05
3840.0,-0.000376945361495018
4096.0,0.0047264560125768185
4608.0,-0.004790411330759525
5120.0,-0.006959543097764254
5632.0,-0.0024365540593862534
6144.0,-0.0062593333423137665
6656.0,-0.006536855362355709
7168.0,0.004790091887116432
7680.0,0.008022669702768326
8192.0,0.003720672335475683
end
