version,3.0
numOfCh,1
type,point
parent_name,34a6d_0dot069-0dot1
ch_type,1_1
kcount,1
numberNandB,1
brightnessNandB,1
carpet pos,0
pc,0
Time (ms),CH1 Auto-Correlation
1.0,0.06843627244234085
2.0,0.06786379218101501
3.0,0.06732936203479767
4.0,0.06682314723730087
5.0,0.0663222149014473
6.0,0.06583043932914734
7.0,0.06536257266998291
8.0,0.06489348411560059
9.0,0.06444556266069412
10.0,0.06402860581874847
11.0,0.06361415982246399
12.0,0.06318745017051697
13.0,0.06275580078363419
14.0,0.06231597810983658
15.0,0.061885710805654526
16.0,0.061468034982681274
18.0,0.0606350302696228
20.0,0.059882164001464844
22.0,0.059197861701250076
24.0,0.058540843427181244
26.0,0.057914845645427704
28.0,0.05730901286005974
30.0,0.05669092759490013
32.0,0.05608261004090309
36.0,0.054921381175518036
40.0,0.05376434326171875
44.0,0.052584245800971985
48.0,0.051461681723594666
52.0,0.05041418597102165
56.0,0.049473442137241364
60.0,0.04846828803420067
64.0,0.04746655747294426
72.0,0.04577142745256424
80.0,0.0442061610519886
88.0,0.042919326573610306
96.0,0.0415230430662632
104.0,0.03994184359908104
112.0,0.038519762456417084
120.0,0.03734664246439934
128.0,0.03633873537182808
144.0,0.034530848264694214
160.0,0.03316836431622505
176.0,0.03176333010196686
192.0,0.03040214069187641
208.0,0.029306747019290924
224.0,0.02854606881737709
240.0,0.028018265962600708
256.0,0.027571385726332664
288.0,0.025714032351970673
320.0,0.024297047406435013
352.0,0.024111229926347733
384.0,0.023555850610136986
416.0,0.021898522973060608
448.0,0.020014913752675056
480.0,0.01799858547747135
512.0,0.01572333835065365
576.0,0.011395838111639023
640.0,0.009251855313777924
704.0,0.00918781477957964
768.0,0.007040110882371664
832.0,0.0034380240831524134
896.0,-0.00014861107047181576
960.0,-0.0024618871975690126
1024.0,-0.0027052860241383314
1152.0,-0.004903131164610386
1280.0,-0.010416730307042599
1408.0,-0.008764185011386871
1536.0,-0.008082976564764977
1664.0,-0.010247291065752506
1792.0,-0.009860657155513763
1920.0,-0.007072702515870333
2048.0,-0.006128283217549324
2304.0,0.004728165455162525
2560.0,0.009905661456286907
2816.0,0.008639509789645672
3072.0,0.009339850395917892
3328.0,0.006949594244360924
3584.0,-0.0014043088303878903
3840.0,-0.007146746385842562
4096.0,-0.011357208713889122
4608.0,-0.01782909967005253
5120.0,-0.009859479032456875
5632.0,0.008959785103797913
6144.0,0.01562575250864029
6656.0,-0.005577523726969957
7168.0,-0.02411983348429203
7680.0,-0.027347851544618607
8192.0,-0.014975841157138348
end
