version,3.0
numOfCh,1
type,point
parent_name,34a6d_0dot069-0dot1
ch_type,1_1
kcount,1
numberNandB,1
brightnessNandB,1
carpet pos,0
pc,0
Time (ms),CH1 Auto-Correlation
1.0,0.07890652865171432
2.0,0.07842840999364853
3.0,0.07796353101730347
4.0,0.07752034813165665
5.0,0.07708791643381119
6.0,0.07664774358272552
7.0,0.07621470838785172
8.0,0.0757940411567688
9.0,0.07536635547876358
10.0,0.07494637370109558
11.0,0.07453415542840958
12.0,0.07414141297340393
13.0,0.07375714182853699
14.0,0.07336998730897903
15.0,0.07297839969396591
16.0,0.07260628789663315
18.0,0.07189896702766418
20.0,0.07124013453722
22.0,0.07062359154224396
24.0,0.07000516355037689
26.0,0.06943035125732422
28.0,0.06889942288398743
30.0,0.06837817281484604
32.0,0.06783832609653473
36.0,0.06670595705509186
40.0,0.06558576971292496
44.0,0.06448091566562653
48.0,0.06342077255249023
52.0,0.06247855722904205
56.0,0.06160787120461464
60.0,0.06080174446105957
64.0,0.060016825795173645
72.0,0.05840976908802986
80.0,0.05682651698589325
88.0,0.05547412112355232
96.0,0.054320186376571655
104.0,0.05324232950806618
112.0,0.052238889038562775
120.0,0.05115741491317749
128.0,0.05017514526844025
144.0,0.04793250560760498
160.0,0.04546603187918663
176.0,0.04335957020521164
192.0,0.041831452399492264
208.0,0.04047975316643715
224.0,0.03902548924088478
240.0,0.03769492357969284
256.0,0.03708047419786453
288.0,0.03622732311487198
320.0,0.034414198249578476
352.0,0.03164222463965416
384.0,0.028520310297608376
416.0,0.026268914341926575
448.0,0.02367917262017727
480.0,0.021437490358948708
512.0,0.01966974325478077
576.0,0.019279515370726585
640.0,0.01752510294318199
704.0,0.014865434728562832
768.0,0.012711522169411182
832.0,0.012834941036999226
896.0,0.0177909005433321
960.0,0.02193836122751236
1024.0,0.022680051624774933
1152.0,0.023533521220088005
1280.0,0.02253192476928234
1408.0,0.018461283296346664
1536.0,0.01729547046124935
1664.0,0.011873077601194382
1792.0,0.007415545638650656
1920.0,0.0067975521087646484
2048.0,0.0027143543120473623
2304.0,0.003993133548647165
2560.0,0.0031280789989978075
2816.0,0.0004974484909325838
3072.0,-0.0064924536272883415
3328.0,-0.007160278037190437
3584.0,-0.006409932859241962
3840.0,-0.00772859575226903
4096.0,-0.01205269806087017
4608.0,-0.017286553978919983
5120.0,-0.010175471194088459
5632.0,0.0014390273718163371
6144.0,-0.005716315004974604
6656.0,-0.010616295039653778
7168.0,-0.0036167586222290993
7680.0,-0.009268277324736118
8192.0,-0.010144395753741264
end
