version,3.0
numOfCh,1
type,point
parent_name,34a6d_0dot069-0dot1
ch_type,1_1
kcount,1
numberNandB,1
brightnessNandB,1
carpet pos,0
pc,0
Time (ms),CH1 Auto-Correlation
1.0,0.054086972028017044
2.0,0.05341937020421028
3.0,0.05279543623328209
4.0,0.0521712563931942
5.0,0.051614902913570404
6.0,0.051081039011478424
7.0,0.0505550280213356
8.0,0.05007136985659599
9.0,0.049641791731119156
10.0,0.049235593527555466
11.0,0.04883331060409546
12.0,0.04843118414282799
13.0,0.04801704362034798
14.0,0.04759982228279114
15.0,0.047181494534015656
16.0,0.04677078500390053
18.0,0.045998625457286835
20.0,0.045275118201971054
22.0,0.04456338658928871
24.0,0.04385679215192795
26.0,0.04314884915947914
28.0,0.042502641677856445
30.0,0.04187577962875366
32.0,0.04131633788347244
36.0,0.040249817073345184
40.0,0.03923604637384415
44.0,0.03826111555099487
48.0,0.03719983622431755
52.0,0.036240607500076294
56.0,0.03551036864519119
60.0,0.03481022268533707
64.0,0.03409966453909874
72.0,0.032858651131391525
80.0,0.031296420842409134
88.0,0.02971835248172283
96.0,0.028156809508800507
104.0,0.026714539155364037
112.0,0.025396278128027916
120.0,0.024250084534287453
128.0,0.02355332300066948
144.0,0.022949686273932457
160.0,0.022385669872164726
176.0,0.02185487560927868
192.0,0.02103547565639019
208.0,0.0207984559237957
224.0,0.02048240415751934
240.0,0.02005627192556858
256.0,0.01881462149322033
288.0,0.015972193330526352
320.0,0.014620914123952389
352.0,0.013987453654408455
384.0,0.015514969825744629
416.0,0.015796123072504997
448.0,0.014127582311630249
480.0,0.012447920627892017
512.0,0.011667519807815552
576.0,0.010956604033708572
640.0,0.011729031801223755
704.0,0.010311584919691086
768.0,0.009178313426673412
832.0,0.009287061169743538
896.0,0.008191724307835102
960.0,0.0057803490199148655
1024.0,0.00405486673116684
1152.0,0.003064477350562811
1280.0,0.004111248534172773
1408.0,0.004884351976215839
1536.0,0.004875855054706335
1664.0,0.006690829526633024
1792.0,0.007436113897711039
1920.0,0.006083530839532614
2048.0,0.0074511077255010605
2304.0,0.005788753274828196
2560.0,0.0033399921376258135
2816.0,-0.0013826754875481129
3072.0,-0.0020686869975179434
3328.0,-0.007693891879171133
3584.0,-0.004530524834990501
3840.0,-0.003307613544166088
4096.0,-0.0011828048154711723
4608.0,-0.005502135492861271
5120.0,-0.011567833833396435
5632.0,-0.005990306381136179
6144.0,-0.005645513068884611
6656.0,-0.006567896343767643
7168.0,-0.0051018251106143
7680.0,-0.017275342717766762
8192.0,-0.020130259916186333
end
