version,3.0
numOfCh,1
type,point
parent_name,34a6d_0dot069-0dot1
ch_type,1_1
kcount,1
numberNandB,1
brightnessNandB,1
carpet pos,0
pc,0
Time (ms),CH1 Auto-Correlation
1.0,0.067987821996212
2.0,0.06745104491710663
3.0,0.06695084273815155
4.0,0.06647853553295135
5.0,0.06600499898195267
6.0,0.06555616855621338
7.0,0.06512545049190521
8.0,0.06469816714525223
9.0,0.0642399787902832
10.0,0.06378920376300812
11.0,0.06336203962564468
12.0,0.06295562535524368
13.0,0.06254888325929642
14.0,0.06215120106935501
15.0,0.06176133081316948
16.0,0.0613723061978817
18.0,0.060618773102760315
20.0,0.059866052120923996
22.0,0.059102755039930344
24.0,0.05835239216685295
26.0,0.05764520540833473
28.0,0.05695043131709099
30.0,0.056284453719854355
32.0,0.055651336908340454
36.0,0.054459284991025925
40.0,0.05327270179986954
44.0,0.05212182551622391
48.0,0.05099000036716461
52.0,0.049866948276758194
56.0,0.04871255159378052
60.0,0.04757273942232132
64.0,0.04649350419640541
72.0,0.04461030662059784
80.0,0.043088529258966446
88.0,0.041895460337400436
96.0,0.040851760655641556
104.0,0.03993181139230728
112.0,0.03893953934311867
120.0,0.037898700684309006
128.0,0.0370141826570034
144.0,0.035276662558317184
160.0,0.033408358693122864
176.0,0.03156072646379471
192.0,0.029837246984243393
208.0,0.027904639020562172
224.0,0.025669565424323082
240.0,0.023488231003284454
256.0,0.021389350295066833
288.0,0.017743954434990883
320.0,0.01537416223436594
352.0,0.015152433887124062
384.0,0.014745712280273438
416.0,0.013563655316829681
448.0,0.011923773214221
480.0,0.01027225237339735
512.0,0.00956437736749649
576.0,0.008194790221750736
640.0,0.004809556994587183
704.0,0.004222352523356676
768.0,0.0066274008713662624
832.0,0.00811906810849905
896.0,0.009111132472753525
960.0,0.0066413008607923985
1024.0,0.00505842873826623
1152.0,0.002663225866854191
1280.0,8.791910659056157e-05
1408.0,-0.005944328382611275
1536.0,-0.007724971044808626
1664.0,-0.004200055729597807
1792.0,-0.0030197645537555218
1920.0,-0.005487421061843634
2048.0,-0.00757212657481432
2304.0,-0.011890658177435398
2560.0,-0.014251704327762127
2816.0,-0.013180071488022804
3072.0,-0.016373073682188988
3328.0,-0.008307778276503086
3584.0,-0.005513856187462807
3840.0,-0.006330892443656921
4096.0,-0.013755609281361103
4608.0,-0.0018510661320760846
5120.0,0.007330888416618109
5632.0,0.01739906705915928
6144.0,0.004834240302443504
6656.0,0.00279448926448822
7168.0,0.00430290587246418
7680.0,0.0012396725360304117
8192.0,0.006023927591741085
end
