version,3.0
numOfCh,1
type,point
parent_name,34a6d_0dot069-0dot1
ch_type,1_1
kcount,1
numberNandB,1
brightnessNandB,1
carpet pos,0
pc,0
Time (ms),CH1 Auto-Correlation
1.0,0.08244692534208298
2.0,0.08188062161207199
3.0,0.08131816238164902
4.0,0.08077127486467361
5.0,0.08024389296770096
6.0,0.07973740249872208
7.0,0.07923387736082077
8.0,0.07875608652830124
9.0,0.07828862965106964
10.0,0.07783583551645279
11.0,0.07738655805587769
12.0,0.07695344090461731
13.0,0.07654117047786713
14.0,0.07614879310131073
15.0,0.07576138526201248
16.0,0.07537426054477692
18.0,0.0746108889579773
20.0,0.07392369955778122
22.0,0.07324208319187164
24.0,0.07260977476835251
26.0,0.07196970283985138
28.0,0.07130125164985657
30.0,0.07060977071523666
32.0,0.06991661339998245
36.0,0.06858477741479874
40.0,0.06745068728923798
44.0,0.06636158376932144
48.0,0.0653267651796341
52.0,0.06428223848342896
56.0,0.06321189552545547
60.0,0.062151193618774414
64.0,0.0610957108438015
72.0,0.05939324200153351
80.0,0.05812297388911247
88.0,0.057008832693099976
96.0,0.05584557726979256
104.0,0.054501213133335114
112.0,0.052940964698791504
120.0,0.05127570405602455
128.0,0.04971185326576233
144.0,0.04718084633350372
160.0,0.045099008828401566
176.0,0.04351016506552696
192.0,0.042958393692970276
208.0,0.04301264509558678
224.0,0.04273674264550209
240.0,0.042112961411476135
256.0,0.04152382165193558
288.0,0.04061661288142204
320.0,0.03979041799902916
352.0,0.0379842184484005
384.0,0.03562095761299133
416.0,0.03365940973162651
448.0,0.033222027122974396
480.0,0.03222227469086647
512.0,0.0320080928504467
576.0,0.03277541697025299
640.0,0.03310752287507057
704.0,0.031595177948474884
768.0,0.033078357577323914
832.0,0.03225696459412575
896.0,0.031032893806695938
960.0,0.029490530490875244
1024.0,0.027436595410108566
1152.0,0.023683136329054832
1280.0,0.018181221559643745
1408.0,0.016654377803206444
1536.0,0.013340665958821774
1664.0,0.012540356256067753
1792.0,0.019655082374811172
1920.0,0.022565500810742378
2048.0,0.02025924064218998
2304.0,0.010112973861396313
2560.0,0.008412560448050499
2816.0,0.013029204681515694
3072.0,0.007728888653218746
3328.0,-0.004200120456516743
3584.0,-0.00849462952464819
3840.0,-0.00923845637589693
4096.0,-0.00915810838341713
4608.0,-0.021364539861679077
5120.0,-0.03118225373327732
5632.0,-0.03454255685210228
6144.0,-0.031726278364658356
6656.0,-0.02636883035302162
7168.0,-0.021903200075030327
7680.0,-0.028428569436073303
8192.0,-0.02632778137922287
end
