version,3.0
numOfCh,1
type,point
parent_name,19e3e_0dot6-0dot1
ch_type,1_1
kcount,1
numberNandB,1
brightnessNandB,1
carpet pos,0
pc,0
Time (ms),CH1 Auto-Correlation
1.0,0.024618852883577347
2.0,0.02342112362384796
3.0,0.022375082597136497
4.0,0.021421829238533974
5.0,0.0205481369048357
6.0,0.01976671628654003
7.0,0.019037993624806404
8.0,0.018358416855335236
9.0,0.017707059159874916
10.0,0.017087385058403015
11.0,0.016479680314660072
12.0,0.015903932973742485
13.0,0.015346250496804714
14.0,0.014766181819140911
15.0,0.014231769368052483
16.0,0.013735909946262836
18.0,0.012866673059761524
20.0,0.012125198729336262
22.0,0.011475889012217522
24.0,0.010898571461439133
26.0,0.01034998893737793
28.0,0.009715674445033073
30.0,0.009184879250824451
32.0,0.008743946440517902
36.0,0.007955998182296753
40.0,0.007361460477113724
44.0,0.006739135831594467
48.0,0.006061761640012264
52.0,0.005505844950675964
56.0,0.00499311275780201
60.0,0.00446378393098712
64.0,0.004036473575979471
72.0,0.003696368308737874
80.0,0.0037745132576674223
88.0,0.003809779416769743
96.0,0.0034940598998218775
104.0,0.0030404096469283104
112.0,0.002635696204379201
120.0,0.002325537148863077
128.0,0.002343983855098486
144.0,0.0025674833450466394
160.0,0.0022049956023693085
176.0,0.0015559016028419137
192.0,0.0003487844078335911
208.0,-0.0001584669080330059
224.0,3.846081381198019e-05
240.0,-6.85729319229722e-05
256.0,0.0003199102357029915
288.0,0.0011084318393841386
320.0,0.0017576590180397034
352.0,0.0016516285249963403
384.0,0.0010181295219808817
416.0,-0.0004933053278364241
448.0,-0.0005017417133785784
480.0,-0.00010050521086668596
512.0,-0.000603419030085206
576.0,-0.0006698930519632995
640.0,-2.9541502954089083e-05
704.0,-0.0005390805308707058
768.0,-0.0024203367065638304
832.0,-0.0012788171879947186
896.0,-0.0008727419772185385
960.0,-0.0008030388853512704
1024.0,-0.001161944237537682
1152.0,-0.0005943939904682338
1280.0,-4.808605808648281e-05
1408.0,-4.391089896671474e-05
1536.0,-0.00011021336104022339
1664.0,0.00028098432812839746
1792.0,-0.00035539359669201076
1920.0,-0.00034193930332548916
2048.0,-0.0008045444847084582
2304.0,-0.0007352152024395764
2560.0,9.256918565370142e-05
2816.0,0.00019356371194589883
3072.0,-0.0008370459545403719
3328.0,-0.0017852297751232982
3584.0,-0.0020265497732907534
3840.0,-0.0017643444007262588
4096.0,0.001338089583441615
4608.0,0.0008748103864490986
5120.0,0.000582277774810791
5632.0,0.00022046646336093545
6144.0,-0.000733018503524363
6656.0,0.00013838056474924088
7168.0,-6.359622057061642e-05
7680.0,-0.0009098766022361815
8192.0,-0.00038133544148877263
end
