version,3.0
numOfCh,1
type,point
parent_name,19e3e_0dot6-0dot1
ch_type,1_1
kcount,1
numberNandB,1
brightnessNandB,1
carpet pos,0
pc,0
Time (ms),CH1 Auto-Correlation
1.0,0.024332208558917046
2.0,0.023148812353610992
3.0,0.022056614980101585
4.0,0.021048149093985558
5.0,0.020133603364229202
6.0,0.019325941801071167
7.0,0.018553582951426506
8.0,0.017838498577475548
9.0,0.017198622226715088
10.0,0.016595445573329926
11.0,0.016038302332162857
12.0,0.015539717860519886
13.0,0.015078764408826828
14.0,0.014630058780312538
15.0,0.01423207949846983
16.0,0.013858157210052013
18.0,0.013129637576639652
20.0,0.012469206005334854
22.0,0.011830420233309269
24.0,0.011281438171863556
26.0,0.010829392820596695
28.0,0.010404493659734726
30.0,0.009967499412596226
32.0,0.009537001140415668
36.0,0.008776126429438591
40.0,0.008085159584879875
44.0,0.007506186608225107
48.0,0.007006105966866016
52.0,0.006641825195401907
56.0,0.00621637050062418
60.0,0.005891131237149239
64.0,0.0056649018079042435
72.0,0.004949518479406834
80.0,0.004527458921074867
88.0,0.004159954376518726
96.0,0.004282692447304726
104.0,0.004310367628931999
112.0,0.00443072197958827
120.0,0.0046140518970787525
128.0,0.004883513320237398
144.0,0.005436962936073542
160.0,0.005470333620905876
176.0,0.0052281757816672325
192.0,0.004301836248487234
208.0,0.0031122637446969748
224.0,0.002582761226221919
240.0,0.0022643432021141052
256.0,0.0019630598835647106
288.0,0.0012500773882493377
320.0,0.001672783400863409
352.0,0.0015905066393315792
384.0,0.0015790051547810435
416.0,0.00025666883448138833
448.0,-0.00023426620464306325
480.0,6.049243438610574e-06
512.0,-0.00018635348533280194
576.0,-0.0012774839997291565
640.0,-0.0010809811064973474
704.0,-0.0010424108477309346
768.0,-0.0018776722718030214
832.0,-0.0018831717316061258
896.0,-0.0014138458063825965
960.0,-0.0016154181212186813
1024.0,-0.002404766157269478
1152.0,-0.0019300931598991156
1280.0,-0.0005758134066127241
1408.0,0.0008730301051400602
1536.0,0.0017133166547864676
1664.0,0.0024450155906379223
1792.0,0.0024726151023060083
1920.0,0.0011847602436318994
2048.0,0.001038771471939981
2304.0,0.0005173383979126811
2560.0,3.553804344846867e-05
2816.0,-0.0005772060249000788
3072.0,0.0003154474834445864
3328.0,0.0017309091053903103
3584.0,0.001212420524097979
3840.0,0.00036279778578318655
4096.0,-0.0008855329360812902
4608.0,-0.0014907731674611568
5120.0,0.00038293690886348486
5632.0,0.0017185036558657885
6144.0,0.000809151737485081
6656.0,-0.0026510420721024275
7168.0,4.970178270014003e-05
7680.0,0.00020631813094951212
8192.0,-0.002506783464923501
end
