version,3.0
numOfCh,1
type,point
parent_name,19e3e_0dot6-0dot1
ch_type,1_1
kcount,1
numberNandB,1
brightnessNandB,1
carpet pos,0
pc,0
Time (ms),CH1 Auto-Correlation
1.0,0.02267567254602909
2.0,0.02152360789477825
3.0,0.020496712997555733
4.0,0.01952245831489563
5.0,0.018704693764448166
6.0,0.017979444935917854
7.0,0.017275609076023102
8.0,0.016613885760307312
9.0,0.01599467173218727
10.0,0.01539491768926382
11.0,0.014857885427772999
12.0,0.014374813996255398
13.0,0.013917753472924232
14.0,0.013469723053276539
15.0,0.013060440309345722
16.0,0.012670454569160938
18.0,0.012057437561452389
20.0,0.011488568969070911
22.0,0.011047225445508957
24.0,0.010671285912394524
26.0,0.010333893820643425
28.0,0.010017435997724533
30.0,0.00965873058885336
32.0,0.009334024041891098
36.0,0.008641497232019901
40.0,0.007953809574246407
44.0,0.007275963202118874
48.0,0.00655246851965785
52.0,0.005849647801369429
56.0,0.005277445074170828
60.0,0.004871055018156767
64.0,0.004666011314839125
72.0,0.004582990892231464
80.0,0.00429961271584034
88.0,0.003979824483394623
96.0,0.003530557034537196
104.0,0.0035537052899599075
112.0,0.003620208939537406
120.0,0.003180784173309803
128.0,0.0027895194943994284
144.0,0.0021465658210217953
160.0,0.0024621146731078625
176.0,0.002611666452139616
192.0,0.0022181393578648567
208.0,0.002627768786624074
224.0,0.0022647057194262743
240.0,0.0016129770083352923
256.0,0.0011099792318418622
288.0,0.000251720572123304
320.0,0.00040494470158591866
352.0,-0.00012424311717040837
384.0,0.0002410277520539239
416.0,0.0012286098208278418
448.0,0.0004238086112309247
480.0,-0.00017398552154190838
512.0,0.00016170748858712614
576.0,0.0013481854693964124
640.0,0.0007951683364808559
704.0,0.0004437534371390939
768.0,-0.0006154390866868198
832.0,-0.0017139483243227005
896.0,-0.00013813379337079823
960.0,0.0016151387244462967
1024.0,0.001603897544555366
1152.0,0.0012999809114262462
1280.0,0.0007677607936784625
1408.0,0.00046912304242141545
1536.0,0.0012916470877826214
1664.0,0.0006728887092322111
1792.0,-0.0003425347385928035
1920.0,-0.00030708705889992416
2048.0,0.0006646186229772866
2304.0,0.0004720267897937447
2560.0,-0.0009174969745799899
2816.0,-0.0009050121298059821
3072.0,-0.0001233696093549952
3328.0,-0.0006531175458803773
3584.0,0.00011151878425152972
3840.0,-0.0004751768137793988
4096.0,0.00048447021981701255
4608.0,9.40294994506985e-05
5120.0,0.001534271752461791
5632.0,-0.00018520091543905437
6144.0,-0.0005983408191241324
6656.0,-0.0007482999935746193
7168.0,-0.001992672448977828
7680.0,-0.003688015742227435
8192.0,-0.0008564323070459068
end
