version,3.0
numOfCh,1
type,point
parent_name,19e3e_0dot6-0dot1
ch_type,1_1
kcount,1
numberNandB,1
brightnessNandB,1
carpet pos,0
pc,0
Time (ms),CH1 Auto-Correlation
1.0,0.025529375299811363
2.0,0.024365833029150963
3.0,0.023291755467653275
4.0,0.02232094667851925
5.0,0.0214281864464283
6.0,0.020603010430932045
7.0,0.019806452095508575
8.0,0.019106868654489517
9.0,0.01845480501651764
10.0,0.017837917432188988
11.0,0.01726698875427246
12.0,0.016714351251721382
13.0,0.01619379222393036
14.0,0.015667730942368507
15.0,0.015116728842258453
16.0,0.014667061157524586
18.0,0.013919425196945667
20.0,0.013214671984314919
22.0,0.012602247297763824
24.0,0.012074432335793972
26.0,0.011519952677190304
28.0,0.011023107916116714
30.0,0.010630030184984207
32.0,0.010268660262227058
36.0,0.009589175693690777
40.0,0.00892767496407032
44.0,0.008412803523242474
48.0,0.00782931037247181
52.0,0.007354125380516052
56.0,0.007016397546976805
60.0,0.00686733890324831
64.0,0.006686869543045759
72.0,0.005655903834849596
80.0,0.004989348351955414
88.0,0.004633920732885599
96.0,0.004729756619781256
104.0,0.004784551914781332
112.0,0.004397681448608637
120.0,0.0037079446483403444
128.0,0.0034790493082255125
144.0,0.0032487406861037016
160.0,0.0030343662947416306
176.0,0.0031490162946283817
192.0,0.003218388883396983
208.0,0.0036260518245399
224.0,0.0039011952467262745
240.0,0.0031845474150031805
256.0,0.0026718596927821636
288.0,0.0026354787405580282
320.0,0.0009281070670112967
352.0,-0.00024649393162690103
384.0,-0.0010543919634073973
416.0,-0.0004708444175776094
448.0,-3.748248127521947e-05
480.0,-0.0008100684499368072
512.0,-0.0009326415020041168
576.0,-0.003148982534185052
640.0,-0.002136603696271777
704.0,-0.002016606042161584
768.0,-0.001786180422641337
832.0,-0.0012295279884710908
896.0,0.00013282558938954026
960.0,0.0008617590647190809
1024.0,-0.00026900568627752364
1152.0,-0.0006261746166273952
1280.0,-0.0011176514672115445
1408.0,-0.0010112221352756023
1536.0,-0.00133173493668437
1664.0,-0.0004833930288441479
1792.0,-0.000817563442979008
1920.0,-8.252538100350648e-05
2048.0,0.0005316547467373312
2304.0,0.0020612054504454136
2560.0,0.0007830013055354357
2816.0,-0.0015069511719048023
3072.0,-0.0011925832368433475
3328.0,0.0006295896600931883
3584.0,2.7080437575932592e-05
3840.0,0.0003495929704513401
4096.0,-0.0005482726264744997
4608.0,-0.00014217771240510046
5120.0,-0.0016568017890676856
5632.0,0.0011312972055748105
6144.0,0.00017654798284638673
6656.0,0.0014399950159713626
7168.0,-0.0018880193820223212
7680.0,-0.00041338620940223336
8192.0,0.0013644311111420393
end
