version,3.0
numOfCh,1
type,point
parent_name,19e3e_0dot6-0dot1
ch_type,1_1
kcount,1
numberNandB,1
brightnessNandB,1
carpet pos,0
pc,0
Time (ms),CH1 Auto-Correlation
1.0,0.02222316712141037
2.0,0.02101721242070198
3.0,0.019925152882933617
4.0,0.01892060786485672
5.0,0.01797446236014366
6.0,0.017131874337792397
7.0,0.016325797885656357
8.0,0.015625331550836563
9.0,0.0150108952075243
10.0,0.0144498897716403
11.0,0.013909591361880302
12.0,0.013424864038825035
13.0,0.012956694699823856
14.0,0.012509304098784924
15.0,0.012077913619577885
16.0,0.01162683591246605
18.0,0.010843606665730476
20.0,0.010113080963492393
22.0,0.009527027606964111
24.0,0.009050995111465454
26.0,0.008578741922974586
28.0,0.008092520758509636
30.0,0.007657111156731844
32.0,0.007285442668944597
36.0,0.006736350245773792
40.0,0.006259461399167776
44.0,0.005710302386432886
48.0,0.0052118622697889805
52.0,0.0048902309499681
56.0,0.0047051506116986275
60.0,0.0046817949041724205
64.0,0.004775760229676962
72.0,0.00473763095214963
80.0,0.004416281823068857
88.0,0.003959557041525841
96.0,0.0036715040914714336
104.0,0.0031692974735051394
112.0,0.0029262956231832504
120.0,0.002618188504129648
128.0,0.0027150618843734264
144.0,0.002154683694243431
160.0,0.0017859223298728466
176.0,0.002263888716697693
192.0,0.0021447595208883286
208.0,0.0016846711514517665
224.0,0.0012934304540976882
240.0,0.0015241693472489715
256.0,0.00194994464982301
288.0,0.0013657506788149476
320.0,0.0007521725492551923
352.0,0.0010510750580579042
384.0,0.0012484317412599921
416.0,0.0013181340182200074
448.0,0.0011395236942917109
480.0,0.0010822025360539556
512.0,-9.071300883078948e-05
576.0,-0.0010202259290963411
640.0,-0.00032836635364219546
704.0,0.0008413034374825656
768.0,0.0009822268038988113
832.0,-0.00034184716059826314
896.0,-0.0021152000408619642
960.0,-0.002534086350351572
1024.0,-0.001992077101022005
1152.0,-0.0018113866681233048
1280.0,-0.0014458977384492755
1408.0,-3.1386072805617005e-05
1536.0,0.0013992624590173364
1664.0,-0.0004946187837049365
1792.0,0.0006771155749447644
1920.0,0.0020313074346631765
2048.0,0.0015165092190727592
2304.0,0.000981100369244814
2560.0,0.0005994513630867004
2816.0,-0.0006883783498778939
3072.0,-0.0013779205037280917
3328.0,-0.001400129171088338
3584.0,-0.0002748883271124214
3840.0,0.0005193689139559865
4096.0,0.001555291353724897
4608.0,0.0008896383224055171
5120.0,-0.0009818912949413061
5632.0,-0.001203883090056479
6144.0,-0.00011383336823200807
6656.0,-0.00032416608883067966
7168.0,-0.0018376834923401475
7680.0,-0.0005438817897811532
8192.0,0.00046260360977612436
end
