version,3.0
numOfCh,1
type,point
parent_name,19e3e_0dot6-0dot1
ch_type,1_1
kcount,1
numberNandB,1
brightnessNandB,1
carpet pos,0
pc,0
Time (ms),CH1 Auto-Correlation
1.0,0.02151750773191452
2.0,0.02034180611371994
3.0,0.019263461232185364
4.0,0.018315568566322327
5.0,0.017428342252969742
6.0,0.0166439451277256
7.0,0.01591401733458042
8.0,0.015228424221277237
9.0,0.014612105675041676
10.0,0.014037695713341236
11.0,0.013524195179343224
12.0,0.013025305233895779
13.0,0.012530352920293808
14.0,0.012057160027325153
15.0,0.011630445718765259
16.0,0.011281429789960384
18.0,0.010663277469575405
20.0,0.010091829113662243
22.0,0.00963505543768406
24.0,0.009205938316881657
26.0,0.008846168406307697
28.0,0.008492130786180496
30.0,0.00807619746774435
32.0,0.007706476375460625
36.0,0.007127129938453436
40.0,0.0066369520500302315
44.0,0.006255310494452715
48.0,0.005923992954194546
52.0,0.005601242184638977
56.0,0.0052169812843203545
60.0,0.004676762968301773
64.0,0.004250241909176111
72.0,0.0037863219622522593
80.0,0.0033278034534305334
88.0,0.0027088141068816185
96.0,0.002237835433334112
104.0,0.002024612855166197
112.0,0.0019979109056293964
120.0,0.0020466898567974567
128.0,0.0018528052605688572
144.0,0.00140025420114398
160.0,0.001626672688871622
176.0,0.0015028431080281734
192.0,0.0013693267246708274
208.0,0.0012317070504650474
224.0,0.0005654784617945552
240.0,-0.00032553469645790756
256.0,-0.0007253673393279314
288.0,-0.00046468782238662243
320.0,-0.0005116431857459247
352.0,-0.0011199661530554295
384.0,-0.0019274827791377902
416.0,-0.0017495624488219619
448.0,-0.0020524265710264444
480.0,-0.001949451630935073
512.0,-0.0025576562620699406
576.0,-0.0015380161348730326
640.0,-0.0012944892514497042
704.0,-0.0011844912078231573
768.0,-0.0006470669177360833
832.0,2.639382546476554e-05
896.0,0.0007558389334008098
960.0,0.0007936632609926164
1024.0,0.0007905003731139004
1152.0,-0.00046667075366713107
1280.0,-0.0006389483460225165
1408.0,0.0007277052500285208
1536.0,0.001643550582230091
1664.0,0.001536024734377861
1792.0,4.886132592218928e-05
1920.0,0.00037383788730949163
2048.0,-0.0008236575522460043
2304.0,-0.001200242666527629
2560.0,-9.851104550762102e-05
2816.0,-0.0007083864766173065
3072.0,0.000562019704375416
3328.0,3.626872057793662e-05
3584.0,-0.00016901038179639727
3840.0,-0.0007832784904167056
4096.0,0.0004229500482324511
4608.0,0.0005956708919256926
5120.0,-0.000517109758220613
5632.0,0.00022283011639956385
6144.0,-0.00031264775316230953
6656.0,-0.00028979373746551573
7168.0,0.0003648328420240432
7680.0,0.0004869911354035139
8192.0,-0.00026349679683335125
end
