version,3.0
numOfCh,1
type,point
parent_name,19e3e_0dot6-0dot1
ch_type,1_1
kcount,1
numberNandB,1
brightnessNandB,1
carpet pos,0
pc,0
Time (ms),CH1 Auto-Correlation
1.0,0.022463152185082436
2.0,0.021339230239391327
3.0,0.020331960171461105
4.0,0.019464047625660896
5.0,0.018665948882699013
6.0,0.017940089106559753
7.0,0.017226381227374077
8.0,0.01659870333969593
9.0,0.016022657975554466
10.0,0.015498585067689419
11.0,0.015036137774586678
12.0,0.014582929201424122
13.0,0.014112964272499084
14.0,0.01365888025611639
15.0,0.013221138156950474
16.0,0.012814066372811794
18.0,0.01213900838047266
20.0,0.011488527990877628
22.0,0.010963794775307178
24.0,0.010472048074007034
26.0,0.009987054392695427
28.0,0.009474645368754864
30.0,0.008883204311132431
32.0,0.008320336230099201
36.0,0.007333318702876568
40.0,0.006682165432721376
44.0,0.006186863407492638
48.0,0.005727499257773161
52.0,0.0053503806702792645
56.0,0.004993771202862263
60.0,0.004661757964640856
64.0,0.004382038488984108
72.0,0.003901509800925851
80.0,0.0033470946364104748
88.0,0.0028416174463927746
96.0,0.0024328764993697405
104.0,0.0022866809740662575
112.0,0.0022781738080084324
120.0,0.002244928851723671
128.0,0.0021612076088786125
144.0,0.0023059009108692408
160.0,0.0021103424951434135
176.0,0.0019060985650867224
192.0,0.00196281005628407
208.0,0.002424337202683091
224.0,0.002263648435473442
240.0,0.0015716638881713152
256.0,0.000724988232832402
288.0,0.0007070347783155739
320.0,0.0015613667201250792
352.0,0.0018421650165691972
384.0,0.0019343890016898513
416.0,0.001567624043673277
448.0,0.0013706955360248685
480.0,0.0014125424204394221
512.0,0.0015841667773202062
576.0,0.001956283114850521
640.0,-0.00020871678134426475
704.0,0.00015662735677324235
768.0,0.0009102540789172053
832.0,0.0011935397051274776
896.0,0.0011994343949481845
960.0,0.001279924064874649
1024.0,0.0006570367841050029
1152.0,0.0001167690206784755
1280.0,8.994087693281472e-05
1408.0,0.0007583307451568544
1536.0,-0.0004655017692130059
1664.0,-0.000937030534259975
1792.0,-0.00047473644372075796
1920.0,-0.00047968456055969
2048.0,-0.0015720160445198417
2304.0,-0.001358971232548356
2560.0,-0.0001603635319042951
2816.0,-0.0015535044949501753
3072.0,-0.0008532762876711786
3328.0,-0.00032338875462301075
3584.0,-0.0008704647189006209
3840.0,-4.957028431817889e-05
4096.0,-0.00025083418586291373
4608.0,6.252325874811504e-06
5120.0,-0.0001219690457219258
5632.0,-0.0018154249992221594
6144.0,-0.00016304737073369324
6656.0,-0.0006096702418290079
7168.0,-0.0002164432662539184
7680.0,0.0010011796839535236
8192.0,-0.0005946076125837862
end
