version,3.0
numOfCh,1
type,point
parent_name,19e3e_0dot6-0dot1
ch_type,1_1
kcount,1
numberNandB,1
brightnessNandB,1
carpet pos,0
pc,0
Time (ms),CH1 Auto-Correlation
1.0,0.025091683492064476
2.0,0.02394125796854496
3.0,0.022908395156264305
4.0,0.021982558071613312
5.0,0.02113317884504795
6.0,0.0203294288367033
7.0,0.01959678903222084
8.0,0.01896243914961815
9.0,0.01837925985455513
10.0,0.017835037782788277
11.0,0.017285414040088654
12.0,0.01675705797970295
13.0,0.01627209782600403
14.0,0.01582835242152214
15.0,0.015393171459436417
16.0,0.014995694160461426
18.0,0.014211548492312431
20.0,0.013486774638295174
22.0,0.01279904879629612
24.0,0.012177353724837303
26.0,0.011599304154515266
28.0,0.01105969026684761
30.0,0.01065240241587162
32.0,0.010243091732263565
36.0,0.009568494744598866
40.0,0.008878841064870358
44.0,0.008306694217026234
48.0,0.00776003859937191
52.0,0.007214533165097237
56.0,0.006693743634968996
60.0,0.00622479198500514
64.0,0.005807900335639715
72.0,0.005072893109172583
80.0,0.004617296624928713
88.0,0.004037601873278618
96.0,0.003666328266263008
104.0,0.0034719661343842745
112.0,0.0031141098588705063
120.0,0.0024819569662213326
128.0,0.00197638594545424
144.0,0.0014425424160435796
160.0,0.0009782430715858936
176.0,0.0006309951422736049
192.0,0.0002121533325407654
208.0,-0.000754554639570415
224.0,-0.001048876321874559
240.0,-0.001360213034786284
256.0,-0.0013287494657561183
288.0,-0.0006497931317426264
320.0,-0.0008636631537228823
352.0,-0.0009230518480762839
384.0,-0.0003339988470543176
416.0,-0.0002043925633188337
448.0,-0.00012002052244497463
480.0,0.000612768460996449
512.0,-0.00025551882572472095
576.0,-0.001057100249454379
640.0,-0.00206552492454648
704.0,-0.001863065524958074
768.0,-0.0008483328856527805
832.0,-0.0008435643976554275
896.0,-0.00029810532578267157
960.0,0.0008225370547734201
1024.0,-0.0009215596946887672
1152.0,-0.0020607144106179476
1280.0,0.00015320700185839087
1408.0,0.0005731683922931552
1536.0,-0.0019412999972701073
1664.0,-0.0012832850916311145
1792.0,0.0010853064013645053
1920.0,0.0009227649425156415
2048.0,0.0004377885488793254
2304.0,-0.0009623279329389334
2560.0,7.806743269611616e-06
2816.0,0.000331405783072114
3072.0,0.0011680751340463758
3328.0,-0.00018695836479309946
3584.0,-0.0015241390792652965
3840.0,0.00030714672175236046
4096.0,0.0009580670157447457
4608.0,0.0001215527590829879
5120.0,0.0007609516032971442
5632.0,-0.0007534835604019463
6144.0,-0.0005222389008849859
6656.0,0.00020626465266104788
7168.0,0.00023536970547866076
7680.0,0.0008991584763862193
8192.0,0.000643252395093441
end
