version,3.0
numOfCh,1
type,point
parent_name,19e3e_0dot6-0dot1
ch_type,1_1
kcount,1
numberNandB,1
brightnessNandB,1
carpet pos,0
pc,0
Time (ms),CH1 Auto-Correlation
1.0,0.02244362235069275
2.0,0.02126290835440159
3.0,0.020181849598884583
4.0,0.019224632531404495
5.0,0.01835278607904911
6.0,0.01756071299314499
7.0,0.0168451014906168
8.0,0.01615055650472641
9.0,0.01549382321536541
10.0,0.014894074760377407
11.0,0.014324793592095375
12.0,0.013796692714095116
13.0,0.013315681368112564
14.0,0.012847633101046085
15.0,0.012387529946863651
16.0,0.011934209614992142
18.0,0.011127615347504616
20.0,0.010294824838638306
22.0,0.00951308198273182
24.0,0.008785562589764595
26.0,0.008060954511165619
28.0,0.007355028297752142
30.0,0.00677051255479455
32.0,0.0062923128716647625
36.0,0.0053865546360611916
40.0,0.0046599553897976875
44.0,0.004087600391358137
48.0,0.0037322351709008217
52.0,0.0033047001343220472
56.0,0.0029426857363432646
60.0,0.0026070508174598217
64.0,0.0023347248788923025
72.0,0.0018813133938238025
80.0,0.0016046293312683702
88.0,0.0015124076744541526
96.0,0.0017936596414074302
104.0,0.002024788875132799
112.0,0.001954141305759549
120.0,0.0017498156521469355
128.0,0.001421409659087658
144.0,0.00034217769280076027
160.0,-0.0004184724239166826
176.0,2.2975831598159857e-05
192.0,0.00019973661983385682
208.0,0.000231785568757914
224.0,0.0001266432664124295
240.0,0.0007343033794313669
256.0,0.0007580295205116272
288.0,-0.0004806238866876811
320.0,-0.0008843919495120645
352.0,0.0004131451132707298
384.0,0.0007486334652639925
416.0,0.0003070139209739864
448.0,0.00035281211603432894
480.0,6.482763274107128e-05
512.0,0.00018696671759244055
576.0,0.0008445041021332145
640.0,0.0012711613671854138
704.0,-0.0003047430363949388
768.0,-0.0015971580287441611
832.0,-0.0008000934030860662
896.0,-0.0008484009304083884
960.0,0.00026997170061804354
1024.0,0.0005514742224477232
1152.0,0.0005205295165069401
1280.0,5.603958197752945e-05
1408.0,-0.00033328330027870834
1536.0,7.791777898091823e-05
1664.0,-3.236812699469738e-05
1792.0,-0.00016377057181671262
1920.0,-0.0010810588719323277
2048.0,-0.0015946708153933287
2304.0,-0.00033419494866393507
2560.0,-0.00037983449874445796
2816.0,0.0009435617248527706
3072.0,0.00013055391900707036
3328.0,0.0003677351924125105
3584.0,0.0005412119207903743
3840.0,-0.000563567504286766
4096.0,0.0015535269631072879
4608.0,-0.0002729418338276446
5120.0,6.389510963344947e-05
5632.0,-7.099385402398184e-05
6144.0,0.00027812138432636857
6656.0,0.0007244150619953871
7168.0,-0.0006266880664043128
7680.0,-0.0007812414551153779
8192.0,-0.0007843252969905734
end
