version,3.0
numOfCh,1
type,point
parent_name,19e3e_0dot6-0dot1
ch_type,1_1
kcount,1
numberNandB,1
brightnessNandB,1
carpet pos,0
pc,0
Time (ms),CH1 Auto-Correlation
1.0,0.022168343886733055
2.0,0.021025409922003746
3.0,0.01997517980635166
4.0,0.01905735209584236
5.0,0.018240949138998985
6.0,0.017519094049930573
7.0,0.016846410930156708
8.0,0.016172099858522415
9.0,0.015528329648077488
10.0,0.014902393333613873
11.0,0.014316864311695099
12.0,0.01375644002109766
13.0,0.013207945041358471
14.0,0.012733477167785168
15.0,0.012341242283582687
16.0,0.011989083141088486
18.0,0.011330485343933105
20.0,0.010732789523899555
22.0,0.01019396260380745
24.0,0.009670323692262173
26.0,0.009194411337375641
28.0,0.008669817820191383
30.0,0.008185841143131256
32.0,0.007820818573236465
36.0,0.007158440537750721
40.0,0.006688725668936968
44.0,0.006281423382461071
48.0,0.006086836103349924
52.0,0.005935367196798325
56.0,0.005843417253345251
60.0,0.00567967351526022
64.0,0.0054677072912454605
72.0,0.004716114606708288
80.0,0.0040074498392641544
88.0,0.003267965978011489
96.0,0.002867013681679964
104.0,0.0023642894811928272
112.0,0.001993318321183324
120.0,0.0018592705018818378
128.0,0.001861497526988387
144.0,0.0017269090749323368
160.0,0.0015603331848978996
176.0,0.001376376487314701
192.0,0.001362015027552843
208.0,0.0013577560894191265
224.0,0.0013707377947866917
240.0,0.001351536251604557
256.0,0.001442626817151904
288.0,0.0011904353741556406
320.0,0.00104155158624053
352.0,0.0010215648217126727
384.0,0.0004334587138146162
416.0,-0.0007038465118966997
448.0,-0.0005030579632148147
480.0,-0.00047230455675162375
512.0,-3.361946073709987e-05
576.0,0.00023442473320756108
640.0,-0.0009160630288533866
704.0,-0.002543908776715398
768.0,-0.0012998405145481229
832.0,-0.0006472001550719142
896.0,-0.001422580098733306
960.0,-0.001615404849871993
1024.0,-0.0008932459750212729
1152.0,0.001260438933968544
1280.0,-0.00026341405464336276
1408.0,-0.0006187106482684612
1536.0,-0.0017928109737113118
1664.0,0.0006547413067892194
1792.0,0.0006824604352004826
1920.0,0.00018316818750463426
2048.0,-0.0001225058367708698
2304.0,0.001476090750657022
2560.0,-0.00033942944719456136
2816.0,-0.0020326063968241215
3072.0,-0.0015619222540408373
3328.0,-0.000411660730605945
3584.0,-0.001423053676262498
3840.0,-0.0011343307560309768
4096.0,-0.0008817678899504244
4608.0,0.0009142248891294003
5120.0,-0.001610160106793046
5632.0,0.0006683844840154052
6144.0,-0.0003686764102894813
6656.0,0.0012726953718811274
7168.0,0.0006107253138907254
7680.0,-0.0006117869052104652
8192.0,-0.00041126570431515574
end
