version,3.0
numOfCh,1
type,point
parent_name,19e3e_0dot6-0dot1
ch_type,1_1
kcount,1
numberNandB,1
brightnessNandB,1
carpet pos,0
pc,0
Time (ms),CH1 Auto-Correlation
1.0,0.025305354967713356
2.0,0.02407788671553135
3.0,0.02297748252749443
4.0,0.02197365090250969
5.0,0.021087998524308205
6.0,0.02027159184217453
7.0,0.019519612193107605
8.0,0.01877015270292759
9.0,0.018110398203134537
10.0,0.017540020868182182
11.0,0.01699925772845745
12.0,0.01650937832891941
13.0,0.01602839305996895
14.0,0.015605403110384941
15.0,0.015239722095429897
16.0,0.014904721640050411
18.0,0.014175952412188053
20.0,0.013486266136169434
22.0,0.012852886691689491
24.0,0.012337476946413517
26.0,0.011826223693788052
28.0,0.011290136724710464
30.0,0.010723274201154709
32.0,0.010195592418313026
36.0,0.00918127316981554
40.0,0.00840512104332447
44.0,0.007535256911069155
48.0,0.006818320136517286
52.0,0.006424775812774897
56.0,0.006109844893217087
60.0,0.005744466092437506
64.0,0.005248885601758957
72.0,0.004037454724311829
80.0,0.002917190780863166
88.0,0.0021974435076117516
96.0,0.001928071491420269
104.0,0.001744004082866013
112.0,0.0014385528629645705
120.0,0.00128640525508672
128.0,0.0012369051109999418
144.0,0.0012793069472536445
160.0,0.0019860558677464724
176.0,0.0021683720406144857
192.0,0.0014306317316368222
208.0,0.0009484486072324216
224.0,0.0012068803189322352
240.0,0.0014520485419780016
256.0,0.0017859736690297723
288.0,0.0016504154773429036
320.0,0.001183049287647009
352.0,2.076043983834097e-06
384.0,-3.213341551600024e-05
416.0,0.0010603215778246522
448.0,0.0007334503461606801
480.0,0.00041434550075791776
512.0,0.0015107583021745086
576.0,0.001495195203460753
640.0,0.002298814244568348
704.0,0.0018590491963550448
768.0,-0.0009757857187651098
832.0,-0.002174865920096636
896.0,-0.0026512097101658583
960.0,-0.0014391066506505013
1024.0,-0.0022552860900759697
1152.0,-0.0017300398321822286
1280.0,-0.0018137797014787793
1408.0,-0.0021502748131752014
1536.0,-0.0021980958990752697
1664.0,-0.0003472624230198562
1792.0,0.00021491812367457896
1920.0,-0.0005722813657484949
2048.0,0.002006573835387826
2304.0,0.0019425938371568918
2560.0,0.000666581210680306
2816.0,0.0005202042520977557
3072.0,-0.0014111888594925404
3328.0,-0.0022927718237042427
3584.0,-0.002879634965211153
3840.0,-0.002916723722591996
4096.0,-0.0006309861782938242
4608.0,0.001848662388511002
5120.0,0.0019724564626812935
5632.0,-0.0008887603762559593
6144.0,-0.002098775701597333
6656.0,0.00033212563721463084
7168.0,0.0027491820510476828
7680.0,0.000157934075105004
8192.0,-0.002218186389654875
end
