version,3.0
numOfCh,1
type,point
parent_name,19e3e_0dot6-0dot1
ch_type,1_1
kcount,1
numberNandB,1
brightnessNandB,1
carpet pos,0
pc,0
Time (ms),CH1 Auto-Correlation
1.0,0.02006901055574417
2.0,0.018896767869591713
3.0,0.017833560705184937
4.0,0.016848647966980934
5.0,0.015918422490358353
6.0,0.01505184918642044
7.0,0.014275329187512398
8.0,0.013592297211289406
9.0,0.012948933988809586
10.0,0.012362449429929256
11.0,0.01185048371553421
12.0,0.01135633047670126
13.0,0.010878986679017544
14.0,0.010440565645694733
15.0,0.01004369743168354
16.0,0.009689769707620144
18.0,0.009082414209842682
20.0,0.008568808436393738
22.0,0.008124938234686852
24.0,0.007681252434849739
26.0,0.007272290997207165
28.0,0.0069289421662688255
30.0,0.0066223349422216415
32.0,0.006454580929130316
36.0,0.006303980480879545
40.0,0.006040827836841345
44.0,0.005706315394490957
48.0,0.0052879080176353455
52.0,0.0047279600985348225
56.0,0.004186442121863365
60.0,0.003688149619847536
64.0,0.003295955015346408
72.0,0.0027298841159790754
80.0,0.002380452351644635
88.0,0.0022425611969083548
96.0,0.0022374079562723637
104.0,0.0019831599202007055
112.0,0.0015408588806167245
120.0,0.0011263636406511068
128.0,0.0007636529044248164
144.0,0.0007179361418820918
160.0,0.0003477631835266948
176.0,-0.00011084395373472944
192.0,-0.00044093746691942215
208.0,-0.0011504810536280274
224.0,-0.0012435944518074393
240.0,-0.0006800363189540803
256.0,-0.000496137363370508
288.0,-0.0011394404573366046
320.0,-0.0006969392998144031
352.0,-0.0004048218543175608
384.0,-0.0002875176433008164
416.0,-1.0466908861417323e-05
448.0,0.00040821279981173575
480.0,0.00046639004722237587
512.0,0.0002217938017565757
576.0,0.0007757992134429514
640.0,0.00043172738514840603
704.0,0.00030501518631353974
768.0,0.00019383126345928758
832.0,0.00014349147386383265
896.0,-0.000603038351982832
960.0,-0.0011873336043208838
1024.0,-0.000485322845634073
1152.0,0.00039837241638451815
1280.0,0.0005425526178441942
1408.0,0.0008955678204074502
1536.0,0.0007204828434623778
1664.0,0.0013810218079015613
1792.0,0.0005312341381795704
1920.0,-0.0005885336431674659
2048.0,0.0006252638413570821
2304.0,4.453449582797475e-05
2560.0,-0.0010381635511294007
2816.0,0.0007259980775415897
3072.0,0.00031947437673807144
3328.0,0.0009266359847970307
3584.0,-0.0004439174954313785
3840.0,0.00033286455436609685
4096.0,-0.0010312657104805112
4608.0,-0.000417220318922773
5120.0,0.0003536862204782665
5632.0,0.00014133742661215365
6144.0,-0.0007134047918953001
6656.0,-0.00020862567180301994
7168.0,-6.111354741733521e-05
7680.0,-0.001564016449265182
8192.0,-0.0011020590318366885
end
