version,3.0
numOfCh,1
type,point
parent_name,19e3e_0dot6-0dot1
ch_type,1_1
kcount,1
numberNandB,1
brightnessNandB,1
carpet pos,0
pc,0
Time (ms),CH1 Auto-Correlation
1.0,0.02373834326863289
2.0,0.022556381300091743
3.0,0.02149157039821148
4.0,0.02050645276904106
5.0,0.019609550014138222
6.0,0.01883755810558796
7.0,0.01814207248389721
8.0,0.017487507313489914
9.0,0.016921652480959892
10.0,0.01640775427222252
11.0,0.015875061973929405
12.0,0.015368266962468624
13.0,0.014945995062589645
14.0,0.01453202124685049
15.0,0.014135654084384441
16.0,0.01377525832504034
18.0,0.013123612850904465
20.0,0.012547004967927933
22.0,0.011965890415012836
24.0,0.01140599325299263
26.0,0.01093424204736948
28.0,0.010534082539379597
30.0,0.010164138861000538
32.0,0.009826661087572575
36.0,0.009254167787730694
40.0,0.00888094399124384
44.0,0.00854654610157013
48.0,0.00830783136188984
52.0,0.008021439425647259
56.0,0.007654061075299978
60.0,0.007289786357432604
64.0,0.007067074067890644
72.0,0.00658752117305994
80.0,0.005944989155977964
88.0,0.005192323122173548
96.0,0.00448052491992712
104.0,0.004159214440733194
112.0,0.003721328219398856
120.0,0.0033013976644724607
128.0,0.002823199611157179
144.0,0.0018979792948812246
160.0,0.00194264214951545
176.0,0.0020712576806545258
192.0,0.002008769428357482
208.0,0.0014890594175085425
224.0,0.0017825652612373233
240.0,0.0016091240104287863
256.0,0.0015214217128232121
288.0,0.0008761237259022892
320.0,0.00013342738384380937
352.0,-0.0001489756250521168
384.0,0.00010613220365485176
416.0,-6.824152660556138e-05
448.0,0.00013841579493600875
480.0,-0.00038007055991329253
512.0,-0.001548744272440672
576.0,-0.000748618389479816
640.0,-0.0003398587286937982
704.0,0.0008635701960884035
768.0,0.0009718757937662303
832.0,0.000703395635355264
896.0,0.0011144379386678338
960.0,0.00024290202418342233
1024.0,0.0011762657668441534
1152.0,9.302370017394423e-05
1280.0,0.0006177923642098904
1408.0,0.0006670522270724177
1536.0,1.5273806639015675e-05
1664.0,-0.0006710946327075362
1792.0,0.00024738593492656946
1920.0,-0.0022715318482369184
2048.0,-0.002734338864684105
2304.0,0.00035822935751639307
2560.0,-0.001040333416312933
2816.0,-0.002940510865300894
3072.0,-0.0014387506525963545
3328.0,-0.0006358937826007605
3584.0,0.0008010143064893782
3840.0,-0.001091949176043272
4096.0,-0.0004631092306226492
4608.0,0.0012306446442380548
5120.0,0.001057713059708476
5632.0,0.0017546385060995817
6144.0,-0.0005849520675837994
6656.0,0.00021281660883687437
7168.0,-2.6087029254995286e-05
7680.0,-0.002118044998496771
8192.0,-0.00018079500296153128
end
