version,3.0
numOfCh,1
type,point
parent_name,19e3e_0dot6-0dot1
ch_type,1_1
kcount,1
numberNandB,1
brightnessNandB,1
carpet pos,0
pc,0
Time (ms),CH1 Auto-Correlation
1.0,0.023361170664429665
2.0,0.02217068523168564
3.0,0.021112017333507538
4.0,0.02012871950864792
5.0,0.019229361787438393
6.0,0.018398156389594078
7.0,0.017625203356146812
8.0,0.016900645568966866
9.0,0.016194172203540802
10.0,0.015587667003273964
11.0,0.014996117912232876
12.0,0.014464208856225014
13.0,0.013944514095783234
14.0,0.013390302658081055
15.0,0.012867644429206848
16.0,0.01236648578196764
18.0,0.01147924643009901
20.0,0.010687216185033321
22.0,0.009945329278707504
24.0,0.009283768013119698
26.0,0.008685982786118984
28.0,0.008100747130811214
30.0,0.007513054646551609
32.0,0.00696778716519475
36.0,0.006052589975297451
40.0,0.005328541621565819
44.0,0.004565132316201925
48.0,0.0037374841049313545
52.0,0.0030976326670497656
56.0,0.002614999422803521
60.0,0.002287269337102771
64.0,0.0020075845532119274
72.0,0.0014934246428310871
80.0,0.0011821341468021274
88.0,0.0010608052834868431
96.0,0.001006497535854578
104.0,0.0007968065910972655
112.0,0.0006677130586467683
120.0,0.0005968546029180288
128.0,0.0005685155047103763
144.0,0.0008874486666172743
160.0,0.0007594790076836944
176.0,0.0006238689529709518
192.0,0.0010752050438895822
208.0,0.0020200065337121487
224.0,0.0026560856495052576
240.0,0.0025791062507778406
256.0,0.0017298703314736485
288.0,0.0008904034039005637
320.0,0.0005579919088631868
352.0,0.0008068601018749177
384.0,0.0006183814257383347
416.0,2.7007521566702053e-05
448.0,-0.0009689162252470851
480.0,-0.001089575351215899
512.0,-0.00020394677994772792
576.0,-0.00023546995362266898
640.0,-3.650432336144149e-05
704.0,0.0011067837476730347
768.0,0.0005087524186819792
832.0,-0.00031353975646197796
896.0,0.00022503863146994263
960.0,0.0008203056058846414
1024.0,0.0005264253704808652
1152.0,0.0008326012757606804
1280.0,-0.0008384331595152617
1408.0,0.0009366563172079623
1536.0,-0.0009273821488022804
1664.0,-0.0001332672400167212
1792.0,0.0004592750046867877
1920.0,0.0003722530964296311
2048.0,0.000873280456289649
2304.0,-0.000736589718144387
2560.0,0.0003150741395074874
2816.0,-0.0010637477971613407
3072.0,-0.001251906855031848
3328.0,0.000828740478027612
3584.0,0.0009404211305081844
3840.0,1.1930671462323517e-05
4096.0,-0.0005227592773735523
4608.0,0.0007133061881177127
5120.0,-0.000970762106589973
5632.0,-0.0008792506414465606
6144.0,-0.001296997768804431
6656.0,-0.0018229709239676595
7168.0,0.0012723274994641542
7680.0,0.0014149075141176581
8192.0,-0.0009506579954177141
end
