version,3.0
numOfCh,1
type,point
parent_name,19e3e_0dot6-0dot1
ch_type,1_1
kcount,1
numberNandB,1
brightnessNandB,1
carpet pos,0
pc,0
Time (ms),CH1 Auto-Correlation
1.0,0.024311233311891556
2.0,0.02304661273956299
3.0,0.02187478542327881
4.0,0.020766304805874825
5.0,0.019773265346884727
6.0,0.01888268254697323
7.0,0.01805661804974079
8.0,0.017259059473872185
9.0,0.016520334407687187
10.0,0.01584433950483799
11.0,0.015218425542116165
12.0,0.014621236361563206
13.0,0.014083568006753922
14.0,0.013598695397377014
15.0,0.013167271390557289
16.0,0.012729079462587833
18.0,0.011842180043458939
20.0,0.010906598530709743
22.0,0.010111846961081028
24.0,0.009447840042412281
26.0,0.008856398984789848
28.0,0.008338275365531445
30.0,0.0077925631776452065
32.0,0.007330619730055332
36.0,0.0065784999169409275
40.0,0.005948090460151434
44.0,0.005521990358829498
48.0,0.0049990336410701275
52.0,0.004633725620806217
56.0,0.004257970489561558
60.0,0.004003939684480429
64.0,0.0037184134125709534
72.0,0.0031118409242480993
80.0,0.0026189680211246014
88.0,0.0023939884267747402
96.0,0.002319070976227522
104.0,0.001850339351221919
112.0,0.0012019117129966617
120.0,0.0008926108712330461
128.0,0.000868337054271251
144.0,0.0008391948067583144
160.0,0.000745339086279273
176.0,-0.00015530620294157416
192.0,-0.0009396837558597326
208.0,-0.0011022750986739993
224.0,-0.001514196628704667
240.0,-0.0016342505114153028
256.0,-0.0009449257631786168
288.0,-0.00014622310118284076
320.0,-0.00015962703037075698
352.0,-0.0002145668404409662
384.0,0.00032562631531618536
416.0,0.00013286135799717158
448.0,0.0006940000457689166
480.0,0.0010968622518703341
512.0,0.00033097993582487106
576.0,-0.0009697962668724358
640.0,-0.0005973050720058382
704.0,-0.0009594183648005128
768.0,-0.0004820191825274378
832.0,-0.0006798187969252467
896.0,0.0010332304518669844
960.0,0.001733418321236968
1024.0,0.0011642554309219122
1152.0,-0.0003452940727584064
1280.0,-0.0012592902639880776
1408.0,-0.0011482484405860305
1536.0,-0.0008374347235076129
1664.0,-0.0004318436258472502
1792.0,-0.000482781179016456
1920.0,1.5122684999369085e-05
2048.0,0.0010686350287869573
2304.0,-0.0007971510640345514
2560.0,-0.000807969132438302
2816.0,0.0002571207005530596
3072.0,0.00010958935308735818
3328.0,-0.000136519709485583
3584.0,0.0003374862717464566
3840.0,-0.00017493465566076338
4096.0,-0.00022272219939623028
4608.0,0.0007236337405629456
5120.0,-0.000157930888235569
5632.0,0.00011419499787734821
6144.0,-0.0009803371503949165
6656.0,-0.0008820189395919442
7168.0,0.0001492608425905928
7680.0,0.0006638018530793488
8192.0,0.0020264333579689264
end
