version,3.0
numOfCh,1
type,point
parent_name,19e3e_0dot6-0dot1
ch_type,1_1
kcount,1
numberNandB,1
brightnessNandB,1
carpet pos,0
pc,0
Time (ms),CH1 Auto-Correlation
1.0,0.02303418330848217
2.0,0.021857980638742447
3.0,0.020806774497032166
4.0,0.019806234166026115
5.0,0.01891358755528927
6.0,0.018071360886096954
7.0,0.017321256920695305
8.0,0.01663981005549431
9.0,0.016000455245375633
10.0,0.015415580943226814
11.0,0.014844671823084354
12.0,0.014340565539896488
13.0,0.01387365348637104
14.0,0.013460525311529636
15.0,0.013095173053443432
16.0,0.012712781317532063
18.0,0.012033842504024506
20.0,0.011457562446594238
22.0,0.010901639237999916
24.0,0.010391606017947197
26.0,0.00990686472505331
28.0,0.009392401203513145
30.0,0.008834063075482845
32.0,0.008305109106004238
36.0,0.007509260438382626
40.0,0.0070130666717886925
44.0,0.00673255231231451
48.0,0.006644129753112793
52.0,0.006617419421672821
56.0,0.00660743098706007
60.0,0.0065294187515974045
64.0,0.006350088864564896
72.0,0.005976954009383917
80.0,0.005209141410887241
88.0,0.004467153921723366
96.0,0.003949061501771212
104.0,0.0035348497331142426
112.0,0.0034738434478640556
120.0,0.0034005404449999332
128.0,0.0031399549916386604
144.0,0.0024432099889963865
160.0,0.0012403115397319198
176.0,0.0009246478439308703
192.0,0.00161651277448982
208.0,0.0013206342700868845
224.0,0.00017767641111277044
240.0,-0.00015194948355201632
256.0,0.0005758838960900903
288.0,0.001684649963863194
320.0,0.001794143347069621
352.0,0.0016616230132058263
384.0,0.0010029729455709457
416.0,0.00041603497811593115
448.0,-0.0003623830561991781
480.0,-0.0005058167735114694
512.0,-0.0005420434172265232
576.0,6.334154750220478e-05
640.0,0.0006334722274914384
704.0,0.0009194983285851777
768.0,-0.0004921716754324734
832.0,-0.0009605488157831132
896.0,-0.0006591774872504175
960.0,-0.0006042931345291436
1024.0,-0.00036190389073453844
1152.0,-0.000823864946141839
1280.0,-0.00029111772892065346
1408.0,5.22060836374294e-05
1536.0,-0.001385633833706379
1664.0,-0.0027311404701322317
1792.0,-0.0011884032282978296
1920.0,-0.001368933473713696
2048.0,-0.0018908613128587604
2304.0,0.0007142584654502571
2560.0,-0.0005851915339007974
2816.0,-0.0005082361167296767
3072.0,-0.00020434796169865876
3328.0,-0.0002231433754786849
3584.0,-0.0006983252242207527
3840.0,0.0006445584585890174
4096.0,-9.240839426638559e-05
4608.0,-0.0002522207796573639
5120.0,3.61862730642315e-05
5632.0,-0.0005577353294938803
6144.0,0.0003371258790139109
6656.0,0.0020569574553519487
7168.0,0.0005870400927960873
7680.0,-0.00037679821252822876
8192.0,-0.00022823181643616408
end
