version,3.0
numOfCh,1
type,point
parent_name,19e3e_0dot6-0dot1
ch_type,1_1
kcount,1
numberNandB,1
brightnessNandB,1
carpet pos,0
pc,0
Time (ms),CH1 Auto-Correlation
1.0,0.02099517546594143
2.0,0.01985352486371994
3.0,0.01887640729546547
4.0,0.017975635826587677
5.0,0.017160914838314056
6.0,0.01644355244934559
7.0,0.015810301527380943
8.0,0.015217870473861694
9.0,0.014690306968986988
10.0,0.014179377816617489
11.0,0.013699030503630638
12.0,0.013206795789301395
13.0,0.01275064330548048
14.0,0.012331189587712288
15.0,0.011925873346626759
16.0,0.011537906713783741
18.0,0.010791714303195477
20.0,0.01012295763939619
22.0,0.009492517448961735
24.0,0.008831191807985306
26.0,0.008213904686272144
28.0,0.007630347274243832
30.0,0.007064738776534796
32.0,0.006528955884277821
36.0,0.005809591617435217
40.0,0.005137285217642784
44.0,0.004494865424931049
48.0,0.00401191134005785
52.0,0.0037080917973071337
56.0,0.0034762732684612274
60.0,0.0031693282071501017
64.0,0.0029016088228672743
72.0,0.002295037033036351
80.0,0.0018881824798882008
88.0,0.0016397024737671018
96.0,0.0011613290989771485
104.0,0.0008725476800464094
112.0,0.0005504467990249395
120.0,0.000282376742688939
128.0,-8.03492366685532e-05
144.0,-9.101348405238241e-05
160.0,0.00028847806970588863
176.0,-2.936794589913916e-05
192.0,-8.898013038560748e-05
208.0,-0.00020019385556224734
224.0,-0.00033559463918209076
240.0,-0.0002535285893827677
256.0,-0.0003254477051086724
288.0,0.0006687407731078565
320.0,0.0007291603833436966
352.0,0.0007411175756715238
384.0,-0.0005777606857009232
416.0,-0.0006038377759978175
448.0,-0.0013149778824299574
480.0,-0.0017239634180441499
512.0,-0.0018675043247640133
576.0,-4.1536732169333845e-06
640.0,0.0007118734647519886
704.0,0.0012472955277189612
768.0,0.00150591810233891
832.0,0.0002365725376876071
896.0,0.000549919786863029
960.0,0.0009478542488068342
1024.0,0.001016188063658774
1152.0,0.00046150345588102937
1280.0,0.00011938555689994246
1408.0,-0.0005725951050408185
1536.0,-0.001149921678006649
1664.0,-0.0014155097305774689
1792.0,0.0006662060040980577
1920.0,0.0006532424013130367
2048.0,0.0013916954630985856
2304.0,-0.0003971251135226339
2560.0,-0.00018844817532226443
2816.0,0.00046437172568403184
3072.0,-3.202910011168569e-05
3328.0,-0.0014125072630122304
3584.0,-0.0005164249450899661
3840.0,-0.0008250866085290909
4096.0,-0.0003111644764430821
4608.0,0.0006407450418919325
5120.0,0.0006311248289421201
5632.0,0.0009131285478360951
6144.0,-3.3653428545221686e-05
6656.0,0.00012536933354567736
7168.0,0.0006165753002278507
7680.0,0.00010472722351551056
8192.0,-0.0003075434942729771
end
