version,3.0
numOfCh,1
type,point
parent_name,19e3e_0dot6-0dot1
ch_type,1_1
kcount,1
numberNandB,1
brightnessNandB,1
carpet pos,0
pc,0
Time (ms),CH1 Auto-Correlation
1.0,0.02321745827794075
2.0,0.02200361341238022
3.0,0.020879296585917473
4.0,0.019849954172968864
5.0,0.01889663003385067
6.0,0.018055126070976257
7.0,0.017288079485297203
8.0,0.01657094806432724
9.0,0.015886904671788216
10.0,0.015247747302055359
11.0,0.014635471627116203
12.0,0.014049699530005455
13.0,0.013472390361130238
14.0,0.012960880063474178
15.0,0.012526731006801128
16.0,0.012130296789109707
18.0,0.011449597775936127
20.0,0.010932914912700653
22.0,0.01047524344176054
24.0,0.010043633170425892
26.0,0.009637190029025078
28.0,0.009204346686601639
30.0,0.008871410973370075
32.0,0.008580286055803299
36.0,0.008010827004909515
40.0,0.007508109323680401
44.0,0.007151947356760502
48.0,0.006718730553984642
52.0,0.006203974597156048
56.0,0.005662859883159399
60.0,0.005182663910090923
64.0,0.0049109309911727905
72.0,0.004561794921755791
80.0,0.004279090091586113
88.0,0.003824356710538268
96.0,0.003733184188604355
104.0,0.003933152183890343
112.0,0.0038550118915736675
120.0,0.0034982922952622175
128.0,0.002939301310107112
144.0,0.0024709682911634445
160.0,0.002319604391232133
176.0,0.0026155177038162947
192.0,0.002436914714053273
208.0,0.002161645330488682
224.0,0.0018683798843994737
240.0,0.0014040435198694468
256.0,0.000559386215172708
288.0,0.00013453488645609468
320.0,-0.0005696066655218601
352.0,-0.0014268923550844193
384.0,-0.0010326005285605788
416.0,-0.0012113733682781458
448.0,-0.0013702786527574062
480.0,-0.000951597758103162
512.0,-0.000997464288957417
576.0,-4.0513757994631305e-05
640.0,0.0007033157162368298
704.0,0.0008776372415013611
768.0,0.0003454214602243155
832.0,-0.0003296150825917721
896.0,-0.00015239612548612058
960.0,5.8302866818849e-05
1024.0,-0.00041489730938337743
1152.0,-0.0013900259509682655
1280.0,-0.000508029421325773
1408.0,-0.0003325376601424068
1536.0,6.239081994863227e-05
1664.0,0.0018011807696893811
1792.0,0.001514567295089364
1920.0,0.0008583890739828348
2048.0,-0.00040663033723831177
2304.0,-0.00027681278879754245
2560.0,0.00042774362373165786
2816.0,-0.0013440190814435482
3072.0,-0.0017351213609799743
3328.0,-0.0002852918114513159
3584.0,-0.000160806201165542
3840.0,-0.00024078204296529293
4096.0,0.00017402422963641584
4608.0,0.00041445877286605537
5120.0,-9.210252028424293e-05
5632.0,-0.0005862318794243038
6144.0,-0.00027127336943522096
6656.0,0.001589583815075457
7168.0,-0.0011484065325930715
7680.0,-0.0013362991157919168
8192.0,0.0007745128823444247
end
