version,3.0
numOfCh,1
type,point
parent_name,100-cuts
ch_type,1_1
kcount,1
numberNandB,1
brightnessNandB,1
carpet pos,0
pc,0
Time (ms),CH1 Auto-Correlation
1.0,0.02654953859746456
2.0,0.02152872085571289
3.0,0.017966745421290398
4.0,0.015466704033315182
5.0,0.013563468120992184
6.0,0.01201571710407734
7.0,0.010693789459764957
8.0,0.009864346124231815
9.0,0.009096360765397549
10.0,0.008339169435203075
11.0,0.007522720843553543
12.0,0.006737002171576023
13.0,0.005975748412311077
14.0,0.005649050697684288
15.0,0.005267639644443989
16.0,0.005051322281360626
18.0,0.004554572515189648
20.0,0.003971944097429514
22.0,0.003574020927771926
24.0,0.0034253839403390884
26.0,0.00282599707134068
28.0,0.002534285420551896
30.0,0.0024585349019616842
32.0,0.002233869396150112
36.0,0.0017427423736080527
40.0,0.0012085108319297433
44.0,0.0009339016978628933
48.0,0.0005412999889813364
52.0,0.00036580339656211436
56.0,-4.5325647079152986e-05
60.0,7.419993926305324e-05
64.0,0.0002144275204045698
72.0,0.0003988585667684674
80.0,-0.0001522708625998348
88.0,-0.00019643150153569877
96.0,-0.0002631531679071486
104.0,9.245060937246308e-05
112.0,0.000633413263130933
120.0,0.0015955104026943445
128.0,0.001492199720814824
144.0,0.0013774355174973607
160.0,0.0006110458052717149
176.0,6.854873936390504e-05
192.0,-0.0012056537671014667
208.0,-9.042797501024324e-06
224.0,0.00035911641316488385
240.0,0.0003262428508605808
256.0,-4.538265784503892e-05
288.0,0.0006213431479409337
320.0,0.0001144817506428808
352.0,0.0010421683546155691
384.0,0.0005711183184757829
416.0,-0.0003435299440752715
448.0,-0.0001519489596830681
480.0,-0.00031847384525462985
512.0,-0.00014256362919695675
576.0,5.616921043838374e-06
640.0,0.0005345970275811851
704.0,0.0007016090676188469
768.0,4.9591744755161926e-05
832.0,0.0001869627449195832
896.0,-0.00035874408786185086
960.0,-0.00011231531971134245
1024.0,0.00012056560080964118
1152.0,-0.0002649363595992327
1280.0,-0.0006179534248076379
1408.0,3.212526962670381e-06
1536.0,0.0003125933581031859
1664.0,0.0002777821500785649
1792.0,0.0007092357845976949
1920.0,0.0006179422489367425
2048.0,1.7369642364428728e-06
2304.0,0.00022589226136915386
2560.0,0.00010478174226591364
2816.0,-0.0005988500779494643
3072.0,-0.0007789346273057163
3328.0,0.00048703362699598074
3584.0,-0.00015448048361577094
3840.0,0.00033860927214846015
4096.0,-0.00015868649643380195
4608.0,-0.0008339384803548455
5120.0,-0.0005602837773039937
5632.0,0.00022024971258360893
6144.0,-0.000366533495252952
6656.0,-0.00052978954045102
7168.0,-6.152068090159446e-05
7680.0,0.00027779111405834556
8192.0,-7.879466284066439e-05
9216.0,0.00019855792925227433
10240.0,0.00017655147530604154
11264.0,0.0006556689040735364
12288.0,0.00019621933461166918
13312.0,0.00026890888693742454
14336.0,-0.0009112029802054167
end
