version,3.0
numOfCh,1
type,point
parent_name,100-cuts
ch_type,1_1
kcount,1
numberNandB,1
brightnessNandB,1
carpet pos,0
pc,0
Time (ms),CH1 Auto-Correlation
1.0,0.026092922315001488
2.0,0.02119876816868782
3.0,0.017722314223647118
4.0,0.015200484544038773
5.0,0.01326746679842472
6.0,0.011707684956490993
7.0,0.010426601395010948
8.0,0.009253527969121933
9.0,0.008378643542528152
10.0,0.007462846115231514
11.0,0.006808652076870203
12.0,0.0063141947612166405
13.0,0.00570698082447052
14.0,0.0052828132174909115
15.0,0.004720964934676886
16.0,0.0042801182717084885
18.0,0.003686422947794199
20.0,0.003134411759674549
22.0,0.0030304789543151855
24.0,0.002663826337084174
26.0,0.002109282650053501
28.0,0.0017837915802374482
30.0,0.001870332402177155
32.0,0.0020084073767066
36.0,0.0021416370291262865
40.0,0.0023941178806126118
44.0,0.002041053958237171
48.0,0.0016414958517998457
52.0,0.0013728418853133917
56.0,0.0012096530990675092
60.0,0.0011666844366118312
64.0,0.0013614718336611986
72.0,0.0009523394983261824
80.0,0.0008914069039747119
88.0,0.00047379988245666027
96.0,-7.387551158899441e-05
104.0,8.821758819976822e-05
112.0,1.4175860997056589e-05
120.0,-9.444161696592346e-05
128.0,0.00012935776612721384
144.0,7.002158963587135e-05
160.0,0.0004974329494871199
176.0,0.00023544824216514826
192.0,-0.0008934634970501065
208.0,-0.0008235442801378667
224.0,-0.0006392960785888135
240.0,-0.0008216497371904552
256.0,-0.0007491207215934992
288.0,0.00019949475245084614
320.0,0.00066873908508569
352.0,0.0003470636729616672
384.0,0.00048607465578243136
416.0,-0.0002917643287219107
448.0,-0.0005335905007086694
480.0,-0.0005575722898356616
512.0,-6.441176810767502e-05
576.0,-0.0007050093845464289
640.0,0.00016030190454330295
704.0,-0.00015770581376273185
768.0,-0.0006678002537228167
832.0,-0.00044099584920331836
896.0,-0.00047943094978109
960.0,-0.00042701978236436844
1024.0,0.00041430589044466615
1152.0,0.00034285816946066916
1280.0,0.0005989749333821237
1408.0,5.247749140835367e-05
1536.0,0.00025424142950214446
1664.0,0.0006778879323974252
1792.0,0.00027099697035737336
1920.0,-0.0003153173020109534
2048.0,-0.00036969949724152684
2304.0,-0.00010763255704659969
2560.0,0.0003118141903541982
2816.0,0.00033165395143441856
3072.0,9.720713569549844e-05
3328.0,-0.0005274852155707777
3584.0,-7.256324897753075e-05
3840.0,-8.454844646621495e-05
4096.0,0.00018005119636654854
4608.0,2.388735993008595e-05
5120.0,0.00012678037455771118
5632.0,-6.543106428580359e-05
6144.0,-7.863190694479272e-05
6656.0,1.825969957280904e-05
7168.0,9.349673200631514e-05
7680.0,-0.0003815450763795525
8192.0,-1.0511418622627389e-05
9216.0,-0.0001535205519758165
10240.0,-0.00010221065895166248
11264.0,-0.0001127049617934972
12288.0,2.840632532752352e-06
13312.0,-0.0004882718494627625
14336.0,-0.00036429596366360784
end
