version,3.0
numOfCh,1
type,point
parent_name,100-cuts
ch_type,1_1
kcount,1
numberNandB,1
brightnessNandB,1
carpet pos,0
pc,0
Time (ms),CH1 Auto-Correlation
1.0,0.025894178077578545
2.0,0.021180441603064537
3.0,0.017671043053269386
4.0,0.01514032669365406
5.0,0.013098983094096184
6.0,0.01129868719726801
7.0,0.009926973842084408
8.0,0.00884460099041462
9.0,0.007898805662989616
10.0,0.00723490584641695
11.0,0.0066713010892271996
12.0,0.006096480879932642
13.0,0.0055885775946080685
14.0,0.005034699570387602
15.0,0.004537683911621571
16.0,0.004125277046114206
18.0,0.0034871601965278387
20.0,0.003158401697874069
22.0,0.002627891954034567
24.0,0.0020024871919304132
26.0,0.001515164040029049
28.0,0.001232186914421618
30.0,0.000884762208443135
32.0,0.000683451711665839
36.0,0.0003344666038174182
40.0,0.00036730902502313256
44.0,0.0005795322358608246
48.0,0.0006587455864064395
52.0,0.0005481668631546199
56.0,0.0004900936619378626
60.0,0.0004286720650270581
64.0,0.0005206298665143549
72.0,0.00024062831653282046
80.0,3.0876781238475814e-05
88.0,0.00024854158982634544
96.0,0.00042840073001571
104.0,0.00041886349208652973
112.0,-0.00043199968058615923
120.0,-0.00042996066622436047
128.0,-4.330486262915656e-05
144.0,0.0007191110053099692
160.0,0.0005329585983417928
176.0,-0.0005704723298549652
192.0,-0.0008533796644769609
208.0,-0.000904455257114023
224.0,-0.0006735124625265598
240.0,-0.0010528317652642727
256.0,-0.0006940618040971458
288.0,-0.0003061976167373359
320.0,7.062379154376686e-05
352.0,5.47040872334037e-05
384.0,-0.00025770437787286937
416.0,-0.0005779786151833832
448.0,-0.0006492306129075587
480.0,-0.0002800910733640194
512.0,-0.00015403541328851134
576.0,0.00012594668078236282
640.0,-0.00022730401542503387
704.0,-0.0006421250873245299
768.0,-2.7257399779045954e-05
832.0,0.0001267100014956668
896.0,0.0007202422711998224
960.0,0.0007287649204954505
1024.0,-0.00014728120004292578
1152.0,-0.0006347439484670758
1280.0,-0.0006911898963153362
1408.0,0.0007162771071307361
1536.0,-6.148626562207937e-05
1664.0,2.176083216909319e-05
1792.0,-0.00021625746740028262
1920.0,-0.00020637708075810224
2048.0,-0.0002976373943965882
2304.0,4.684695511514292e-07
2560.0,0.00026920641539618373
2816.0,8.00170710135717e-06
3072.0,7.02206016285345e-05
3328.0,-0.00034601803054101765
3584.0,0.0001999394007725641
3840.0,0.00026617254479788244
4096.0,0.00011855166667373851
4608.0,-2.5300700144725852e-05
5120.0,-7.1872814260132145e-06
5632.0,-2.2897254893905483e-05
6144.0,-6.400996790034696e-05
6656.0,9.812531061470509e-05
7168.0,8.664103370392695e-05
7680.0,-0.00013199522800277919
8192.0,-0.0002841885725501925
9216.0,0.00014104005822446197
10240.0,3.664208998088725e-05
11264.0,-0.00018836217350326478
12288.0,1.1644223377516028e-05
13312.0,9.467764175496995e-05
14336.0,4.150712629780173e-05
end
