version,3.0
numOfCh,1
type,point
parent_name,100-cuts
ch_type,1_1
kcount,1
numberNandB,1
brightnessNandB,1
carpet pos,0
pc,0
Time (ms),CH1 Auto-Correlation
1.0,0.015733636915683746
2.0,0.012851765379309654
3.0,0.01083056814968586
4.0,0.009289814159274101
5.0,0.008052225224673748
6.0,0.0070768543519079685
7.0,0.006302884314209223
8.0,0.005639181938022375
9.0,0.005098026245832443
10.0,0.004619873594492674
11.0,0.0043433732353150845
12.0,0.004048921633511782
13.0,0.003814270021393895
14.0,0.003639758797362447
15.0,0.0034220810048282146
16.0,0.0032145159784704447
18.0,0.002847400028258562
20.0,0.0024027021136134863
22.0,0.0020918918307870626
24.0,0.0018513287650421262
26.0,0.0016025085933506489
28.0,0.001516942516900599
30.0,0.0014291390543803573
32.0,0.0013948330888524652
36.0,0.0013534387107938528
40.0,0.0014100451953709126
44.0,0.0014344811206683517
48.0,0.0012450639624148607
52.0,0.0010822871699929237
56.0,0.0012291845632717013
60.0,0.0013463214272633195
64.0,0.001176602439954877
72.0,0.0011060804827138782
80.0,0.0011609421344473958
88.0,0.0007227080641314387
96.0,0.0005134077509865165
104.0,0.0005682813352905214
112.0,0.0006237511988729239
120.0,0.0006405497551895678
128.0,0.00020184343156870455
144.0,-0.0002411920140730217
160.0,-0.0003244153340347111
176.0,-0.00034141569631174207
192.0,-0.0003406088799238205
208.0,4.376752258394845e-05
224.0,0.0003286916180513799
240.0,0.00028897664742544293
256.0,2.1786087017972022e-05
288.0,-4.3073563574580476e-05
320.0,0.00010817521979333833
352.0,-7.055646710796282e-05
384.0,-0.00015181340859271586
416.0,-6.914048572070897e-05
448.0,0.00022908630489837378
480.0,0.00020444141409825534
512.0,0.00044059529318474233
576.0,0.00017928426677826792
640.0,-7.219364488264546e-05
704.0,0.00026875868206843734
768.0,0.0006719774100929499
832.0,-7.337786519201472e-05
896.0,-0.00035860156640410423
960.0,-0.0005156476981937885
1024.0,-2.3887676434242167e-05
1152.0,0.0003044169570785016
1280.0,0.00016263248107861727
1408.0,-0.00017869217845145613
1536.0,-3.298080628155731e-05
1664.0,0.00029567157616838813
1792.0,1.0228636710962746e-05
1920.0,-0.00015019408601801842
2048.0,-4.866086601396091e-05
2304.0,-0.0002137045084964484
2560.0,-8.17670370452106e-05
2816.0,-5.370369035517797e-05
3072.0,2.9026145057287067e-05
3328.0,-0.0003533725393936038
3584.0,-0.00025358013226650655
3840.0,1.428770883649122e-05
4096.0,3.0155295462463982e-05
4608.0,-0.000129728126921691
5120.0,-0.00015999181778170168
5632.0,8.639157022116706e-05
6144.0,0.00019682430138345808
6656.0,0.00012297493231017143
7168.0,-8.899447857402265e-05
7680.0,-0.00020946678705513477
8192.0,-9.190396667690948e-06
9216.0,-0.00019962407532148063
10240.0,-8.617436833446845e-05
11264.0,-0.00019270373741164804
12288.0,0.00032358875614590943
13312.0,0.0004677081305999309
14336.0,-4.027340037282556e-05
end
