version,3.0
numOfCh,1
type,point
parent_name,100-cuts
ch_type,1_1
kcount,1
numberNandB,1
brightnessNandB,1
carpet pos,0
pc,0
Time (ms),CH1 Auto-Correlation
1.0,0.016962215304374695
2.0,0.013961158692836761
3.0,0.01186511293053627
4.0,0.0102697080001235
5.0,0.00905700959265232
6.0,0.008138191886246204
7.0,0.007474858313798904
8.0,0.006880526430904865
9.0,0.006265775300562382
10.0,0.00568388681858778
11.0,0.0052856625989079475
12.0,0.004913299344480038
13.0,0.004622507840394974
14.0,0.004436990711838007
15.0,0.004261869005858898
16.0,0.003925629425793886
18.0,0.0035541867837309837
20.0,0.0032198913395404816
22.0,0.0029902360402047634
24.0,0.00276006106287241
26.0,0.002716210437938571
28.0,0.0025965890381485224
30.0,0.0023309539537876844
32.0,0.002031997311860323
36.0,0.001636811881326139
40.0,0.0014047694858163595
44.0,0.0010273827938362956
48.0,0.0009497696883045137
52.0,0.000883270928170532
56.0,0.0008915417129173875
60.0,0.000818500411696732
64.0,0.0006622179062105715
72.0,0.0006067220238037407
80.0,0.0006753560737706721
88.0,0.0003766351146623492
96.0,0.0005816974444314837
104.0,0.0004324186302255839
112.0,0.00022302597062662244
120.0,0.0005734663573093712
128.0,0.0002515728701837361
144.0,0.00018982068286277354
160.0,0.0007535857730545104
176.0,0.0006595251034013927
192.0,0.0004072750161867589
208.0,0.0007635682704858482
224.0,0.0005856890929862857
240.0,-8.113896910799667e-05
256.0,1.4638504580943845e-05
288.0,-0.0002555741521064192
320.0,0.00012695009354501963
352.0,-6.919877341715619e-05
384.0,-0.0002755467139650136
416.0,-9.62105841608718e-05
448.0,2.343505184398964e-05
480.0,-0.000745375466067344
512.0,-0.0005616270354948938
576.0,-0.0002758790215011686
640.0,-0.000229323937674053
704.0,-0.0002690750698093325
768.0,-0.0005885091959498823
832.0,-0.0004618637321982533
896.0,-8.305968367494643e-05
960.0,-0.00036288017872720957
1024.0,-0.0002825461851898581
1152.0,-0.00023346538364421576
1280.0,0.0003080740862060338
1408.0,0.00025014689890667796
1536.0,0.0002753225271590054
1664.0,0.00015143388009164482
1792.0,6.132754060672596e-05
1920.0,5.546157990465872e-05
2048.0,0.0001446045353077352
2304.0,0.00010017299791797996
2560.0,-0.00021863420261070132
2816.0,0.000170931700267829
3072.0,-2.628021320560947e-05
3328.0,-7.514163735322654e-05
3584.0,-3.0004728614585474e-05
3840.0,-0.00019578311184886843
4096.0,-0.00025858019944280386
4608.0,0.0001473460579290986
5120.0,-2.5649087547208183e-05
5632.0,-2.2579082724405453e-05
6144.0,-2.773498636088334e-05
6656.0,3.6588712646334898e-06
7168.0,-0.00020610062347259372
7680.0,-2.657143159012776e-05
8192.0,1.7770073100109585e-05
9216.0,-0.0001607887097634375
10240.0,-4.564247319649439e-06
11264.0,-0.0002674442657735199
12288.0,8.45390331960516e-06
13312.0,0.00017204975301865488
14336.0,-2.0591358406818472e-05
end
