version,3.0
numOfCh,1
type,point
parent_name,100-cuts
ch_type,1_1
kcount,1
numberNandB,1
brightnessNandB,1
carpet pos,0
pc,0
Time (ms),CH1 Auto-Correlation
1.0,0.016427060589194298
2.0,0.013570325449109077
3.0,0.011580667458474636
4.0,0.010096783749759197
5.0,0.00885720457881689
6.0,0.007849663496017456
7.0,0.007110872305929661
8.0,0.006421910133212805
9.0,0.005759706720709801
10.0,0.005191692151129246
11.0,0.004618681501597166
12.0,0.004151304718106985
13.0,0.003761121304705739
14.0,0.0034700233954936266
15.0,0.003290921915322542
16.0,0.003051272127777338
18.0,0.0025914767757058144
20.0,0.0022183689288794994
22.0,0.0018041690345853567
24.0,0.001672716229222715
26.0,0.0015098621370270848
28.0,0.0013209766475483775
30.0,0.001242243917658925
32.0,0.0011638323776423931
36.0,0.0009249338763765991
40.0,0.0007120373193174601
44.0,0.000301156920613721
48.0,0.0002643927582539618
52.0,8.518892718711868e-05
56.0,-0.00010857968300115317
60.0,-9.207028051605448e-05
64.0,2.4081955416477285e-05
72.0,0.0003708740114234388
80.0,0.00033565526246093214
88.0,0.0004993387847207487
96.0,0.0006520352326333523
104.0,0.0005806906265206635
112.0,0.0004359745071269572
120.0,0.0002742821234278381
128.0,0.00017712505359668285
144.0,0.0003675139450933784
160.0,0.00034565242822282016
176.0,0.0004987456486560404
192.0,0.0001414347207173705
208.0,-2.049216527666431e-05
224.0,2.956483149318956e-05
240.0,-6.379004480550066e-05
256.0,-0.0005745164817199111
288.0,-0.0005125687457621098
320.0,-2.0912015315843746e-05
352.0,0.0001327016216237098
384.0,0.00011554691445780918
416.0,-0.00020270163076929748
448.0,-0.00016059765766840428
480.0,-2.059217877103947e-05
512.0,0.0003766665467992425
576.0,0.00017638702411204576
640.0,-0.00020051415776833892
704.0,0.0005379176582209766
768.0,-0.0004032107535749674
832.0,-0.0002933272917289287
896.0,3.7527395761571825e-05
960.0,-0.00012456340482458472
1024.0,-1.9226981748943217e-05
1152.0,0.0005122367292642593
1280.0,0.0002528073964640498
1408.0,-0.0003621437354013324
1536.0,-5.513626547326567e-06
1664.0,-0.00018063232710119337
1792.0,3.214732350897975e-05
1920.0,9.918932846630923e-06
2048.0,2.793833482428454e-05
2304.0,-0.00011104331497335806
2560.0,9.81477860477753e-05
2816.0,-0.00010735844261944294
3072.0,-0.00010389526869403198
3328.0,9.862376464297995e-05
3584.0,3.644083335530013e-06
3840.0,3.1778217817191035e-05
4096.0,-0.00021477648988366127
4608.0,-0.00012689473805949092
5120.0,-7.915060268715024e-05
5632.0,-0.0003979284956585616
6144.0,-0.0001423211069777608
6656.0,-2.1399580873548985e-05
7168.0,0.0001793594565242529
7680.0,0.00016137200873345137
8192.0,-0.0001581857359269634
9216.0,0.000200356196728535
10240.0,3.245710831834003e-05
11264.0,4.860120316152461e-05
12288.0,1.4905030184308998e-05
13312.0,-4.713392263511196e-05
14336.0,-6.082454092393164e-06
end
