version,3.0
numOfCh,1
type,point
parent_name,100-cuts
ch_type,1_1
kcount,1
numberNandB,1
brightnessNandB,1
carpet pos,0
pc,0
Time (ms),CH1 Auto-Correlation
1.0,0.017225930467247963
2.0,0.01418246328830719
3.0,0.011955414898693562
4.0,0.010381768457591534
5.0,0.009141143411397934
6.0,0.00824875570833683
7.0,0.0074766939505934715
8.0,0.0068982625380158424
9.0,0.006323730573058128
10.0,0.005843615159392357
11.0,0.005260861478745937
12.0,0.0048108757473528385
13.0,0.0044687669724226
14.0,0.004245211370289326
15.0,0.0039210012182593346
16.0,0.0035979892127215862
18.0,0.003211157163605094
20.0,0.002678621094673872
22.0,0.002396602416411042
24.0,0.0022443588823080063
26.0,0.002084881765767932
28.0,0.0018515338888391852
30.0,0.0016792775131762028
32.0,0.001505266409367323
36.0,0.0012353155761957169
40.0,0.0009738952503539622
44.0,0.0010395023273304105
48.0,0.0010333703830838203
52.0,0.0009240206563845277
56.0,0.0008785613463260233
60.0,0.0007962427916936576
64.0,0.000614850374404341
72.0,0.0003677892091218382
80.0,0.0001729663199512288
88.0,0.0001670995116000995
96.0,-0.00018624623771756887
104.0,-0.00023270778183359653
112.0,-0.0002917111269198358
120.0,-0.0003431108489166945
128.0,-0.000931386835873127
144.0,-0.0005727188545279205
160.0,-0.0005723670474253595
176.0,-0.0002426953287795186
192.0,-0.000669207947794348
208.0,-0.00039371656021103263
224.0,0.00041104573756456375
240.0,0.00041659577982500196
256.0,-5.597103154286742e-05
288.0,-2.025165485974867e-05
320.0,1.1224376066820696e-05
352.0,0.00015828400501050055
384.0,-1.0573907047728426e-06
416.0,0.00022014464775566012
448.0,0.00015065562911331654
480.0,0.00018131936667487025
512.0,-0.00018675022874958813
576.0,0.00034758378751575947
640.0,0.0004104791150894016
704.0,-0.0005381583468988538
768.0,-0.000609449518378824
832.0,0.00011296166485408321
896.0,0.00045262035564519465
960.0,4.158059164183214e-05
1024.0,-0.00042314210440963507
1152.0,-0.000278847583103925
1280.0,5.9340105508454144e-05
1408.0,0.00021209477563388646
1536.0,9.782723645912483e-05
1664.0,-0.00028006936190649867
1792.0,-1.5748844816698693e-05
1920.0,-0.0001240857964148745
2048.0,-1.0583687981124967e-05
2304.0,-0.0001822502672439441
2560.0,-1.9313208667881554e-06
2816.0,-0.0002932633215095848
3072.0,0.00023009678989183158
3328.0,5.5800730478949845e-05
3584.0,-9.287244029110298e-05
3840.0,0.00031583229429088533
4096.0,-6.714181654388085e-05
4608.0,-0.00019716932729352266
5120.0,-0.0001878093898994848
5632.0,-0.00016938496264629066
6144.0,0.00017643837782088667
6656.0,1.1228397852391936e-05
7168.0,2.9525082936743274e-05
7680.0,0.00018755279597826302
8192.0,0.000148603183333762
9216.0,-7.950596773298457e-05
10240.0,9.795178812055383e-06
11264.0,-0.00013415627472568303
12288.0,1.3131102605257183e-05
13312.0,-0.0001043829252012074
14336.0,5.3541942179435864e-05
end
