version,3.0
numOfCh,1
type,point
parent_name,100-cuts
ch_type,1_1
kcount,1
numberNandB,1
brightnessNandB,1
carpet pos,0
pc,0
Time (ms),CH1 Auto-Correlation
1.0,0.01569920964539051
2.0,0.01276401523500681
3.0,0.01072505209594965
4.0,0.009188715368509293
5.0,0.00815305020660162
6.0,0.007298531476408243
7.0,0.006555486936122179
8.0,0.005809815134853125
9.0,0.005231079179793596
10.0,0.004735223948955536
11.0,0.004348185379058123
12.0,0.004086300265043974
13.0,0.0038381146732717752
14.0,0.003568093990907073
15.0,0.003385552205145359
16.0,0.0032306404318660498
18.0,0.002915280172601342
20.0,0.0026389157865196466
22.0,0.002382207429036498
24.0,0.002114631934091449
26.0,0.0019684461876749992
28.0,0.0017918103840202093
30.0,0.0015283297980204225
32.0,0.0013713935622945428
36.0,0.0013443045318126678
40.0,0.001113452366553247
44.0,0.001192310475744307
48.0,0.0012363404966890812
52.0,0.0011112645734101534
56.0,0.0009434173116460443
60.0,0.0010554651962593198
64.0,0.0009531849063932896
72.0,0.0010575692867860198
80.0,0.0005872044712305069
88.0,0.0003817819233518094
96.0,0.00017200977890752256
104.0,1.4383404050022364e-05
112.0,0.00020517865777947009
120.0,2.2978952983976342e-05
128.0,-0.0005231564864516258
144.0,-0.0009225691319443285
160.0,-0.0006780652911402285
176.0,-0.00032768314122222364
192.0,-0.00033727087429724634
208.0,-0.00039341714000329375
224.0,-0.0003445952315814793
240.0,-0.0004844894865527749
256.0,4.600659394782269e-06
288.0,0.00041522327228449285
320.0,0.0001797063450794667
352.0,0.00039387348806485534
384.0,-7.105498661985621e-05
416.0,6.83542930346448e-06
448.0,7.281052239704877e-05
480.0,0.00020476552890613675
512.0,-0.00010704317537602037
576.0,-0.00016953967860899866
640.0,0.0003458117425907403
704.0,8.264050120487809e-05
768.0,-0.00033343478571623564
832.0,-0.00043723793351091444
896.0,-0.00015986718062777072
960.0,-0.00012937105202581733
1024.0,0.0005685549112968147
1152.0,0.00023384233645629138
1280.0,-0.00046901777386665344
1408.0,0.00026587321190163493
1536.0,9.29066154640168e-05
1664.0,0.000584903231356293
1792.0,0.00019499518384691328
1920.0,0.00028503197245299816
2048.0,0.0001750377268763259
2304.0,-0.00013002661580685526
2560.0,0.0002538400876801461
2816.0,0.00022324275050777942
3072.0,0.00018849379557650536
3328.0,-2.084787411149591e-06
3584.0,-5.847612919751555e-05
3840.0,-1.9345814507687464e-05
4096.0,-9.90356202237308e-05
4608.0,5.536582102649845e-05
5120.0,5.791941657662392e-05
5632.0,3.1778807169757783e-05
6144.0,-0.00031990022398531437
6656.0,0.0002035572106251493
7168.0,-0.00010507503611734137
7680.0,-0.00019613621407188475
8192.0,-4.3649790313793346e-05
9216.0,-0.00013233958452474326
10240.0,-0.0003708152216859162
11264.0,-9.844235319178551e-05
12288.0,-0.00018435703532304615
13312.0,-0.00046512155677191913
14336.0,0.0003764028660953045
end
