version,3.0
numOfCh,1
type,point
parent_name,100-cuts
ch_type,1_1
kcount,1
numberNandB,1
brightnessNandB,1
carpet pos,0
pc,0
Time (ms),CH1 Auto-Correlation
1.0,0.027007311582565308
2.0,0.0219529140740633
3.0,0.018543751910328865
4.0,0.01589871756732464
5.0,0.013753630220890045
6.0,0.012024277821183205
7.0,0.010589069686830044
8.0,0.009546292014420033
9.0,0.008857483975589275
10.0,0.008105803281068802
11.0,0.007361056283116341
12.0,0.006654317490756512
13.0,0.00613150279968977
14.0,0.005754306446760893
15.0,0.0055099972523748875
16.0,0.005330141633749008
18.0,0.004931650590151548
20.0,0.004420622251927853
22.0,0.003783261636272073
24.0,0.003171591553837061
26.0,0.0030590584501624107
28.0,0.0028995585162192583
30.0,0.0029449802823364735
32.0,0.0029544776771217585
36.0,0.0025548352859914303
40.0,0.0020544263534247875
44.0,0.0017600997816771269
48.0,0.0015511664096266031
52.0,0.0010576227214187384
56.0,0.000839203130453825
60.0,0.0007729704375378788
64.0,0.0009708104771561921
72.0,7.681118586333469e-05
80.0,-0.0002617733844090253
88.0,-8.596843690611422e-05
96.0,0.00035064510302618146
104.0,-0.00036050204653292894
112.0,-0.000914249918423593
120.0,-0.0017742712516337633
128.0,-0.0014891563914716244
144.0,-0.0009694930049590766
160.0,-5.761842112406157e-05
176.0,-0.0008473566849716008
192.0,0.0003108865348622203
208.0,0.00045627032523043454
224.0,0.00017595262033864856
240.0,0.00017859165382105857
256.0,0.0010601960821077228
288.0,0.00017793163715396076
320.0,-0.00046258256770670414
352.0,0.00031797803239896894
384.0,0.00038568340823985636
416.0,-0.0004920476349070668
448.0,-0.0004560105153359473
480.0,-0.0007622736738994718
512.0,-0.001042389776557684
576.0,-0.00014058695523999631
640.0,-0.0007375752320513129
704.0,-0.0003579870390240103
768.0,-0.0009075524285435677
832.0,-0.0002927550522144884
896.0,0.0005486462032422423
960.0,0.0007207358139567077
1024.0,-0.0006534011336043477
1152.0,-0.00033101162989623845
1280.0,0.00043467781506478786
1408.0,-0.00046375137753784657
1536.0,0.00026547894231043756
1664.0,-0.000815223844256252
1792.0,-1.98511279450031e-05
1920.0,-0.000397052412154153
2048.0,0.00040936755249276757
2304.0,4.798598092747852e-05
2560.0,0.00021102347818668932
2816.0,0.00025176419876515865
3072.0,-0.00018972733232658356
3328.0,-0.0004086764238309115
3584.0,-0.0003142667410429567
3840.0,0.0004637248639483005
4096.0,6.0716331063304096e-05
4608.0,-0.00017829961143434048
5120.0,0.000100665696663782
5632.0,-0.00043270355672575533
6144.0,0.00010320811270503327
6656.0,0.0003139537002425641
7168.0,-8.80118677741848e-05
7680.0,0.0005334688466973603
8192.0,-0.000568657589610666
9216.0,9.43978302530013e-05
10240.0,-0.00027803771081380546
11264.0,0.00041561800753697753
12288.0,-0.00043611429282464087
13312.0,0.0003139686887152493
14336.0,-0.0002177549758926034
end
