version,3.0
numOfCh,1
type,point
parent_name,100-cuts
ch_type,1_1
kcount,1
numberNandB,1
brightnessNandB,1
carpet pos,0
pc,0
Time (ms),CH1 Auto-Correlation
1.0,0.01642562635242939
2.0,0.013528849929571152
3.0,0.011429963633418083
4.0,0.009744337759912014
5.0,0.008494233712553978
6.0,0.007595034781843424
7.0,0.006888448726385832
8.0,0.006385517306625843
9.0,0.005884791258722544
10.0,0.005555928684771061
11.0,0.005271479487419128
12.0,0.004970989655703306
13.0,0.004737627226859331
14.0,0.004578449763357639
15.0,0.004339361097663641
16.0,0.004058314952999353
18.0,0.00351267633959651
20.0,0.003143478184938431
22.0,0.0027556363493204117
24.0,0.002578703686594963
26.0,0.0024974457919597626
28.0,0.002382177859544754
30.0,0.002380519872531295
32.0,0.0022350267972797155
36.0,0.0017285029171034694
40.0,0.0017145362216979265
44.0,0.0014193428214639425
48.0,0.0011366455582901835
52.0,0.0009765406721271574
56.0,0.000996931572444737
60.0,0.0008601958979852498
64.0,0.0005281263147480786
72.0,0.0005181805463507771
80.0,0.0005035132635384798
88.0,0.00013298404519446194
96.0,0.00016348081408068538
104.0,0.00021231987921055406
112.0,0.00045374201727099717
120.0,0.00046074329293332994
128.0,0.0006929124938324094
144.0,0.0006972522241994739
160.0,0.00057440553791821
176.0,0.0005393675528466702
192.0,0.0007782450993545353
208.0,0.0008279217290692031
224.0,0.00084903952665627
240.0,0.0006626079557463527
256.0,0.0005980407586321235
288.0,0.000370410067262128
320.0,0.0010383337503299117
352.0,0.0004550433368422091
384.0,0.0007282450678758323
416.0,0.0006351008196361363
448.0,0.00017115297669079155
480.0,0.0001657566608628258
512.0,9.65278159128502e-05
576.0,-0.00024189527903217822
640.0,-0.0003806873573921621
704.0,-0.00010539057257119566
768.0,0.0003315902722533792
832.0,-9.9255281384103e-05
896.0,-3.462854874669574e-05
960.0,8.109942427836359e-05
1024.0,0.0003619830822572112
1152.0,0.00020930658502038568
1280.0,-5.225251516094431e-05
1408.0,0.00038831314304843545
1536.0,0.00018519532750360668
1664.0,-0.00017631913942750543
1792.0,9.622568904887885e-05
1920.0,0.0006004715105518699
2048.0,5.330192652763799e-05
2304.0,0.00044747398351319134
2560.0,0.00021126169303897768
2816.0,-0.0003054863482248038
3072.0,3.322685734019615e-05
3328.0,0.0003320174873806536
3584.0,-5.091317871119827e-05
3840.0,1.6748432244639844e-05
4096.0,-6.999690958764404e-05
4608.0,3.973098864662461e-05
5120.0,-0.00017847181879915297
5632.0,0.0001361602480756119
6144.0,-0.0004871540004387498
6656.0,-0.0001382369373459369
7168.0,-0.00021403546270448714
7680.0,-0.0005309629486873746
8192.0,-0.000376964861061424
9216.0,-0.0002924141299445182
10240.0,-4.3283664126647636e-05
11264.0,-5.865176353836432e-05
12288.0,-0.00029926400748081505
13312.0,-0.00017105818551499397
14336.0,0.0001860979391494766
end
