version,3.0
numOfCh,1
type,point
parent_name,100-cuts
ch_type,1_1
kcount,1
numberNandB,1
brightnessNandB,1
carpet pos,0
pc,0
Time (ms),CH1 Auto-Correlation
1.0,0.016935350373387337
2.0,0.01392125803977251
3.0,0.011682914569973946
4.0,0.010056465864181519
5.0,0.008899996057152748
6.0,0.0080700209364295
7.0,0.007317012641578913
8.0,0.006604042369872332
9.0,0.0059661101549863815
10.0,0.005494866520166397
11.0,0.005059134215116501
12.0,0.004760246258229017
13.0,0.004403002094477415
14.0,0.0040132771246135235
15.0,0.0038497864734381437
16.0,0.0036472855135798454
18.0,0.003466757945716381
20.0,0.0032957640942186117
22.0,0.0031139191705733538
24.0,0.003109912620857358
26.0,0.003024943405762315
28.0,0.002753325505182147
30.0,0.0023771377746015787
32.0,0.0020515008363872766
36.0,0.001792530412785709
40.0,0.0014868159778416157
44.0,0.001132554723881185
48.0,0.0008610961958765984
52.0,0.0005229627713561058
56.0,0.0004327765782363713
60.0,0.00042861103429459035
64.0,0.0005646352074109018
72.0,3.1387084163725376e-05
80.0,2.8593780371011235e-05
88.0,-4.766713755088858e-05
96.0,-0.0004073118616361171
104.0,-0.0007029831758700311
112.0,-0.0003794259100686759
120.0,-0.00024513137759640813
128.0,-1.0708396075642668e-05
144.0,0.0005281891208142042
160.0,0.00014789040142204612
176.0,0.0004476123140193522
192.0,0.00031923933420330286
208.0,-0.00034568310366012156
224.0,-0.00043106492375954986
240.0,-0.00039745098911225796
256.0,-0.0001293669774895534
288.0,0.00055728480219841
320.0,0.0005766732501797378
352.0,-0.00019020182662643492
384.0,-0.0004196532827336341
416.0,-0.0001271138316951692
448.0,-0.00018959892622660846
480.0,-0.0002659530146047473
512.0,-0.0001995021157199517
576.0,0.00047401656047441065
640.0,7.192882185336202e-05
704.0,-0.000371151661965996
768.0,-2.9639171771123074e-05
832.0,0.0003963148919865489
896.0,0.00028808615752495825
960.0,-0.00039542149170301855
1024.0,0.0001501875522080809
1152.0,-0.00013667563325725496
1280.0,-0.00013964723621029407
1408.0,0.0001471324940212071
1536.0,-0.00024554593255743384
1664.0,0.00027764245169237256
1792.0,7.773230754537508e-05
1920.0,0.00030679156770929694
2048.0,-0.0003532673290465027
2304.0,-0.0003362104471307248
2560.0,-0.0006300415261648595
2816.0,-0.00017622028826735914
3072.0,-0.0002890367468353361
3328.0,9.977386798709631e-05
3584.0,4.2513911466812715e-05
3840.0,0.00021247331460472196
4096.0,-0.00014551017375197262
4608.0,1.5931307643768378e-05
5120.0,2.676667099876795e-05
5632.0,0.00024433081853203475
6144.0,-0.00029833483858965337
6656.0,0.0002950469497591257
7168.0,-5.703726492356509e-05
7680.0,1.4233005458663683e-05
8192.0,-2.7959893486695364e-05
9216.0,-0.0002354439056944102
10240.0,-5.2574392611859366e-05
11264.0,-0.00020076852524653077
12288.0,5.649156810250133e-05
13312.0,0.00022215477656573057
14336.0,0.00014806652325205505
end
