version,3.0
numOfCh,1
type,point
parent_name,100-cuts
ch_type,1_1
kcount,1
numberNandB,1
brightnessNandB,1
carpet pos,0
pc,0
Time (ms),CH1 Auto-Correlation
1.0,0.015777191147208214
2.0,0.012930751778185368
3.0,0.011053971946239471
4.0,0.009670675732195377
5.0,0.008565103635191917
6.0,0.007578562013804913
7.0,0.006714072078466415
8.0,0.005953366868197918
9.0,0.0053988187573850155
10.0,0.004835142288357019
11.0,0.004279446322470903
12.0,0.003810828784480691
13.0,0.0033462499268352985
14.0,0.003087191376835108
15.0,0.0028882711194455624
16.0,0.0027347025461494923
18.0,0.00239165173843503
20.0,0.0022133507300168276
22.0,0.0020061058457940817
24.0,0.002094903262332082
26.0,0.0019383798353374004
28.0,0.0017731511034071445
30.0,0.0016646960284560919
32.0,0.0016056018648669124
36.0,0.0016367803327739239
40.0,0.00118978729005903
44.0,0.0009384930017404258
48.0,0.0007440781337209046
52.0,0.0006005966570228338
56.0,0.00047184148570522666
60.0,0.00012356370280031115
64.0,-5.464101195684634e-05
72.0,0.00021653437579516321
80.0,0.000346125423675403
88.0,0.0003211496805306524
96.0,8.94994882401079e-05
104.0,-7.853813440306112e-05
112.0,0.0001476712350267917
120.0,-0.0002520274429116398
128.0,-0.00027490666252560914
144.0,0.0004193330241832882
160.0,0.0005162747111171484
176.0,0.0005842975806444883
192.0,0.0003695982159115374
208.0,0.00024853349896147847
224.0,-0.00026468996657058597
240.0,-0.0004155837814323604
256.0,-0.0003651200095191598
288.0,-0.00022854306735098362
320.0,-0.00012440151476766914
352.0,-0.00011487974552437663
384.0,-3.0024157240404747e-05
416.0,-0.0001125364433391951
448.0,-1.7503605704405345e-05
480.0,-0.00048575623077340424
512.0,-0.0007019448676146567
576.0,0.00024404007126577199
640.0,-3.098569141002372e-05
704.0,-0.00030360984965227544
768.0,3.529183959471993e-05
832.0,0.00014318259491119534
896.0,0.0004847816308028996
960.0,2.0539633624139242e-05
1024.0,-0.00023961976694408804
1152.0,-0.0003504579945001751
1280.0,-0.0002604498586151749
1408.0,-0.00011948406609008089
1536.0,-0.0004362362378742546
1664.0,0.00021051746443845332
1792.0,0.0004297489649616182
1920.0,-5.237467121332884e-05
2048.0,0.00011247682414250448
2304.0,-4.818181423615897e-06
2560.0,-9.671864063420799e-06
2816.0,-0.0002886785368900746
3072.0,-0.0004447702958714217
3328.0,0.0001869758270913735
3584.0,-8.737601456232369e-05
3840.0,-0.00010573308099992573
4096.0,8.140759746311232e-05
4608.0,3.069752347073518e-05
5120.0,5.602568853646517e-05
5632.0,-2.1838157408637926e-05
6144.0,-5.621151649393141e-05
6656.0,-1.7094982467824593e-05
7168.0,4.320653169997968e-05
7680.0,0.00023254235566128045
8192.0,-0.0001113700054702349
9216.0,-0.00019919784972444177
10240.0,3.293736153864302e-05
11264.0,1.9845681890728883e-05
12288.0,0.00046053953701630235
13312.0,-0.000275215512374416
14336.0,-0.00011719860776793212
end
