version,3.0
numOfCh,1
type,point
parent_name,100-cuts
ch_type,1_1
kcount,1
numberNandB,1
brightnessNandB,1
carpet pos,0
pc,0
Time (ms),CH1 Auto-Correlation
1.0,0.025951813906431198
2.0,0.020982176065444946
3.0,0.01758548431098461
4.0,0.014938351698219776
5.0,0.01310599222779274
6.0,0.011600381694734097
7.0,0.01044607162475586
8.0,0.009540666826069355
9.0,0.008722678758203983
10.0,0.008037328720092773
11.0,0.007502170279622078
12.0,0.007137223146855831
13.0,0.006933336611837149
14.0,0.006667262874543667
15.0,0.0061903661116957664
16.0,0.005784078501164913
18.0,0.0050491513684391975
20.0,0.0040986123494803905
22.0,0.0032012148294597864
24.0,0.0028223060071468353
26.0,0.0027004065923392773
28.0,0.002666250802576542
30.0,0.0025369084905833006
32.0,0.002133683767169714
36.0,0.0016516130417585373
40.0,0.0015295337652787566
44.0,0.001505814609117806
48.0,0.00157294818200171
52.0,0.00143386609852314
56.0,0.0009950172388926148
60.0,0.0006424615858122706
64.0,0.0004981711972504854
72.0,0.0001736569538479671
80.0,0.0003675851330626756
88.0,0.00013188768934924155
96.0,0.00010347553325118497
104.0,0.0001345803466392681
112.0,-3.39911894116085e-05
120.0,-0.0004409545217640698
128.0,-0.00014935607032384723
144.0,3.993758582510054e-06
160.0,-0.000718761992175132
176.0,-0.0006844236049801111
192.0,0.00024037463299464434
208.0,0.0005024608108215034
224.0,0.0001775918499333784
240.0,0.000579801038838923
256.0,-5.537298056879081e-05
288.0,-0.0003481345484033227
320.0,4.707666448666714e-05
352.0,-0.0001359850721200928
384.0,-0.0005189443472772837
416.0,-0.0006173401488922536
448.0,-0.000973959977272898
480.0,-0.0008947470923885703
512.0,-0.0007504765526391566
576.0,8.853095641825348e-05
640.0,-0.0006156190647743642
704.0,0.0007774312398396432
768.0,0.00020078431407455355
832.0,0.0003633653395809233
896.0,0.0001429862604709342
960.0,0.0003971229016315192
1024.0,-0.0003337301895953715
1152.0,0.00017964236030820757
1280.0,0.0004957818891853094
1408.0,9.248079732060432e-05
1536.0,2.272355459354003e-06
1664.0,0.00014347715477924794
1792.0,-0.0005233771516941488
1920.0,-0.0001943809475051239
2048.0,0.0003491039387881756
2304.0,0.0004096684860996902
2560.0,0.0003518930752761662
2816.0,0.000531416735611856
3072.0,-0.0002617769641801715
3328.0,-0.00014499069948215038
3584.0,0.00016714872617740184
3840.0,-0.0001485342945670709
4096.0,1.4608291394324624e-06
4608.0,-4.2524457967374474e-05
5120.0,0.00013492838479578495
5632.0,-0.0002978718839585781
6144.0,-0.00010493523586774245
6656.0,-0.0002762203221209347
7168.0,-0.00039833085611462593
7680.0,0.00013082662189844996
8192.0,-0.0001679781125858426
9216.0,-0.0002732431166805327
10240.0,-0.00016733587835915387
11264.0,-4.1584942664485425e-05
12288.0,0.00013424707867670804
13312.0,-0.0002529387129470706
14336.0,0.0001348709047306329
end
