version,3.0
numOfCh,1
type,point
parent_name,100-cuts
ch_type,1_1
kcount,1
numberNandB,1
brightnessNandB,1
carpet pos,0
pc,0
Time (ms),CH1 Auto-Correlation
1.0,0.016169752925634384
2.0,0.01321608480066061
3.0,0.011160577647387981
4.0,0.009663955308496952
5.0,0.008477232418954372
6.0,0.007466883864253759
7.0,0.0067992787808179855
8.0,0.0062062302604317665
9.0,0.005681280512362719
10.0,0.005267181899398565
11.0,0.004943877924233675
12.0,0.0046544745564460754
13.0,0.004268643446266651
14.0,0.004007239360362291
15.0,0.0037620889488607645
16.0,0.0035242880694568157
18.0,0.00310658011585474
20.0,0.0026751975528895855
22.0,0.0024011745117604733
24.0,0.0021973811089992523
26.0,0.001995160011574626
28.0,0.001770909409970045
30.0,0.0016602515242993832
32.0,0.0015289199072867632
36.0,0.001409080228768289
40.0,0.0012608557008206844
44.0,0.0010476791067048907
48.0,0.0009834326338022947
52.0,0.0008974466472864151
56.0,0.0006358763785101473
60.0,0.0003984937793575227
64.0,0.0004044409724883735
72.0,0.00047483283560723066
80.0,0.0009664351819083095
88.0,0.0009618994081392884
96.0,0.0008212535758502781
104.0,0.0003019337891601026
112.0,-5.760186104453169e-05
120.0,3.419223503442481e-05
128.0,0.0001766529749147594
144.0,7.051119609968737e-05
160.0,5.2603340009227395e-05
176.0,0.00017954592476598918
192.0,-4.334287950769067e-05
208.0,-0.00024915829999372363
224.0,0.00031738393590785563
240.0,0.0004211791092529893
256.0,0.00034429258084855974
288.0,0.0002108065818902105
320.0,0.0003461340384092182
352.0,0.00048698647879064083
384.0,-0.000155703688506037
416.0,0.00021370328613556921
448.0,0.00016325166507158428
480.0,-5.246897126198746e-05
512.0,-0.0003636075125541538
576.0,-0.00017440803640056401
640.0,-0.00047196101513691247
704.0,-5.128497286932543e-05
768.0,0.00043195721809752285
832.0,-8.75075493240729e-05
896.0,-0.0001471281429985538
960.0,-0.0001650392368901521
1024.0,-0.00017514276260044426
1152.0,-0.0003689254226628691
1280.0,-0.00011261187319178134
1408.0,-0.00020291938562877476
1536.0,1.8612992789712735e-05
1664.0,0.00010464012302691117
1792.0,6.991058762650937e-05
1920.0,-0.0002909269242081791
2048.0,2.6669775252230465e-05
2304.0,-0.00015217397594824433
2560.0,5.201463864068501e-05
2816.0,7.581980753457174e-05
3072.0,0.00011049428576370701
3328.0,0.00042055451194755733
3584.0,-0.00014385735266841948
3840.0,0.00010886672680499032
4096.0,0.00043210521107539535
4608.0,-4.810465543414466e-05
5120.0,-0.0005449542077258229
5632.0,-0.00029428728157654405
6144.0,4.021883341920329e-06
6656.0,0.00013353137183003128
7168.0,0.0002900057879742235
7680.0,-0.00026273116236552596
8192.0,0.00013126039993949234
9216.0,-0.00010314263636246324
10240.0,4.8333327868022025e-05
11264.0,-2.662380393303465e-05
12288.0,-5.355134271667339e-05
13312.0,-5.06868636875879e-05
14336.0,3.430858123465441e-05
end
