version,3.0
numOfCh,1
type,point
parent_name,100-cuts
ch_type,1_1
kcount,1
numberNandB,1
brightnessNandB,1
carpet pos,0
pc,0
Time (ms),CH1 Auto-Correlation
1.0,0.015710122883319855
2.0,0.012627904303371906
3.0,0.010539839044213295
4.0,0.009037545882165432
5.0,0.007957096211612225
6.0,0.007035465911030769
7.0,0.006188349798321724
8.0,0.005546150729060173
9.0,0.0050066388212144375
10.0,0.004495314788073301
11.0,0.004067203961312771
12.0,0.0036834506317973137
13.0,0.0034044841304421425
14.0,0.003146826522424817
15.0,0.0029119232203811407
16.0,0.0026525279972702265
18.0,0.002234359970316291
20.0,0.0019126817351207137
22.0,0.0016801340971142054
24.0,0.0015356160001829267
26.0,0.00133130990434438
28.0,0.0009815300581976771
30.0,0.0008063458953984082
32.0,0.0006888179923407733
36.0,0.00046150293201208115
40.0,0.00018267997074872255
44.0,0.00017642276361584663
48.0,-5.889246949664084e-06
52.0,-5.945370503468439e-05
56.0,5.032831904827617e-05
60.0,0.0002248549135401845
64.0,0.00019012915436178446
72.0,0.0001626303856028244
80.0,-0.0001655538217164576
88.0,-0.0003569413092918694
96.0,-0.00016958880587480962
104.0,-8.467793668387458e-05
112.0,-2.2211837858776562e-05
120.0,-0.0001437776954844594
128.0,-0.00023191708896774799
144.0,-0.00042371515883132815
160.0,-0.0004561251262202859
176.0,-3.798175384872593e-05
192.0,0.0005363955278880894
208.0,7.625348371220753e-05
224.0,-0.00042105242027901113
240.0,-9.063156903721392e-05
256.0,0.0003396776446606964
288.0,-0.0002893340424634516
320.0,-8.301577327074483e-05
352.0,-0.00045265775406733155
384.0,-0.0006581805646419525
416.0,-0.00010694652883103117
448.0,8.595730469096452e-05
480.0,-0.00023334099387284368
512.0,5.215712371864356e-05
576.0,9.190426499117166e-05
640.0,0.0003292554756626487
704.0,-3.983697388321161e-05
768.0,-0.00038066590786911547
832.0,-0.00016742917068768293
896.0,-9.46915679378435e-05
960.0,-0.00015026252367533743
1024.0,0.00023477963986806571
1152.0,-0.00016988952120300382
1280.0,0.00011742114293156192
1408.0,-0.0002927731547970325
1536.0,0.00010601872781990096
1664.0,-9.431243961444125e-05
1792.0,-0.0002650864189490676
1920.0,0.00025549164274707437
2048.0,-0.00017866448615677655
2304.0,3.898621071130037e-05
2560.0,-0.0001012044886010699
2816.0,-0.00010610460594762117
3072.0,0.0001309914659941569
3328.0,1.4372277291840874e-05
3584.0,-0.0001468219270464033
3840.0,0.00011236622231081128
4096.0,-0.0002081190177705139
4608.0,5.272126145428047e-06
5120.0,0.00026122646522708237
5632.0,-0.00011178165004821494
6144.0,2.256615334772505e-05
6656.0,2.1034244127804413e-05
7168.0,-5.7284025388071314e-05
7680.0,1.107342541217804e-05
8192.0,-9.350865002488717e-05
9216.0,-8.017876098165289e-05
10240.0,0.00013874168507754803
11264.0,-1.6132203199958894e-06
12288.0,-2.704474718484562e-05
13312.0,1.7179674216549756e-07
14336.0,-6.756806396879256e-05
end
