version,3.0
numOfCh,1
type,point
parent_name,100-cuts
ch_type,1_1
kcount,1
numberNandB,1
brightnessNandB,1
carpet pos,0
pc,0
Time (ms),CH1 Auto-Correlation
1.0,0.015595749020576477
2.0,0.012699649669229984
3.0,0.0106137590482831
4.0,0.009040163829922676
5.0,0.007894078269600868
6.0,0.00693630101159215
7.0,0.0062278034165501595
8.0,0.005663525313138962
9.0,0.005121970549225807
10.0,0.004761070944368839
11.0,0.004412944428622723
12.0,0.004097208846360445
13.0,0.0037838134448975325
14.0,0.003527364693582058
15.0,0.0034135114401578903
16.0,0.0032313750125467777
18.0,0.002847212366759777
20.0,0.0024051100481301546
22.0,0.0021741297096014023
24.0,0.002061770996078849
26.0,0.0020151264034211636
28.0,0.001803154475055635
30.0,0.0017385302344337106
32.0,0.0018271795706823468
36.0,0.0014968557516112924
40.0,0.001418697414919734
44.0,0.0012976917205378413
48.0,0.0008809316786937416
52.0,0.0005621848977170885
56.0,6.861270958324894e-05
60.0,-0.00012985015928279608
64.0,-0.00014272799307946116
72.0,7.104485848685727e-05
80.0,0.0003993663704022765
88.0,0.0005719531909562647
96.0,9.685763507150114e-05
104.0,-0.000115079281385988
112.0,-0.00014423811808228493
120.0,-7.481311058654683e-06
128.0,-0.0001545125269331038
144.0,-0.00010288620978826657
160.0,-0.0004789642116520554
176.0,-0.0003880552249029279
192.0,-0.0004503599484451115
208.0,-0.00040577995241619647
224.0,4.0795948734739795e-05
240.0,2.1612784621538594e-05
256.0,2.6872190574067645e-05
288.0,0.00023716157011222094
320.0,0.0002489021862857044
352.0,-0.00018428397015668452
384.0,-0.0003647691337391734
416.0,-6.747275620000437e-05
448.0,0.0001387217198498547
480.0,0.0002151495573343709
512.0,-8.90859155333601e-05
576.0,6.18805133854039e-05
640.0,-0.00016218812379520386
704.0,-0.000266053102677688
768.0,-0.00032695854315534234
832.0,0.00018051308870781213
896.0,-0.0002292016870342195
960.0,5.2068531658733264e-05
1024.0,0.00011426859418861568
1152.0,0.00015782103582751006
1280.0,-8.111615170491859e-05
1408.0,-0.0005840259836986661
1536.0,0.00023297136067412794
1664.0,7.704462768742815e-05
1792.0,-2.0730083633679897e-05
1920.0,-2.9157417884562165e-05
2048.0,-0.00031821749871596694
2304.0,-4.957764394930564e-05
2560.0,-0.00014315817679744214
2816.0,-0.00016900654009077698
3072.0,-4.0825347241479903e-05
3328.0,4.910624193144031e-05
3584.0,-8.867042197380215e-05
3840.0,4.9923710321309045e-05
4096.0,9.944151679519564e-05
4608.0,-6.593021680600941e-05
5120.0,2.1280782675603405e-05
5632.0,-0.00016008794773370028
6144.0,-4.581000757752918e-05
6656.0,3.610394196584821e-05
7168.0,0.00015821402485016733
7680.0,4.522994640865363e-05
8192.0,0.0001589965249877423
9216.0,-1.8847546016331762e-05
10240.0,-0.00012729354784823954
11264.0,2.1778092559543438e-05
12288.0,5.046987644163892e-05
13312.0,-0.00020736143051180989
14336.0,0.0002253106504213065
end
