version,3.0
numOfCh,1
type,point
parent_name,100-cuts
ch_type,1_1
kcount,1
numberNandB,1
brightnessNandB,1
carpet pos,0
pc,0
Time (ms),CH1 Auto-Correlation
1.0,0.01726588048040867
2.0,0.014264648780226707
3.0,0.012151031754910946
4.0,0.010441608726978302
5.0,0.00895517785102129
6.0,0.007830648683011532
7.0,0.006980026140809059
8.0,0.006433659698814154
9.0,0.005837305914610624
10.0,0.0053810859099030495
11.0,0.0049485270865261555
12.0,0.004633002448827028
13.0,0.004366646520793438
14.0,0.004044271074235439
15.0,0.0037904975470155478
16.0,0.003630989696830511
18.0,0.0032261658925563097
20.0,0.0030878554098308086
22.0,0.002809784607961774
24.0,0.0024210037663578987
26.0,0.0020416295155882835
28.0,0.0018442642176523805
30.0,0.0018875589594244957
32.0,0.001864642254076898
36.0,0.001311881118454039
40.0,0.0009758179658092558
44.0,0.0010515903122723103
48.0,0.001060636481270194
52.0,0.001052499981597066
56.0,0.0008674828568473458
60.0,0.0006533876294270158
64.0,0.0007504943059757352
72.0,0.000530906138010323
80.0,0.0002113317314069718
88.0,7.992394239408895e-05
96.0,9.311983012594283e-05
104.0,0.0005338951013982296
112.0,0.0005438762018457055
120.0,0.00041251021320931613
128.0,0.00023172642977442592
144.0,0.0006894947728142142
160.0,0.0004590260505210608
176.0,-0.00029384918161667883
192.0,-0.00033316464396193624
208.0,-8.305555820697919e-05
224.0,0.00014253114932216704
240.0,0.0002304197842022404
256.0,0.00014068146992940456
288.0,-1.5369018001365475e-05
320.0,-0.00013353698886930943
352.0,0.00022716860985383391
384.0,-2.7477493858896196e-05
416.0,-0.00043881702004000545
448.0,-0.000512704427819699
480.0,-0.00027199796750210226
512.0,-0.0002871575125027448
576.0,7.851040572859347e-05
640.0,7.007562089711428e-05
704.0,0.00018096408166456968
768.0,-0.00015263425302691758
832.0,-0.0001900722272694111
896.0,0.00015308900037780404
960.0,0.00031535947346128523
1024.0,0.0004887665272690356
1152.0,3.387085598660633e-05
1280.0,-5.904550198465586e-05
1408.0,-0.0003159938787575811
1536.0,-0.00027038343250751495
1664.0,-4.019594780402258e-05
1792.0,-0.00011337244359310716
1920.0,-1.7467584257246926e-05
2048.0,0.00018149040988646448
2304.0,-0.00014454920892603695
2560.0,0.0001830676046665758
2816.0,2.3735435661365045e-06
3072.0,-0.0001232727663591504
3328.0,1.5379908290924504e-05
3584.0,-2.3210754079627804e-05
3840.0,0.00013989835861139
4096.0,6.569377001142129e-05
4608.0,-7.301061850739643e-05
5120.0,-8.540107228327543e-05
5632.0,0.0002503202704247087
6144.0,-2.5725405066623352e-05
6656.0,-6.848076736787334e-05
7168.0,-0.00017491652397438884
7680.0,-3.293382178526372e-05
8192.0,0.0003199312777724117
9216.0,-0.00018022065341938287
10240.0,-0.00010983817628584802
11264.0,-0.0003833110095001757
12288.0,-3.091793769272044e-05
13312.0,0.0003757087979465723
14336.0,-7.910763088148087e-05
end
