version,3.0
numOfCh,1
type,point
parent_name,100-cuts
ch_type,1_1
kcount,1
numberNandB,1
brightnessNandB,1
carpet pos,0
pc,0
Time (ms),CH1 Auto-Correlation
1.0,0.01645531691610813
2.0,0.013373088091611862
3.0,0.011240758001804352
4.0,0.009607670828700066
5.0,0.008320155553519726
6.0,0.007354245986789465
7.0,0.006520526017993689
8.0,0.005781814455986023
9.0,0.0052084168419241905
10.0,0.004743157885968685
11.0,0.004371429327875376
12.0,0.00402724789455533
13.0,0.0037771218921989202
14.0,0.0035625791642814875
15.0,0.003370761638507247
16.0,0.0033638225868344307
18.0,0.003065155353397131
20.0,0.002723049372434616
22.0,0.002585976617410779
24.0,0.0025315294042229652
26.0,0.002253819489851594
28.0,0.002064936561509967
30.0,0.002010973868891597
32.0,0.0019832139369100332
36.0,0.0016259431140497327
40.0,0.00140438845846802
44.0,0.0011619724100455642
48.0,0.000799934787210077
52.0,0.0006652124575339258
56.0,0.0005128741031512618
60.0,0.0005536336684599519
64.0,0.0002822812821250409
72.0,7.57025700295344e-05
80.0,-8.15910316305235e-05
88.0,-7.699416892137378e-05
96.0,9.898179769152193e-07
104.0,-0.00030402783886529505
112.0,-0.00037234878982417285
120.0,-0.00048486454761587083
128.0,-0.0005146423354744911
144.0,-0.0007658213726244867
160.0,-0.0005703180795535445
176.0,-0.00035707312054000795
192.0,-0.0004002214700449258
208.0,-0.00042271861457265913
224.0,0.00013229493924882263
240.0,0.0006322907865978777
256.0,0.00043816069955937564
288.0,-0.00017053996270988137
320.0,-0.0007451945566572249
352.0,2.132168083335273e-05
384.0,0.00021253604791127145
416.0,0.00040472569526173174
448.0,0.0005675218999385834
480.0,0.0003231871232856065
512.0,0.00035456521436572075
576.0,-0.00010011435369960964
640.0,-2.912970376200974e-05
704.0,-0.00010758831922430545
768.0,-0.000316939374897629
832.0,-0.00010785052290884778
896.0,8.389777940465137e-05
960.0,0.0006759436218999326
1024.0,8.002889080671594e-05
1152.0,6.280916568357497e-05
1280.0,-0.00014103132707532495
1408.0,-0.0001400486216880381
1536.0,0.00023320868785958737
1664.0,0.00011494490172481164
1792.0,-1.0235854460916016e-05
1920.0,0.0002661249600350857
2048.0,0.0002908532915171236
2304.0,-9.15125201572664e-06
2560.0,1.0431367627461441e-05
2816.0,-4.39979339716956e-05
3072.0,-0.0002311119606019929
3328.0,8.273121056845412e-05
3584.0,-6.862581358291209e-05
3840.0,1.0360537999076769e-05
4096.0,0.00011520654516061768
4608.0,-2.10398284252733e-05
5120.0,-5.2913313993485644e-05
5632.0,9.38570883590728e-05
6144.0,0.0001340871094726026
6656.0,9.28910776565317e-06
7168.0,9.080923518922646e-06
7680.0,-7.562770770164207e-05
8192.0,-2.004891211981885e-05
9216.0,-0.00017723468772601336
10240.0,-0.00023539032554253936
11264.0,-4.2720934288809076e-05
12288.0,-0.00017230011872015893
13312.0,-4.5512615542975254e-06
14336.0,5.3530497098108754e-05
end
