version,3.0
numOfCh,1
type,point
parent_name,100-cuts
ch_type,1_1
kcount,1
numberNandB,1
brightnessNandB,1
carpet pos,0
pc,0
Time (ms),CH1 Auto-Correlation
1.0,0.026195624843239784
2.0,0.02116991952061653
3.0,0.01773151569068432
4.0,0.01521780714392662
5.0,0.013605711981654167
6.0,0.012265552766621113
7.0,0.010863958857953548
8.0,0.009833511896431446
9.0,0.008874569088220596
10.0,0.008150485344231129
11.0,0.007371738087385893
12.0,0.00660469476133585
13.0,0.006057338323444128
14.0,0.005501871928572655
15.0,0.005053105764091015
16.0,0.0048768832348287106
18.0,0.004296781029552221
20.0,0.003726326860487461
22.0,0.003292378270998597
24.0,0.0027707547415047884
26.0,0.002718669595196843
28.0,0.0026616284158080816
30.0,0.002512596780434251
32.0,0.0023934252094477415
36.0,0.0012370432959869504
40.0,0.0006733230547979474
44.0,0.000496657332405448
48.0,-7.314389677048894e-06
52.0,-0.00045099607086740434
56.0,7.226778689073399e-05
60.0,0.00017922431288752705
64.0,0.0003255424671806395
72.0,0.001313346903771162
80.0,0.0010025649098679423
88.0,0.00030760548543184996
96.0,0.0004648364847525954
104.0,0.0010352928657084703
112.0,0.0005481108091771603
120.0,0.00027009687619283795
128.0,0.00047150012687779963
144.0,0.000844596594106406
160.0,0.0008588096825405955
176.0,0.0010306385811418295
192.0,0.0012669854331761599
208.0,0.00048440354294143617
224.0,1.1583032573980745e-05
240.0,-0.0009351061889901757
256.0,-0.0008740494959056377
288.0,0.0001819037861423567
320.0,0.0004749684303533286
352.0,0.001139901578426361
384.0,0.0005417742650024593
416.0,-0.00034863967448472977
448.0,-0.00044918834464624524
480.0,0.00022757855185773224
512.0,0.0004982848186045885
576.0,-0.0001502834347775206
640.0,-0.00047875402378849685
704.0,0.0009262183448299766
768.0,0.00012805307051166892
832.0,0.00019188022997695953
896.0,0.0002245277282781899
960.0,-0.00013344877515919507
1024.0,-1.8778464436763898e-05
1152.0,0.0003795006196014583
1280.0,0.00030775507912039757
1408.0,0.00055580964544788
1536.0,-3.6621244362322614e-05
1664.0,-0.000263616704614833
1792.0,3.0081468139542267e-05
1920.0,-1.072397662937874e-05
2048.0,-6.313267931545852e-06
2304.0,0.00040175477624870837
2560.0,0.0008521052077412605
2816.0,-0.00012016793334623799
3072.0,-0.0003159306652378291
3328.0,0.00022329160128720105
3584.0,0.0002307512768311426
3840.0,-5.830705413245596e-05
4096.0,-0.0003274823247920722
4608.0,-0.00011579070269363001
5120.0,4.526831617113203e-05
5632.0,-0.00016579298244323581
6144.0,-6.842166476417333e-05
6656.0,-0.0006313236663118005
7168.0,-3.818134246103e-06
7680.0,-0.00011239576997468248
8192.0,-0.0002836288185790181
9216.0,-0.00023208119091577828
10240.0,0.0002513537765480578
11264.0,-0.0002866927534341812
12288.0,-0.000286753784166649
13312.0,0.00011178910062881187
14336.0,-0.0012057017302140594
end
