version,3.0
numOfCh,1
type,point
parent_name,100-cuts
ch_type,1_1
kcount,1
numberNandB,1
brightnessNandB,1
carpet pos,0
pc,0
Time (ms),CH1 Auto-Correlation
1.0,0.015959525480866432
2.0,0.013072784058749676
3.0,0.010955899022519588
4.0,0.009406168945133686
5.0,0.0083086509257555
6.0,0.007413893472403288
7.0,0.006585053633898497
8.0,0.005949168931692839
9.0,0.005449432414025068
10.0,0.005021353252232075
11.0,0.004698865115642548
12.0,0.004455866292119026
13.0,0.004174606874585152
14.0,0.003975447732955217
15.0,0.0037502937484532595
16.0,0.003573757829144597
18.0,0.0032904506660997868
20.0,0.0030181570909917355
22.0,0.0027532149106264114
24.0,0.00232540350407362
26.0,0.0018772794865071774
28.0,0.0016731249634176493
30.0,0.0016504093073308468
32.0,0.0016753105446696281
36.0,0.0015222254442051053
40.0,0.0014588393969461322
44.0,0.0011286817025393248
48.0,0.001199708436615765
52.0,0.0012943295296281576
56.0,0.0011270423419773579
60.0,0.0007238183170557022
64.0,0.00031824890174902976
72.0,0.0002823929535225034
80.0,-4.638007521862164e-05
88.0,8.132496986945625e-06
96.0,0.0003930517705157399
104.0,0.0003862775629386306
112.0,4.3768952309619635e-05
120.0,0.0001646045275265351
128.0,0.0003040246956516057
144.0,0.00043058983283117414
160.0,0.0002784406824503094
176.0,-9.113842679653317e-05
192.0,0.00015361086116172373
208.0,0.00015529579832218587
224.0,8.813893509795889e-05
240.0,0.0002786525583360344
256.0,0.00023610553762409836
288.0,0.000796560023445636
320.0,0.0007553341565653682
352.0,0.00021898628619965166
384.0,-0.00017963947902899235
416.0,-0.00016207170847337693
448.0,-0.0004442355711944401
480.0,-0.0004113049362786114
512.0,-4.664129301090725e-05
576.0,-0.0001467156398575753
640.0,0.0003744503774214536
704.0,-0.00018662087677512318
768.0,0.0001895332825370133
832.0,0.0007177923107519746
896.0,-6.603877409361303e-05
960.0,0.0002726812963373959
1024.0,6.70703302603215e-05
1152.0,1.2849905942857731e-05
1280.0,-0.00016013460117392242
1408.0,-0.0002626458590384573
1536.0,-0.00031337389373220503
1664.0,-0.0001277319242944941
1792.0,-0.00038796625449322164
1920.0,-0.00043734078644774854
2048.0,-0.00010379016021033749
2304.0,-7.175483187893406e-05
2560.0,-0.00030802315450273454
2816.0,-0.00010627612937241793
3072.0,1.7925032807397656e-05
3328.0,1.4607813682232518e-05
3584.0,4.7616435040254146e-05
3840.0,0.0001243539445567876
4096.0,0.00040337719838134944
4608.0,0.0002817960630636662
5120.0,4.1852985305013135e-05
5632.0,-7.16243011993356e-05
6144.0,-0.00019087758846580982
6656.0,-0.00020736592705361545
7168.0,-0.0003218238416593522
7680.0,-4.578500738716684e-05
8192.0,0.00017392224981449544
9216.0,5.060831972514279e-05
10240.0,-0.0002738208568189293
11264.0,-0.00020630973449442536
12288.0,0.00010598455992294475
13312.0,0.0002374512405367568
14336.0,-0.0004559147055260837
end
