version,3.0
numOfCh,1
type,point
parent_name,100-cuts
ch_type,1_1
kcount,1
numberNandB,1
brightnessNandB,1
carpet pos,0
pc,0
Time (ms),CH1 Auto-Correlation
1.0,0.015378414653241634
2.0,0.01242407038807869
3.0,0.010317905806005001
4.0,0.008820034563541412
5.0,0.00774511881172657
6.0,0.006911152042448521
7.0,0.006178352981805801
8.0,0.0054801590740680695
9.0,0.004917073529213667
10.0,0.004531922750174999
11.0,0.004186328034847975
12.0,0.003807173576205969
13.0,0.003574640490114689
14.0,0.003405006369575858
15.0,0.0032089476007968187
16.0,0.003034095047041774
18.0,0.002621761290356517
20.0,0.00223564519546926
22.0,0.0020749326795339584
24.0,0.0018015686655417085
26.0,0.0015758665977045894
28.0,0.001416264334693551
30.0,0.0013542507076635957
32.0,0.0011690891114994884
36.0,0.0010235609952360392
40.0,0.0005941240233369172
44.0,0.0003244495892431587
48.0,0.00016477066674269736
52.0,-9.76825540419668e-05
56.0,-9.789103933144361e-05
60.0,3.5328324884176254e-05
64.0,-7.488172559533268e-05
72.0,-0.0004119962395634502
80.0,-0.0003696737112477422
88.0,-0.00035168277099728584
96.0,-0.00041188616887666285
104.0,-0.0008277377346530557
112.0,-0.0002674254064913839
120.0,-0.00010798482253449038
128.0,-0.00020866123668383807
144.0,-4.802016701432876e-05
160.0,0.0002864149573724717
176.0,0.00021628524700645357
192.0,0.00032185931922867894
208.0,0.0003233922179788351
224.0,-0.0003383284783922136
240.0,-0.0001332870015176013
256.0,-0.0002551912039052695
288.0,0.0004342165484558791
320.0,0.0001953118189703673
352.0,-3.0156323191476986e-05
384.0,-1.890051134978421e-05
416.0,0.0006102467887103558
448.0,0.0007808441878296435
480.0,0.0008166750194504857
512.0,-0.0001545728009659797
576.0,0.00022027276281733066
640.0,0.0003617777838371694
704.0,9.987978410208598e-05
768.0,-6.431892688851804e-05
832.0,9.003429295262322e-05
896.0,1.1390417057555169e-05
960.0,-8.730916306376457e-05
1024.0,0.0002417780488030985
1152.0,0.00017885117267724127
1280.0,-0.00021809531608596444
1408.0,-5.395076732384041e-05
1536.0,0.0001728569477563724
1664.0,-9.186426723317709e-06
1792.0,-1.415512178937206e-05
1920.0,-1.704876012809109e-05
2048.0,-9.622942161513492e-05
2304.0,0.00014146996545605361
2560.0,5.130215504323132e-05
2816.0,2.4690443751751445e-05
3072.0,0.0002548724878579378
3328.0,0.000228750504902564
3584.0,-0.00012734529445879161
3840.0,0.00012932623212691396
4096.0,1.5592861018376425e-05
4608.0,-0.00013703973672818393
5120.0,-0.00011126754543511197
5632.0,-0.0001956488413270563
6144.0,-0.00016270947526209056
6656.0,-0.00012038295972160995
7168.0,2.6854262614506297e-05
7680.0,-5.520729246200062e-05
8192.0,-2.5795055989874527e-05
9216.0,-0.0001583984267199412
10240.0,6.499840310425498e-07
11264.0,-1.7288990420638584e-05
12288.0,-5.938453250564635e-05
13312.0,-4.098133103980217e-06
14336.0,7.75972512201406e-05
end
