version,3.0
numOfCh,1
type,point
parent_name,100-cuts
ch_type,1_1
kcount,1
numberNandB,1
brightnessNandB,1
carpet pos,0
pc,0
Time (ms),CH1 Auto-Correlation
1.0,0.01569645293056965
2.0,0.012879369780421257
3.0,0.010816754773259163
4.0,0.009309080429375172
5.0,0.008102391846477985
6.0,0.007147890515625477
7.0,0.006333598401397467
8.0,0.00567870307713747
9.0,0.005119498819112778
10.0,0.0046526105143129826
11.0,0.004283061716705561
12.0,0.0039902618154883385
13.0,0.0036912430077791214
14.0,0.003476119600236416
15.0,0.003141713095828891
16.0,0.002882484346628189
18.0,0.0024735587649047375
20.0,0.0020585160236805677
22.0,0.0017251507379114628
24.0,0.0015591568080708385
26.0,0.0014796142932027578
28.0,0.0012775768991559744
30.0,0.001129654236137867
32.0,0.0009643032681196928
36.0,0.0006541560869663954
40.0,0.0004352796822786331
44.0,0.0005503944703377783
48.0,0.0005988973425701261
52.0,0.0004417624732013792
56.0,0.0003791394701693207
60.0,0.00035927011049352586
64.0,0.00036708018160425127
72.0,0.000323651620419696
80.0,-1.146714021160733e-05
88.0,-5.953037543804385e-05
96.0,-0.0005133282393217087
104.0,-0.0005300869233906269
112.0,-0.00040357100078836083
120.0,-0.00024846740416251123
128.0,-0.00023636088008061051
144.0,0.0002320456987945363
160.0,5.489283284987323e-05
176.0,0.00022290361812338233
192.0,0.00036561727756634355
208.0,0.00013615901116281748
224.0,-0.0002184837794629857
240.0,-8.712384442333132e-05
256.0,0.00046088843373581767
288.0,0.00021929721697233617
320.0,-0.00018371579062659293
352.0,0.0003203015949111432
384.0,0.00022049812832847238
416.0,-0.00033879358670674264
448.0,-0.0002062040293822065
480.0,-0.00026864546816796064
512.0,-2.1925012333667837e-05
576.0,-0.0001189383037853986
640.0,0.000735893496312201
704.0,0.00010394381388323382
768.0,-0.00038021133514121175
832.0,-0.0002690819092094898
896.0,0.0003742137341760099
960.0,0.0003363028517924249
1024.0,4.9675658374326304e-05
1152.0,-7.650456973351538e-05
1280.0,-0.00012274147593416274
1408.0,-5.101043825561646e-06
1536.0,0.0001722551096463576
1664.0,-5.617470742436126e-05
1792.0,-0.00021375520736910403
1920.0,-0.0001891332067316398
2048.0,-6.695352931274101e-05
2304.0,1.671382415224798e-05
2560.0,6.231520728761097e-06
2816.0,-0.0001970683952094987
3072.0,0.00010509101412026212
3328.0,-0.0001105594783439301
3584.0,-2.2380279915523715e-05
3840.0,-0.00016468031390104443
4096.0,-0.00013822189066559076
4608.0,1.8751521565718576e-05
5120.0,-4.74911903438624e-05
5632.0,3.6769688449567184e-05
6144.0,-7.193830970209092e-05
6656.0,1.911265826493036e-05
7168.0,-6.50910587864928e-05
7680.0,0.00015092914691194892
8192.0,0.000124828758998774
9216.0,-7.49253376852721e-05
10240.0,-0.0001331513049080968
11264.0,-0.00012577914458233863
12288.0,0.00010690867202356458
13312.0,0.00032277280115522444
14336.0,-4.834084757021628e-05
end
