version,3.0
numOfCh,1
type,point
parent_name,100-cuts
ch_type,1_1
kcount,1
numberNandB,1
brightnessNandB,1
carpet pos,0
pc,0
Time (ms),CH1 Auto-Correlation
1.0,0.014766514301300049
2.0,0.011819720268249512
3.0,0.009815379977226257
4.0,0.008361144922673702
5.0,0.007270896807312965
6.0,0.006290557328611612
7.0,0.005611121188849211
8.0,0.005077277775853872
9.0,0.004474181216210127
10.0,0.003947077784687281
11.0,0.0035552748013287783
12.0,0.0032581593841314316
13.0,0.0030474462546408176
14.0,0.0029565375298261642
15.0,0.002773480722680688
16.0,0.002735740737989545
18.0,0.0024683501105755568
20.0,0.002315242774784565
22.0,0.0020239357836544514
24.0,0.0017907291185110807
26.0,0.0014483201084658504
28.0,0.0014550435589626431
30.0,0.0014451585011556745
32.0,0.0013712052023038268
36.0,0.0011987218167632818
40.0,0.0009035837138071656
44.0,0.0007782486500218511
48.0,0.0006186455138958991
52.0,0.00047663194709457457
56.0,0.0003635130706243217
60.0,0.0001882821088656783
64.0,0.00022251687187235802
72.0,0.0003957776934839785
80.0,0.00043822266161441803
88.0,0.00030184979550540447
96.0,0.00015185704978648573
104.0,-4.340591112850234e-05
112.0,0.0004965683328919113
120.0,0.0007368750520981848
128.0,0.000274465826805681
144.0,0.00017827302508521825
160.0,0.00021127588115632534
176.0,0.0002263784990645945
192.0,-0.00022972680744715035
208.0,0.00018541533790994436
224.0,0.00013546543777920306
240.0,0.00032732891850173473
256.0,0.0008706619846634567
288.0,0.00038170910556800663
320.0,1.948212411662098e-05
352.0,0.000140940144774504
384.0,0.00019626878201961517
416.0,-0.00021349209418985993
448.0,0.00011060066026402637
480.0,0.0006368623580783606
512.0,0.0007938886992633343
576.0,0.0005584302707575262
640.0,0.00031897996086627245
704.0,0.0001592572225490585
768.0,9.852393850451335e-05
832.0,-0.0001708865020191297
896.0,-0.00024835870135575533
960.0,-0.0004552865866571665
1024.0,-0.0001948456629179418
1152.0,-0.00014075703802518547
1280.0,-3.895464396919124e-05
1408.0,-0.0007243315922096372
1536.0,-4.198303213343024e-05
1664.0,-0.0001343227195320651
1792.0,-0.00029845902463421226
1920.0,-7.745011680526659e-05
2048.0,-0.0001547614810988307
2304.0,0.00019847314979415387
2560.0,-0.000103322985523846
2816.0,5.115289241075516e-05
3072.0,-0.0002359948994126171
3328.0,-6.697163917124271e-05
3584.0,-0.00020790737471543252
3840.0,6.206428952282295e-05
4096.0,9.367539314553142e-05
4608.0,0.0002688249805942178
5120.0,-5.395089465309866e-05
5632.0,-0.00021656809258274734
6144.0,-0.00016451861301902682
6656.0,0.0001410129916621372
7168.0,-4.3193314922973514e-05
7680.0,2.3789718852640362e-06
8192.0,0.00021135456336196512
9216.0,5.569991117226891e-05
10240.0,-0.00013994835899211466
11264.0,-2.1500749426195398e-05
12288.0,-0.0003844424500130117
13312.0,0.0001260057179024443
14336.0,-0.0005266196094453335
end
