version,3.0
numOfCh,1
type,point
parent_name,100-cuts
ch_type,1_1
kcount,1
numberNandB,1
brightnessNandB,1
carpet pos,0
pc,0
Time (ms),CH1 Auto-Correlation
1.0,0.01682954467833042
2.0,0.013710453175008297
3.0,0.011600203812122345
4.0,0.010020880959928036
5.0,0.008861379697918892
6.0,0.007810540031641722
7.0,0.006911263335496187
8.0,0.006168254651129246
9.0,0.005557669326663017
10.0,0.0050226072780787945
11.0,0.004633660893887281
12.0,0.004217488691210747
13.0,0.0038051733281463385
14.0,0.0035100122913718224
15.0,0.003292773151770234
16.0,0.003030685242265463
18.0,0.0026796935126185417
20.0,0.002463588025420904
22.0,0.0022250772453844547
24.0,0.002135296817868948
26.0,0.0019146299455314875
28.0,0.0017863622633740306
30.0,0.0016386908246204257
32.0,0.0015268365386873484
36.0,0.0012178602628409863
40.0,0.0011286282679066062
44.0,0.0009005623869597912
48.0,0.00047151054604910314
52.0,0.00016001232143025845
56.0,0.00022542098304256797
60.0,0.0003684450057335198
64.0,0.00028138599009253085
72.0,0.00010555066546658054
80.0,-0.0001399229804519564
88.0,-0.00013142768875695765
96.0,0.00034339362173341215
104.0,0.00018479615391697735
112.0,-0.00025260294205509126
120.0,-0.00034881546162068844
128.0,-0.00011710224498528987
144.0,0.00018176340381614864
160.0,9.161243360722438e-05
176.0,-0.00019534010789357126
192.0,-0.00039585056947544217
208.0,-0.000414475507568568
224.0,-0.0002554964448790997
240.0,-0.00023713483824394643
256.0,9.989865066017956e-05
288.0,-0.000291105272481218
320.0,-0.00041921366937458515
352.0,-0.00030602223705500364
384.0,5.514051372301765e-05
416.0,-9.328275336883962e-05
448.0,0.00041635605157352984
480.0,0.000187073543202132
512.0,0.0003537116281222552
576.0,0.0005130122881382704
640.0,7.449702388839796e-05
704.0,3.241529702791013e-05
768.0,0.00010322978050680831
832.0,7.37526424927637e-05
896.0,-6.728124571964145e-05
960.0,-0.000756598892621696
1024.0,-0.0005118867848068476
1152.0,-0.00037486443761736155
1280.0,0.00019618432270362973
1408.0,-0.00019988161511719227
1536.0,-0.00013102417869959027
1664.0,-0.00020056295034009963
1792.0,2.397722528257873e-05
1920.0,5.571418296312913e-05
2048.0,1.5364548744400963e-05
2304.0,-0.00010077672777697444
2560.0,-0.0002859010419342667
2816.0,-0.00011302997154416516
3072.0,3.264496263000183e-05
3328.0,-3.3519903809065e-05
3584.0,0.0005099426489323378
3840.0,-1.8245487808599137e-05
4096.0,0.0003151338314637542
4608.0,-0.00015701861411798745
5120.0,-0.00022442714544013143
5632.0,-8.350682037416846e-05
6144.0,-5.081035851617344e-05
6656.0,8.38810155983083e-05
7168.0,0.0001672574144322425
7680.0,0.00017215275147464126
8192.0,-0.00010463816579431295
9216.0,-0.00010109887080034241
10240.0,8.369674469577149e-05
11264.0,0.00024941368610598147
12288.0,-0.0003882648888975382
13312.0,0.00011490832548588514
14336.0,0.00016624566342215985
end
