version,3.0
numOfCh,1
type,point
parent_name,100-cuts
ch_type,1_1
kcount,1
numberNandB,1
brightnessNandB,1
carpet pos,0
pc,0
Time (ms),CH1 Auto-Correlation
1.0,0.015393229201436043
2.0,0.012368964962661266
3.0,0.010381977073848248
4.0,0.008943980559706688
5.0,0.007866629399359226
6.0,0.006957118399441242
7.0,0.006199289578944445
8.0,0.005656388588249683
9.0,0.005054527893662453
10.0,0.004447048529982567
11.0,0.0038963702972978354
12.0,0.0034028312657028437
13.0,0.003106900956481695
14.0,0.002872982295230031
15.0,0.0026646882761269808
16.0,0.002574874786660075
18.0,0.0021958646830171347
20.0,0.001797622418962419
22.0,0.001464577973820269
24.0,0.0013437516754493117
26.0,0.0011333136353641748
28.0,0.0008396052289754152
30.0,0.0006188623374328017
32.0,0.0005623380420729518
36.0,0.0006505683995783329
40.0,0.00042684259824454784
44.0,0.00043523492058739066
48.0,0.0005527716712094843
52.0,0.0004027517861686647
56.0,0.0003421318542677909
60.0,0.0002244630886707455
64.0,0.0001498525816714391
72.0,0.00015158364840317518
80.0,2.926652814494446e-05
88.0,3.235005715396255e-05
96.0,4.475044261198491e-05
104.0,0.00020726359798572958
112.0,0.00026892207097262144
120.0,0.00013775986735709012
128.0,0.00017470352759119123
144.0,-0.0006428771303035319
160.0,-0.000389690074371174
176.0,-0.00029806606471538544
192.0,-0.0008161356672644615
208.0,-0.000784238101914525
224.0,-0.0005689427489414811
240.0,-0.00031507801031693816
256.0,0.00014647134230472147
288.0,0.0002638142032083124
320.0,-2.696480805752799e-05
352.0,-0.00047535300836898386
384.0,0.00019713988876901567
416.0,-0.00013806908100377768
448.0,9.860536374617368e-05
480.0,5.45393158972729e-05
512.0,0.0006867900374345481
576.0,-0.00020015535119455308
640.0,-0.00022118132619652897
704.0,-0.0005314585287123919
768.0,-0.00028723079594783485
832.0,-0.00019361019076313823
896.0,7.915605237940326e-05
960.0,0.00010546886187512428
1024.0,4.225703378324397e-05
1152.0,-0.00024650307022966444
1280.0,8.804614481050521e-05
1408.0,0.00021412245405372232
1536.0,7.832274422980845e-05
1664.0,0.00010219278919976205
1792.0,-0.00014886638382449746
1920.0,-0.00014583389565814286
2048.0,4.509272184805013e-05
2304.0,-4.6249715524027124e-05
2560.0,-0.00011116801033494994
2816.0,8.836356573738158e-05
3072.0,0.00010203364945482463
3328.0,-5.227716428635176e-06
3584.0,-4.0578061089036055e-06
3840.0,-0.0002578828716650605
4096.0,5.0885078962892294e-05
4608.0,1.0296934306097683e-05
5120.0,0.00010631862096488476
5632.0,-7.032214489299804e-05
6144.0,5.652502295561135e-05
6656.0,-6.413882510969415e-05
7168.0,-0.00014696124708279967
7680.0,0.00012911845988128334
8192.0,3.4369808417977765e-05
9216.0,4.5173263060860336e-05
10240.0,-4.477125912671909e-05
11264.0,-0.00012142705236328766
12288.0,-4.157863440923393e-05
13312.0,0.00025393255054950714
14336.0,9.51332003751304e-06
end
