version,3.0
numOfCh,1
type,point
parent_name,100-cuts
ch_type,1_1
kcount,1
numberNandB,1
brightnessNandB,1
carpet pos,0
pc,0
Time (ms),CH1 Auto-Correlation
1.0,0.015761109068989754
2.0,0.012838653288781643
3.0,0.010738015174865723
4.0,0.009279425255954266
5.0,0.00824306346476078
6.0,0.007526770234107971
7.0,0.006881730165332556
8.0,0.006393321789801121
9.0,0.005836347118020058
10.0,0.005313798785209656
11.0,0.004888380412012339
12.0,0.004503545351326466
13.0,0.004258118569850922
14.0,0.0039034129586070776
15.0,0.00360520975664258
16.0,0.0033052454236894846
18.0,0.002774785505607724
20.0,0.0024032536894083023
22.0,0.002184521872550249
24.0,0.0020729827228933573
26.0,0.0017963412683457136
28.0,0.0015729942824691534
30.0,0.0013775668339803815
32.0,0.0011979857226833701
36.0,0.0011517577804625034
40.0,0.001368567580357194
44.0,0.0015336303040385246
48.0,0.0016047809040173888
52.0,0.0015100855380296707
56.0,0.001231801463291049
60.0,0.0007707300246693194
64.0,0.0005681530456058681
72.0,0.00042819406371563673
80.0,0.0007212295313365757
88.0,0.0007560360827483237
96.0,0.000724314188119024
104.0,0.0004505932447500527
112.0,0.00033394561614841223
120.0,0.00018714544421527535
128.0,0.0001998320803977549
144.0,0.00017395237227901816
160.0,0.0006258581415750086
176.0,0.0004323037574067712
192.0,0.0005350643768906593
208.0,0.0002899128885474056
224.0,3.6941338521501166e-07
240.0,0.00032463070238009095
256.0,0.0003225762920919806
288.0,-3.286315404693596e-05
320.0,0.00016948873235378414
352.0,0.00019043826614506543
384.0,-9.558559668221278e-07
416.0,-0.0005816872580908239
448.0,-0.00036255933810025454
480.0,-5.776553007308394e-05
512.0,-0.0004955990589223802
576.0,-6.19832644588314e-05
640.0,-5.4814881877973676e-05
704.0,2.43125014094403e-05
768.0,0.00016190433234442025
832.0,-0.0002471744373906404
896.0,-0.000225771582336165
960.0,-0.0005178969004191458
1024.0,-0.0002725087688304484
1152.0,-0.0002233340055681765
1280.0,-0.00017932870832737535
1408.0,6.335225771181285e-05
1536.0,0.00014750423724763095
1664.0,0.00011993768566753715
1792.0,0.00038493110332638025
1920.0,0.00023594828962814063
2048.0,-8.850200538290665e-05
2304.0,-0.00019981797959189862
2560.0,-0.0004499277856666595
2816.0,1.0024425137089565e-05
3072.0,0.00011259310849709436
3328.0,-0.00018176561570726335
3584.0,-0.00024214296718128026
3840.0,3.261097299400717e-05
4096.0,-0.0001687228213995695
4608.0,-0.00020427300478331745
5120.0,0.0003556378069333732
5632.0,-0.00013174705964047462
6144.0,0.00014050157915335149
6656.0,0.00016903803043533117
7168.0,-7.540066144429147e-05
7680.0,-3.5033961466979235e-05
8192.0,0.00023590191267430782
9216.0,-0.00023688636429142207
10240.0,1.6184036212507635e-05
11264.0,-4.475994865060784e-05
12288.0,-0.00010767660569399595
13312.0,0.0002473961503710598
14336.0,-7.116236520232633e-05
end
