version,3.0
numOfCh,1
type,point
parent_name,100-cuts
ch_type,1_1
kcount,1
numberNandB,1
brightnessNandB,1
carpet pos,0
pc,0
Time (ms),CH1 Auto-Correlation
1.0,0.024333730340003967
2.0,0.019292326644062996
3.0,0.015919113531708717
4.0,0.013322803191840649
5.0,0.01125169824808836
6.0,0.009498241357505322
7.0,0.00819531548768282
8.0,0.007138784509152174
9.0,0.006301097106188536
10.0,0.005525365471839905
11.0,0.004801697097718716
12.0,0.00438313651829958
13.0,0.004033357370644808
14.0,0.0036073224619030952
15.0,0.003385251620784402
16.0,0.003222291823476553
18.0,0.0029149875044822693
20.0,0.002404029481112957
22.0,0.0019936691969633102
24.0,0.0016012724954634905
26.0,0.0012800964759662747
28.0,0.0011697412701323628
30.0,0.001095181331038475
32.0,0.0010977291967719793
36.0,0.0009447542834095657
40.0,0.0005927775055170059
44.0,0.0003208729613106698
48.0,0.00010213672794634476
52.0,7.806616486050189e-05
56.0,0.00044049808639101684
60.0,0.0005152902449481189
64.0,0.0006300625973381102
72.0,0.00034799621789716184
80.0,-4.198748501949012e-05
88.0,0.0008130801725201309
96.0,0.001456454978324473
104.0,0.0017230755183845758
112.0,0.0017487509176135063
120.0,0.0014576325193047523
128.0,0.0008827815763652325
144.0,0.00042592317913658917
160.0,-0.00010515424219192937
176.0,0.0002981822763103992
192.0,0.0006572150741703808
208.0,0.00037226107087917626
224.0,0.00042800381197594106
240.0,0.0007006689556874335
256.0,0.0007405831129290164
288.0,0.0008695311844348907
320.0,1.8599746908876114e-05
352.0,-0.00022704052389599383
384.0,-1.4768383152841125e-05
416.0,0.00016734465316403657
448.0,-0.00027221013442613184
480.0,0.00018998494488187134
512.0,0.00034285467700101435
576.0,9.281908569391817e-05
640.0,0.00045875131036154926
704.0,-0.0007084690150804818
768.0,0.00028760440181940794
832.0,0.00023534138745162636
896.0,0.0002603346074465662
960.0,0.00014674430713057518
1024.0,-0.0008820148068480194
1152.0,0.00023836627951823175
1280.0,-0.0004715493996627629
1408.0,-0.0003103986382484436
1536.0,9.031636727740988e-05
1664.0,3.585529702831991e-05
1792.0,-7.924877718323842e-05
1920.0,-7.829365495126694e-05
2048.0,-0.0003818205732386559
2304.0,-0.00028308856417424977
2560.0,-0.0001782521139830351
2816.0,-0.00044424511725082994
3072.0,-5.655562927131541e-05
3328.0,0.00010064139496535063
3584.0,-0.00010464883962413296
3840.0,-0.00014045373245608062
4096.0,-0.00014992932847235352
4608.0,-0.0001152657059719786
5120.0,-0.00010072316945297644
5632.0,-0.0002310370618943125
6144.0,0.00037530934787355363
6656.0,9.230912837665528e-05
7168.0,-3.193024531356059e-05
7680.0,0.0005425570416264236
8192.0,0.00022047811944503337
9216.0,6.820730777690187e-05
10240.0,-0.0005061517586000264
11264.0,0.00022402724425774068
12288.0,-8.611098019173369e-05
13312.0,-0.00024113418476190418
14336.0,0.00019231157784815878
end
