version,3.0
numOfCh,1
type,point
parent_name,100-cuts
ch_type,1_1
kcount,1
numberNandB,1
brightnessNandB,1
carpet pos,0
pc,0
Time (ms),CH1 Auto-Correlation
1.0,0.015832697972655296
2.0,0.013050027191638947
3.0,0.011132643558084965
4.0,0.009606610052287579
5.0,0.008404277265071869
6.0,0.0073664565570652485
7.0,0.006562742404639721
8.0,0.005941562820225954
9.0,0.005354896653443575
10.0,0.0048414417542517185
11.0,0.004414722789078951
12.0,0.004057887475937605
13.0,0.0037901047617197037
14.0,0.0035789730027318
15.0,0.00333461444824934
16.0,0.0030648894608020782
18.0,0.0026784418150782585
20.0,0.0023624903988093138
22.0,0.0018675995524972677
24.0,0.001474170247092843
26.0,0.0014028663281351328
28.0,0.0013099629431962967
30.0,0.0013906985986977816
32.0,0.0014173995004966855
36.0,0.0013122684322297573
40.0,0.0009203248773701489
44.0,0.000735765032004565
48.0,0.0006489039515145123
52.0,0.0006194451707415283
56.0,0.0007588683511130512
60.0,0.0006336689693853259
64.0,0.000678125536069274
72.0,0.00011746738891815767
80.0,-0.00013172240869607776
88.0,-0.0003407137410249561
96.0,-2.4831324481056072e-05
104.0,0.0005373010644689202
112.0,0.000433573208283633
120.0,-3.7708588934037834e-05
128.0,8.584430906921625e-05
144.0,0.0006392255309037864
160.0,0.0007123288232833147
176.0,0.0007983482209965587
192.0,-3.1485171803069534e-06
208.0,0.00023939026868902147
224.0,0.0002388062421232462
240.0,-7.251549686770886e-05
256.0,1.1610589353949763e-05
288.0,-0.00020857012714259326
320.0,0.00019976827024947852
352.0,-0.0004505359102040529
384.0,-0.00020252475223969668
416.0,9.301903673986089e-07
448.0,5.857172254764009e-06
480.0,5.702536509488709e-05
512.0,-0.0001686709583736956
576.0,0.0002304361405549571
640.0,-8.205248013837263e-05
704.0,-0.00023028002760838717
768.0,0.0002255051804240793
832.0,-0.00014162489969749004
896.0,1.56207552208798e-05
960.0,-0.00023156969109550118
1024.0,-0.00028681967523880303
1152.0,-0.00010378366278018802
1280.0,-4.0385839383816347e-05
1408.0,-6.0443850088631734e-05
1536.0,-8.218560833483934e-05
1664.0,-7.61222981964238e-05
1792.0,0.00016843552293721586
1920.0,-0.00017595058307051659
2048.0,-0.0001562656252644956
2304.0,-0.00012921250890940428
2560.0,5.705719559045974e-06
2816.0,0.0002844731789082289
3072.0,0.00019669214088935405
3328.0,0.0002779870992526412
3584.0,-0.0001343999756500125
3840.0,-2.7462656362331472e-05
4096.0,0.00016259322001133114
4608.0,-0.00030284369131550193
5120.0,0.00021395298244897276
5632.0,0.00017927018052432686
6144.0,-0.00014712070696987212
6656.0,0.00017374285380356014
7168.0,-0.0001659211702644825
7680.0,-0.0004687299078796059
8192.0,0.00021206251403782517
9216.0,-0.00015041879669297487
10240.0,-9.09211375983432e-05
11264.0,-9.609403787180781e-05
12288.0,-0.00036045126034878194
13312.0,0.0001256623218068853
14336.0,-4.16916846006643e-05
end
