version,3.0
numOfCh,1
type,point
parent_name,100-cuts
ch_type,1_1
kcount,1
numberNandB,1
brightnessNandB,1
carpet pos,0
pc,0
Time (ms),CH1 Auto-Correlation
1.0,0.01869017258286476
2.0,0.015698129311203957
3.0,0.013498147949576378
4.0,0.011772418394684792
5.0,0.010568316094577312
6.0,0.009629903361201286
7.0,0.00885567907243967
8.0,0.008171184919774532
9.0,0.007634642068296671
10.0,0.0071704513393342495
11.0,0.006799980532377958
12.0,0.00643107108771801
13.0,0.006085659377276897
14.0,0.0057488102465868
15.0,0.005337219685316086
16.0,0.0050932192243635654
18.0,0.00465373182669282
20.0,0.004443425685167313
22.0,0.004237881861627102
24.0,0.003925492521375418
26.0,0.0035561323165893555
28.0,0.003096248721703887
30.0,0.002711658598855138
32.0,0.002456158632412553
36.0,0.0021392321214079857
40.0,0.0018207327229902148
44.0,0.0015580045292153955
48.0,0.0013774031540378928
52.0,0.0012967400252819061
56.0,0.0012734720949083567
60.0,0.0012701419182121754
64.0,0.00154047179967165
72.0,0.0018594131106510758
80.0,0.0018096131971105933
88.0,0.001754560973495245
96.0,0.0013972109882161021
104.0,0.0009870792273432016
112.0,0.0011456534266471863
120.0,0.0006193325389176607
128.0,0.0003158561885356903
144.0,0.00015254963363986462
160.0,0.00040384585736319423
176.0,0.0006282535614445806
192.0,0.00033065080060623586
208.0,0.00034941258491016924
224.0,-7.060851203277707e-05
240.0,-0.0001241035497514531
256.0,-0.0003199018829036504
288.0,3.4023734770016745e-05
320.0,-0.00031102405046112835
352.0,1.169479492091341e-05
384.0,-0.0010202378034591675
416.0,-0.0011253284756094217
448.0,-0.0008448060252703726
480.0,-0.0011337153846397996
512.0,-0.00048141146544367075
576.0,-0.0002884258865378797
640.0,-0.0003025502373930067
704.0,-0.0004439953772816807
768.0,-0.0009065780905075371
832.0,-0.00044401324703358114
896.0,0.00012344079732429236
960.0,-0.00023010819859337062
1024.0,-0.0007731744553893805
1152.0,0.0002587069175206125
1280.0,-1.4014325643074699e-05
1408.0,0.0006768346065655351
1536.0,0.0008970416965894401
1664.0,0.00045273121213540435
1792.0,0.0003030389780178666
1920.0,-0.00044094808981753886
2048.0,-0.00048171222442761064
2304.0,-0.00048369308933615685
2560.0,-0.00011496961815282702
2816.0,0.00012156000593677163
3072.0,0.0007208869210444391
3328.0,0.00010276716784574091
3584.0,-0.0004538664943538606
3840.0,-0.0008253853302448988
4096.0,0.0002830330340657383
4608.0,-0.000193309155292809
5120.0,-0.000455136236269027
5632.0,0.00028640267555601895
6144.0,-0.00011324459046591073
6656.0,6.846077303634956e-05
7168.0,0.00041974816122092307
7680.0,-0.00012695025361608714
8192.0,3.5111945635435404e-06
9216.0,0.00013853046402800828
10240.0,-4.9724105338100344e-05
11264.0,-3.0725972465006635e-05
12288.0,-6.653293530689552e-05
13312.0,5.2327828598208725e-05
14336.0,-7.310664659598842e-05
end
