version,3.0
numOfCh,1
type,point
parent_name,100-cuts
ch_type,1_1
kcount,1
numberNandB,1
brightnessNandB,1
carpet pos,0
pc,0
Time (ms),CH1 Auto-Correlation
1.0,0.016753487288951874
2.0,0.01375422440469265
3.0,0.011564414016902447
4.0,0.009900149889290333
5.0,0.008596730418503284
6.0,0.00753063103184104
7.0,0.00667939567938447
8.0,0.005904870573431253
9.0,0.005317924078553915
10.0,0.004885698668658733
11.0,0.00451930146664381
12.0,0.004169586580246687
13.0,0.003945085685700178
14.0,0.0037210239097476006
15.0,0.003454420482739806
16.0,0.003275881288573146
18.0,0.0030667358078062534
20.0,0.0028074749279767275
22.0,0.00258162384852767
24.0,0.0026162820868194103
26.0,0.002671394031494856
28.0,0.002550202887505293
30.0,0.0022107658442109823
32.0,0.0019335122779011726
36.0,0.0015340058598667383
40.0,0.0011747987009584904
44.0,0.0011382397497072816
48.0,0.0012064435286447406
52.0,0.0008884125272743404
56.0,0.0006912216194905341
60.0,0.0006178502226248384
64.0,0.0005490942276082933
72.0,0.00011339929915266111
80.0,0.00026867282576859
88.0,0.0008810838335193694
96.0,0.0009489850490354002
104.0,0.0006521912291646004
112.0,0.00047053705202415586
120.0,0.00031825181213207543
128.0,0.00034315811353735626
144.0,0.00025039512547664344
160.0,-0.00019886720110662282
176.0,2.1261601432343014e-05
192.0,2.2860283934278414e-05
208.0,-1.8756213648885023e-06
224.0,-6.29260393907316e-05
240.0,-0.00027792813489213586
256.0,-0.000303806911688298
288.0,0.00028073409339413047
320.0,0.0010396689176559448
352.0,0.0006726724677719176
384.0,0.0006702605169266462
416.0,0.000547237868886441
448.0,0.00040222168900072575
480.0,2.822139322233852e-05
512.0,0.00017628073692321777
576.0,0.0001339493173873052
640.0,0.000396233779611066
704.0,0.00031858906731940806
768.0,1.2652661098400131e-05
832.0,0.00013882805069442838
896.0,0.0003368405159562826
960.0,0.0004889004630967975
1024.0,5.661166142090224e-05
1152.0,7.993064173206221e-06
1280.0,0.0001380018948111683
1408.0,0.00022168157738633454
1536.0,0.00020461207896005362
1664.0,0.00015344088023994118
1792.0,0.00034210350713692605
1920.0,0.00044825588702224195
2048.0,0.00023377609613817185
2304.0,0.0004430568660609424
2560.0,3.408393240533769e-05
2816.0,0.0002552951336838305
3072.0,0.00020120352564845234
3328.0,0.00023976797820068896
3584.0,0.0002612232347019017
3840.0,0.0002584352914709598
4096.0,7.215018558781594e-05
4608.0,-8.820650691632181e-05
5120.0,-0.0001062184528564103
5632.0,-6.927135109435767e-05
6144.0,-8.22186702862382e-05
6656.0,-8.847681601764634e-05
7168.0,-0.0001580811949679628
7680.0,-0.00011338941112626344
8192.0,-0.00030402105767279863
9216.0,-0.00041575523209758103
10240.0,-0.0004855960141867399
11264.0,-0.00034695351496338844
12288.0,-0.0006283274269662797
13312.0,-0.0002745763922575861
14336.0,-8.674240234540775e-05
end
