version,3.0
numOfCh,1
type,point
parent_name,100-cuts
ch_type,1_1
kcount,1
numberNandB,1
brightnessNandB,1
carpet pos,0
pc,0
Time (ms),CH1 Auto-Correlation
1.0,0.01685255393385887
2.0,0.013718659989535809
3.0,0.011534330435097218
4.0,0.009880893863737583
5.0,0.008681713603436947
6.0,0.007726174779236317
7.0,0.006970972288399935
8.0,0.006218236871063709
9.0,0.005655128043144941
10.0,0.0052466606721282005
11.0,0.0049538565799593925
12.0,0.004670016001909971
13.0,0.004386215470731258
14.0,0.004024631343781948
15.0,0.0037140147760510445
16.0,0.003468939336016774
18.0,0.0031106804963201284
20.0,0.0025516704190522432
22.0,0.002074897289276123
24.0,0.0018682212103158236
26.0,0.001658857916481793
28.0,0.0016173471231013536
30.0,0.0016499233897775412
32.0,0.001517730881460011
36.0,0.0013896074378862977
40.0,0.0013249159092083573
44.0,0.0013289356138557196
48.0,0.0011547351023182273
52.0,0.0008729812689125538
56.0,0.0006949458038434386
60.0,0.0005118108238093555
64.0,0.0005393908941186965
72.0,0.0003898963041137904
80.0,0.00039045026642270386
88.0,0.0002078919787891209
96.0,0.00022953930601943284
104.0,0.000154197245137766
112.0,0.0002823633258230984
120.0,0.00011700292088789865
128.0,-0.0005491480114869773
144.0,-0.0006047053611837327
160.0,-0.00044084148248657584
176.0,-0.00038098113145679235
192.0,-0.00021204059885349125
208.0,-8.522612188244238e-05
224.0,0.0002247851516585797
240.0,0.00015760090900585055
256.0,0.0005481739062815905
288.0,0.00021088836365379393
320.0,-0.00013232311175670475
352.0,-7.137246029742528e-06
384.0,2.67192444880493e-05
416.0,-0.0004161954275332391
448.0,-0.00025709651526995003
480.0,0.00012496934505179524
512.0,5.5590564443264157e-05
576.0,-0.00013059868069831282
640.0,4.243267540005036e-05
704.0,-1.8344839190831408e-05
768.0,-0.00010362222383264452
832.0,5.565858009504154e-05
896.0,-0.0001976323255803436
960.0,1.04132896012743e-05
1024.0,0.0003498637233860791
1152.0,0.00027489944477565587
1280.0,-0.00013638519158121198
1408.0,0.00012778228847309947
1536.0,0.0002530573110561818
1664.0,-4.011071359855123e-05
1792.0,-4.506456389208324e-05
1920.0,-2.5066916350624524e-05
2048.0,-0.0003996036248281598
2304.0,2.152762135665398e-05
2560.0,0.0002650985843501985
2816.0,-1.5142666597967036e-05
3072.0,-4.297617488191463e-05
3328.0,-0.00017452903557568789
3584.0,0.00012935808626934886
3840.0,-5.6490727729396895e-05
4096.0,0.00021450681379064918
4608.0,-4.697283770838112e-07
5120.0,5.801286533824168e-05
5632.0,-0.00011521829583216459
6144.0,-3.668372301035561e-05
6656.0,4.338351936894469e-05
7168.0,-0.00025255983928218484
7680.0,6.264264811761677e-05
8192.0,-0.00017165728786494583
9216.0,-6.278140062931925e-05
10240.0,-2.0300436517572962e-05
11264.0,-5.1772505685221404e-05
12288.0,-0.00026919067022390664
13312.0,-0.00014849260332994163
14336.0,-7.759061554679647e-05
end
