version,3.0
numOfCh,1
type,point
parent_name,100-cuts
ch_type,1_1
kcount,1
numberNandB,1
brightnessNandB,1
carpet pos,0
pc,0
Time (ms),CH1 Auto-Correlation
1.0,0.015377640724182129
2.0,0.01248693186789751
3.0,0.010438493452966213
4.0,0.008899231441318989
5.0,0.0077512748539447784
6.0,0.006836252752691507
7.0,0.006096352357417345
8.0,0.005682048387825489
9.0,0.00519530987367034
10.0,0.0048449342139065266
11.0,0.004515349864959717
12.0,0.0041730511002242565
13.0,0.003839224809780717
14.0,0.003492031479254365
15.0,0.0032744091004133224
16.0,0.003151897806674242
18.0,0.0026532455813139677
20.0,0.0023580482229590416
22.0,0.0021596031729131937
24.0,0.0020399256609380245
26.0,0.0018669727724045515
28.0,0.0018161764601245522
30.0,0.0017528538592159748
32.0,0.0016822086181491613
36.0,0.0016311422223225236
40.0,0.0011718458263203502
44.0,0.0009904574835672975
48.0,0.0006960401078686118
52.0,0.0008330171112902462
56.0,0.0010149285662919283
60.0,0.001155796111561358
64.0,0.0010196863440796733
72.0,0.0009740137029439211
80.0,0.000796839187387377
88.0,0.0005008765729144216
96.0,0.0004992216709069908
104.0,8.596812403993681e-05
112.0,-2.100011261063628e-05
120.0,7.215902587631717e-05
128.0,-6.651458534179255e-05
144.0,-0.0001882232609204948
160.0,-0.0001841081539168954
176.0,-1.5711109881522134e-05
192.0,9.012781811179593e-05
208.0,0.00024764853878878057
224.0,0.000547850679140538
240.0,0.0005442058900371194
256.0,-3.3627849916229025e-05
288.0,5.135147148394026e-05
320.0,0.00017812124860938638
352.0,-0.0003931837563868612
384.0,-0.00024902535369619727
416.0,8.973863259598147e-06
448.0,-0.00021376633958425373
480.0,0.0002055197983281687
512.0,0.0002685375220607966
576.0,-0.0005478563834913075
640.0,-0.000540382694453001
704.0,0.0003035686968360096
768.0,0.00043935899157077074
832.0,-7.085029210429639e-05
896.0,-0.00030626903753727674
960.0,-3.667609780677594e-05
1024.0,0.0001577446237206459
1152.0,-6.6262082327739336e-06
1280.0,-5.9256821259623393e-05
1408.0,-0.00023303988564293832
1536.0,0.0001441807980882004
1664.0,-0.00040812778752297163
1792.0,0.00013775283878203481
1920.0,9.633507943362929e-06
2048.0,-0.0002408457949059084
2304.0,0.00013555683835875243
2560.0,-0.0003385102900210768
2816.0,-8.948720642365515e-05
3072.0,-5.6091175792971626e-05
3328.0,0.00010272544022882357
3584.0,8.1869940913748e-05
3840.0,1.4494022252620198e-05
4096.0,0.00015837271348573267
4608.0,0.00016642097034491599
5120.0,-0.0002609739312902093
5632.0,-0.0002147961495211348
6144.0,-0.0001684492890490219
6656.0,6.625926471315324e-05
7168.0,0.0001544080296298489
7680.0,0.00030743746901862323
8192.0,0.00011799196363426745
9216.0,-7.035523594822735e-06
10240.0,-0.00020041297830175608
11264.0,0.00025786375044845045
12288.0,-9.737138316268101e-05
13312.0,-0.0004758269351441413
14336.0,0.0002401167876087129
end
