version,3.0
numOfCh,1
type,point
parent_name,100-cuts
ch_type,1_1
kcount,1
numberNandB,1
brightnessNandB,1
carpet pos,0
pc,0
Time (ms),CH1 Auto-Correlation
1.0,0.015723926946520805
2.0,0.012846995145082474
3.0,0.010790393687784672
4.0,0.00935487449169159
5.0,0.008145461790263653
6.0,0.007242423947900534
7.0,0.0064194537699222565
8.0,0.005891958251595497
9.0,0.0054632192477583885
10.0,0.00499882223084569
11.0,0.0045502204447984695
12.0,0.0041708070784807205
13.0,0.003924048040062189
14.0,0.0036193588748574257
15.0,0.0033385821152478456
16.0,0.003180617466568947
18.0,0.0028984439559280872
20.0,0.002545979106798768
22.0,0.0022756969556212425
24.0,0.0019479485927149653
26.0,0.0016364703187718987
28.0,0.0017035652417689562
30.0,0.0016744694439694285
32.0,0.0016438276506960392
36.0,0.0013643733691424131
40.0,0.0012600665213540196
44.0,0.0012133149430155754
48.0,0.0011347178369760513
52.0,0.0009441400761716068
56.0,0.0006794534856453538
60.0,0.00036246218951418996
64.0,0.0002897847443819046
72.0,0.0004157891671638936
80.0,0.0004897745093330741
88.0,0.0006986152147874236
96.0,0.0004238117835484445
104.0,8.594479731982574e-05
112.0,9.0868714323733e-05
120.0,-4.91122409584932e-05
128.0,0.0004002546484116465
144.0,0.00015396700473502278
160.0,-8.25638126116246e-05
176.0,0.00014525522419717163
192.0,-0.0003029262588825077
208.0,-0.0009334513451904058
224.0,-0.0007017424795776606
240.0,-0.0006955969147384167
256.0,-0.0005671954713761806
288.0,-7.303588063223287e-05
320.0,-0.0003159279585815966
352.0,-0.0003635650791693479
384.0,-0.000166694400832057
416.0,2.329635935893748e-05
448.0,-0.00014082028064876795
480.0,-0.0004279913264326751
512.0,2.7805352146970108e-05
576.0,0.00019547133706510067
640.0,0.0003337146481499076
704.0,0.00010860012844204903
768.0,-0.0003156798193231225
832.0,-0.00011243110930081457
896.0,-7.26336584193632e-05
960.0,9.447771299164742e-05
1024.0,-0.0006448487984016538
1152.0,0.00013989766011945903
1280.0,0.0005807668785564601
1408.0,9.830638009589165e-05
1536.0,-0.0003780706610996276
1664.0,-0.00036833700141869485
1792.0,-7.543767424067482e-05
1920.0,-0.00011966434249188751
2048.0,-0.00037085276562720537
2304.0,0.00012457567208912224
2560.0,0.0003246789565309882
2816.0,-0.00033218509634025395
3072.0,-0.00010362922330386937
3328.0,5.59734835405834e-05
3584.0,0.00025070508127100766
3840.0,-8.31737088446971e-06
4096.0,-0.00034929459798149765
4608.0,0.00011643531615845859
5120.0,-0.000135259804665111
5632.0,-0.00027112351381219923
6144.0,4.088855712325312e-05
6656.0,3.5928329452872276e-05
7168.0,0.0003518571029417217
7680.0,-0.00020824561943300068
8192.0,-5.547680120798759e-05
9216.0,5.63952125958167e-05
10240.0,6.470778316725045e-05
11264.0,-7.140578873077175e-06
12288.0,-0.00021648200345225632
13312.0,0.0002443545963615179
14336.0,0.00010325058246962726
end
