version,3.0
numOfCh,1
type,point
parent_name,100-cuts
ch_type,1_1
kcount,1
numberNandB,1
brightnessNandB,1
carpet pos,0
pc,0
Time (ms),CH1 Auto-Correlation
1.0,0.027391929179430008
2.0,0.022402163594961166
3.0,0.019012246280908585
4.0,0.016499707475304604
5.0,0.014632136560976505
6.0,0.013056864961981773
7.0,0.01194421574473381
8.0,0.011052594520151615
9.0,0.010085317306220531
10.0,0.009264891035854816
11.0,0.008245193399488926
12.0,0.007603344973176718
13.0,0.00730047607794404
14.0,0.006786943878978491
15.0,0.006479304749518633
16.0,0.006223977077752352
18.0,0.005538662895560265
20.0,0.0049429601058363914
22.0,0.004513070918619633
24.0,0.003914114087820053
26.0,0.0036050898488610983
28.0,0.003493495751172304
30.0,0.0030440879054367542
32.0,0.0028853549156337976
36.0,0.0028602411039173603
40.0,0.0024426979944109917
44.0,0.00222402554936707
48.0,0.0019088973058387637
52.0,0.0015345007413998246
56.0,0.001252524321898818
60.0,0.0014635202242061496
64.0,0.0014773043803870678
72.0,0.0005088787875138223
80.0,0.00016861465701367706
88.0,0.0004241165588609874
96.0,0.00026949617313221097
104.0,-9.888281783787534e-05
112.0,-0.00012965509085915983
120.0,-0.00024778262013569474
128.0,0.0001659733388805762
144.0,0.0001193026764667593
160.0,0.0011753127910196781
176.0,0.00023179918935056776
192.0,-0.0007589188753627241
208.0,-0.00045675993897020817
224.0,-4.9445552576798946e-05
240.0,0.00020301187760196626
256.0,0.0002555483079049736
288.0,-0.0006028294446878135
320.0,-0.0001039158960338682
352.0,-0.0003712197649292648
384.0,-0.0002480525290593505
416.0,-7.792383257765323e-05
448.0,0.0005162825691513717
480.0,-0.00031349348137155175
512.0,-0.0009094837005250156
576.0,0.00040255955536849797
640.0,-0.00010484270023880526
704.0,-0.00018797100347001106
768.0,0.0006997043965384364
832.0,-0.00014431134331971407
896.0,-0.0006479209987446666
960.0,0.00011388094571884722
1024.0,-2.9169597837608308e-05
1152.0,-3.289796950411983e-05
1280.0,0.00021078958525322378
1408.0,-0.00012361907283775508
1536.0,-0.0003181006759405136
1664.0,-0.00046932397526688874
1792.0,0.0006298074731603265
1920.0,-0.000539339380338788
2048.0,-0.0006836614338681102
2304.0,5.271607733448036e-05
2560.0,-7.99507979536429e-05
2816.0,-0.0008093088399618864
3072.0,-0.00022138126951176673
3328.0,-2.850340933946427e-05
3584.0,0.00015273145982064307
3840.0,-0.00043374448432587087
4096.0,-3.343440403114073e-05
4608.0,0.0005007187137380242
5120.0,0.00028424637275747955
5632.0,7.33216302251094e-06
6144.0,0.00023284957569558173
6656.0,-0.00031330325873568654
7168.0,-7.646664016647264e-05
7680.0,-0.0006742598488926888
8192.0,8.3904255006928e-05
9216.0,-2.810096339089796e-05
10240.0,0.00023089090245775878
11264.0,3.633305095718242e-05
12288.0,6.2651073676534e-05
13312.0,-7.07978733771597e-06
14336.0,-9.871785005088896e-05
end
