version,3.0
numOfCh,1
type,point
parent_name,100-cuts
ch_type,1_1
kcount,1
numberNandB,1
brightnessNandB,1
carpet pos,0
pc,0
Time (ms),CH1 Auto-Correlation
1.0,0.01572183333337307
2.0,0.012703428976237774
3.0,0.010671338997781277
4.0,0.009143327362835407
5.0,0.007901276461780071
6.0,0.007002596277743578
7.0,0.00632378039881587
8.0,0.005688333883881569
9.0,0.0050745862536132336
10.0,0.004537345841526985
11.0,0.004087093751877546
12.0,0.0037929839454591274
13.0,0.003468452487140894
14.0,0.0032576345838606358
15.0,0.0029887438286095858
16.0,0.002781243296340108
18.0,0.002477265428751707
20.0,0.0021625275257974863
22.0,0.0017295916331931949
24.0,0.00127545022405684
26.0,0.0011413602624088526
28.0,0.0009499938460066915
30.0,0.0007233028300106525
32.0,0.0004916734178550541
36.0,0.0003727043804246932
40.0,0.000153873857925646
44.0,0.00013975793262943625
48.0,0.0001735849364195019
52.0,7.055758032947779e-05
56.0,-4.492446896620095e-05
60.0,-8.21334688225761e-05
64.0,1.4046298929315526e-05
72.0,-0.00015033171803224832
80.0,-0.00013065547682344913
88.0,-0.0002565591421443969
96.0,1.3180199857742991e-05
104.0,0.00015672692097723484
112.0,0.0002224945492343977
120.0,0.000338626530719921
128.0,0.0002685819927137345
144.0,5.129615601617843e-05
160.0,3.752397606149316e-05
176.0,0.00024028266489040107
192.0,-6.777451926609501e-05
208.0,-0.00030404754215851426
224.0,-0.0004317750281188637
240.0,-0.00036681050551123917
256.0,-0.0002554843376856297
288.0,0.00013315370597410947
320.0,0.00022449855168815702
352.0,-0.0001287604245590046
384.0,-6.709338049404323e-05
416.0,0.0004557892680168152
448.0,0.00010316105908714235
480.0,-0.00036516404361464083
512.0,-0.0002637270954437554
576.0,-0.00010447288514114916
640.0,-7.357398135354742e-05
704.0,-5.3357548495114315e-06
768.0,-0.0001224967127200216
832.0,3.817251581494929e-06
896.0,-0.00011301986523903906
960.0,1.6916128515731543e-05
1024.0,8.208831422962248e-05
1152.0,-0.0003980005858466029
1280.0,-0.00013960617070551962
1408.0,-0.00022939062910154462
1536.0,-0.00043668076978065073
1664.0,4.9964353820541874e-05
1792.0,6.73544782330282e-05
1920.0,8.590741344960406e-05
2048.0,0.00013024805230088532
2304.0,1.4289666978584137e-05
2560.0,0.0002277279709232971
2816.0,8.666946814628318e-05
3072.0,2.314474727427296e-07
3328.0,-2.254797436762601e-05
3584.0,6.176398164825514e-05
3840.0,-0.00023932186013553292
4096.0,-9.997109737014398e-05
4608.0,0.0001393538695992902
5120.0,0.00017606161418370903
5632.0,-0.00012352594058029354
6144.0,-0.000164895347552374
6656.0,-0.00016231025801971555
7168.0,0.0002062381390715018
7680.0,6.547947850776836e-05
8192.0,-0.00010294820094713941
9216.0,-0.00011627740605035797
10240.0,2.6577463358989917e-05
11264.0,-6.588787800865248e-05
12288.0,1.0978769751091022e-05
13312.0,4.5355594920692965e-05
14336.0,0.00013909275003243238
end
