version,3.0
numOfCh,1
type,point
parent_name,100-cuts
ch_type,1_1
kcount,1
numberNandB,1
brightnessNandB,1
carpet pos,0
pc,0
Time (ms),CH1 Auto-Correlation
1.0,0.027648014947772026
2.0,0.022718941792845726
3.0,0.019223591312766075
4.0,0.01666996069252491
5.0,0.014564874581992626
6.0,0.01284440141171217
7.0,0.011450087651610374
8.0,0.010365095920860767
9.0,0.009366602636873722
10.0,0.008597041480243206
11.0,0.007876013405621052
12.0,0.007305997423827648
13.0,0.006801268085837364
14.0,0.006332909222692251
15.0,0.0057975370436906815
16.0,0.0052157859317958355
18.0,0.004262163769453764
20.0,0.003665862837806344
22.0,0.0032418014016002417
24.0,0.0030474925879389048
26.0,0.003050392959266901
28.0,0.002957821125164628
30.0,0.0027790397871285677
32.0,0.002437314949929714
36.0,0.001808527042157948
40.0,0.001350141828879714
44.0,0.001193926203995943
48.0,0.0010304326424375176
52.0,0.0007439918117597699
56.0,0.000629454618319869
60.0,0.0008439019438810647
64.0,0.0005988537450321019
72.0,0.0009412329527549446
80.0,0.0004735349502880126
88.0,-2.740548734436743e-05
96.0,0.000398241012590006
104.0,0.0008761698263697326
112.0,0.0007536188932135701
120.0,0.0003593602159526199
128.0,0.0006684608524665236
144.0,0.0008262029732577503
160.0,-0.0004087734851054847
176.0,-0.00019322952721267939
192.0,0.0007369073573499918
208.0,0.0016751865623518825
224.0,0.000989846303127706
240.0,0.0005613461253233254
256.0,0.0005458997911773622
288.0,0.00036867722519673407
320.0,-1.1460661397677541e-07
352.0,0.0006150213303044438
384.0,0.00034657682408578694
416.0,0.0004992840113118291
448.0,0.00011712359264492989
480.0,0.0002474108769092709
512.0,6.495397974504158e-05
576.0,-0.0006936011486686766
640.0,-0.0007330926600843668
704.0,-0.0007349970401264727
768.0,-0.00010979778744513169
832.0,6.462792953243479e-05
896.0,-3.467309943516739e-05
960.0,-0.0008385165128856897
1024.0,-7.033742440398782e-05
1152.0,0.00014729007671121508
1280.0,-0.00015891056682448834
1408.0,-0.0008486584993079305
1536.0,-0.0005357098998501897
1664.0,-0.0004353018885012716
1792.0,-0.00019567091658245772
1920.0,0.0001429879484931007
2048.0,4.557253487291746e-05
2304.0,0.0002577916893642396
2560.0,-0.00038155997754074633
2816.0,-0.0005708387470804155
3072.0,-6.847533222753555e-05
3328.0,-6.607684190385044e-05
3584.0,0.0009150342084467411
3840.0,0.0003109379031229764
4096.0,5.775933823315427e-05
4608.0,-0.00021533404651563615
5120.0,-0.0002889328170567751
5632.0,6.60153673379682e-05
6144.0,-0.0005767777911387384
6656.0,8.317662286572158e-05
7168.0,0.0004880341293755919
7680.0,0.0002393832110101357
8192.0,-0.0005473687779158354
9216.0,0.00014363937953021377
10240.0,0.00010389000817667693
11264.0,0.0001423122885171324
12288.0,-0.00018816972442436963
13312.0,-8.257438457803801e-05
14336.0,4.4455147872213274e-05
end
