version,3.0
numOfCh,1
type,point
parent_name,100-cuts
ch_type,1_1
kcount,1
numberNandB,1
brightnessNandB,1
carpet pos,0
pc,0
Time (ms),CH1 Auto-Correlation
1.0,0.016819534823298454
2.0,0.013769561424851418
3.0,0.01155554223805666
4.0,0.010099692270159721
5.0,0.008939173072576523
6.0,0.008004744537174702
7.0,0.007217973005026579
8.0,0.006525391712784767
9.0,0.005924293305724859
10.0,0.005380372982472181
11.0,0.004994753748178482
12.0,0.004650949500501156
13.0,0.00433369493111968
14.0,0.004124365281313658
15.0,0.0038359113968908787
16.0,0.003660608781501651
18.0,0.0032440037466585636
20.0,0.002813233993947506
22.0,0.0024792728945612907
24.0,0.0022465477231889963
26.0,0.0021905049216002226
28.0,0.0020774879958480597
30.0,0.0018378595123067498
32.0,0.0014028440928086638
36.0,0.0010320538422092795
40.0,0.0009343757410533726
44.0,0.0008097960380837321
48.0,0.0006762673729099333
52.0,0.0006209146231412888
56.0,0.0004706161853391677
60.0,0.0002691781846806407
64.0,7.514461321989074e-05
72.0,0.0001358501467620954
80.0,0.000587723043281585
88.0,0.0004257491964381188
96.0,2.169068920920836e-06
104.0,-0.00015635958698112518
112.0,-6.431130168493837e-05
120.0,1.3605043932329863e-05
128.0,-8.856060594553128e-05
144.0,0.00015361540135927498
160.0,0.00034663110272958875
176.0,0.00030056745163165033
192.0,0.00044720209552906454
208.0,0.00010837594891199842
224.0,-0.0003498473088257015
240.0,-0.0006289019947871566
256.0,-0.00020954658975824714
288.0,-0.00045096385292708874
320.0,-0.0007623698329553008
352.0,-0.0001837462914409116
384.0,-4.015659214928746e-05
416.0,-0.00018939658184535801
448.0,0.0007950497092679143
480.0,0.0007141721434891224
512.0,-0.0002900297986343503
576.0,0.0001360748428851366
640.0,-0.00015048281056806445
704.0,0.0001411301491316408
768.0,-0.00012937141582369804
832.0,-0.00026063050609081984
896.0,-0.0006008708733133972
960.0,-0.00021942052990198135
1024.0,0.00016423514171037823
1152.0,0.0004160570679232478
1280.0,0.00041308021172881126
1408.0,-0.00031606387346982956
1536.0,-0.00028511579148471355
1664.0,-5.1166854973416775e-05
1792.0,0.0003611853753682226
1920.0,0.00023712505935691297
2048.0,-2.156066329916939e-05
2304.0,0.00016799484728835523
2560.0,-0.0002797461929731071
2816.0,4.2726765968836844e-05
3072.0,0.00019115394388791174
3328.0,0.0001280604483326897
3584.0,-9.244878310710192e-05
3840.0,-1.4798324627918191e-05
4096.0,0.0003663112875074148
4608.0,-2.2878448362462223e-05
5120.0,-0.00013747475168202072
5632.0,-0.00015459668065886945
6144.0,-0.00019076987518928945
6656.0,-0.0001323378673987463
7168.0,0.00010421976912766695
7680.0,-0.00011965617159148678
8192.0,-0.00028646161081269383
9216.0,-5.720527042285539e-06
10240.0,1.4299816029961221e-05
11264.0,0.00012174505536677316
12288.0,-0.00014045319403521717
13312.0,0.00010986258712364361
14336.0,0.00019056796736549586
end
