version,3.0
numOfCh,1
type,point
parent_name,100-cuts
ch_type,1_1
kcount,1
numberNandB,1
brightnessNandB,1
carpet pos,0
pc,0
Time (ms),CH1 Auto-Correlation
1.0,0.016230659559369087
2.0,0.01329344417899847
3.0,0.011243900284171104
4.0,0.009693268686532974
5.0,0.008527190424501896
6.0,0.007621297612786293
7.0,0.006849043071269989
8.0,0.006280773319303989
9.0,0.005744129419326782
10.0,0.0053443629294633865
11.0,0.004937195219099522
12.0,0.004647666122764349
13.0,0.004324527457356453
14.0,0.004079679027199745
15.0,0.0036805521231144667
16.0,0.0034547727555036545
18.0,0.0032731443643569946
20.0,0.003045329125598073
22.0,0.0028813634999096394
24.0,0.002701057121157646
26.0,0.0024671112187206745
28.0,0.002298008883371949
30.0,0.002134381327778101
32.0,0.0020739655010402203
36.0,0.0016994730103760958
40.0,0.00141048151999712
44.0,0.0012373634381219745
48.0,0.0011834579054266214
52.0,0.0012041361769661307
56.0,0.0011182376183569431
60.0,0.0007719929562881589
64.0,0.00013074871094431728
72.0,-0.0004088668792974204
80.0,-0.0001237301912624389
88.0,-0.0002804358955472708
96.0,-0.00048457703087478876
104.0,-0.00036795821506530046
112.0,1.4588054000341799e-05
120.0,-0.0002367483830312267
128.0,-0.00021949985239189118
144.0,0.00013146978744771332
160.0,6.56325210002251e-05
176.0,0.0001041118084685877
192.0,0.0003447526250965893
208.0,0.0005306616076268256
224.0,0.0001148108349298127
240.0,0.0004448502731975168
256.0,0.0007086902041919529
288.0,0.0002381467493250966
320.0,7.71045743022114e-05
352.0,-0.0003124643408227712
384.0,0.00023653244716115296
416.0,0.0003708008152898401
448.0,0.0006692347233183682
480.0,0.0002697463787626475
512.0,-0.000212992585147731
576.0,-0.00034363579470664263
640.0,0.0002725590602494776
704.0,-0.000433430599514395
768.0,-0.00016979247448034585
832.0,-0.0002867074217647314
896.0,-0.00044071380398236215
960.0,8.887581316230353e-06
1024.0,-0.0003801828424911946
1152.0,-0.00024812601623125374
1280.0,-0.0002157987473765388
1408.0,-0.00011308679677313194
1536.0,-0.00017537317762617022
1664.0,0.00015899285790510476
1792.0,0.0002516304375603795
1920.0,-8.648088987683877e-05
2048.0,0.0004996316274628043
2304.0,0.00013731038779951632
2560.0,-0.00037908495869487524
2816.0,-0.00020463595865294337
3072.0,-0.00035462784580886364
3328.0,4.998077542950341e-07
3584.0,0.00013573776232078671
3840.0,0.0005022294935770333
4096.0,-0.00027256645262241364
4608.0,-0.00021239262423478067
5120.0,-9.426712495042011e-05
5632.0,0.00042689137626439333
6144.0,0.00013155184569768608
6656.0,-0.0003247559070587158
7168.0,0.00012354389764368534
7680.0,0.00030801602406427264
8192.0,-0.0003048148937523365
9216.0,2.2683689167024568e-05
10240.0,-0.0002826438576448709
11264.0,0.0001297232520300895
12288.0,0.0002521079150028527
13312.0,3.7824288483534474e-06
14336.0,0.00012599161709658802
end
