version,3.0
numOfCh,1
type,point
parent_name,100-cuts
ch_type,1_1
kcount,1
numberNandB,1
brightnessNandB,1
carpet pos,0
pc,0
Time (ms),CH1 Auto-Correlation
1.0,0.02824319154024124
2.0,0.02327847108244896
3.0,0.01982714608311653
4.0,0.017355086281895638
5.0,0.01530068926513195
6.0,0.013658912852406502
7.0,0.012307222932577133
8.0,0.01117568090558052
9.0,0.010174484923481941
10.0,0.00927762035280466
11.0,0.00848113838583231
12.0,0.007967814803123474
13.0,0.007591974921524525
14.0,0.007112068124115467
15.0,0.006569967605173588
16.0,0.006002255715429783
18.0,0.004987034481018782
20.0,0.004301020409911871
22.0,0.004137646406888962
24.0,0.004116586409509182
26.0,0.004148850217461586
28.0,0.0040948656387627125
30.0,0.0038441745564341545
32.0,0.0036415511276572943
36.0,0.0030920510180294514
40.0,0.002244367962703109
44.0,0.001974964514374733
48.0,0.00207774480804801
52.0,0.001546168583445251
56.0,0.0014173323288559914
60.0,0.0015487420605495572
64.0,0.0009947593789547682
72.0,0.00054028385784477
80.0,0.00034706867882050574
88.0,0.0004114225448574871
96.0,0.0005667642690241337
104.0,9.442808368476108e-05
112.0,0.00037848265492357314
120.0,0.0005741164204664528
128.0,1.8653769075172022e-05
144.0,0.0006022750167176127
160.0,0.0008819078211672604
176.0,0.0008419930818490684
192.0,0.00029286296921782196
208.0,-0.0007352715474553406
224.0,-0.0009335180511698127
240.0,-0.00016815761046018451
256.0,-0.0004926762194372714
288.0,-0.0007556243217550218
320.0,-0.00032013122108764946
352.0,-0.00011459561937954277
384.0,0.0004960238584317267
416.0,0.00035749495145864785
448.0,0.0008505024597980082
480.0,-0.00018193105643149465
512.0,-0.0013236072845757008
576.0,-0.0009803982684388757
640.0,-0.0004725787730421871
704.0,-0.0014933784259483218
768.0,-0.0004376101423986256
832.0,0.00027773401234298944
896.0,-0.0001263587037101388
960.0,-0.0007060664356686175
1024.0,-0.00028475470026023686
1152.0,0.0008733837748877704
1280.0,0.0007810518145561218
1408.0,0.0006141632911749184
1536.0,-0.00011516585072968155
1664.0,-0.00022444556816481054
1792.0,-0.0006652225274592638
1920.0,-0.0006889895303174853
2048.0,-0.00012031669757561758
2304.0,0.00010501089855097234
2560.0,0.0009796108352020383
2816.0,0.0002612341195344925
3072.0,-0.0009072801331058145
3328.0,-0.0008719278848730028
3584.0,0.00017382735677529126
3840.0,0.0005909766769036651
4096.0,1.9051067283726297e-05
4608.0,4.09001404477749e-05
5120.0,-2.93469347525388e-05
5632.0,-8.048169547691941e-06
6144.0,-0.0003168251132592559
6656.0,4.91826722281985e-05
7168.0,-7.228555477922782e-05
7680.0,-5.9116719057783484e-05
8192.0,0.0001380660105496645
9216.0,7.473494770238176e-05
10240.0,-0.00028069966356270015
11264.0,-0.00030329765286296606
12288.0,-1.881904790934641e-05
13312.0,0.0004830546386074275
14336.0,0.00034087986568920314
end
