version,3.0
numOfCh,1
type,point
parent_name,100-cuts
ch_type,1_1
kcount,1
numberNandB,1
brightnessNandB,1
carpet pos,0
pc,0
Time (ms),CH1 Auto-Correlation
1.0,0.027465708553791046
2.0,0.022243529558181763
3.0,0.018404655158519745
4.0,0.015632817521691322
5.0,0.013523893430829048
6.0,0.011884249746799469
7.0,0.010512030683457851
8.0,0.009502044878900051
9.0,0.008613252080976963
10.0,0.007782896049320698
11.0,0.006890369579195976
12.0,0.006189742591232061
13.0,0.0054168701171875
14.0,0.00500903744250536
15.0,0.004540974739938974
16.0,0.004268214572221041
18.0,0.003708345117047429
20.0,0.0032885754480957985
22.0,0.0029722347389906645
24.0,0.0024979086592793465
26.0,0.002480603288859129
28.0,0.0026702890172600746
30.0,0.0027255353052169085
32.0,0.002687872154638171
36.0,0.002750192303210497
40.0,0.002609626390039921
44.0,0.0024057654663920403
48.0,0.00229811598546803
52.0,0.002097713528200984
56.0,0.0022183905821293592
60.0,0.0018001013668254018
64.0,0.001493676914833486
72.0,0.001169348368421197
80.0,0.0006394358351826668
88.0,0.0006635960307903588
96.0,0.001034963526763022
104.0,0.0013909763656556606
112.0,0.0012183396611362696
120.0,0.0010922843357548118
128.0,0.0007176019717007875
144.0,0.00045649652020074427
160.0,0.0001941012014867738
176.0,0.0002837334468495101
192.0,0.0003781347186304629
208.0,0.0007015416049398482
224.0,0.00027660559862852097
240.0,0.0006967143854126334
256.0,0.0003495283308438957
288.0,0.00011401091614970937
320.0,0.0010680740233510733
352.0,0.0005935347871854901
384.0,3.147390088997781e-05
416.0,0.0009483048925176263
448.0,0.00044580723624676466
480.0,-0.0006508210208266973
512.0,-0.0002039770915871486
576.0,-0.0004572306643240154
640.0,0.00012296416389290243
704.0,3.1991985451895744e-05
768.0,1.0301623660780024e-05
832.0,0.0004675542295444757
896.0,-0.00023397525364998728
960.0,-0.00039134107646532357
1024.0,-0.00020439390209503472
1152.0,-0.00017034192569553852
1280.0,-0.0007897843606770039
1408.0,-0.0005506726447492838
1536.0,0.00018455206009093672
1664.0,0.00015167961828410625
1792.0,-0.0004636737867258489
1920.0,-0.0007758666761219501
2048.0,5.2559109462890774e-05
2304.0,-0.0003417113039176911
2560.0,0.0004367788787931204
2816.0,0.0010306874755769968
3072.0,0.0005912004271522164
3328.0,-0.00013957422925159335
3584.0,-0.0005157114355824888
3840.0,-0.00031778059201315045
4096.0,-0.0009659602656029165
4608.0,-0.00010650874173734337
5120.0,0.00015695295587647706
5632.0,0.0003616148023866117
6144.0,7.991258826223202e-06
6656.0,-0.00031056732404977083
7168.0,4.75126835226547e-05
7680.0,0.0008017973159439862
8192.0,8.310232806252316e-05
9216.0,-0.000508272903971374
10240.0,1.7547821698826738e-05
11264.0,-0.0006314570782706141
12288.0,-0.00046131270937621593
13312.0,0.0004004478978458792
14336.0,-0.0001575393253006041
end
