version,3.0
numOfCh,1
type,point
parent_name,100-cuts
ch_type,1_1
kcount,1
numberNandB,1
brightnessNandB,1
carpet pos,0
pc,0
Time (ms),CH1 Auto-Correlation
1.0,0.0282455924898386
2.0,0.02333645708858967
3.0,0.01978970132768154
4.0,0.017287591472268105
5.0,0.015318501740694046
6.0,0.013721436262130737
7.0,0.01251212414354086
8.0,0.011426838114857674
9.0,0.010339602828025818
10.0,0.009284725412726402
11.0,0.00855979323387146
12.0,0.007843056693673134
13.0,0.007295194547623396
14.0,0.006811823695898056
15.0,0.00645750155672431
16.0,0.0062565673142671585
18.0,0.005372511222958565
20.0,0.004525435622781515
22.0,0.0037070217076689005
24.0,0.00340216513723135
26.0,0.003256318625062704
28.0,0.0029264374170452356
30.0,0.0026852211449295282
32.0,0.00228527351282537
36.0,0.0018468487542122602
40.0,0.0020356380846351385
44.0,0.001959405606612563
48.0,0.0018171158153563738
52.0,0.00149828742723912
56.0,0.0010238648392260075
60.0,0.0005864726845175028
64.0,8.862238610163331e-05
72.0,0.00011985812307102606
80.0,0.0001282542507397011
88.0,0.0004890377167612314
96.0,0.001034048618748784
104.0,0.0006157535244710743
112.0,-1.438755771232536e-05
120.0,-9.343922101834323e-06
128.0,-0.0006529543898068368
144.0,-0.0006945569766685367
160.0,-0.00033977371640503407
176.0,-0.00039930138154886663
192.0,-0.0010162005200982094
208.0,-0.000440765026723966
224.0,0.0002296279271831736
240.0,-0.00020975132065359503
256.0,8.842435636324808e-05
288.0,0.00038583987043239176
320.0,-0.0002406715793767944
352.0,-0.0005281854537315667
384.0,0.0004715658724308014
416.0,0.0010758672142401338
448.0,0.000299996929243207
480.0,0.00013407415826804936
512.0,0.00031862189644016325
576.0,-0.0003077309811487794
640.0,0.00017009062867145985
704.0,0.00023422992671839893
768.0,-0.00023837147455196828
832.0,2.986210529343225e-05
896.0,0.00015245011309161782
960.0,0.0003202047373633832
1024.0,0.0003636606561485678
1152.0,0.00038332765689119697
1280.0,-0.00014618826389778405
1408.0,-0.00024364922137465328
1536.0,-0.00017290782125201076
1664.0,-0.000522061949595809
1792.0,-0.0005135458195582032
1920.0,-0.0002644013147801161
2048.0,-0.000538086926098913
2304.0,-3.0463148505077697e-05
2560.0,-0.0003958314482588321
2816.0,-0.00032236389233730733
3072.0,0.00012201263598399237
3328.0,6.83448524796404e-05
3584.0,0.0003953044943045825
3840.0,6.574716098839417e-05
4096.0,-0.00017803916125558317
4608.0,-0.0003165393427480012
5120.0,-4.456831811694428e-05
5632.0,0.00038476914050988853
6144.0,0.0003619374765548855
6656.0,-4.8434812924824655e-05
7168.0,6.665116234216839e-05
7680.0,-0.0002866323047783226
8192.0,-0.0006726091960445046
9216.0,0.0002447209262754768
10240.0,-7.37633163225837e-05
11264.0,-0.00024858032702468336
12288.0,0.00022443191846832633
13312.0,0.0002420422388240695
14336.0,-0.0002457986120134592
end
