version,3.0
numOfCh,1
type,point
parent_name,100-cuts
ch_type,1_1
kcount,1
numberNandB,1
brightnessNandB,1
carpet pos,0
pc,0
Time (ms),CH1 Auto-Correlation
1.0,0.027851004153490067
2.0,0.022921916097402573
3.0,0.019490910694003105
4.0,0.016771554946899414
5.0,0.014647682197391987
6.0,0.012955041602253914
7.0,0.011549136601388454
8.0,0.010357142426073551
9.0,0.009439443238079548
10.0,0.008567490614950657
11.0,0.007850930094718933
12.0,0.007278786040842533
13.0,0.006750684697180986
14.0,0.006277873180806637
15.0,0.005956180859357119
16.0,0.005710706580430269
18.0,0.004703825805336237
20.0,0.00410709623247385
22.0,0.004158192779868841
24.0,0.003913920372724533
26.0,0.003623466705903411
28.0,0.0032726472709327936
30.0,0.003067165846005082
32.0,0.0027643637731671333
36.0,0.0021487241610884666
40.0,0.0018200997728854418
44.0,0.0013776986161246896
48.0,0.0008380940416827798
52.0,0.00046100118197500706
56.0,0.00044800026807934046
60.0,0.0004957608762197196
64.0,0.0005650300299748778
72.0,0.00031531587592326105
80.0,0.000803736736997962
88.0,0.001379115041345358
96.0,0.0006022972520440817
104.0,0.0010469153057783842
112.0,0.001194732147268951
120.0,0.0005233975243754685
128.0,0.00017012003809213638
144.0,-0.0002661134349182248
160.0,-0.0009165306692011654
176.0,-0.0005351458094082773
192.0,-0.000236295469221659
208.0,-0.00014905707212164998
224.0,-0.00012361288827378303
240.0,-0.0002699291508179158
256.0,-0.00014125247253105044
288.0,0.00043316587107256055
320.0,0.00010152201139135286
352.0,-0.0002656290016602725
384.0,-0.00011924687714781612
416.0,0.0008446188876405358
448.0,0.0008263220079243183
480.0,0.0006604701047763228
512.0,0.0006161361816339195
576.0,-0.0004341848543845117
640.0,-0.0005132201476953924
704.0,0.00010886169911827892
768.0,-0.000123643854749389
832.0,0.0004708328051492572
896.0,3.293590998509899e-05
960.0,-0.00026177422842010856
1024.0,-0.0005502617568708956
1152.0,-0.0004899986088275909
1280.0,0.0001329145597992465
1408.0,-0.0001355178828816861
1536.0,-9.709018922876567e-05
1664.0,0.0002010962343774736
1792.0,8.305460505653173e-05
1920.0,4.737367817142513e-06
2048.0,0.00046238143113441765
2304.0,-0.00013304819003678858
2560.0,0.00022992573212832212
2816.0,-0.0006830279598943889
3072.0,0.00016938250337261707
3328.0,-5.592457455350086e-06
3584.0,-0.00019215109932702035
3840.0,-0.00011065753642469645
4096.0,-0.00014432970783673227
4608.0,4.344849367043935e-05
5120.0,-0.00015834500663913786
5632.0,-0.00025065219961106777
6144.0,-0.000721796415746212
6656.0,-0.00017584227316547185
7168.0,0.0003278303483966738
7680.0,3.0373810659511946e-05
8192.0,0.0003479128936305642
9216.0,-8.858970977598801e-05
10240.0,0.0003215102478861809
11264.0,-6.894193211337551e-05
12288.0,-3.3420487852708902e-06
13312.0,-0.00022613188775721937
14336.0,-4.7384301069541834e-06
end
