version,3.0
numOfCh,1
type,point
parent_name,100-cuts
ch_type,1_1
kcount,1
numberNandB,1
brightnessNandB,1
carpet pos,0
pc,0
Time (ms),CH1 Auto-Correlation
1.0,0.016827043145895004
2.0,0.01368760783225298
3.0,0.011550121009349823
4.0,0.01002478040754795
5.0,0.00891816709190607
6.0,0.007958940230309963
7.0,0.007238021120429039
8.0,0.0066515011712908745
9.0,0.006142222322523594
10.0,0.005660779308527708
11.0,0.005273919086903334
12.0,0.004987947642803192
13.0,0.004658725578337908
14.0,0.004309303127229214
15.0,0.0040342966094613075
16.0,0.0037319334223866463
18.0,0.0033364666160196066
20.0,0.003023820696398616
22.0,0.0028106761164963245
24.0,0.0024625365622341633
26.0,0.0020302501507103443
28.0,0.0019175701308995485
30.0,0.0018682185327634215
32.0,0.0016333609819412231
36.0,0.0012771565234288573
40.0,0.0010521122021600604
44.0,0.0008741528727114201
48.0,0.0007560910889878869
52.0,0.0007265221211127937
56.0,0.0009296074858866632
60.0,0.0007995722116902471
64.0,0.0008946481393650174
72.0,0.0007073624874465168
80.0,0.0004684020532295108
88.0,0.0003538090968504548
96.0,0.0006587854004465044
104.0,0.0009228609269484878
112.0,0.000910477596335113
120.0,0.0009684717515483499
128.0,0.0012242752127349377
144.0,0.0010722607839852571
160.0,0.0008486114675179124
176.0,0.0006436091498471797
192.0,0.0006105703068897128
208.0,0.00021604358335025609
224.0,0.0004259434062987566
240.0,0.00046729895984753966
256.0,0.00037353031802922487
288.0,0.00027304922696202993
320.0,6.354284414555877e-05
352.0,0.00039435780490748584
384.0,-1.9120516299153678e-05
416.0,-0.00010379255400039256
448.0,1.7235710402019322e-05
480.0,0.00014066750009078532
512.0,-0.00015054288087412715
576.0,-0.0002460639225319028
640.0,-0.00012724989210255444
704.0,-0.00037262708065100014
768.0,-0.0006437046104110777
832.0,-0.0005279732285998762
896.0,0.00027900899294763803
960.0,5.895735739613883e-05
1024.0,0.0002503073192201555
1152.0,0.00015702180098742247
1280.0,0.0001337676658295095
1408.0,5.769869312644005e-05
1536.0,0.0002782884694170207
1664.0,0.0001473023003200069
1792.0,0.00010394620767328888
1920.0,0.00010950678552035242
2048.0,0.00019849489035550505
2304.0,-0.0002752439468167722
2560.0,-0.000173992506461218
2816.0,-0.0002013152843574062
3072.0,-0.00010361909517087042
3328.0,-0.0001494937459938228
3584.0,2.7634649086394347e-05
3840.0,0.0001321322051808238
4096.0,-0.00021018704865127802
4608.0,-0.0002568786439951509
5120.0,-0.00014201954763848335
5632.0,8.54239406180568e-05
6144.0,7.464026566594839e-05
6656.0,0.00017099454998970032
7168.0,0.00045956671237945557
7680.0,-7.416850712615997e-05
8192.0,-9.278853212890681e-06
9216.0,-0.0003535750147420913
10240.0,4.503447416936979e-05
11264.0,-0.0003411478828638792
12288.0,-0.00034235615748912096
13312.0,0.0003177696489728987
14336.0,0.00023081076506059617
end
