version,3.0
numOfCh,1
type,point
parent_name,100-cuts
ch_type,1_1
kcount,1
numberNandB,1
brightnessNandB,1
carpet pos,0
pc,0
Time (ms),CH1 Auto-Correlation
1.0,0.027119016274809837
2.0,0.022046346217393875
3.0,0.018570510670542717
4.0,0.016012709587812424
5.0,0.014095078222453594
6.0,0.012670895084738731
7.0,0.011375612579286098
8.0,0.010308039374649525
9.0,0.009209908545017242
10.0,0.008475679904222488
11.0,0.007690253667533398
12.0,0.007115925196558237
13.0,0.006532514467835426
14.0,0.006210447289049625
15.0,0.0057594613172113895
16.0,0.005331744905561209
18.0,0.004693626891821623
20.0,0.003999062813818455
22.0,0.0035058753564953804
24.0,0.0027688578702509403
26.0,0.0022973958402872086
28.0,0.0019811752717942
30.0,0.0019024747889488935
32.0,0.0017479220405220985
36.0,0.001617872971110046
40.0,0.0016579347429797053
44.0,0.001343025011010468
48.0,0.0010494303423911333
52.0,0.0008618027786724269
56.0,0.000787610886618495
60.0,0.0007564126281067729
64.0,0.0006327058072201908
72.0,0.00030111760133877397
80.0,-0.0003865870530717075
88.0,-5.368065558286617e-06
96.0,0.00046992659918032587
104.0,0.0003773295320570469
112.0,0.0002275672450195998
120.0,-0.00031265197321772575
128.0,-0.0004777432477567345
144.0,-0.00031016129651106894
160.0,0.00010297280823579058
176.0,-0.0001293774403166026
192.0,-0.0011231325333938003
208.0,-0.00036988951615057886
224.0,0.0007835610886104405
240.0,0.000533824902959168
256.0,-0.00013751734513789415
288.0,-5.47368181287311e-05
320.0,0.0008621344459243119
352.0,0.0004671539063565433
384.0,-0.0002802003873512149
416.0,-0.0007194746285676956
448.0,0.00016464196960441768
480.0,0.000574172125197947
512.0,0.0001115857667173259
576.0,0.0009713597246445715
640.0,-0.0005954615189693868
704.0,0.00030600515310652554
768.0,-0.00014824145182501525
832.0,-1.3003867934457958e-05
896.0,-0.00018276589980814606
960.0,7.222036219900474e-05
1024.0,-0.0008531837374903262
1152.0,-0.000270786345936358
1280.0,-0.00038427754770964384
1408.0,-0.00017071868933271617
1536.0,-0.0002513399813324213
1664.0,-0.0007480571512132883
1792.0,-0.0002937002864200622
1920.0,-0.0003532817354425788
2048.0,-0.0003846303734462708
2304.0,0.0003883930039592087
2560.0,-0.00013748825585935265
2816.0,0.00027537805726751685
3072.0,-0.0001659909321460873
3328.0,8.876685751602054e-05
3584.0,0.0005044974386692047
3840.0,-0.0003697075298987329
4096.0,7.312708476092666e-05
4608.0,-0.0005784445675089955
5120.0,-0.00011929636093555018
5632.0,0.00048428153968416154
6144.0,0.00011172247468493879
6656.0,-4.3601635297818575e-06
7168.0,-0.00029067418654449284
7680.0,0.00029059406369924545
8192.0,-0.00046225328696891665
9216.0,0.0005302848876453936
10240.0,-0.0004042444925289601
11264.0,-5.092396349937189e-06
12288.0,0.0002057303354376927
13312.0,-4.164200436207466e-05
14336.0,-0.00039603642653673887
end
