version,3.0
numOfCh,1
type,point
parent_name,100-cuts
ch_type,1_1
kcount,1
numberNandB,1
brightnessNandB,1
carpet pos,0
pc,0
Time (ms),CH1 Auto-Correlation
1.0,0.027863571420311928
2.0,0.022910213097929955
3.0,0.019407328218221664
4.0,0.016831059008836746
5.0,0.014624201692640781
6.0,0.013056850992143154
7.0,0.011803457513451576
8.0,0.010760809294879436
9.0,0.009926709346473217
10.0,0.009180574677884579
11.0,0.008543283678591251
12.0,0.008064349181950092
13.0,0.0075528728775680065
14.0,0.007092196494340897
15.0,0.006587655749171972
16.0,0.006261088419705629
18.0,0.00579662574455142
20.0,0.005405682139098644
22.0,0.00498151732608676
24.0,0.004531527403742075
26.0,0.00428861565887928
28.0,0.004124357830733061
30.0,0.003998558968305588
32.0,0.003915904089808464
36.0,0.003634557593613863
40.0,0.002723140176385641
44.0,0.00224143429659307
48.0,0.0017470953753218055
52.0,0.001046688761562109
56.0,0.0012094253906980157
60.0,0.0014026690041646361
64.0,0.0013986399862915277
72.0,8.834678737912327e-05
80.0,0.0004054046585224569
88.0,0.001320550567470491
96.0,0.0008934516808949411
104.0,0.000371034286217764
112.0,4.14400092267897e-05
120.0,0.00044078484643250704
128.0,0.0008641502354294062
144.0,0.00045840555685572326
160.0,-0.0006619822815991938
176.0,-0.0002280488988617435
192.0,-0.00014275321154855192
208.0,-0.000169789171195589
224.0,2.7055755253968528e-06
240.0,3.878873758367263e-05
256.0,0.0001922329538501799
288.0,0.0004655298253055662
320.0,0.00017109194595832378
352.0,-0.0001691419311100617
384.0,-0.00045772071462124586
416.0,-6.014427344780415e-05
448.0,0.000554301543161273
480.0,0.0011149938218295574
512.0,-7.944602111820132e-05
576.0,-0.0005343520315364003
640.0,0.00011856859782710671
704.0,0.0004701456055045128
768.0,0.0007205043220892549
832.0,0.00021848615142516792
896.0,0.00012649170821532607
960.0,-0.0010880400659516454
1024.0,-0.0009726732969284058
1152.0,0.0006645031971856952
1280.0,4.39995747001376e-05
1408.0,6.49766152491793e-05
1536.0,0.00017931104230228812
1664.0,-0.00012346367293503135
1792.0,-0.0003241871891077608
1920.0,0.0007922532968223095
2048.0,-0.0006315854843705893
2304.0,-8.40806751511991e-05
2560.0,-0.0002449314924888313
2816.0,0.0001415184378856793
3072.0,0.00011323310900479555
3328.0,-4.1405386582482606e-05
3584.0,-0.0003777722886297852
3840.0,-0.00022613171313423663
4096.0,0.00025369966169819236
4608.0,0.0004437611496541649
5120.0,-0.00014533712237607688
5632.0,-0.0005370186408981681
6144.0,-0.00017781041970010847
6656.0,-0.00042926165042445064
7168.0,0.00011467251897556707
7680.0,-0.00019107558182440698
8192.0,-0.00068827805807814
9216.0,0.00010414757707621902
10240.0,-0.00039246262167580426
11264.0,-0.00022266006271820515
12288.0,0.00012775673530995846
13312.0,0.00039716946776024997
14336.0,0.0006025428301654756
end
