version,3.0
numOfCh,1
type,point
parent_name,100-cuts
ch_type,1_1
kcount,1
numberNandB,1
brightnessNandB,1
carpet pos,0
pc,0
Time (ms),CH1 Auto-Correlation
1.0,0.026552200317382812
2.0,0.021604249253869057
3.0,0.01811538077890873
4.0,0.015555431134998798
5.0,0.013347894884645939
6.0,0.011692488566040993
7.0,0.010343030095100403
8.0,0.009278914891183376
9.0,0.00858350284397602
10.0,0.007863624021410942
11.0,0.007438600063323975
12.0,0.006911092437803745
13.0,0.006623478606343269
14.0,0.006362342741340399
15.0,0.0061991834081709385
16.0,0.005973110441118479
18.0,0.005305991508066654
20.0,0.004715666640549898
22.0,0.00436629680916667
24.0,0.004055114462971687
26.0,0.003643397241830826
28.0,0.003402385860681534
30.0,0.0029036661144346
32.0,0.0025843915063887835
36.0,0.0024058190174400806
40.0,0.001834572060033679
44.0,0.0013348605716601014
48.0,0.0016963506350293756
52.0,0.0017105587758123875
56.0,0.0017077785450965166
60.0,0.0013591151218861341
64.0,0.0009342054254375398
72.0,0.0009316853829659522
80.0,0.0010121861705556512
88.0,0.0009440135909244418
96.0,0.00031738964025862515
104.0,-2.2064072254579514e-05
112.0,-8.265641372418031e-05
120.0,-0.0003195309254806489
128.0,-0.0006131457048468292
144.0,-0.0008506832527928054
160.0,-0.0008777412003837526
176.0,-0.0010474357986822724
192.0,-0.0007965872646309435
208.0,-0.0005656108260154724
224.0,0.00023728162341285497
240.0,0.0002697431482374668
256.0,8.148865890689194e-05
288.0,0.0010036970488727093
320.0,0.0010874989675357938
352.0,0.0016081819776445627
384.0,0.001377339125610888
416.0,0.00012750757741741836
448.0,-0.0007500232895836234
480.0,-0.000945321167819202
512.0,-0.0011704384814947844
576.0,-0.000532394100446254
640.0,-0.00037390945362858474
704.0,-0.00032079758238978684
768.0,9.590773697709665e-05
832.0,-0.0010485236998647451
896.0,-0.0010967706330120564
960.0,-0.00026234579854644835
1024.0,0.00028433167608454823
1152.0,0.0002476689696777612
1280.0,5.677601075149141e-05
1408.0,0.0005620158626697958
1536.0,2.172987296944484e-05
1664.0,0.0006394473602995276
1792.0,0.00023711698304396123
1920.0,0.0005691008409485221
2048.0,1.2045703442709055e-05
2304.0,-0.000377505028154701
2560.0,-0.0003825707535725087
2816.0,6.161178134789225e-06
3072.0,8.928518946049735e-05
3328.0,-0.00036139352596364915
3584.0,3.913472028216347e-05
3840.0,0.00032739326707087457
4096.0,-0.00016811535169836134
4608.0,-0.0001849915861384943
5120.0,0.00012518568837549537
5632.0,-0.00024009932531043887
6144.0,-3.815273521468043e-05
6656.0,-4.7978170186979696e-05
7168.0,-0.00014537503011524677
7680.0,-0.0002916233497671783
8192.0,-0.00034003984183073044
9216.0,-0.00026574256480671465
10240.0,0.00010618553642416373
11264.0,0.0001238782424479723
12288.0,0.0002645727072376758
13312.0,-0.00016426433285232633
14336.0,0.0005909301107749343
end
