version,3.0
numOfCh,1
type,point
parent_name,100-cuts
ch_type,1_1
kcount,1
numberNandB,1
brightnessNandB,1
carpet pos,0
pc,0
Time (ms),CH1 Auto-Correlation
1.0,0.015820836648344994
2.0,0.012918720953166485
3.0,0.01085039135068655
4.0,0.009350762702524662
5.0,0.008140938356518745
6.0,0.007243956904858351
7.0,0.006540315691381693
8.0,0.005943927448242903
9.0,0.005422497633844614
10.0,0.005036329850554466
11.0,0.004673149902373552
12.0,0.004337431862950325
13.0,0.003962892107665539
14.0,0.0037036146968603134
15.0,0.003426250768825412
16.0,0.0032731397077441216
18.0,0.002903766231611371
20.0,0.0025599291548132896
22.0,0.0024291290901601315
24.0,0.0025061580818146467
26.0,0.0025309999473392963
28.0,0.0022659720852971077
30.0,0.0022346344776451588
32.0,0.002191642764955759
36.0,0.002281076041981578
40.0,0.0021032714284956455
44.0,0.0016280529089272022
48.0,0.0012999378377571702
52.0,0.0013513994636014104
56.0,0.0011887451400980353
60.0,0.000976987648755312
64.0,0.0007842082995921373
72.0,0.0006570814875885844
80.0,0.0004417938180267811
88.0,4.624450593837537e-05
96.0,-4.119366712984629e-05
104.0,-7.412007107632235e-05
112.0,-0.00011155343236168846
120.0,-5.350930950953625e-05
128.0,-0.0001201508566737175
144.0,-0.000494669598992914
160.0,-0.0005713611026294529
176.0,-0.0008052254561334848
192.0,-0.0006143850623629987
208.0,-0.0007109727594070137
224.0,-0.0005597928538918495
240.0,-0.0003131847479380667
256.0,-0.0001956156047526747
288.0,-0.0006480684387497604
320.0,-0.0004551824531517923
352.0,-0.00015486704069189727
384.0,-0.00042354088509455323
416.0,-5.927371239522472e-05
448.0,-8.425959822488949e-05
480.0,0.00011064197315135971
512.0,-0.00021447263134177774
576.0,-0.0001107924836105667
640.0,0.0003388608747627586
704.0,0.00028698882670141757
768.0,-3.2578456739429384e-05
832.0,0.0004337213176768273
896.0,-0.00031864939955994487
960.0,-0.00040720912511460483
1024.0,-0.0004072909941896796
1152.0,0.00030619619064964354
1280.0,-0.0002586750779300928
1408.0,-0.0003095072170253843
1536.0,0.00026958558009937406
1664.0,-0.00012670400610659271
1792.0,-0.00039648980600759387
1920.0,-0.0004147470754105598
2048.0,0.00023617861734237522
2304.0,0.00017437130736652762
2560.0,-0.00018167178495787084
2816.0,8.037049701670185e-05
3072.0,-0.00021547838696278632
3328.0,0.0003160219348501414
3584.0,1.4277234186010901e-05
3840.0,0.000160988827701658
4096.0,-0.0003582032222766429
4608.0,6.436064722947776e-05
5120.0,-7.777493010507897e-05
5632.0,-7.4570116339600645e-06
6144.0,-0.00015681693912483752
6656.0,6.578976899618283e-05
7168.0,0.00010102334636030719
7680.0,-9.031487570609897e-05
8192.0,-0.0003199154743924737
9216.0,3.321358235552907e-05
10240.0,4.2662606574594975e-05
11264.0,3.0746698030270636e-05
12288.0,-0.0001732931414153427
13312.0,0.00024637184105813503
14336.0,-4.501202784013003e-05
end
