version,3.0
numOfCh,1
type,point
parent_name,100-cuts
ch_type,1_1
kcount,1
numberNandB,1
brightnessNandB,1
carpet pos,0
pc,0
Time (ms),CH1 Auto-Correlation
1.0,0.016605593264102936
2.0,0.013553354889154434
3.0,0.011485869064927101
4.0,0.009940649382770061
5.0,0.008717278018593788
6.0,0.007654089014977217
7.0,0.006866288371384144
8.0,0.006286450661718845
9.0,0.005735107231885195
10.0,0.005187980830669403
11.0,0.004695573356002569
12.0,0.0042753941379487514
13.0,0.004009031690657139
14.0,0.0037784294690936804
15.0,0.0035437424667179585
16.0,0.0032718097791075706
18.0,0.0030053029768168926
20.0,0.002737452043220401
22.0,0.0025324507150799036
24.0,0.0024847539607435465
26.0,0.0024529118090867996
28.0,0.0024001500569283962
30.0,0.002274680184200406
32.0,0.002083852421492338
36.0,0.0017562515567988157
40.0,0.0015167670790106058
44.0,0.0013594721676781774
48.0,0.0012111070100218058
52.0,0.0012704167747870088
56.0,0.001077853492461145
60.0,0.0006163833313621581
64.0,0.00048649380914866924
72.0,0.00044838423491455615
80.0,0.0006984284846112132
88.0,-0.00023755469010211527
96.0,-0.0007171239703893661
104.0,-0.0004097370256204158
112.0,-7.173747872002423e-05
120.0,-2.88708288280759e-05
128.0,-2.8576876502484083e-05
144.0,-0.00039937562542036176
160.0,-0.0002295699086971581
176.0,0.00016251446504611522
192.0,8.478436211589724e-05
208.0,-0.00013214850332587957
224.0,-0.0002913398784585297
240.0,-0.0002339836210012436
256.0,0.0002066255983663723
288.0,7.2656330303289e-05
320.0,-0.0005208863294683397
352.0,-9.539874008623883e-05
384.0,0.00017534993821755052
416.0,-8.973511285148561e-05
448.0,0.0002377963246544823
480.0,0.00012389702897053212
512.0,0.0004238397814333439
576.0,0.0005362045485526323
640.0,-0.000387267442420125
704.0,-0.0008665549685247242
768.0,-0.0001401223853463307
832.0,9.442705777473748e-05
896.0,-0.0003405594907235354
960.0,-0.0002823398681357503
1024.0,0.00022860411263536662
1152.0,-0.0003486773057375103
1280.0,-0.00032695670961402357
1408.0,3.556602337084769e-07
1536.0,-0.00014953479694668204
1664.0,-9.847860928857699e-05
1792.0,-0.00032753669074736536
1920.0,0.00023850756406318396
2048.0,0.00015329215966630727
2304.0,-0.0002974462404381484
2560.0,0.00016698951367288828
2816.0,-0.00030856599914841354
3072.0,9.836287063080817e-05
3328.0,-5.9840764151886106e-05
3584.0,0.0004203003481961787
3840.0,-2.350186878175009e-05
4096.0,0.00018488545902073383
4608.0,8.466873259749264e-05
5120.0,-0.00019266495655756444
5632.0,-0.0002462455886416137
6144.0,6.724899139953777e-05
6656.0,7.973627361934632e-05
7168.0,-0.00018652160360943526
7680.0,0.0001813848939491436
8192.0,-1.2211287412355887e-06
9216.0,1.5310430171666667e-05
10240.0,4.025135422125459e-05
11264.0,2.875764221244026e-05
12288.0,5.9729823988163844e-05
13312.0,-0.00018370265024714172
14336.0,-0.00013129976287018508
end
