version,3.0
numOfCh,1
type,point
parent_name,100-cuts
ch_type,1_1
kcount,1
numberNandB,1
brightnessNandB,1
carpet pos,0
pc,0
Time (ms),CH1 Auto-Correlation
1.0,0.01634196750819683
2.0,0.013373259454965591
3.0,0.01135112252086401
4.0,0.009830418974161148
5.0,0.008615860715508461
6.0,0.0076526133343577385
7.0,0.006899654399603605
8.0,0.0062036896124482155
9.0,0.005560468416661024
10.0,0.005066247656941414
11.0,0.00464071286842227
12.0,0.004210249986499548
13.0,0.0039382572285830975
14.0,0.0037068845704197884
15.0,0.003472318174317479
16.0,0.0032145169097930193
18.0,0.002867062110453844
20.0,0.0024424465373158455
22.0,0.0020611281506717205
24.0,0.0017006697598844767
26.0,0.0014527760213240981
28.0,0.001336115994490683
30.0,0.001169973169453442
32.0,0.001032206229865551
36.0,0.0008011792087927461
40.0,0.0005139787099324167
44.0,0.0003027329221367836
48.0,0.00012499674630817026
52.0,-8.993636583909392e-05
56.0,-0.00027475113165564835
60.0,-0.0004257343243807554
64.0,-0.0003091938269790262
72.0,-0.0003792403149418533
80.0,-0.0008637227583676577
88.0,-0.0007406319491565228
96.0,-0.00046826538164168596
104.0,-0.0006923347245901823
112.0,-0.0007862402708269656
120.0,-0.0004678739933297038
128.0,-0.00027528038481250405
144.0,-7.35588328097947e-05
160.0,3.4065267300320556e-06
176.0,-8.462234836770222e-05
192.0,-0.00040055980207398534
208.0,-3.584871592465788e-05
224.0,1.8964705304824747e-05
240.0,5.01005160913337e-05
256.0,-0.00015008081390988082
288.0,-0.00020604215387720615
320.0,0.00022400049783755094
352.0,-1.2842987416661344e-05
384.0,-6.131912959972396e-05
416.0,-2.565873001003638e-05
448.0,0.0005068418104201555
480.0,7.887791434768587e-05
512.0,0.00023812188010197133
576.0,0.00011729601101251319
640.0,0.00015828735195100307
704.0,-0.0003408777993172407
768.0,5.110395431984216e-05
832.0,0.0006004275055602193
896.0,-0.0002143577003153041
960.0,0.00016084731032606214
1024.0,0.00032089438172988594
1152.0,-0.00018528284272179008
1280.0,8.35193568491377e-05
1408.0,4.5994816900929436e-05
1536.0,4.513096428127028e-05
1664.0,0.0002894575009122491
1792.0,-0.00019688044267240912
1920.0,-0.00015550055832136422
2048.0,-1.9672045254992554e-06
2304.0,2.4023842343012802e-05
2560.0,0.00022786525369156152
2816.0,-0.00019624357810243964
3072.0,0.00012130997492931783
3328.0,-0.00031899416353553534
3584.0,0.00021739088697358966
3840.0,4.146427090745419e-05
4096.0,8.44573660288006e-05
4608.0,-2.0331422092567664e-06
5120.0,0.00020787112589459866
5632.0,-0.00010480967466719449
6144.0,2.758684058790095e-05
6656.0,-0.00012318383960518986
7168.0,-0.00027592122205533087
7680.0,-5.436288847704418e-05
8192.0,-0.00027012694044969976
9216.0,4.591380638885312e-05
10240.0,2.9549650207627565e-05
11264.0,-0.00014301868213806301
12288.0,-0.0002940395788755268
13312.0,-8.304357470478863e-05
14336.0,0.00012345361756160855
end
