version,3.0
numOfCh,1
type,point
parent_name,100-cuts
ch_type,1_1
kcount,1
numberNandB,1
brightnessNandB,1
carpet pos,0
pc,0
Time (ms),CH1 Auto-Correlation
1.0,0.027434419840574265
2.0,0.022283252328634262
3.0,0.018653331324458122
4.0,0.016026370227336884
5.0,0.01391556765884161
6.0,0.012195643037557602
7.0,0.010701889172196388
8.0,0.009476229548454285
9.0,0.00844435952603817
10.0,0.007625262718647718
11.0,0.007018269971013069
12.0,0.006607284303754568
13.0,0.006314106751233339
14.0,0.005949094425886869
15.0,0.005628963466733694
16.0,0.0052900156006217
18.0,0.004389957990497351
20.0,0.003771673422306776
22.0,0.0031456591095775366
24.0,0.002688473789021373
26.0,0.0024429806508123875
28.0,0.0024429343175143003
30.0,0.002514406107366085
32.0,0.0025814655236899853
36.0,0.002631670329719782
40.0,0.0028096893802285194
44.0,0.00280924909748137
48.0,0.002217506058514118
52.0,0.0017608986236155033
56.0,0.0011928101303055882
60.0,0.0009068966610357165
64.0,0.0006944602355360985
72.0,0.0015494374092668295
80.0,0.0009830152848735452
88.0,0.0006226812838576734
96.0,0.0004904421512037516
104.0,0.0003335876972414553
112.0,-0.0002623887558002025
120.0,-0.00031929160468280315
128.0,-0.0005688287783414125
144.0,-6.297855725279078e-05
160.0,-0.0009752261685207486
176.0,-0.0006638906197622418
192.0,-0.00013615612988360226
208.0,-3.1363182642962784e-05
224.0,-0.0008004383416846395
240.0,-0.0006353906355798244
256.0,0.0002974029048345983
288.0,0.0009313447517342865
320.0,0.00145027379039675
352.0,-1.5138336493691895e-05
384.0,6.944837423361605e-06
416.0,0.0007130331941880286
448.0,0.00023587147006765008
480.0,0.00045164593029767275
512.0,0.00010112244490301237
576.0,-0.00021614698925986886
640.0,-9.77452436927706e-05
704.0,0.0002111023204633966
768.0,0.0006797235691919923
832.0,0.0003146469534840435
896.0,0.0006927044596523046
960.0,0.0004786620556842536
1024.0,-0.0002799051580950618
1152.0,0.00016880476323422045
1280.0,0.0008331850985996425
1408.0,-0.0003441891458351165
1536.0,0.00011842157982755452
1664.0,0.00014645436021964997
1792.0,-0.0005177299026399851
1920.0,-0.00020626717014238238
2048.0,0.0006486831116490066
2304.0,-8.948251888796221e-06
2560.0,-0.00019322455045767128
2816.0,5.8370129409013316e-05
3072.0,-0.0004959648358635604
3328.0,0.00013016629964113235
3584.0,-3.7778088426421164e-06
3840.0,-0.0005553390365093946
4096.0,-0.00022424555208999664
4608.0,-0.0004388595116324723
5120.0,-4.498867565416731e-05
5632.0,0.00025959720369428396
6144.0,0.00019366982451174408
6656.0,-6.310278877208475e-06
7168.0,-0.00020722484623547643
7680.0,0.00018667678523343056
8192.0,0.00014601286966353655
9216.0,-1.5868557966314256e-05
10240.0,-0.0002797772758640349
11264.0,-1.7436585039831698e-05
12288.0,-0.00021966005442664027
13312.0,2.5012479454744607e-05
14336.0,-0.00027385400608181953
end
