version,3.0
numOfCh,1
type,point
parent_name,100-cuts
ch_type,1_1
kcount,1
numberNandB,1
brightnessNandB,1
carpet pos,0
pc,0
Time (ms),CH1 Auto-Correlation
1.0,0.026465123519301414
2.0,0.02147015556693077
3.0,0.018045345321297646
4.0,0.015589611604809761
5.0,0.013626303523778915
6.0,0.01193554513156414
7.0,0.010347925126552582
8.0,0.009214824065566063
9.0,0.00852852314710617
10.0,0.007788916118443012
11.0,0.007036487106233835
12.0,0.006472651846706867
13.0,0.006004308816045523
14.0,0.005437392741441727
15.0,0.005004830192774534
16.0,0.004719751421362162
18.0,0.004253439139574766
20.0,0.003949967212975025
22.0,0.003646282246336341
24.0,0.003314331639558077
26.0,0.0030077090486884117
28.0,0.0029600774869322777
30.0,0.0030717593617737293
32.0,0.002982490696012974
36.0,0.002584253903478384
40.0,0.00218794378452003
44.0,0.0018451162613928318
48.0,0.0017902717227116227
52.0,0.0014688157243654132
56.0,0.0012677134945988655
60.0,0.0009223421802744269
64.0,0.000752077903598547
72.0,0.001080070622265339
80.0,0.0009385322337038815
88.0,0.0003759597602766007
96.0,-0.0004898519837297499
104.0,-0.000748567224945873
112.0,6.17204059381038e-05
120.0,-0.00046578070032410324
128.0,-0.0007153376354835927
144.0,0.00012003274605376646
160.0,0.0002877211954910308
176.0,0.00023958705423865467
192.0,0.0003581190248951316
208.0,0.00033435833756811917
224.0,-7.3517847340554e-05
240.0,-0.0003990194818470627
256.0,-0.0009339520474895835
288.0,0.00018708578136283904
320.0,-0.0002975550014525652
352.0,0.0002661184698808938
384.0,0.00013142144598532468
416.0,0.00021972873946651816
448.0,-0.00047494101454503834
480.0,-0.0005455312202684581
512.0,-0.001058027846738696
576.0,0.00017231257515959442
640.0,-0.0007484277011826634
704.0,-0.000724072742741555
768.0,0.0005319422925822437
832.0,-0.00023051182506605983
896.0,-0.0002490531769581139
960.0,0.0004187116865068674
1024.0,-0.0005980601417832077
1152.0,0.00018303921387996525
1280.0,0.00046875368570908904
1408.0,0.00027269372367300093
1536.0,8.908569725463167e-05
1664.0,-0.0004702976148109883
1792.0,-0.0002482917916495353
1920.0,8.342006913153455e-05
2048.0,2.771455365291331e-05
2304.0,-0.00019716918177437037
2560.0,0.0001911789586301893
2816.0,5.1106388127664104e-05
3072.0,4.561461537377909e-05
3328.0,0.0004578093357849866
3584.0,-0.00024621549528092146
3840.0,-0.0008321854402311146
4096.0,1.976181192731019e-05
4608.0,0.0002453088527545333
5120.0,-0.0003021835000254214
5632.0,7.430074765579775e-05
6144.0,-0.0004799902089871466
6656.0,-0.00033762192470021546
7168.0,-6.35681499261409e-05
7680.0,0.00018972680845763534
8192.0,5.829123983858153e-05
9216.0,1.8922780782304471e-06
10240.0,0.00011036211071768776
11264.0,-1.8990194803336635e-06
12288.0,0.00017057549848686904
13312.0,0.0002629444934427738
14336.0,-0.00023942872940097004
end
