version,3.0
numOfCh,1
type,point
parent_name,100-cuts
ch_type,1_1
kcount,1
numberNandB,1
brightnessNandB,1
carpet pos,0
pc,0
Time (ms),CH1 Auto-Correlation
1.0,0.014587057754397392
2.0,0.011645954102277756
3.0,0.009596288204193115
4.0,0.00810927152633667
5.0,0.007059498690068722
6.0,0.006264187395572662
7.0,0.005458188708871603
8.0,0.004932928830385208
9.0,0.004528076853603125
10.0,0.004179975483566523
11.0,0.003955547232180834
12.0,0.0036850343458354473
13.0,0.0034202933311462402
14.0,0.003238596022129059
15.0,0.003086504992097616
16.0,0.003000471042469144
18.0,0.0026842791121453047
20.0,0.0024349375162273645
22.0,0.0022269452456384897
24.0,0.0020283646881580353
26.0,0.0017562248976901174
28.0,0.0013943924568593502
30.0,0.0011601201258599758
32.0,0.0010964289540424943
36.0,0.0008747738320380449
40.0,0.0007641269476152956
44.0,0.0007382314652204514
48.0,0.0006667380221188068
52.0,0.0004471234860830009
56.0,0.00046493893023580313
60.0,0.0004638780956156552
64.0,0.00037728575989603996
72.0,0.0005183928878977895
80.0,0.00019368370703887194
88.0,-0.00023339853214565665
96.0,-4.570666351355612e-05
104.0,0.0002296130987815559
112.0,0.00022897811140865088
120.0,0.00011425739648984745
128.0,-0.0002718897012528032
144.0,-4.270700446795672e-05
160.0,-0.00016731613141018897
176.0,0.00020868994761258364
192.0,0.00022427145449910313
208.0,0.00032484071562066674
224.0,0.00013754981046076864
240.0,-2.111473077093251e-05
256.0,-0.00019467931997496635
288.0,-0.00022896364680491388
320.0,-0.0001881016796687618
352.0,-0.0002803552779369056
384.0,-5.5478423746535555e-05
416.0,-7.657544483663514e-05
448.0,-0.0002619668666739017
480.0,-4.582092515192926e-06
512.0,-0.00013620048412121832
576.0,-0.00010528323036851361
640.0,0.0004314025864005089
704.0,0.00023796614550519735
768.0,9.915763075696304e-05
832.0,-0.0002708930696826428
896.0,-0.00020706074428744614
960.0,0.0001110619559767656
1024.0,0.000295353151159361
1152.0,-0.00018198994803242385
1280.0,3.0158837034832686e-05
1408.0,-1.2989760762138758e-05
1536.0,-0.00041593736386857927
1664.0,-0.00019831323879770935
1792.0,0.00011584674211917445
1920.0,-0.00017512240447103977
2048.0,-0.00011072238703491166
2304.0,-0.0002974425442516804
2560.0,0.0001611805200809613
2816.0,6.315582868410274e-05
3072.0,0.00017651604139246047
3328.0,0.00020225648768246174
3584.0,9.88715109997429e-05
3840.0,0.00017444160766899586
4096.0,-5.119007619214244e-05
4608.0,6.311574543360621e-05
5120.0,-0.0002775228931568563
5632.0,-0.00011264607746852562
6144.0,3.870642467518337e-05
6656.0,0.00017967612075153738
7168.0,0.00013858200691174716
7680.0,-5.519909245776944e-05
8192.0,-7.018343603704125e-05
9216.0,-8.36913168313913e-05
10240.0,0.00018933201499748975
11264.0,-1.0683138498279732e-06
12288.0,-0.0002933003124780953
13312.0,1.3826357871948858e-06
14336.0,7.257718243636191e-05
end
