version,3.0
numOfCh,1
type,point
parent_name,100-cuts
ch_type,1_1
kcount,1
numberNandB,1
brightnessNandB,1
carpet pos,0
pc,0
Time (ms),CH1 Auto-Correlation
1.0,0.02770782820880413
2.0,0.02279892936348915
3.0,0.01937979646027088
4.0,0.016875972971320152
5.0,0.014874228276312351
6.0,0.013471848331391811
7.0,0.012164081446826458
8.0,0.011017285287380219
9.0,0.009972603991627693
10.0,0.009145275689661503
11.0,0.008394578471779823
12.0,0.007761999499052763
13.0,0.007092056330293417
14.0,0.0062842885963618755
15.0,0.0057376231998205185
16.0,0.005278198514133692
18.0,0.004781204741448164
20.0,0.004258573055267334
22.0,0.0035990693140774965
24.0,0.003316202899441123
26.0,0.003127539064735174
28.0,0.002969111781567335
30.0,0.002935183933004737
32.0,0.002455524168908596
36.0,0.0018461800646036863
40.0,0.0015803428832441568
44.0,0.0014496574876829982
48.0,0.0016161961248144507
52.0,0.0015315506607294083
56.0,0.0014853811590000987
60.0,0.0015059321885928512
64.0,0.0011551700299605727
72.0,0.000574227306060493
80.0,0.0007710181525908411
88.0,0.0009302703547291458
96.0,0.0004000237677246332
104.0,0.00028195983031764627
112.0,0.00041196716483682394
120.0,0.00014099401596467942
128.0,0.0004139885422773659
144.0,-0.00015528968651778996
160.0,0.00024089703219942749
176.0,0.00038103479892015457
192.0,-0.0003243614046368748
208.0,-0.0008494709036312997
224.0,-0.001081134076230228
240.0,-0.0007706484175287187
256.0,-0.0011044149287045002
288.0,0.00018018585979007185
320.0,0.0002509449259378016
352.0,0.0004215762601234019
384.0,-0.00011096252274001017
416.0,0.0006505337078124285
448.0,0.0013928412226960063
480.0,0.0008514525252394378
512.0,0.00040391943184658885
576.0,-0.0005572046502493322
640.0,9.689256694400683e-05
704.0,-0.0007588750449940562
768.0,0.00031389581272378564
832.0,0.00032356029259972274
896.0,0.0008326690294779837
960.0,0.0009592112037353218
1024.0,-0.0003562703786883503
1152.0,0.0002321885258425027
1280.0,0.000302365719107911
1408.0,0.0004072710289619863
1536.0,-0.000452592212241143
1664.0,0.00027130445232614875
1792.0,0.0005519940750673413
1920.0,0.0003365640586707741
2048.0,-0.0007044470403343439
2304.0,0.0001932176819536835
2560.0,-0.00027434155344963074
2816.0,0.00014279775496106595
3072.0,3.480424766166834e-06
3328.0,-9.714203042676672e-05
3584.0,0.0002954755909740925
3840.0,0.00014454762276727706
4096.0,-4.7571928007528186e-05
4608.0,-8.253737905761227e-05
5120.0,-0.00029169616755098104
5632.0,-0.0002715517475735396
6144.0,-0.00010884882067330182
6656.0,-0.00039689711411483586
7168.0,-0.0004541993548627943
7680.0,-0.0005782535299658775
8192.0,-3.90663008147385e-05
9216.0,-4.037720282212831e-05
10240.0,0.00019178554066456854
11264.0,-4.304394678911194e-06
12288.0,-9.467948257224634e-05
13312.0,0.0002808741119224578
14336.0,0.0010447981767356396
end
