version,3.0
numOfCh,1
type,point
parent_name,100-cuts
ch_type,1_1
kcount,1
numberNandB,1
brightnessNandB,1
carpet pos,0
pc,0
Time (ms),CH1 Auto-Correlation
1.0,0.02753855660557747
2.0,0.0226217620074749
3.0,0.01914045214653015
4.0,0.01640954799950123
5.0,0.014358563348650932
6.0,0.012719107791781425
7.0,0.011368706822395325
8.0,0.010313433595001698
9.0,0.009361406788229942
10.0,0.008630063384771347
11.0,0.008150797337293625
12.0,0.007573080714792013
13.0,0.007027121726423502
14.0,0.006631860509514809
15.0,0.006319711916148663
16.0,0.005857174750417471
18.0,0.005054103210568428
20.0,0.00399040337651968
22.0,0.003192033851519227
24.0,0.003093803534284234
26.0,0.002954321214929223
28.0,0.00259777856990695
30.0,0.002322969725355506
32.0,0.002132848836481571
36.0,0.00185768015217036
40.0,0.001941439462825656
44.0,0.0017723250202834606
48.0,0.0013945638202130795
52.0,0.0013996969209983945
56.0,0.0013075126335024834
60.0,0.0012066257186233997
64.0,0.0011732919374480844
72.0,0.0008454097551293671
80.0,0.0009838301921263337
88.0,0.0006243660463951528
96.0,0.0011296995216980577
104.0,0.000980695360340178
112.0,-8.465480641461909e-05
120.0,-0.0002753853041213006
128.0,-0.0002335214667255059
144.0,8.987114415504038e-05
160.0,0.0007440306362695992
176.0,-0.00018507358618080616
192.0,-8.646923379274085e-05
208.0,0.0011839057551696897
224.0,0.000534008489921689
240.0,0.00014621268201153725
256.0,0.00020344775111880153
288.0,-0.0007601046818308532
320.0,-0.0008446181891486049
352.0,-0.00041369866812601686
384.0,-4.7803296183701605e-06
416.0,0.0002847648283932358
448.0,-0.00044497475028038025
480.0,-0.0004988536820746958
512.0,0.0002620009472593665
576.0,0.0004758967843372375
640.0,-0.00038050435250625014
704.0,-0.0007923556840978563
768.0,-0.0003886231279466301
832.0,0.00010141273378394544
896.0,-0.0008326707757078111
960.0,-0.00018455837562214583
1024.0,0.00025159065262414515
1152.0,-9.897581185214221e-05
1280.0,0.00021124233899172395
1408.0,-0.0008593358797952533
1536.0,-0.0005247868248261511
1664.0,-0.0005341066280379891
1792.0,0.00010296529217157513
1920.0,4.222762436256744e-05
2048.0,0.00013212024350650609
2304.0,-3.72798131138552e-05
2560.0,-2.9351465855143033e-05
2816.0,-0.0003524325729813427
3072.0,0.00043792492942884564
3328.0,0.0005846173735335469
3584.0,0.0001524819090263918
3840.0,-0.0009159076143987477
4096.0,-0.0004739187133964151
4608.0,0.0005265282816253603
5120.0,-4.773496766574681e-05
5632.0,0.00019638937374111265
6144.0,-0.0005842656828463078
6656.0,0.0002637676661834121
7168.0,2.4416936867055483e-05
7680.0,6.857345579192042e-05
8192.0,-0.00028677188674919307
9216.0,-0.00016483591753058136
10240.0,2.3119740944821388e-05
11264.0,-0.0001270500069949776
12288.0,0.0007020139019005001
13312.0,-0.0008847787394188344
14336.0,1.3884958207199816e-05
end
