version,3.0
numOfCh,1
type,point
parent_name,100-cuts
ch_type,1_1
kcount,1
numberNandB,1
brightnessNandB,1
carpet pos,0
pc,0
Time (ms),CH1 Auto-Correlation
1.0,0.0160200372338295
2.0,0.01305636391043663
3.0,0.010972926393151283
4.0,0.009256334975361824
5.0,0.00796504970639944
6.0,0.006951038260012865
7.0,0.006119970232248306
8.0,0.0054750568233430386
9.0,0.004954565782099962
10.0,0.004518595058470964
11.0,0.004291624762117863
12.0,0.004065385553985834
13.0,0.003860417753458023
14.0,0.0036636842414736748
15.0,0.0034848989453166723
16.0,0.003284037346020341
18.0,0.002854816848412156
20.0,0.002694271272048354
22.0,0.0024405561853200197
24.0,0.002155404770746827
26.0,0.0017979807453230023
28.0,0.0016271237982437015
30.0,0.0014268093509599566
32.0,0.0011656489223241806
36.0,0.0008514350047335029
40.0,0.0009666011319495738
44.0,0.0011022735852748156
48.0,0.0009917415445670485
52.0,0.0007858026656322181
56.0,0.0005622798926196992
60.0,0.000336379132932052
64.0,0.0003348175378050655
72.0,0.0002848721924237907
80.0,0.0003064263437408954
88.0,-0.0003092973493039608
96.0,-0.0003610959101933986
104.0,-0.000333097210386768
112.0,-0.0006215712055563927
120.0,-0.00047469575656577945
128.0,-0.00038540997775271535
144.0,-0.00039185283822007477
160.0,-0.00012942368630319834
176.0,-2.7791837055701762e-05
192.0,-0.00035438319901004434
208.0,-0.00020625523757189512
224.0,3.170826312270947e-05
240.0,0.00036650558467954397
256.0,0.0004163857956882566
288.0,0.00019717722898349166
320.0,-0.00038775373832322657
352.0,-0.0002764930541161448
384.0,0.00011977824760833755
416.0,0.0005680527538061142
448.0,-0.0002595537225715816
480.0,-9.53141352511011e-05
512.0,-0.00013991244486533105
576.0,-0.0006149778491817415
640.0,-0.00011576650285860524
704.0,-0.0001231443020515144
768.0,0.0003061149036511779
832.0,-0.00032011404982768
896.0,-3.8511618186021224e-05
960.0,-0.00028204594855196774
1024.0,0.00025593885220587254
1152.0,0.0001813959243008867
1280.0,-0.00015898598940111697
1408.0,-7.680584531044587e-05
1536.0,8.476524089928716e-05
1664.0,-8.322806388605386e-05
1792.0,0.00020254893752280623
1920.0,0.0002961534191854298
2048.0,0.00010499449854250997
2304.0,-0.00017714440764393657
2560.0,-5.029663589084521e-05
2816.0,0.00020646066695917398
3072.0,0.00025757026742212474
3328.0,3.98435331590008e-05
3584.0,0.00015370101027656347
3840.0,-5.810486254631542e-05
4096.0,-0.0001563543191878125
4608.0,0.0002996789989992976
5120.0,-2.8648448278545402e-05
5632.0,-0.0002517147804610431
6144.0,0.00010559119982644916
6656.0,6.330273026833311e-05
7168.0,-0.00010914052836596966
7680.0,3.7404817703645676e-05
8192.0,-5.5164309742394835e-05
9216.0,-7.290540816029534e-05
10240.0,-1.9314025848871097e-05
11264.0,-0.0001708918862277642
12288.0,7.522399391746148e-05
13312.0,-0.00028453944833017886
14336.0,7.002318307058886e-05
end
