version,3.0
numOfCh,1
type,point
parent_name,100-cuts
ch_type,1_1
kcount,1
numberNandB,1
brightnessNandB,1
carpet pos,0
pc,0
Time (ms),CH1 Auto-Correlation
1.0,0.016443753615021706
2.0,0.013427209109067917
3.0,0.011347472667694092
4.0,0.009830056689679623
5.0,0.008583059534430504
6.0,0.0077064018696546555
7.0,0.006965580862015486
8.0,0.006229945924133062
9.0,0.005586318206042051
10.0,0.00508072366937995
11.0,0.004635991062968969
12.0,0.004365827888250351
13.0,0.004082392901182175
14.0,0.0037506648804992437
15.0,0.0034936140291392803
16.0,0.003188339527696371
18.0,0.002741558011621237
20.0,0.0025416486896574497
22.0,0.0023823955561965704
24.0,0.002381887985393405
26.0,0.0022571461740881205
28.0,0.0021696167532354593
30.0,0.0018939919536933303
32.0,0.001568552223034203
36.0,0.001213488052599132
40.0,0.0010709759080782533
44.0,0.00110166659578681
48.0,0.0010297849075868726
52.0,0.0009261180530302227
56.0,0.0008834142936393619
60.0,0.00069583480944857
64.0,0.000457168702268973
72.0,0.00024271802976727486
80.0,0.00033762966631911695
88.0,-0.00019397535652387887
96.0,1.8652252038009465e-05
104.0,0.0005691149272024632
112.0,0.0008724561776034534
120.0,0.0012325603747740388
128.0,0.0012299560476094484
144.0,0.0009693079628050327
160.0,0.0005802483065053821
176.0,0.0002959830453619361
192.0,-0.0003723642439581454
208.0,-0.0005647048237733543
224.0,-0.00010122089588548988
240.0,-4.18281379097607e-05
256.0,0.0002390924491919577
288.0,0.0006992553826421499
320.0,0.00025077664759010077
352.0,0.00016827284707687795
384.0,0.0001490643626311794
416.0,5.940691698924638e-05
448.0,7.052707223920152e-05
480.0,-0.00028035149443894625
512.0,-0.00019415533461142331
576.0,-0.00031555150053463876
640.0,0.0004442146746441722
704.0,0.0001114648548536934
768.0,0.0005507438909262419
832.0,7.167306466726586e-05
896.0,-0.00018558779265731573
960.0,-0.000389328837627545
1024.0,0.00022368879581335932
1152.0,-8.307465759571642e-05
1280.0,-9.797827078728005e-05
1408.0,-0.00020460906671360135
1536.0,-3.262728569097817e-05
1664.0,-0.00026627007173374295
1792.0,-0.00025139196077361703
1920.0,0.0002876310609281063
2048.0,3.644244497991167e-05
2304.0,0.00020920508541166782
2560.0,-7.368039950961247e-05
2816.0,-0.00022871288820169866
3072.0,-0.0002197755384258926
3328.0,-0.00027523195603862405
3584.0,-0.00046126608503982425
3840.0,-6.808382022427395e-05
4096.0,-1.1465249372122344e-05
4608.0,-0.00027647113893181086
5120.0,0.0001509424182586372
5632.0,-0.0001325048360740766
6144.0,0.0004850106197409332
6656.0,-9.520585990685504e-06
7168.0,0.0002842875546775758
7680.0,-2.0783818399650045e-06
8192.0,0.00012414059892762452
9216.0,-0.00019519191118888557
10240.0,5.582121593761258e-05
11264.0,-0.0003155667509417981
12288.0,0.00044270214857533574
13312.0,-6.1776016082149e-05
14336.0,-2.4097729692584835e-05
end
