version,3.0
numOfCh,1
type,point
parent_name,100-cuts
ch_type,1_1
kcount,1
numberNandB,1
brightnessNandB,1
carpet pos,0
pc,0
Time (ms),CH1 Auto-Correlation
1.0,0.01630113646388054
2.0,0.01318846084177494
3.0,0.01098333578556776
4.0,0.009309652261435986
5.0,0.008052191697061062
6.0,0.007111411076039076
7.0,0.0063321213237941265
8.0,0.005745628848671913
9.0,0.005251877475529909
10.0,0.00496341148391366
11.0,0.004743214696645737
12.0,0.004487232305109501
13.0,0.004352819640189409
14.0,0.004193910397589207
15.0,0.003922595642507076
16.0,0.003574494505301118
18.0,0.0032055978663265705
20.0,0.0030386478174477816
22.0,0.0026712841354310513
24.0,0.0023473366163671017
26.0,0.0019703947473317385
28.0,0.0017524224240332842
30.0,0.001674385741353035
32.0,0.0016566179692745209
36.0,0.0014817425981163979
40.0,0.0013551977463066578
44.0,0.0010276978136971593
48.0,0.0007954241591505706
52.0,0.00044988252921029925
56.0,0.000462463271105662
60.0,0.00043885083869099617
64.0,0.00018043321324512362
72.0,0.00016092380974441767
80.0,0.00011872241884702817
88.0,0.0006881607114337385
96.0,0.0006463667959906161
104.0,0.000594644749071449
112.0,0.0003317334339953959
120.0,0.00011615309631451964
128.0,7.504263066948624e-06
144.0,9.388953913003206e-05
160.0,-0.00011627986532403156
176.0,-2.373412462475244e-05
192.0,0.00014465425920207053
208.0,1.7575566744199023e-05
224.0,-0.00019059187616221607
240.0,-0.00022851127141620964
256.0,-0.0002878903178498149
288.0,-0.00021105844643898308
320.0,4.8393234465038404e-05
352.0,0.00012406571477185935
384.0,-0.0002579977735877037
416.0,0.00017022636893671006
448.0,0.0004938087658956647
480.0,0.00036849957541562617
512.0,0.00017711726832203567
576.0,-0.00019676763622555882
640.0,0.00038398802280426025
704.0,0.0002027070731855929
768.0,-0.0005071319174021482
832.0,-0.00011536448437254876
896.0,0.00032302888575941324
960.0,0.00021359208039939404
1024.0,-0.0001283662422792986
1152.0,-5.5733307817718014e-05
1280.0,6.154160473670345e-06
1408.0,-0.00010870542610064149
1536.0,-0.0004369717789813876
1664.0,-0.0002304348163306713
1792.0,0.0003031113010365516
1920.0,0.00012073208927176893
2048.0,0.00015350099420174956
2304.0,6.267597927944735e-05
2560.0,-1.4505187209579162e-05
2816.0,6.287657743087038e-05
3072.0,-0.00011950658517889678
3328.0,-4.269946293788962e-05
3584.0,-0.00011057796655222774
3840.0,-0.000327054294757545
4096.0,-0.0001975747145479545
4608.0,-0.00013179366942495108
5120.0,-0.00013788157957606018
5632.0,-0.0001359264279017225
6144.0,-8.503795834258199e-05
6656.0,1.3626329746330157e-05
7168.0,-9.245423825632315e-06
7680.0,0.0003199646307621151
8192.0,0.00010761593148345128
9216.0,4.1642684664111584e-05
10240.0,9.640312055125833e-05
11264.0,-0.0002814209437929094
12288.0,0.00023437566414941102
13312.0,-0.000642398779746145
14336.0,-0.00017573873628862202
end
