version,3.0
numOfCh,1
type,point
parent_name,100-cuts
ch_type,1_1
kcount,1
numberNandB,1
brightnessNandB,1
carpet pos,0
pc,0
Time (ms),CH1 Auto-Correlation
1.0,0.01685917377471924
2.0,0.013978727161884308
3.0,0.011924531310796738
4.0,0.010455241426825523
5.0,0.009257324039936066
6.0,0.008286627009510994
7.0,0.007504601497203112
8.0,0.006788358557969332
9.0,0.006224251352250576
10.0,0.005736571736633778
11.0,0.005283121019601822
12.0,0.00497511075809598
13.0,0.00471661239862442
14.0,0.004553866107016802
15.0,0.004252504091709852
16.0,0.004001197870820761
18.0,0.0036049874033778906
20.0,0.0032032346352934837
22.0,0.0028040569741278887
24.0,0.0025702707935124636
26.0,0.0021870764903724194
28.0,0.0018698371713981032
30.0,0.001729012350551784
32.0,0.0015404822770506144
36.0,0.0013982993550598621
40.0,0.0011029127053916454
44.0,0.001078905537724495
48.0,0.000821768946480006
52.0,0.00036086144973523915
56.0,0.00032747790100984275
60.0,0.0003945663047488779
64.0,0.0006432632799260318
72.0,0.00030559676815755665
80.0,7.437940075760707e-05
88.0,-0.00011733424616977572
96.0,0.00014766286767553538
104.0,0.00020470554591156542
112.0,8.744502702029422e-05
120.0,-0.000142644188599661
128.0,-0.00039988578646443784
144.0,-0.0005158716230653226
160.0,-0.0003073657862842083
176.0,-5.140265784575604e-05
192.0,0.00048420450184494257
208.0,0.00019745989993680269
224.0,0.00021322921384125948
240.0,0.00023092773335520178
256.0,0.000562769768293947
288.0,-4.3617430492304265e-05
320.0,-0.0007156725041568279
352.0,-4.362017352832481e-05
384.0,0.0002272576530231163
416.0,0.0005694717401638627
448.0,-5.266846710583195e-05
480.0,-0.00014601624570786953
512.0,0.0003165375965181738
576.0,0.00013356546696741134
640.0,0.00044136663200333714
704.0,-0.0002256277366541326
768.0,0.0003401534631848335
832.0,0.00011636927229119465
896.0,-0.00037503542262129486
960.0,8.591063669882715e-05
1024.0,0.00029637900297529995
1152.0,0.00030614942079409957
1280.0,-9.42014594329521e-05
1408.0,0.00025948844267986715
1536.0,-0.0002563237794674933
1664.0,-1.4435291632253211e-05
1792.0,-0.00010985136759700254
1920.0,-0.00022057681053411216
2048.0,4.569155498757027e-05
2304.0,7.144330447772518e-05
2560.0,0.00024954581749625504
2816.0,-3.0354125556186773e-05
3072.0,-0.00041088133002631366
3328.0,-0.00024129293160513043
3584.0,-0.00016009414684958756
3840.0,8.78813661984168e-05
4096.0,-0.00034370008506812155
4608.0,3.432729499763809e-05
5120.0,-1.6320269423886202e-05
5632.0,-9.148720710072666e-05
6144.0,-1.217806311615277e-05
6656.0,-0.00024994928389787674
7168.0,0.00010817563452292234
7680.0,-0.00010836243018275127
8192.0,0.00019148450519423932
9216.0,-4.959380748914555e-05
10240.0,5.740289907407714e-06
11264.0,-8.481746044708416e-05
12288.0,-0.0001656942768022418
13312.0,0.00024341774405911565
14336.0,1.1783036825363524e-05
end
