version,3.0
numOfCh,1
type,point
parent_name,100-cuts
ch_type,1_1
kcount,1
numberNandB,1
brightnessNandB,1
carpet pos,0
pc,0
Time (ms),CH1 Auto-Correlation
1.0,0.025584904477000237
2.0,0.02059837058186531
3.0,0.017018763348460197
4.0,0.014460388571023941
5.0,0.012364174239337444
6.0,0.010774698108434677
7.0,0.009562872350215912
8.0,0.008506765589118004
9.0,0.007771983277052641
10.0,0.007149051409214735
11.0,0.0066122510470449924
12.0,0.0061263940297067165
13.0,0.0055728149600327015
14.0,0.005154731217771769
15.0,0.00471871392801404
16.0,0.004362238105386496
18.0,0.003967680968344212
20.0,0.003704790025949478
22.0,0.0033532679080963135
24.0,0.0032517965883016586
26.0,0.0033302675001323223
28.0,0.0030754783656448126
30.0,0.0026738119777292013
32.0,0.0025209076702594757
36.0,0.0017110867192968726
40.0,0.0011967963073402643
44.0,0.0005906297010369599
48.0,0.0006637410842813551
52.0,0.001066717435605824
56.0,0.0009790874319151044
60.0,0.0006406850880011916
64.0,0.0005262561608105898
72.0,0.0005653369007632136
80.0,0.0006279883673414588
88.0,0.0005960090202279389
96.0,0.00040776803507469594
104.0,0.0006460208678618073
112.0,0.0005955065716989338
120.0,0.0007961444789543748
128.0,0.0006155023584142327
144.0,-0.0003812480717897415
160.0,0.0006287597352638841
176.0,-0.00010617836960591376
192.0,-0.0002259367029182613
208.0,-0.00035252957604825497
224.0,-0.0001230674679391086
240.0,-8.369240822503343e-05
256.0,8.633072866359726e-05
288.0,0.00023626979964319617
320.0,-0.0005976799293421209
352.0,-0.0005320439231581986
384.0,-0.00048355504986830056
416.0,-0.00033490578061901033
448.0,-0.0005279759061522782
480.0,-0.0003114927967544645
512.0,0.0001888154074549675
576.0,-0.00013799704902339727
640.0,0.00020832184236496687
704.0,-0.00019135363982059062
768.0,1.0922790352196898e-05
832.0,-0.0007728133932687342
896.0,-0.0004543945542536676
960.0,-0.0008461982943117619
1024.0,-0.0010507588740438223
1152.0,-1.2763447557517793e-05
1280.0,0.0008448287262581289
1408.0,0.0005493738572113216
1536.0,-2.4306716568389675e-06
1664.0,-0.0003810605267062783
1792.0,0.00019163887191098183
1920.0,0.00038569598109461367
2048.0,0.0004377850273158401
2304.0,-1.9512648577801883e-05
2560.0,0.0001324724144069478
2816.0,5.2446252084337175e-05
3072.0,-3.9892165659694e-05
3328.0,-8.022612746572122e-05
3584.0,-0.0002607082133181393
3840.0,0.00018512234964873642
4096.0,0.0001094284380087629
4608.0,-4.3433774408185855e-05
5120.0,-0.00025414061383344233
5632.0,-0.00029540000832639635
6144.0,7.403011113638058e-05
6656.0,0.00015983606863301247
7168.0,-8.49095667945221e-05
7680.0,-0.00016414656420238316
8192.0,-0.0005364742828533053
9216.0,-0.0001903808006318286
10240.0,0.0001167932859971188
11264.0,-0.00014743815700057894
12288.0,0.00011317274038447067
13312.0,0.00028381161973811686
14336.0,0.00016308909107465297
end
