version,3.0
numOfCh,1
type,point
parent_name,100-cuts
ch_type,1_1
kcount,1
numberNandB,1
brightnessNandB,1
carpet pos,0
pc,0
Time (ms),CH1 Auto-Correlation
1.0,0.028081877157092094
2.0,0.0230427086353302
3.0,0.019495675340294838
4.0,0.016913142055273056
5.0,0.015064854174852371
6.0,0.013531395234167576
7.0,0.012239962816238403
8.0,0.011197777464985847
9.0,0.010329090058803558
10.0,0.009611239656805992
11.0,0.008771710097789764
12.0,0.008137558586895466
13.0,0.007747247349470854
14.0,0.007347119506448507
15.0,0.006913456134498119
16.0,0.006413796450942755
18.0,0.005605997052043676
20.0,0.004790696781128645
22.0,0.004462044686079025
24.0,0.0038708874490112066
26.0,0.003346104174852371
28.0,0.0030560067389160395
30.0,0.0026781593915075064
32.0,0.002281212480738759
36.0,0.0016981173539534211
40.0,0.001343005453236401
44.0,0.0012145208893343806
48.0,0.0010519910138100386
52.0,0.0010088927811011672
56.0,0.0009750567260198295
60.0,0.0011285869404673576
64.0,0.0012257269117981195
72.0,0.0008712102426216006
80.0,0.00031786595354788005
88.0,0.00012034730752930045
96.0,0.0002069784386549145
104.0,0.0002291835262440145
112.0,0.0005496270023286343
120.0,0.000629735819529742
128.0,8.835717017063871e-05
144.0,0.00020723194757010788
160.0,0.0007558831130154431
176.0,0.0009677670896053314
192.0,0.0009737391956150532
208.0,0.00027669966220855713
224.0,0.00010593238403089345
240.0,0.00018041364091914147
256.0,0.00019933030125685036
288.0,0.0006936218705959618
320.0,0.0002921841514762491
352.0,0.0004026683745905757
384.0,0.00042352775926701725
416.0,0.0001553607580717653
448.0,0.00045851399772800505
480.0,0.0006267325952649117
512.0,0.00048298639012500644
576.0,-0.0002644446212798357
640.0,0.00027282105293124914
704.0,0.0009896554984152317
768.0,-0.00011197715502930805
832.0,-0.0004759937000926584
896.0,-0.0006322424742393196
960.0,0.00036464157165028155
1024.0,-0.00026314103160984814
1152.0,-0.00028332017245702446
1280.0,-0.0004413894494064152
1408.0,2.4587025109212846e-05
1536.0,-0.000149102124851197
1664.0,0.0005530960625037551
1792.0,0.00018566871585790068
1920.0,-0.00018612710118759423
2048.0,3.534450297593139e-05
2304.0,0.0001592811750015244
2560.0,0.00010865159129025415
2816.0,0.0005880911485292017
3072.0,0.00033552772947587073
3328.0,0.0004918789491057396
3584.0,-1.3377258255786728e-05
3840.0,-0.0003571728302631527
4096.0,-0.0005272623966448009
4608.0,-0.0003872183442581445
5120.0,9.271416274714284e-06
5632.0,-0.0003027206694241613
6144.0,-4.0191051084548235e-05
6656.0,-7.80213376856409e-05
7168.0,-0.00015269253344740719
7680.0,-0.0008537876419723034
8192.0,-0.0007121990784071386
9216.0,0.00010478653712198138
10240.0,-0.00045352763845585287
11264.0,-0.00010525482502998784
12288.0,0.0009280565427616239
13312.0,-9.172243881039321e-05
14336.0,0.0006828459445387125
end
