version,3.0
numOfCh,1
type,point
parent_name,100-cuts
ch_type,1_1
kcount,1
numberNandB,1
brightnessNandB,1
carpet pos,0
pc,0
Time (ms),CH1 Auto-Correlation
1.0,0.017296291887760162
2.0,0.014137708581984043
3.0,0.01193266548216343
4.0,0.01034042052924633
5.0,0.009082705713808537
6.0,0.008112497627735138
7.0,0.007370087318122387
8.0,0.006700112018734217
9.0,0.0061548310332000256
10.0,0.00571286678314209
11.0,0.005211946554481983
12.0,0.004793243482708931
13.0,0.004491414874792099
14.0,0.004186047241091728
15.0,0.003796906443312764
16.0,0.0034503075294196606
18.0,0.002971061272546649
20.0,0.0024829113390296698
22.0,0.00204439926892519
24.0,0.001907060737721622
26.0,0.0019219614332541823
28.0,0.0017738224705681205
30.0,0.0015793294878676534
32.0,0.001497073215432465
36.0,0.0014296778244897723
40.0,0.0013487623073160648
44.0,0.0010703015141189098
48.0,0.0009158916072919965
52.0,0.0010435465956106782
56.0,0.001286874059587717
60.0,0.0009839968988671899
64.0,0.0009370841435156763
72.0,0.0007824573549441993
80.0,0.000511505058966577
88.0,0.0003523091727402061
96.0,0.00017716895672492683
104.0,0.00010673823271645233
112.0,0.00038088549626991153
120.0,0.000198555295355618
128.0,0.0003953645646106452
144.0,0.00045763509115204215
160.0,0.00034269446041435003
176.0,8.597723353886977e-05
192.0,0.00032933696638792753
208.0,0.00023935477656777948
224.0,0.0005213629337958992
240.0,0.0008775733294896781
256.0,0.00028622214449569583
288.0,0.00019140064250677824
320.0,-0.00034780194982886314
352.0,0.00013651051267515868
384.0,0.0003350485931150615
416.0,0.00028863089391961694
448.0,0.0003235205076634884
480.0,0.0006028153584338725
512.0,0.0005282476195134223
576.0,0.00011144240124849603
640.0,1.3294008738284901e-07
704.0,0.0004783889453392476
768.0,0.0002903802669607103
832.0,-0.000262648070929572
896.0,-0.0006956469733268023
960.0,1.6166091882041655e-05
1024.0,-0.0002925090666394681
1152.0,-0.00014722082414664328
1280.0,9.555344877298921e-05
1408.0,5.626811253023334e-05
1536.0,-0.00016454819706268609
1664.0,-0.00025555628235451877
1792.0,0.0006312091136351228
1920.0,7.652973727090284e-05
2048.0,3.2623738661641255e-06
2304.0,0.00022910382540430874
2560.0,-2.2191596144693904e-05
2816.0,-0.0003161964996252209
3072.0,-0.00014182593440636992
3328.0,-0.00024933728855103254
3584.0,2.1959289369988255e-05
3840.0,0.00027903696172870696
4096.0,-3.301473043393344e-05
4608.0,-0.000462995667476207
5120.0,-0.0001972723548533395
5632.0,0.0003021101583726704
6144.0,0.0001307244529016316
6656.0,-0.0005260055186226964
7168.0,-0.0004747415950987488
7680.0,-9.234522440237924e-05
8192.0,0.00012936705024912953
9216.0,9.374805085826665e-05
10240.0,2.9727641958743334e-05
11264.0,0.00027925774338655174
12288.0,0.00011351229477440938
13312.0,0.0001669807534199208
14336.0,-0.00013311610382515937
end
