version,3.0
numOfCh,1
type,point
parent_name,100-cuts
ch_type,1_1
kcount,1
numberNandB,1
brightnessNandB,1
carpet pos,0
pc,0
Time (ms),CH1 Auto-Correlation
1.0,0.026336925104260445
2.0,0.02145334519445896
3.0,0.018008816987276077
4.0,0.015242725610733032
5.0,0.013269924558699131
6.0,0.011683915741741657
7.0,0.010378052480518818
8.0,0.009298471733927727
9.0,0.00825654435902834
10.0,0.007533719763159752
11.0,0.006773169618099928
12.0,0.006316827144473791
13.0,0.00584042351692915
14.0,0.005243207793682814
15.0,0.004837315529584885
16.0,0.004559009801596403
18.0,0.0039028888568282127
20.0,0.003273620270192623
22.0,0.002902055624872446
24.0,0.0025580022484064102
26.0,0.0024276047479361296
28.0,0.0021229146514087915
30.0,0.0018720864318311214
32.0,0.001625063712708652
36.0,0.0013404906494542956
40.0,0.0009531302493996918
44.0,0.0002661475446075201
48.0,0.0005143664893694222
52.0,0.0006356329540722072
56.0,0.00029205571627244353
60.0,1.1291906048427336e-05
64.0,-0.00018933469254989177
72.0,-0.00034149843850173056
80.0,6.329375901259482e-05
88.0,0.0004896742757409811
96.0,0.00023409558343701065
104.0,0.0002322625368833542
112.0,8.179470023605973e-05
120.0,-0.00034205455449409783
128.0,-0.0004193757486063987
144.0,0.00038498223875649273
160.0,0.0007105620461516082
176.0,-0.00028729793848469853
192.0,-0.000816767627838999
208.0,0.0002949361514765769
224.0,0.0009787167655304074
240.0,0.0009012605296447873
256.0,0.0008457496296614408
288.0,0.0006835348322056234
320.0,0.0007449949043802917
352.0,0.0005845170235261321
384.0,-0.0005107671022415161
416.0,-0.0003085702774114907
448.0,0.00038811666308902204
480.0,-0.0002050223120022565
512.0,0.00026496456121094525
576.0,-0.0003353353822603822
640.0,-0.00037794772651977837
704.0,-0.0005517812678590417
768.0,-0.0004970869049429893
832.0,-0.00043746299343183637
896.0,-4.0344948502024636e-05
960.0,-0.0005028370069339871
1024.0,-0.00011095178342657164
1152.0,-0.0003848218475468457
1280.0,-0.0001553275651531294
1408.0,0.00022567712585441768
1536.0,-0.00016553574823774397
1664.0,-0.0001280848664464429
1792.0,0.00020653364481404424
1920.0,0.0003499459708109498
2048.0,-0.00031348614720627666
2304.0,-0.00020663347095251083
2560.0,-0.0002305567031726241
2816.0,-7.631422340637073e-05
3072.0,0.00016915042942855507
3328.0,-7.609398744534701e-05
3584.0,-0.00016351661179214716
3840.0,-4.791793253389187e-05
4096.0,-0.0001552254252601415
4608.0,-0.0002981756697408855
5120.0,0.00017551626660861075
5632.0,4.614268982550129e-05
6144.0,8.699703903403133e-05
6656.0,0.00022238367819227278
7168.0,0.0001359864545520395
7680.0,-0.00010712700168369338
8192.0,2.6800438718055375e-05
9216.0,-0.00023029159638099372
10240.0,9.689050784800202e-06
11264.0,0.00015052042726892978
12288.0,-0.00032962707336992025
13312.0,0.00045608184882439673
14336.0,-0.0004058064369019121
end
