version,3.0
numOfCh,1
type,point
parent_name,100-cuts
ch_type,1_1
kcount,1
numberNandB,1
brightnessNandB,1
carpet pos,0
pc,0
Time (ms),CH1 Auto-Correlation
1.0,0.016137002035975456
2.0,0.013257062062621117
3.0,0.011219650506973267
4.0,0.009716412983834743
5.0,0.008397284895181656
6.0,0.007424498908221722
7.0,0.0067141856998205185
8.0,0.006172518245875835
9.0,0.005830458831042051
10.0,0.0054775928147137165
11.0,0.005030977074056864
12.0,0.004776328336447477
13.0,0.004573282320052385
14.0,0.004401498939841986
15.0,0.004117622971534729
16.0,0.003882983000949025
18.0,0.003489029360935092
20.0,0.003167986636981368
22.0,0.0027058350387960672
24.0,0.0022715027444064617
26.0,0.0019320336868986487
28.0,0.0017672113608568907
30.0,0.0016527193365618587
32.0,0.0012998057063668966
36.0,0.0009057804709300399
40.0,0.0007256805547513068
44.0,0.0008640489540994167
48.0,0.0008615967235527933
52.0,0.0006367804016917944
56.0,0.0004801343893632293
60.0,0.0002928255998995155
64.0,0.0004818205488845706
72.0,0.00040643344982527196
80.0,0.00025568928685970604
88.0,-0.0003138811734970659
96.0,-0.0005138209089636803
104.0,-0.0009062130120582879
112.0,-0.0006975580472499132
120.0,-0.0005772729055024683
128.0,-0.0003676271007861942
144.0,-0.00021585127979051322
160.0,-0.00024385294818785042
176.0,0.0004121410602238029
192.0,0.00029040969093330204
208.0,-0.00014427292626351118
224.0,-0.00034069217508658767
240.0,-1.782287290552631e-05
256.0,-5.3907504479866475e-05
288.0,-0.0005585309118032455
320.0,-0.00026573744253255427
352.0,-0.00040672713657841086
384.0,-0.00016621293616481125
416.0,-0.00023006241826806217
448.0,0.00017862464301288128
480.0,9.320447134086862e-05
512.0,0.00027679797494784
576.0,-0.0002910236653406173
640.0,0.00014917351654730737
704.0,-0.00038210439379327
768.0,-0.0005179385771043599
832.0,3.5103137179248733e-06
896.0,0.00019284640438854694
960.0,0.00010382915934314951
1024.0,-0.00011259829625487328
1152.0,0.0002475258079357445
1280.0,0.00041018310002982616
1408.0,-0.0003055655979551375
1536.0,-9.071614476852119e-05
1664.0,-0.00037237422657199204
1792.0,1.5482644812436774e-05
1920.0,-0.00025399390142410994
2048.0,6.87878709868528e-05
2304.0,-0.00019626996072474867
2560.0,-7.011445268290117e-05
2816.0,0.00011692188854794949
3072.0,0.00011463966075098142
3328.0,-4.798737427336164e-05
3584.0,-0.0003415911633055657
3840.0,-1.2131872608733829e-05
4096.0,0.0001962387323146686
4608.0,-1.7672036847216077e-05
5120.0,0.0001857914321590215
5632.0,-0.0003179651394020766
6144.0,0.0002652650873642415
6656.0,-0.00016217851953115314
7168.0,7.076363544911146e-05
7680.0,-0.00010473071597516537
8192.0,0.00010466574167367071
9216.0,2.0797095203306526e-05
10240.0,-0.0001343710464425385
11264.0,2.3168484403868206e-05
12288.0,-1.5580579201923683e-05
13312.0,0.0002165757614420727
14336.0,-0.0002919865946751088
end
