version,3.0
numOfCh,1
type,point
parent_name,100-cuts
ch_type,1_1
kcount,1
numberNandB,1
brightnessNandB,1
carpet pos,0
pc,0
Time (ms),CH1 Auto-Correlation
1.0,0.01711900904774666
2.0,0.014061654917895794
3.0,0.011880049481987953
4.0,0.010321484878659248
5.0,0.00909357238560915
6.0,0.008105184882879257
7.0,0.00737787177786231
8.0,0.006759675685316324
9.0,0.006213451270014048
10.0,0.005812108051031828
11.0,0.005350531078875065
12.0,0.004938296973705292
13.0,0.0045702774077653885
14.0,0.004212008789181709
15.0,0.0039711506105959415
16.0,0.0038679656572639942
18.0,0.0033538497518748045
20.0,0.0032032232265919447
22.0,0.0030405065044760704
24.0,0.002830569865182042
26.0,0.0025451569817960262
28.0,0.002356667537242174
30.0,0.0021315335761755705
32.0,0.0019490686245262623
36.0,0.0015474815154448152
40.0,0.0009927700739353895
44.0,0.0008050710894167423
48.0,0.0008510635234415531
52.0,0.000680993078276515
56.0,0.0006215769099071622
60.0,0.0006619331543333828
64.0,0.00044792486005462706
72.0,0.00022961814829614013
80.0,7.964783435454592e-05
88.0,0.00024691104772500694
96.0,0.00022962034563533962
104.0,0.0004467903054319322
112.0,0.0005953253712505102
120.0,0.00048008860903792083
128.0,0.00016043297364376485
144.0,0.00031887588556855917
160.0,0.00018565429490990937
176.0,0.00041629464249126613
192.0,0.0006867017364129424
208.0,0.0003866381011903286
224.0,-4.155595161137171e-05
240.0,0.00043648830614984035
256.0,-0.00012501308810897171
288.0,-0.00022696921951137483
320.0,-0.000304987101117149
352.0,0.00011597628326853737
384.0,7.301814912352711e-05
416.0,0.00020496630168054253
448.0,9.813173528527841e-05
480.0,-0.00021109227964188904
512.0,0.00021637327154166996
576.0,0.0002091651113005355
640.0,0.00021872726210858673
704.0,-9.594653965905309e-05
768.0,0.0004312830569688231
832.0,0.0001534076000098139
896.0,0.00010888348333537579
960.0,0.00021059965365566313
1024.0,0.00027763808611780405
1152.0,-2.668820343387779e-05
1280.0,-7.8933488111943e-05
1408.0,-0.00014968100003898144
1536.0,-0.0001348385849269107
1664.0,0.00022378316498361528
1792.0,0.00022145941329654306
1920.0,-0.0002377566124778241
2048.0,-0.0004128810833208263
2304.0,-0.0004470626008696854
2560.0,3.671230297186412e-05
2816.0,-0.0005070548504590988
3072.0,-0.00023833097657188773
3328.0,-0.00017430662410333753
3584.0,-0.00033344049006700516
3840.0,-0.0002338499907637015
4096.0,-0.0001418424944858998
4608.0,3.946147262468003e-05
5120.0,0.00041875429451465607
5632.0,0.00033535927650518715
6144.0,0.00011200578592251986
6656.0,0.0001564721023896709
7168.0,-0.00010421895422041416
7680.0,-0.00011886774154845625
8192.0,-8.259084279416129e-05
9216.0,-0.00014251306129153818
10240.0,0.00019521615467965603
11264.0,0.0001694142702035606
12288.0,0.00017199099238496274
13312.0,-0.0002714549482334405
14336.0,-0.00034405358019284904
end
