version,3.0
numOfCh,1
type,point
parent_name,100-cuts
ch_type,1_1
kcount,1
numberNandB,1
brightnessNandB,1
carpet pos,0
pc,0
Time (ms),CH1 Auto-Correlation
1.0,0.01659076288342476
2.0,0.013521170243620872
3.0,0.011419721879065037
4.0,0.009848452173173428
5.0,0.008692716248333454
6.0,0.007844466716051102
7.0,0.007216716650873423
8.0,0.006668101996183395
9.0,0.006225500255823135
10.0,0.005733194760978222
11.0,0.00530580198392272
12.0,0.004908428527414799
13.0,0.004588118754327297
14.0,0.0043794442899525166
15.0,0.004111322574317455
16.0,0.003761372761800885
18.0,0.0033802841790020466
20.0,0.003182678949087858
22.0,0.0028538359329104424
24.0,0.0026339804753661156
26.0,0.00233276654034853
28.0,0.0020069945603609085
30.0,0.0019210384925827384
32.0,0.0018185724038630724
36.0,0.0016156703932210803
40.0,0.0015297068748623133
44.0,0.0013709014747291803
48.0,0.0014298124006018043
52.0,0.0014845478581264615
56.0,0.001765794469974935
60.0,0.0019150041043758392
64.0,0.0019043778302147985
72.0,0.0014766082167625427
80.0,0.0012251387815922499
88.0,0.0011381051735952497
96.0,0.0009164641378447413
104.0,0.0003698222863022238
112.0,0.0001521542144473642
120.0,-0.000202048453502357
128.0,-0.0004895373131148517
144.0,-0.0003364470030646771
160.0,-4.886110400548205e-05
176.0,-9.873540693661198e-05
192.0,-0.000701442826539278
208.0,-0.0004115575284231454
224.0,-0.00044542699470184743
240.0,-0.0003625418175943196
256.0,-9.766037692315876e-05
288.0,-0.0003551717090886086
320.0,-2.8221733373356983e-05
352.0,-0.0004927967092953622
384.0,-0.0002508757170289755
416.0,-3.507195515339845e-06
448.0,-7.462423673132434e-05
480.0,0.00017495443171355873
512.0,2.8087988539482467e-05
576.0,0.0001911944564199075
640.0,0.00032830453710630536
704.0,0.0005682501941919327
768.0,0.00016443670028820634
832.0,-8.525216253474355e-05
896.0,-0.00046241204836405814
960.0,-0.0006021844455972314
1024.0,-0.0001234128139913082
1152.0,-6.150925037218258e-05
1280.0,9.285611304221675e-05
1408.0,0.00013548207061830908
1536.0,-0.0003508131194394082
1664.0,-0.0004894921439699829
1792.0,-8.534945663996041e-05
1920.0,0.0003843889571726322
2048.0,0.00013296332326717675
2304.0,-0.0001871196727734059
2560.0,0.0003438227577134967
2816.0,-7.304886821657419e-05
3072.0,0.00020209762442391366
3328.0,-2.8660730094998144e-05
3584.0,0.00022305830498225987
3840.0,0.00035281505552120507
4096.0,-0.00033913194783963263
4608.0,-5.5838121625129133e-05
5120.0,1.580842763360124e-05
5632.0,2.7117878289573127e-06
6144.0,6.558027962455526e-05
6656.0,-8.849726873449981e-05
7168.0,6.699268124066293e-05
7680.0,-0.00026855812757276
8192.0,-5.1197614084230736e-05
9216.0,-0.00012775021605193615
10240.0,0.00023439220967702568
11264.0,-0.0005045069847255945
12288.0,0.00011310198169667274
13312.0,0.00021312909666448832
14336.0,-0.0005860273959115148
end
