version,3.0
numOfCh,1
type,point
parent_name,100-cuts
ch_type,1_1
kcount,1
numberNandB,1
brightnessNandB,1
carpet pos,0
pc,0
Time (ms),CH1 Auto-Correlation
1.0,0.01691112294793129
2.0,0.013994364067912102
3.0,0.011855170130729675
4.0,0.01031471136957407
5.0,0.00915132462978363
6.0,0.008206055499613285
7.0,0.00743325799703598
8.0,0.006747599225491285
9.0,0.006249550264328718
10.0,0.005793502554297447
11.0,0.005296953953802586
12.0,0.004980849102139473
13.0,0.0046480391174554825
14.0,0.004422536585479975
15.0,0.004286208190023899
16.0,0.004120281897485256
18.0,0.0037896079011261463
20.0,0.0035254149697721004
22.0,0.0032579924445599318
24.0,0.003177314531058073
26.0,0.0030716636683791876
28.0,0.0028879488818347454
30.0,0.0026974256616085768
32.0,0.0026289629749953747
36.0,0.002199785551056266
40.0,0.0022822562605142593
44.0,0.0023271997924894094
48.0,0.0023458050563931465
52.0,0.0019121830118820071
56.0,0.0015296469209715724
60.0,0.0011293902061879635
64.0,0.000636982498690486
72.0,0.000747187586966902
80.0,0.00032846134854480624
88.0,0.0006743187550455332
96.0,0.0005543132429011166
104.0,0.0004860757617279887
112.0,0.0002396784257143736
120.0,-0.00015983615594450384
128.0,-1.550453271192964e-05
144.0,0.00020387354015838355
160.0,-0.0001302627642871812
176.0,-2.9358063329709694e-05
192.0,-0.0004964133258908987
208.0,-0.000316799123538658
224.0,0.00011931651533814147
240.0,0.00022361056471709162
256.0,0.00011270690447418019
288.0,0.0004681213467847556
320.0,0.00045093102380633354
352.0,0.00013202126137912273
384.0,-0.00028764631133526564
416.0,-0.0007824439671821892
448.0,-0.0005515260272659361
480.0,-0.0003205227549187839
512.0,-0.0004129410081077367
576.0,0.00023365781817119569
640.0,0.00014016720524523407
704.0,-0.00013851984112989157
768.0,0.000618262158241123
832.0,0.00018145405920222402
896.0,-0.000384797400329262
960.0,-0.0004958300851285458
1024.0,-0.0007688909536227584
1152.0,-0.0004940198850817978
1280.0,-0.0005589750944636762
1408.0,-0.00010337581625208259
1536.0,0.00036422029370442033
1664.0,-0.00013196979125496
1792.0,-0.00018840801203623414
1920.0,6.445973849622533e-05
2048.0,-0.0002716439194045961
2304.0,6.679740181425586e-05
2560.0,-0.00016122667875606567
2816.0,-7.792117685312405e-05
3072.0,0.00031842614407651126
3328.0,0.00013018223398830742
3584.0,-0.00021902937442064285
3840.0,0.0003147062088828534
4096.0,0.0001673011138336733
4608.0,-5.7702163758222014e-05
5120.0,-0.00017329942784272134
5632.0,2.4124903575284407e-05
6144.0,-7.851306145312265e-05
6656.0,-0.00036605066270567477
7168.0,-6.551929982379079e-05
7680.0,0.00017588998889550567
8192.0,-1.9295268430141732e-05
9216.0,5.1162514864699915e-05
10240.0,-0.00034316277015022933
11264.0,0.00023444872931577265
12288.0,9.566362132318318e-05
13312.0,-0.00015478517161682248
14336.0,0.0001464188244426623
end
