version,3.0
numOfCh,1
type,point
parent_name,100-cuts
ch_type,1_1
kcount,1
numberNandB,1
brightnessNandB,1
carpet pos,0
pc,0
Time (ms),CH1 Auto-Correlation
1.0,0.027020959183573723
2.0,0.022206591442227364
3.0,0.018730342388153076
4.0,0.01620478183031082
5.0,0.01444171741604805
6.0,0.012905281037092209
7.0,0.011774886399507523
8.0,0.010752151720225811
9.0,0.009864944033324718
10.0,0.00907435454428196
11.0,0.008346605114638805
12.0,0.00788066815584898
13.0,0.007352401036769152
14.0,0.006868388969451189
15.0,0.006193510256707668
16.0,0.005718207452446222
18.0,0.005237010307610035
20.0,0.004665772430598736
22.0,0.004358048550784588
24.0,0.004177991300821304
26.0,0.004022195935249329
28.0,0.0037344752345234156
30.0,0.0034166628029197454
32.0,0.0031353880185633898
36.0,0.0031674974597990513
40.0,0.0026182192377746105
44.0,0.0022618111688643694
48.0,0.0021310499869287014
52.0,0.002160722156986594
56.0,0.0019096345640718937
60.0,0.001568199833855033
64.0,0.0017719282768666744
72.0,0.0015617243479937315
80.0,0.0008393054595217109
88.0,0.00038917738129384816
96.0,0.00033153287949971855
104.0,0.0004185558937024325
112.0,0.0004077211779076606
120.0,0.00023175387468654662
128.0,0.0002209851227235049
144.0,-0.00010376041609561071
160.0,-0.0002588601200841367
176.0,0.00025416884454898536
192.0,0.0005747899995185435
208.0,0.0005106786265969276
224.0,0.001351179089397192
240.0,0.001034112530760467
256.0,0.0010884650982916355
288.0,0.001019609859213233
320.0,0.00043933067354373634
352.0,-0.00023608471383340657
384.0,-0.00011372713925084099
416.0,-0.000335544376866892
448.0,-0.0004345034540165216
480.0,0.0004960995283909142
512.0,0.00017250271048396826
576.0,-0.0007829229580238461
640.0,-3.3289907150901854e-05
704.0,-0.000575686281081289
768.0,-0.0008911098120734096
832.0,-0.0004522203525993973
896.0,-0.00021977802680339664
960.0,-0.0004291408695280552
1024.0,-0.00021012518845964223
1152.0,-0.00010095356265082955
1280.0,-4.0192226151702926e-06
1408.0,0.00040601479122415185
1536.0,0.0008636944694444537
1664.0,0.00051714270375669
1792.0,-1.2425521163095254e-05
1920.0,-1.963692920980975e-05
2048.0,-0.000184019110747613
2304.0,0.0007097436464391649
2560.0,0.0006533187697641551
2816.0,-0.000217917695408687
3072.0,-0.00022361789888236672
3328.0,-3.107166776317172e-05
3584.0,0.00011486863513709977
3840.0,0.0001284764293814078
4096.0,-6.668811693089083e-05
4608.0,-0.0001430931588402018
5120.0,-9.438559209229425e-05
5632.0,-6.978188321227208e-05
6144.0,-0.00031965054222382605
6656.0,-0.00025056980666704476
7168.0,-0.000415998772950843
7680.0,-0.00035363691858947277
8192.0,-0.00018064200412482023
9216.0,-0.0005339729832485318
10240.0,4.0185783291235566e-05
11264.0,-0.00029509776504710317
12288.0,0.0002360906801186502
13312.0,0.0001978069922188297
14336.0,0.00031490926630795
end
