version,3.0
numOfCh,1
type,point
parent_name,100-cuts
ch_type,1_1
kcount,1
numberNandB,1
brightnessNandB,1
carpet pos,0
pc,0
Time (ms),CH1 Auto-Correlation
1.0,0.02621067874133587
2.0,0.021243896335363388
3.0,0.017848018556833267
4.0,0.015225902199745178
5.0,0.013381121680140495
6.0,0.012000015005469322
7.0,0.010817554779350758
8.0,0.009794367477297783
9.0,0.008905998431146145
10.0,0.008095105178654194
11.0,0.007467041257768869
12.0,0.006890696939080954
13.0,0.0062033929862082005
14.0,0.005666687153279781
15.0,0.004986091982573271
16.0,0.004457334987819195
18.0,0.003671786282211542
20.0,0.003278465010225773
22.0,0.0029123015701770782
24.0,0.0027217206079512835
26.0,0.0025068887043744326
28.0,0.0024142737966030836
30.0,0.0019595324993133545
32.0,0.001604303834028542
36.0,0.0014131189091131091
40.0,0.0010414801072329283
44.0,0.0008452844922430813
48.0,0.0008412247407250106
52.0,0.0008252738043665886
56.0,0.0009093791013583541
60.0,0.0008275822037830949
64.0,0.0006461135926656425
72.0,0.0003928901278413832
80.0,-0.0004680897400248796
88.0,-0.0003958888410124928
96.0,-0.000379954552045092
104.0,-0.000256525119766593
112.0,0.00014685164205729961
120.0,0.0007339949370361865
128.0,0.0009976954897865653
144.0,0.000426568032708019
160.0,0.0002391998132225126
176.0,2.1035964891780168e-05
192.0,0.0006529043312184513
208.0,0.0004995342460460961
224.0,0.0008853659965097904
240.0,0.0010903921211138368
256.0,0.001172885880805552
288.0,0.00022518115292768925
320.0,-0.0008238245500251651
352.0,-0.0006707796128466725
384.0,-0.00012887864431831986
416.0,0.00024015267263166606
448.0,7.506402471335605e-05
480.0,-1.7213144019478932e-05
512.0,0.00010244026634609327
576.0,0.0006225442630238831
640.0,-0.00022725574672222137
704.0,0.00021290915901772678
768.0,0.00046973483404144645
832.0,0.0002901582047343254
896.0,-0.0005146025214344263
960.0,-0.00047981186071410775
1024.0,0.0003950629325117916
1152.0,-0.00016742519801482558
1280.0,-0.00015741947572678328
1408.0,-0.00031886890064924955
1536.0,-0.00011439335503382608
1664.0,8.69643990881741e-05
1792.0,-0.0004924146924167871
1920.0,-0.000427052698796615
2048.0,-0.0003057516005355865
2304.0,-0.0003157250175718218
2560.0,-0.0003223866515327245
2816.0,-0.000614458869677037
3072.0,-3.9320198993664235e-05
3328.0,0.00010228461178485304
3584.0,0.00021321026724763215
3840.0,0.00014184450265020132
4096.0,0.00024406671582255512
4608.0,0.00014855894551146775
5120.0,0.00035790729452855885
5632.0,-4.882606663159095e-05
6144.0,-0.0002652196562848985
6656.0,-4.549343429971486e-05
7168.0,2.676844633242581e-05
7680.0,-0.0004269624187145382
8192.0,-0.00029879584326408803
9216.0,0.00024083652533590794
10240.0,0.00022757794067729264
11264.0,-9.945586498361081e-05
12288.0,2.2356466615747195e-06
13312.0,-0.00022469702525995672
14336.0,-0.00014098516840022057
end
