version,3.0
numOfCh,1
type,point
parent_name,100-cuts
ch_type,1_1
kcount,1
numberNandB,1
brightnessNandB,1
carpet pos,0
pc,0
Time (ms),CH1 Auto-Correlation
1.0,0.026839379221200943
2.0,0.021724384278059006
3.0,0.018144570291042328
4.0,0.015523952431976795
5.0,0.013505031354725361
6.0,0.011954579502344131
7.0,0.010817304253578186
8.0,0.009696785360574722
9.0,0.008753149770200253
10.0,0.007737819105386734
11.0,0.00709948968142271
12.0,0.006603671703487635
13.0,0.006151420995593071
14.0,0.0058305286802351475
15.0,0.005548621062189341
16.0,0.00524627510458231
18.0,0.00477541983127594
20.0,0.004427153151482344
22.0,0.004221013747155666
24.0,0.0038539450615644455
26.0,0.0035998376552015543
28.0,0.003285348415374756
30.0,0.0028378802817314863
32.0,0.002401158446446061
36.0,0.0019091778667643666
40.0,0.0020226738415658474
44.0,0.001918260590173304
48.0,0.0014429119182750583
52.0,0.0010890485718846321
56.0,0.0012263378594070673
60.0,0.0015013131778687239
64.0,0.0011710469843819737
72.0,0.0006753782508894801
80.0,0.0011863415129482746
88.0,0.0009624101803638041
96.0,0.0002865947026293725
104.0,-5.381023947848007e-05
112.0,-0.00032552139600738883
120.0,-0.00024231993302237242
128.0,-0.00027662902721203864
144.0,0.0001964416733244434
160.0,5.051559128332883e-05
176.0,0.0005661571049131453
192.0,0.0003039343864656985
208.0,-0.000605688604991883
224.0,-0.0006567338132299483
240.0,0.00012207974214106798
256.0,-0.0001256707328138873
288.0,0.0009521081228740513
320.0,0.0010352620156481862
352.0,0.0007787540089339018
384.0,0.0005184917245060205
416.0,0.0005701109184883535
448.0,0.0009348643943667412
480.0,0.0003792273928411305
512.0,-0.0005239645252004266
576.0,0.000739728391636163
640.0,3.5542088880902156e-05
704.0,0.000433352921390906
768.0,0.0005454343627206981
832.0,0.0006306212162598968
896.0,-0.0006429814966395497
960.0,4.9332935304846615e-05
1024.0,0.0003278040385339409
1152.0,0.0005250400281511247
1280.0,-0.00037757365498691797
1408.0,0.000269051844952628
1536.0,-5.229948146734387e-05
1664.0,2.4749977455940098e-05
1792.0,-0.00033809218439273536
1920.0,-0.00043589717824943364
2048.0,-0.0008874702616594732
2304.0,-0.00043958434252999723
2560.0,-0.0004463338409550488
2816.0,-0.0009485401096753776
3072.0,0.00032776326406747103
3328.0,0.00025032024132087827
3584.0,-4.852033453062177e-05
3840.0,1.536794297862798e-05
4096.0,0.0006303584668785334
4608.0,0.00017236472922377288
5120.0,-9.080741619982291e-06
5632.0,-4.609901588992216e-05
6144.0,-0.0005707694799639285
6656.0,-0.0006120213074609637
7168.0,-7.564833504147828e-05
7680.0,-0.0004879112238995731
8192.0,0.0007291144574992359
9216.0,0.0003199921047780663
10240.0,4.2712377762654796e-05
11264.0,2.221088834630791e-05
12288.0,-2.208471232734155e-05
13312.0,-0.00047751591773703694
14336.0,-0.0010429141111671925
end
