version,3.0
numOfCh,1
type,point
parent_name,ff67b_0dot1-0dot1
ch_type,1_1
kcount,1
numberNandB,1
brightnessNandB,1
carpet pos,0
pc,0
Time (ms),CH1 Auto-Correlation
1.0,0.049200013279914856
2.0,0.04875073954463005
3.0,0.048311661928892136
4.0,0.047882288694381714
5.0,0.047461334615945816
6.0,0.047046415507793427
7.0,0.04664468392729759
8.0,0.04626667499542236
9.0,0.04589620605111122
10.0,0.04555056244134903
11.0,0.04521545395255089
12.0,0.044887881726026535
13.0,0.044566310942173004
14.0,0.04424821957945824
15.0,0.04392773285508156
16.0,0.04360395669937134
18.0,0.04297665134072304
20.0,0.042356815189123154
22.0,0.04177527502179146
24.0,0.04121696203947067
26.0,0.040668509900569916
28.0,0.0401444286108017
30.0,0.03964947536587715
32.0,0.039160337299108505
36.0,0.038178954273462296
40.0,0.03722214326262474
44.0,0.03638700768351555
48.0,0.03558223694562912
52.0,0.03473334759473801
56.0,0.033984843641519547
60.0,0.03333637863397598
64.0,0.03276200592517853
72.0,0.031738486140966415
80.0,0.030825115740299225
88.0,0.02991986647248268
96.0,0.029184743762016296
104.0,0.028651047497987747
112.0,0.028082020580768585
120.0,0.02741374634206295
128.0,0.02677254006266594
144.0,0.025289295241236687
160.0,0.02396669238805771
176.0,0.02292463183403015
192.0,0.02171405963599682
208.0,0.020752374082803726
224.0,0.02021033689379692
240.0,0.01986437290906906
256.0,0.01918845623731613
288.0,0.018069053068757057
320.0,0.017432039603590965
352.0,0.017716433852910995
384.0,0.017160918563604355
416.0,0.015124524012207985
448.0,0.012524565681815147
480.0,0.011301456950604916
512.0,0.011682998389005661
576.0,0.011090941727161407
640.0,0.012434584088623524
704.0,0.011952637694776058
768.0,0.012390748597681522
832.0,0.011946316808462143
896.0,0.013334034010767937
960.0,0.014337887987494469
1024.0,0.014157598838210106
1152.0,0.010708975605666637
1280.0,0.007679768372327089
1408.0,0.008358328603208065
1536.0,0.0065382919274270535
1664.0,0.0071326326578855515
1792.0,0.00860834214836359
1920.0,0.004542025737464428
2048.0,0.0015281934756785631
2304.0,0.0011017834767699242
2560.0,-0.00010356785787735134
2816.0,-0.006132683251053095
3072.0,-0.008979628793895245
3328.0,-0.0073219239711761475
3584.0,-0.006934450473636389
3840.0,-0.00847579538822174
4096.0,-0.006351849529892206
4608.0,-0.00815096590667963
5120.0,-0.010176078416407108
5632.0,-0.007429641205817461
6144.0,-0.010550178587436676
6656.0,-0.009303409606218338
7168.0,-0.012591701932251453
7680.0,-0.011522023007273674
8192.0,-0.005568602588027716
end
