version,3.0
numOfCh,1
type,point
parent_name,ff67b_0dot1-0dot1
ch_type,1_1
kcount,1
numberNandB,1
brightnessNandB,1
carpet pos,0
pc,0
Time (ms),CH1 Auto-Correlation
1.0,0.05189545452594757
2.0,0.051373958587646484
3.0,0.05086951702833176
4.0,0.05035063251852989
5.0,0.04985585808753967
6.0,0.04937587305903435
7.0,0.048909977078437805
8.0,0.0484481081366539
9.0,0.048011358827352524
10.0,0.04757820814847946
11.0,0.04716354236006737
12.0,0.046754829585552216
13.0,0.04636586084961891
14.0,0.04600255936384201
15.0,0.045617032796144485
16.0,0.04525027796626091
18.0,0.044524382799863815
20.0,0.043824877589941025
22.0,0.0431949608027935
24.0,0.04259708896279335
26.0,0.04201671481132507
28.0,0.04149249568581581
30.0,0.04098093509674072
32.0,0.040478963404893875
36.0,0.03942539170384407
40.0,0.038477227091789246
44.0,0.037618279457092285
48.0,0.036719296127557755
52.0,0.035762667655944824
56.0,0.03478037565946579
60.0,0.03381692245602608
64.0,0.03299005702137947
72.0,0.0313480980694294
80.0,0.02967672608792782
88.0,0.02823668345808983
96.0,0.026923110708594322
104.0,0.025650374591350555
112.0,0.024281352758407593
120.0,0.023028530180454254
128.0,0.021739579737186432
144.0,0.01964290626347065
160.0,0.01762237586081028
176.0,0.015294068492949009
192.0,0.012913771905004978
208.0,0.011391608975827694
224.0,0.010484166443347931
240.0,0.00962525513023138
256.0,0.0086594857275486
288.0,0.006335912737995386
320.0,0.004671361763030291
352.0,0.003468223847448826
384.0,0.0019268571631982923
416.0,0.0011618934804573655
448.0,0.0002458590897731483
480.0,-0.000954026763793081
512.0,-0.0015877295518293977
576.0,-0.0007491004071198404
640.0,0.0015051879454404116
704.0,0.001923654694110155
768.0,0.0029363178182393312
832.0,0.001698619918897748
896.0,0.00043527683010324836
960.0,0.0011898786760866642
1024.0,0.003400872927159071
1152.0,0.0062368521466851234
1280.0,0.008204319514334202
1408.0,0.00853464100509882
1536.0,0.006856075022369623
1664.0,0.0075798118487000465
1792.0,0.010532796382904053
1920.0,0.006666731089353561
2048.0,0.0033726876135915518
2304.0,0.0006097026052884758
2560.0,-0.003972905222326517
2816.0,-0.002854861319065094
3072.0,0.0010345091577619314
3328.0,0.001627216930501163
3584.0,0.0035983554553240538
3840.0,-0.0013094234745949507
4096.0,-0.003002173500135541
4608.0,-0.004713056609034538
5120.0,-0.006104526109993458
5632.0,-0.0013733095256611705
6144.0,-0.006456773262470961
6656.0,-0.008351537398993969
7168.0,0.0005798101774416864
7680.0,-0.005361591465771198
8192.0,-0.01064460538327694
end
