version,3.0
numOfCh,1
type,point
parent_name,ff67b_0dot1-0dot1
ch_type,1_1
kcount,1
numberNandB,1
brightnessNandB,1
carpet pos,0
pc,0
Time (ms),CH1 Auto-Correlation
1.0,0.04891597107052803
2.0,0.04837477579712868
3.0,0.047840043902397156
4.0,0.04732267186045647
5.0,0.046808093786239624
6.0,0.04631189629435539
7.0,0.045824144035577774
8.0,0.04533509910106659
9.0,0.04484497383236885
10.0,0.044361505657434464
11.0,0.04388127475976944
12.0,0.04340462014079094
13.0,0.0429392084479332
14.0,0.04248974472284317
15.0,0.042038775980472565
16.0,0.04160162806510925
18.0,0.040758900344371796
20.0,0.03996428847312927
22.0,0.03921256214380264
24.0,0.0384974405169487
26.0,0.03778374195098877
28.0,0.03709811717271805
30.0,0.03644413873553276
32.0,0.03581845015287399
36.0,0.03463464230298996
40.0,0.03348482400178909
44.0,0.032407622784376144
48.0,0.03143526613712311
52.0,0.03052370250225067
56.0,0.02976846508681774
60.0,0.02902587503194809
64.0,0.028287967666983604
72.0,0.027055909857153893
80.0,0.025943119078874588
88.0,0.024876724928617477
96.0,0.023810643702745438
104.0,0.02264648675918579
112.0,0.02169952727854252
120.0,0.020650256425142288
128.0,0.019554225727915764
144.0,0.017512483522295952
160.0,0.01592673733830452
176.0,0.014850473962724209
192.0,0.014356550760567188
208.0,0.013166435994207859
224.0,0.011269299313426018
240.0,0.009524304419755936
256.0,0.008553958497941494
288.0,0.007681291550397873
320.0,0.0065289875492453575
352.0,0.004527917131781578
384.0,0.003970925696194172
416.0,0.003165977308526635
448.0,0.0014784036902710795
480.0,0.001456567901186645
512.0,0.001918566762469709
576.0,0.0013792258687317371
640.0,0.0030005096923559904
704.0,0.004129362292587757
768.0,0.005238857585936785
832.0,0.006545929238200188
896.0,0.006184190511703491
960.0,0.004583515226840973
1024.0,0.0020145594608038664
1152.0,0.0011740571353584528
1280.0,0.0015246482798829675
1408.0,0.005327505525201559
1536.0,0.006137373857200146
1664.0,0.0008453485788777471
1792.0,-0.000542106106877327
1920.0,-0.0003203919914085418
2048.0,-0.0006749648600816727
2304.0,0.002013223711401224
2560.0,-0.0015685285907238722
2816.0,-0.0019483632640913129
3072.0,-0.0019570982549339533
3328.0,-0.00865692738443613
3584.0,-0.008186795748770237
3840.0,0.00014291163824964315
4096.0,0.002306973095983267
4608.0,-0.0008618161082267761
5120.0,-0.005857417359948158
5632.0,-0.009750794619321823
6144.0,-0.0007866167579777539
6656.0,-0.005881309509277344
7168.0,-0.0019174667540937662
7680.0,-0.01232877653092146
8192.0,0.004647395107895136
end
