version,3.0
numOfCh,1
type,point
parent_name,ff67b_0dot1-0dot1
ch_type,1_1
kcount,1
numberNandB,1
brightnessNandB,1
carpet pos,0
pc,0
Time (ms),CH1 Auto-Correlation
1.0,0.04064374044537544
2.0,0.040058434009552
3.0,0.03947606310248375
4.0,0.038905274122953415
5.0,0.03836110979318619
6.0,0.037821631878614426
7.0,0.03729109838604927
8.0,0.03677703067660332
9.0,0.03628184273838997
10.0,0.035806700587272644
11.0,0.035352256149053574
12.0,0.03491164743900299
13.0,0.03447064757347107
14.0,0.034005530178546906
15.0,0.033552516251802444
16.0,0.0331278033554554
18.0,0.03233722969889641
20.0,0.031630828976631165
22.0,0.030951064079999924
24.0,0.030287718400359154
26.0,0.029679425060749054
28.0,0.029088681563735008
30.0,0.02850419096648693
32.0,0.027941467240452766
36.0,0.026894275099039078
40.0,0.025890203192830086
44.0,0.024975594133138657
48.0,0.024092260748147964
52.0,0.023229628801345825
56.0,0.02241140604019165
60.0,0.02151450328528881
64.0,0.020490586757659912
72.0,0.018753619864583015
80.0,0.01759430393576622
88.0,0.016635052859783173
96.0,0.015602256171405315
104.0,0.014474038034677505
112.0,0.01354970782995224
120.0,0.012871953658759594
128.0,0.012178735807538033
144.0,0.011103003285825253
160.0,0.010124622844159603
176.0,0.010273107327520847
192.0,0.011126414872705936
208.0,0.011429653503000736
224.0,0.011011934839189053
240.0,0.010006303898990154
256.0,0.008950688876211643
288.0,0.007384462747722864
320.0,0.005852687172591686
352.0,0.0039510722272098064
384.0,0.0017932744231075048
416.0,0.0007074536988511682
448.0,-0.00010494102753000334
480.0,-0.0012443087762221694
512.0,-0.0018408276373520494
576.0,-0.00033950115903280675
640.0,0.0002366259868722409
704.0,-0.0015678335912525654
768.0,-0.0018659215420484543
832.0,-0.0022664498537778854
896.0,-0.002443895908072591
960.0,-0.001653061481192708
1024.0,-0.0020069433376193047
1152.0,-0.0028772978112101555
1280.0,-0.0006605536327697337
1408.0,-0.0050610885955393314
1536.0,-0.0012400022242218256
1664.0,0.00039215738070197403
1792.0,-0.0022037026938050985
1920.0,-0.0023912559263408184
2048.0,-0.002656509866937995
2304.0,-0.0013496804749593139
2560.0,-0.0018009780906140804
2816.0,0.001519153593108058
3072.0,0.005325598642230034
3328.0,0.003681059228256345
3584.0,-0.000791899103205651
3840.0,0.00045237274025566876
4096.0,-0.002223902614787221
4608.0,-0.0018478999845683575
5120.0,0.0022868579253554344
5632.0,0.001124180038459599
6144.0,-0.003163109067827463
6656.0,-0.002390046836808324
7168.0,-0.009785591624677181
7680.0,-0.0052841720171272755
8192.0,0.005808663088828325
end
