version,3.0
numOfCh,1
type,point
parent_name,ff67b_0dot1-0dot1
ch_type,1_1
kcount,1
numberNandB,1
brightnessNandB,1
carpet pos,0
pc,0
Time (ms),CH1 Auto-Correlation
1.0,0.045426446944475174
2.0,0.04486727714538574
3.0,0.044325727969408035
4.0,0.04379521310329437
5.0,0.043303146958351135
6.0,0.042808420956134796
7.0,0.042342692613601685
8.0,0.04187411069869995
9.0,0.04140543192625046
10.0,0.04096391052007675
11.0,0.04053642228245735
12.0,0.040119718760252
13.0,0.03971235454082489
14.0,0.03931017965078354
15.0,0.03891988471150398
16.0,0.03854919970035553
18.0,0.037785157561302185
20.0,0.037011031061410904
22.0,0.03626808524131775
24.0,0.03551613911986351
26.0,0.03477723151445389
28.0,0.034068286418914795
30.0,0.03338785842061043
32.0,0.03272353857755661
36.0,0.03153346851468086
40.0,0.03049415722489357
44.0,0.029507746919989586
48.0,0.02852914109826088
52.0,0.027542877942323685
56.0,0.026622261852025986
60.0,0.025680311024188995
64.0,0.02473372034728527
72.0,0.023095877841114998
80.0,0.021656619384884834
88.0,0.020245039835572243
96.0,0.018941400572657585
104.0,0.017844174057245255
112.0,0.01679789088666439
120.0,0.015774115920066833
128.0,0.014561696909368038
144.0,0.012958342209458351
160.0,0.011935719288885593
176.0,0.010836089961230755
192.0,0.00971322599798441
208.0,0.008523873053491116
224.0,0.007383300457149744
240.0,0.006424590479582548
256.0,0.005797089543193579
288.0,0.005820071790367365
320.0,0.00467991828918457
352.0,0.0031473487615585327
384.0,0.0015035702381283045
416.0,-0.001292889122851193
448.0,-0.0020338473841547966
480.0,-0.002032326301559806
512.0,-0.0019336412660777569
576.0,-0.0017350113485008478
640.0,-0.0020359638147056103
704.0,0.0004253583902027458
768.0,0.0010451368289068341
832.0,0.0019880509935319424
896.0,0.005349552724510431
960.0,0.008892688900232315
1024.0,0.00827934592962265
1152.0,0.003108478616923094
1280.0,0.0002182047173846513
1408.0,-0.004553883336484432
1536.0,-0.006058756727725267
1664.0,-0.0054054479114711285
1792.0,-0.0002662704500835389
1920.0,0.004062032792717218
2048.0,0.010131925344467163
2304.0,0.005376235116273165
2560.0,0.0020780526101589203
2816.0,0.005687566939741373
3072.0,0.00982646830379963
3328.0,0.0005941246054135263
3584.0,-0.0075684478506445885
3840.0,-0.004474692512303591
4096.0,0.001963338814675808
4608.0,-0.0022715935483574867
5120.0,0.0020142639987170696
5632.0,0.001031618332490325
6144.0,-0.0034229715820401907
6656.0,-0.008716091513633728
7168.0,-0.007415730506181717
7680.0,-0.002520268317312002
8192.0,-0.0005764254601672292
end
