version,3.0
numOfCh,1
type,point
parent_name,ff67b_0dot1-0dot1
ch_type,1_1
kcount,1
numberNandB,1
brightnessNandB,1
carpet pos,0
pc,0
Time (ms),CH1 Auto-Correlation
1.0,0.05038793757557869
2.0,0.049877021461725235
3.0,0.04938632622361183
4.0,0.0488918237388134
5.0,0.04841245338320732
6.0,0.04795253649353981
7.0,0.04748445004224777
8.0,0.047043267637491226
9.0,0.046600498259067535
10.0,0.04617512226104736
11.0,0.045749083161354065
12.0,0.04533591866493225
13.0,0.04494984820485115
14.0,0.044587764889001846
15.0,0.04423769935965538
16.0,0.043905239552259445
18.0,0.043260663747787476
20.0,0.04264812171459198
22.0,0.042046479880809784
24.0,0.0414300300180912
26.0,0.040825147181749344
28.0,0.04024741053581238
30.0,0.03969058766961098
32.0,0.03912687301635742
36.0,0.03809110075235367
40.0,0.03713680058717728
44.0,0.03626779466867447
48.0,0.03549201041460037
52.0,0.034703757613897324
56.0,0.033892106264829636
60.0,0.03303857147693634
64.0,0.032238204032182693
72.0,0.030872246250510216
80.0,0.029639827087521553
88.0,0.02862205170094967
96.0,0.0278497152030468
104.0,0.027193672955036163
112.0,0.02646183781325817
120.0,0.025655200704932213
128.0,0.02492140419781208
144.0,0.02387097291648388
160.0,0.0232444629073143
176.0,0.022355491295456886
192.0,0.021014980971813202
208.0,0.019641101360321045
224.0,0.018743734806776047
240.0,0.017666159197688103
256.0,0.016756998375058174
288.0,0.015626635402441025
320.0,0.01368762832134962
352.0,0.0118459677323699
384.0,0.009834171272814274
416.0,0.008581520058214664
448.0,0.007931063883006573
480.0,0.0068285176530480385
512.0,0.006792726460844278
576.0,0.005693188868463039
640.0,0.005699506029486656
704.0,0.007548382971435785
768.0,0.007929312065243721
832.0,0.007024386897683144
896.0,0.005842769518494606
960.0,0.004173965658992529
1024.0,0.0020028515718877316
1152.0,-0.0026361877098679543
1280.0,-0.0038151368498802185
1408.0,-0.004594233352690935
1536.0,-0.003030089195817709
1664.0,-0.0033999786246567965
1792.0,-0.0029283619951456785
1920.0,-0.0026033413596451283
2048.0,-0.0031099976040422916
2304.0,-0.0051735867746174335
2560.0,-0.00571992015466094
2816.0,-0.005629589781165123
3072.0,-0.000564724497962743
3328.0,0.0003021340526174754
3584.0,0.004339978098869324
3840.0,0.00497411098331213
4096.0,0.004112944006919861
4608.0,-0.003228625748306513
5120.0,-0.0035212941002100706
5632.0,-0.001429484924301505
6144.0,-0.002017578575760126
6656.0,-0.0026846695691347122
7168.0,0.0010615808423608541
7680.0,-0.0028178084176033735
8192.0,-0.012366908602416515
end
