version,3.0
numOfCh,1
type,point
parent_name,ff67b_0dot1-0dot1
ch_type,1_1
kcount,1
numberNandB,1
brightnessNandB,1
carpet pos,0
pc,0
Time (ms),CH1 Auto-Correlation
1.0,0.054335564374923706
2.0,0.053623516112565994
3.0,0.05293697118759155
4.0,0.05224965512752533
5.0,0.0516100637614727
6.0,0.050986144691705704
7.0,0.05037250742316246
8.0,0.04981306567788124
9.0,0.049300119280815125
10.0,0.04878309369087219
11.0,0.04827282205224037
12.0,0.047777000814676285
13.0,0.04729504883289337
14.0,0.04682309925556183
15.0,0.04632634297013283
16.0,0.04583517462015152
18.0,0.044910091906785965
20.0,0.04399455338716507
22.0,0.04312862828373909
24.0,0.04233979433774948
26.0,0.0415758453309536
28.0,0.040817201137542725
30.0,0.040120482444763184
32.0,0.039461586624383926
36.0,0.038131989538669586
40.0,0.03681059554219246
44.0,0.03559813275933266
48.0,0.03444730117917061
52.0,0.03332315385341644
56.0,0.03239359334111214
60.0,0.03163272142410278
64.0,0.030860673636198044
72.0,0.029663924127817154
80.0,0.02912551909685135
88.0,0.028792843222618103
96.0,0.028449855744838715
104.0,0.02797617018222809
112.0,0.027365069836378098
120.0,0.02671895921230316
128.0,0.025921372696757317
144.0,0.02479695901274681
160.0,0.02375081181526184
176.0,0.022596867755055428
192.0,0.021650608628988266
208.0,0.02116342820227146
224.0,0.02073780447244644
240.0,0.020152239128947258
256.0,0.0197269469499588
288.0,0.0182506013661623
320.0,0.01591278426349163
352.0,0.01348003838211298
384.0,0.01176757924258709
416.0,0.01079756673425436
448.0,0.00946989469230175
480.0,0.008595355786383152
512.0,0.008399013429880142
576.0,0.008439909666776657
640.0,0.006348764523863792
704.0,0.006120583973824978
768.0,0.005482387263327837
832.0,0.003170302137732506
896.0,0.0005809411522932351
960.0,-0.0019658782985061407
1024.0,-0.0038125249557197094
1152.0,-0.006539273075759411
1280.0,-0.006838234141469002
1408.0,-0.008806655183434486
1536.0,-0.010793754830956459
1664.0,-0.010910059325397015
1792.0,-0.009678930044174194
1920.0,-0.008968264795839787
2048.0,-0.009774367325007915
2304.0,-0.01148902252316475
2560.0,-0.007600848097354174
2816.0,-0.0032045943662524223
3072.0,-0.0013669501058757305
3328.0,0.003372332314029336
3584.0,0.008185811340808868
3840.0,0.0075104753486812115
4096.0,0.0037107213865965605
4608.0,0.0034169231075793505
5120.0,-0.0033746773842722178
5632.0,-0.015161877498030663
6144.0,-0.011941197328269482
6656.0,-0.0010609714081510901
7168.0,0.0013994600158184767
7680.0,0.00496590556576848
8192.0,0.011144310235977173
end
