version,3.0
numOfCh,1
type,point
parent_name,ff67b_0dot1-0dot1
ch_type,1_1
kcount,1
numberNandB,1
brightnessNandB,1
carpet pos,0
pc,0
Time (ms),CH1 Auto-Correlation
1.0,0.07528654485940933
2.0,0.07445637881755829
3.0,0.07366969436407089
4.0,0.07293514162302017
5.0,0.07220841944217682
6.0,0.07151754200458527
7.0,0.07086973637342453
8.0,0.07024519890546799
9.0,0.06968946009874344
10.0,0.06917224079370499
11.0,0.06862953305244446
12.0,0.06808057427406311
13.0,0.06757820397615433
14.0,0.06706661731004715
15.0,0.06657993793487549
16.0,0.06609150022268295
18.0,0.06498699635267258
20.0,0.06398781388998032
22.0,0.06309449672698975
24.0,0.062224119901657104
26.0,0.06133164092898369
28.0,0.06045733392238617
30.0,0.059676747769117355
32.0,0.05890163779258728
36.0,0.0573713593184948
40.0,0.05603752285242081
44.0,0.054759781807661057
48.0,0.05355488881468773
52.0,0.05226856842637062
56.0,0.050915151834487915
60.0,0.0494936965405941
64.0,0.04835589602589607
72.0,0.04649517312645912
80.0,0.04470730945467949
88.0,0.043090980499982834
96.0,0.04125912860035896
104.0,0.03923552855849266
112.0,0.037439167499542236
120.0,0.03613214194774628
128.0,0.03520834445953369
144.0,0.03285256028175354
160.0,0.0305109191685915
176.0,0.0286942720413208
192.0,0.027224797755479813
208.0,0.02667737379670143
224.0,0.026443012058734894
240.0,0.025948289781808853
256.0,0.025448957458138466
288.0,0.022696396335959435
320.0,0.020090993493795395
352.0,0.0174851231276989
384.0,0.014512197114527225
416.0,0.011505497619509697
448.0,0.007952352054417133
480.0,0.0028799239080399275
512.0,-0.0001804108323995024
576.0,-0.0013159348163753748
640.0,-0.0021034623496234417
704.0,-0.0029919082298874855
768.0,-0.004198390990495682
832.0,-0.005436928942799568
896.0,-0.007081449963152409
960.0,-0.009802142158150673
1024.0,-0.011156387627124786
1152.0,-0.0019909553229808807
1280.0,0.004591428674757481
1408.0,0.00799188669770956
1536.0,0.005636271089315414
1664.0,0.0018830870976671576
1792.0,-0.0022212304174900055
1920.0,-0.0005361625808291137
2048.0,-0.0012890809448435903
2304.0,-0.00786528829485178
2560.0,-0.013721095398068428
2816.0,-0.01209665834903717
3072.0,-0.007580754347145557
3328.0,0.0007536277989856899
3584.0,0.00450701592490077
3840.0,0.00421931454911828
4096.0,0.00475283432751894
4608.0,0.006086572539061308
5120.0,-0.005372204817831516
5632.0,0.00394862238317728
6144.0,0.003378647845238447
6656.0,-0.027650048956274986
7168.0,-0.023935066536068916
7680.0,-0.004004884511232376
8192.0,0.003798816120252013
end
