version,3.0
numOfCh,1
type,point
parent_name,ff67b_0dot1-0dot1
ch_type,1_1
kcount,1
numberNandB,1
brightnessNandB,1
carpet pos,0
pc,0
Time (ms),CH1 Auto-Correlation
1.0,0.048142898827791214
2.0,0.04753430560231209
3.0,0.0469447486102581
4.0,0.04636969417333603
5.0,0.045828647911548615
6.0,0.04530971497297287
7.0,0.04480938985943794
8.0,0.044312216341495514
9.0,0.043845679610967636
10.0,0.04339715465903282
11.0,0.04295964166522026
12.0,0.04252266138792038
13.0,0.04209257289767265
14.0,0.04165838658809662
15.0,0.04124222695827484
16.0,0.040832675993442535
18.0,0.04004791006445885
20.0,0.03929956629872322
22.0,0.03859042003750801
24.0,0.03791290894150734
26.0,0.037231843918561935
28.0,0.036550506949424744
30.0,0.03588882088661194
32.0,0.0352647565305233
36.0,0.03409077599644661
40.0,0.03293590620160103
44.0,0.03180631622672081
48.0,0.030705157667398453
52.0,0.029784036800265312
56.0,0.028914600610733032
60.0,0.028049124404788017
64.0,0.02716057561337948
72.0,0.025525953620672226
80.0,0.023997323587536812
88.0,0.02267668955028057
96.0,0.02132059819996357
104.0,0.020066866651177406
112.0,0.01889071986079216
120.0,0.017620643600821495
128.0,0.016379842534661293
144.0,0.014457467012107372
160.0,0.012354270555078983
176.0,0.01030772365629673
192.0,0.00857457797974348
208.0,0.0074990238063037395
224.0,0.007307020947337151
240.0,0.007414093241095543
256.0,0.007995039224624634
288.0,0.009353818371891975
320.0,0.009688668884336948
352.0,0.010667020455002785
384.0,0.010672063566744328
416.0,0.009553493931889534
448.0,0.008362296037375927
480.0,0.008181087672710419
512.0,0.008311411365866661
576.0,0.006658689118921757
640.0,0.005507963243871927
704.0,0.003429511096328497
768.0,0.0032231947407126427
832.0,0.0031982611399143934
896.0,0.0013956017792224884
960.0,-0.0020702185574918985
1024.0,-0.004003988578915596
1152.0,-0.00210739322938025
1280.0,-0.00013942993246018887
1408.0,0.0016153630567714572
1536.0,-0.002412999514490366
1664.0,-0.0059399413876235485
1792.0,-0.0067376443184912205
1920.0,-0.008562530390918255
2048.0,-0.008055862970650196
2304.0,-0.010979213751852512
2560.0,-0.00845013465732336
2816.0,-0.004797005094587803
3072.0,-0.004623221233487129
3328.0,-0.004076455719769001
3584.0,-0.0006586671806871891
3840.0,-0.002506909193471074
4096.0,0.0019317534752190113
4608.0,0.005226890556514263
5120.0,0.003066709265112877
5632.0,0.0012915824772790074
6144.0,-0.0005457314546220005
6656.0,-0.0024940036237239838
7168.0,0.001831645960919559
7680.0,0.004366999492049217
8192.0,0.0008663919288665056
end
