version,3.0
numOfCh,1
type,point
parent_name,ff67b_0dot1-0dot1
ch_type,1_1
kcount,1
numberNandB,1
brightnessNandB,1
carpet pos,0
pc,0
Time (ms),CH1 Auto-Correlation
1.0,0.059311747550964355
2.0,0.05802610516548157
3.0,0.05676693096756935
4.0,0.05561356619000435
5.0,0.054447438567876816
6.0,0.05329311266541481
7.0,0.05215588957071304
8.0,0.05095408111810684
9.0,0.04984617233276367
10.0,0.048811547458171844
11.0,0.04787369817495346
12.0,0.04705873131752014
13.0,0.0466298907995224
14.0,0.04622281715273857
15.0,0.045840129256248474
16.0,0.04542787745594978
18.0,0.044599853456020355
20.0,0.04375302791595459
22.0,0.04298652708530426
24.0,0.042310621589422226
26.0,0.04161687195301056
28.0,0.040851712226867676
30.0,0.04001600667834282
32.0,0.0392213799059391
36.0,0.03760179132223129
40.0,0.036075789481401443
44.0,0.03481868654489517
48.0,0.033627234399318695
52.0,0.03229636326432228
56.0,0.0308135487139225
60.0,0.029563672840595245
64.0,0.0283778365701437
72.0,0.025353502482175827
80.0,0.02313217520713806
88.0,0.021303236484527588
96.0,0.01947566121816635
104.0,0.01769556850194931
112.0,0.016542552039027214
120.0,0.0157038364559412
128.0,0.015007952228188515
144.0,0.013697323389351368
160.0,0.012995400466024876
176.0,0.012141384184360504
192.0,0.011464405804872513
208.0,0.011637740768492222
224.0,0.012143933214247227
240.0,0.013009379617869854
256.0,0.013399596326053143
288.0,0.010997411794960499
320.0,0.009164433926343918
352.0,0.008180845528841019
384.0,0.00882741529494524
416.0,0.010112161748111248
448.0,0.010130837559700012
480.0,0.008909344673156738
512.0,0.006387658882886171
576.0,0.004289769101887941
640.0,0.005943747237324715
704.0,0.008509615436196327
768.0,0.009001418016850948
832.0,0.009193646721541882
896.0,0.0065278648398816586
960.0,0.004471064545214176
1024.0,0.0035641281865537167
1152.0,0.0031568347476422787
1280.0,-0.0031142355874180794
1408.0,-0.003840808756649494
1536.0,-0.002136910567060113
1664.0,-0.0036942327860742807
1792.0,-0.004081450868397951
1920.0,-0.00253617437556386
2048.0,-0.0018482819432392716
2304.0,-0.0011445623822510242
2560.0,-0.0035161024425178766
2816.0,-0.00470407959073782
3072.0,0.0004021052736788988
3328.0,-0.0022534250747412443
3584.0,-0.008568806573748589
3840.0,-0.0042816209606826305
4096.0,0.0010643493151292205
4608.0,-0.004670259077101946
5120.0,-0.004942102823406458
5632.0,-0.0030992194078862667
6144.0,-0.008170787245035172
6656.0,-0.005459470208734274
7168.0,-0.0008170537184923887
7680.0,-0.00015306232671719044
8192.0,0.00492720166221261
end
