version,3.0
numOfCh,1
type,point
parent_name,ff67b_0dot1-0dot1
ch_type,1_1
kcount,1
numberNandB,1
brightnessNandB,1
carpet pos,0
pc,0
Time (ms),CH1 Auto-Correlation
1.0,0.04458991438150406
2.0,0.04401872679591179
3.0,0.04348694533109665
4.0,0.042968619614839554
5.0,0.04246668890118599
6.0,0.041963230818510056
7.0,0.0414840504527092
8.0,0.0410015769302845
9.0,0.04051004722714424
10.0,0.04004161059856415
11.0,0.03957557678222656
12.0,0.03909057006239891
13.0,0.03863168880343437
14.0,0.0381874144077301
15.0,0.03775620460510254
16.0,0.03734055534005165
18.0,0.03654802218079567
20.0,0.035758599638938904
22.0,0.03496703878045082
24.0,0.034214384853839874
26.0,0.03349369391798973
28.0,0.03282054513692856
30.0,0.03223298862576485
32.0,0.0316368006169796
36.0,0.030428510159254074
40.0,0.029339401051402092
44.0,0.028353098779916763
48.0,0.027508629485964775
52.0,0.02678072825074196
56.0,0.02605728805065155
60.0,0.025393029674887657
64.0,0.024751098826527596
72.0,0.02366352640092373
80.0,0.022708555683493614
88.0,0.02161295711994171
96.0,0.02044471725821495
104.0,0.019318215548992157
112.0,0.01825745403766632
120.0,0.01754983328282833
128.0,0.01681552454829216
144.0,0.015163333155214787
160.0,0.013788680545985699
176.0,0.012352630496025085
192.0,0.010677511803805828
208.0,0.009182928130030632
224.0,0.007796243764460087
240.0,0.006752346642315388
256.0,0.005122008733451366
288.0,0.0024749429430812597
320.0,0.0013194447383284569
352.0,0.00047509261639788747
384.0,-0.00027773305191658437
416.0,-0.00041108945151790977
448.0,0.00042613918776623905
480.0,0.0005824833642691374
512.0,3.4225720355607336e-06
576.0,0.0011340666096657515
640.0,0.003191906027495861
704.0,0.003856734838336706
768.0,0.0029798736795783043
832.0,0.002883255947381258
896.0,0.004291846416890621
960.0,0.006214108318090439
1024.0,0.006263874936848879
1152.0,0.0024810079485177994
1280.0,-0.0008715087897144258
1408.0,-0.0007530847797170281
1536.0,0.004452874884009361
1664.0,0.004235763568431139
1792.0,0.0038944671396166086
1920.0,0.0005467967712320387
2048.0,-0.002132897498086095
2304.0,-0.002725271275267005
2560.0,-0.004858973436057568
2816.0,-0.0025543218944221735
3072.0,-0.004357413854449987
3328.0,-0.001469503273256123
3584.0,-0.0034192069433629513
3840.0,-0.003378281369805336
4096.0,0.0016204699641093612
4608.0,0.0004644888686016202
5120.0,-0.004412434529513121
5632.0,-0.004199674818664789
6144.0,-0.0057722702622413635
6656.0,-0.0043844361789524555
7168.0,-0.00701149832457304
7680.0,-0.0013113885652273893
8192.0,0.004576272796839476
end
