version,3.0
numOfCh,1
type,point
parent_name,ff67b_0dot1-0dot1
ch_type,1_1
kcount,1
numberNandB,1
brightnessNandB,1
carpet pos,0
pc,0
Time (ms),CH1 Auto-Correlation
1.0,0.0521719790995121
2.0,0.05163809657096863
3.0,0.05112585052847862
4.0,0.05062700808048248
5.0,0.050121009349823
6.0,0.049623336642980576
7.0,0.049137797206640244
8.0,0.04864991083741188
9.0,0.04817581921815872
10.0,0.04772506281733513
11.0,0.04727882891893387
12.0,0.046857863664627075
13.0,0.04645456001162529
14.0,0.046048860996961594
15.0,0.04564473778009415
16.0,0.045243848115205765
18.0,0.04445805773139
20.0,0.04368531331419945
22.0,0.042936209589242935
24.0,0.04221448302268982
26.0,0.04149653762578964
28.0,0.040796663612127304
30.0,0.040062252432107925
32.0,0.039343174546957016
36.0,0.03798441216349602
40.0,0.03675328567624092
44.0,0.0356142520904541
48.0,0.03443426638841629
52.0,0.03324117511510849
56.0,0.0320655032992363
60.0,0.030996138229966164
64.0,0.03005896881222725
72.0,0.028347285464406013
80.0,0.02697870135307312
88.0,0.02585512399673462
96.0,0.02485918626189232
104.0,0.02409237250685692
112.0,0.02330700308084488
120.0,0.022485783323645592
128.0,0.021776851266622543
144.0,0.020254334434866905
160.0,0.019484462216496468
176.0,0.01888628676533699
192.0,0.018312247470021248
208.0,0.017667125910520554
224.0,0.017196960747241974
240.0,0.016637777909636497
256.0,0.01611386053264141
288.0,0.014398127794265747
320.0,0.01148973684757948
352.0,0.008686376735568047
384.0,0.006178690120577812
416.0,0.0036322791129350662
448.0,0.000686438346747309
480.0,-0.0002733493165578693
512.0,-9.092398249777034e-05
576.0,0.002020557876676321
640.0,0.0057212295942008495
704.0,0.00577606912702322
768.0,0.00626764539629221
832.0,0.008625584654510021
896.0,0.011613552458584309
960.0,0.011311584152281284
1024.0,0.011029982008039951
1152.0,0.007028707768768072
1280.0,0.0006742612458765507
1408.0,-0.0011874425690621138
1536.0,-0.0029897678177803755
1664.0,-0.000579851504880935
1792.0,-0.001474361284635961
1920.0,-0.0003301355172879994
2048.0,-0.003562341211363673
2304.0,-0.00400566728785634
2560.0,-6.694078911095858e-05
2816.0,-0.0018254558090120554
3072.0,-0.004091475624591112
3328.0,-0.0020403345115482807
3584.0,-0.0010191883193328977
3840.0,0.00037870873347856104
4096.0,-0.0001989532174775377
4608.0,-0.003130159107968211
5120.0,-0.0024571784306317568
5632.0,-0.004869281314313412
6144.0,-0.003208257257938385
6656.0,-0.008196374401450157
7168.0,-0.005020707380026579
7680.0,-0.003545365296304226
8192.0,-0.003671406302601099
end
