version,3.0
numOfCh,1
type,point
parent_name,ff67b_0dot1-0dot1
ch_type,1_1
kcount,1
numberNandB,1
brightnessNandB,1
carpet pos,0
pc,0
Time (ms),CH1 Auto-Correlation
1.0,0.05750042945146561
2.0,0.0570114366710186
3.0,0.0565362274646759
4.0,0.05607134848833084
5.0,0.05561991408467293
6.0,0.055160943418741226
7.0,0.054717306047677994
8.0,0.054284125566482544
9.0,0.05383700877428055
10.0,0.05338502302765846
11.0,0.052947673946619034
12.0,0.05251007154583931
13.0,0.05209456384181976
14.0,0.05168827250599861
15.0,0.05127868056297302
16.0,0.05086281895637512
18.0,0.05005709454417229
20.0,0.04927043616771698
22.0,0.04849972948431969
24.0,0.04772339388728142
26.0,0.04697263240814209
28.0,0.04624633118510246
30.0,0.045513175427913666
32.0,0.04479868710041046
36.0,0.04346418380737305
40.0,0.04217308759689331
44.0,0.040904562920331955
48.0,0.03970443084836006
52.0,0.03855083882808685
56.0,0.03748045116662979
60.0,0.036521803587675095
64.0,0.03563033416867256
72.0,0.03382890298962593
80.0,0.032052915543317795
88.0,0.030467819422483444
96.0,0.02901274710893631
104.0,0.027506647631525993
112.0,0.02601642906665802
120.0,0.024619746953248978
128.0,0.023302141577005386
144.0,0.021129151806235313
160.0,0.019594622775912285
176.0,0.018544882535934448
192.0,0.01724333129823208
208.0,0.016118749976158142
224.0,0.015517529100179672
240.0,0.015208917669951916
256.0,0.015321911312639713
288.0,0.015248446725308895
320.0,0.014541161246597767
352.0,0.01391506101936102
384.0,0.012630727142095566
416.0,0.010964022018015385
448.0,0.009115615859627724
480.0,0.007474980782717466
512.0,0.006723783910274506
576.0,0.0065694949589669704
640.0,0.0067620486952364445
704.0,0.006148226093500853
768.0,0.00424894830211997
832.0,0.0012121590552851558
896.0,-2.27216678467812e-05
960.0,0.0009220391511917114
1024.0,0.0016888328827917576
1152.0,-0.0012741972459480166
1280.0,0.0007951069856062531
1408.0,0.00048773642629384995
1536.0,-0.004055568482726812
1664.0,-0.002491249470040202
1792.0,-0.00030368694569915533
1920.0,-0.0012228769483044744
2048.0,0.0024369824677705765
2304.0,0.0040325578302145
2560.0,0.005578421521931887
2816.0,0.009001253172755241
3072.0,0.004391721449792385
3328.0,-0.0016650186153128743
3584.0,-0.0061907642520964146
3840.0,-0.0049158791080117226
4096.0,0.00430458365008235
4608.0,0.0012286490527912974
5120.0,0.006452695466578007
5632.0,0.0006768036400899291
6144.0,0.0019503034418448806
6656.0,-0.013498030602931976
7168.0,-0.003348708851262927
7680.0,-0.0024533462710678577
8192.0,0.005642338190227747
end
