version,3.0
numOfCh,1
type,point
parent_name,ff67b_0dot1-0dot1
ch_type,1_1
kcount,1
numberNandB,1
brightnessNandB,1
carpet pos,0
pc,0
Time (ms),CH1 Auto-Correlation
1.0,0.060325779020786285
2.0,0.0598442517220974
3.0,0.05937324836850166
4.0,0.05891873314976692
5.0,0.05847139656543732
6.0,0.058032192289829254
7.0,0.05760464444756508
8.0,0.05718941241502762
9.0,0.05678698793053627
10.0,0.056388381868600845
11.0,0.05599141865968704
12.0,0.05559956282377243
13.0,0.05522745102643967
14.0,0.05486631765961647
15.0,0.05451350659132004
16.0,0.05416753888130188
18.0,0.053496938198804855
20.0,0.0528387688100338
22.0,0.05217940732836723
24.0,0.051507413387298584
26.0,0.05079709365963936
28.0,0.050068434327840805
30.0,0.049347054213285446
32.0,0.048643808811903
36.0,0.04734863340854645
40.0,0.04612487182021141
44.0,0.044974807649850845
48.0,0.04390639066696167
52.0,0.04293352738022804
56.0,0.04203106090426445
60.0,0.04123445600271225
64.0,0.04050327092409134
72.0,0.03915637359023094
80.0,0.03791104257106781
88.0,0.036880653351545334
96.0,0.036007124930620193
104.0,0.03520984202623367
112.0,0.03452929109334946
120.0,0.033775098621845245
128.0,0.03304681554436684
144.0,0.03186734393239021
160.0,0.031004659831523895
176.0,0.03032558038830757
192.0,0.029631413519382477
208.0,0.028910202905535698
224.0,0.028679946437478065
240.0,0.02877115085721016
256.0,0.028649095445871353
288.0,0.02790001407265663
320.0,0.0263740923255682
352.0,0.024202972650527954
384.0,0.022082673385739326
416.0,0.019849950447678566
448.0,0.017534445971250534
480.0,0.015939218923449516
512.0,0.015204314142465591
576.0,0.015959300100803375
640.0,0.01287582702934742
704.0,0.011795472353696823
768.0,0.011214729398488998
832.0,0.010593704879283905
896.0,0.010328835807740688
960.0,0.009441623464226723
1024.0,0.011613341979682446
1152.0,0.015749121084809303
1280.0,0.01881992630660534
1408.0,0.019435439258813858
1536.0,0.017606494948267937
1664.0,0.014553200453519821
1792.0,0.007418750319629908
1920.0,3.458691935520619e-05
2048.0,-0.0032814752776175737
2304.0,-0.00772962998598814
2560.0,-0.005613208748400211
2816.0,0.0007115238695405424
3072.0,0.0014979451661929488
3328.0,-0.006820193026214838
3584.0,-0.014885391108691692
3840.0,-0.018399108201265335
4096.0,-0.012345314025878906
4608.0,-0.0059786029160022736
5120.0,-0.009871765971183777
5632.0,-0.004901221953332424
6144.0,0.0028423017356544733
6656.0,0.0012788987951353192
7168.0,0.008235079236328602
7680.0,0.014797467738389969
8192.0,0.0140955476090312
end
