version,3.0
numOfCh,1
type,point
parent_name,ff67b_0dot1-0dot1
ch_type,1_1
kcount,1
numberNandB,1
brightnessNandB,1
carpet pos,0
pc,0
Time (ms),CH1 Auto-Correlation
1.0,0.05418772250413895
2.0,0.053645700216293335
3.0,0.05312928184866905
4.0,0.05262747034430504
5.0,0.052123282104730606
6.0,0.051649872213602066
7.0,0.051182519644498825
8.0,0.05072353407740593
9.0,0.050271667540073395
10.0,0.04983429238200188
11.0,0.04941314458847046
12.0,0.048998475074768066
13.0,0.048590585589408875
14.0,0.04819498211145401
15.0,0.04779862239956856
16.0,0.047389380633831024
18.0,0.046581950038671494
20.0,0.04578764736652374
22.0,0.04502946510910988
24.0,0.044347409158945084
26.0,0.04370618611574173
28.0,0.043097224086523056
30.0,0.042483992874622345
32.0,0.04184362664818764
36.0,0.040557775646448135
40.0,0.03931077569723129
44.0,0.03814195469021797
48.0,0.036995865404605865
52.0,0.035845424979925156
56.0,0.03478853777050972
60.0,0.033737752586603165
64.0,0.03271906077861786
72.0,0.030728373676538467
80.0,0.02864830754697323
88.0,0.026733148843050003
96.0,0.02500467374920845
104.0,0.02359330654144287
112.0,0.0224846750497818
120.0,0.021474694833159447
128.0,0.02067047357559204
144.0,0.019355855882167816
160.0,0.017840322107076645
176.0,0.01638265699148178
192.0,0.015692604705691338
208.0,0.015347637236118317
224.0,0.015127801336348057
240.0,0.01510266587138176
256.0,0.015101321041584015
288.0,0.015708621591329575
320.0,0.014995219185948372
352.0,0.014053752645850182
384.0,0.01302102766931057
416.0,0.011102847754955292
448.0,0.008911671116948128
480.0,0.006139880977571011
512.0,0.004613372031599283
576.0,0.0034544612281024456
640.0,0.00367503403685987
704.0,0.004013773985207081
768.0,0.00411750515922904
832.0,0.003889072686433792
896.0,0.004609846509993076
960.0,0.006854002829641104
1024.0,0.009028775617480278
1152.0,0.009800865314900875
1280.0,0.008935365825891495
1408.0,0.006425485480576754
1536.0,0.0014413422904908657
1664.0,-0.0015133543638512492
1792.0,-0.0020570638589560986
1920.0,-0.005148651078343391
2048.0,-0.0016930009005591273
2304.0,-0.005592675879597664
2560.0,-0.0053303600288927555
2816.0,-0.009620461612939835
3072.0,-0.009364869445562363
3328.0,-0.0077558294869959354
3584.0,-0.004956284072250128
3840.0,-0.005643855314701796
4096.0,-0.000740139395929873
4608.0,-0.000358844205038622
5120.0,-0.002104064915329218
5632.0,-0.003397442167624831
6144.0,-0.007945558056235313
6656.0,-0.00440744636580348
7168.0,-0.008596879430115223
7680.0,0.0009832773357629776
8192.0,0.0025560420472174883
end
