version,3.0
numOfCh,1
type,point
parent_name,ff67b_0dot1-0dot1
ch_type,1_1
kcount,1
numberNandB,1
brightnessNandB,1
carpet pos,0
pc,0
Time (ms),CH1 Auto-Correlation
1.0,0.06768747419118881
2.0,0.06691381335258484
3.0,0.06622130423784256
4.0,0.06552298367023468
5.0,0.06488340348005295
6.0,0.06421178579330444
7.0,0.06356310099363327
8.0,0.0628875121474266
9.0,0.06225040182471275
10.0,0.061709482222795486
11.0,0.061181601136922836
12.0,0.06061432138085365
13.0,0.060117386281490326
14.0,0.05961590260267258
15.0,0.059085454791784286
16.0,0.05862416699528694
18.0,0.05768145993351936
20.0,0.056696996092796326
22.0,0.05579572543501854
24.0,0.05497557669878006
26.0,0.05420534685254097
28.0,0.053522609174251556
30.0,0.05287526920437813
32.0,0.052219174802303314
36.0,0.051024988293647766
40.0,0.049963027238845825
44.0,0.04880403354763985
48.0,0.04771299660205841
52.0,0.0467020608484745
56.0,0.045799270272254944
60.0,0.04500271752476692
64.0,0.04417255520820618
72.0,0.04227691888809204
80.0,0.04048473387956619
88.0,0.03871310502290726
96.0,0.03691498935222626
104.0,0.035335391759872437
112.0,0.03375609591603279
120.0,0.03227973356842995
128.0,0.03115546517074108
144.0,0.029026012867689133
160.0,0.02667844109237194
176.0,0.02415033057332039
192.0,0.02160724438726902
208.0,0.020006487146019936
224.0,0.018570080399513245
240.0,0.017371652647852898
256.0,0.01630195789039135
288.0,0.014323314651846886
320.0,0.012654934078454971
352.0,0.012473550625145435
384.0,0.01076033990830183
416.0,0.00897002499550581
448.0,0.006733287125825882
480.0,0.004505715798586607
512.0,0.0023324519861489534
576.0,-0.00250368588604033
640.0,-0.005957319401204586
704.0,-0.004891113378107548
768.0,-0.005389789585024118
832.0,-0.006539319176226854
896.0,-0.0037792210932821035
960.0,0.0027802097611129284
1024.0,0.005793136544525623
1152.0,0.005494887009263039
1280.0,-0.0005307203391566873
1408.0,0.0024730400182306767
1536.0,0.007046930957585573
1664.0,0.005885060410946608
1792.0,0.0012937600258737803
1920.0,0.00043304814607836306
2048.0,0.002497791312634945
2304.0,-0.0013301499420776963
2560.0,0.0061571551486849785
2816.0,0.010677909478545189
3072.0,0.005005194339901209
3328.0,-0.007466079201549292
3584.0,-0.012543716467916965
3840.0,-0.01281486265361309
4096.0,-0.005330652464181185
4608.0,0.00389423337765038
5120.0,-0.003111840458586812
5632.0,-0.0069031245075166225
6144.0,-0.014341741800308228
6656.0,-0.022425498813390732
7168.0,0.0015113388653844595
7680.0,-0.0017123810248449445
8192.0,-0.006221542600542307
end
