version,3.0
numOfCh,1
type,point
parent_name,ff67b_0dot1-0dot1
ch_type,1_1
kcount,1
numberNandB,1
brightnessNandB,1
carpet pos,0
pc,0
Time (ms),CH1 Auto-Correlation
1.0,0.0358918271958828
2.0,0.03533544763922691
3.0,0.03481600061058998
4.0,0.0343305841088295
5.0,0.033873528242111206
6.0,0.03340824320912361
7.0,0.0329681932926178
8.0,0.032535478472709656
9.0,0.032117489725351334
10.0,0.03171229735016823
11.0,0.03130609542131424
12.0,0.03090488165616989
13.0,0.030489448457956314
14.0,0.030060408636927605
15.0,0.029668621718883514
16.0,0.02928304485976696
18.0,0.02853458561003208
20.0,0.027812236919999123
22.0,0.027122629806399345
24.0,0.02646578475832939
26.0,0.025872765108942986
28.0,0.025276267901062965
30.0,0.024680057540535927
32.0,0.02410106733441353
36.0,0.02304566465318203
40.0,0.022096218541264534
44.0,0.021121054887771606
48.0,0.020222485065460205
52.0,0.019366562366485596
56.0,0.01856203004717827
60.0,0.01778346858918667
64.0,0.01701364666223526
72.0,0.015417364425957203
80.0,0.013953224755823612
88.0,0.012915823608636856
96.0,0.012221342884004116
104.0,0.011590012349188328
112.0,0.01106229703873396
120.0,0.010809198021888733
128.0,0.010521880351006985
144.0,0.009559154510498047
160.0,0.008318040519952774
176.0,0.007053984794765711
192.0,0.005742770154029131
208.0,0.004927883390337229
224.0,0.003991658333688974
240.0,0.003108273260295391
256.0,0.002768755191937089
288.0,0.0019696857780218124
320.0,0.0025186343118548393
352.0,0.0023085835855454206
384.0,0.0005644008633680642
416.0,-0.00038464090903289616
448.0,-0.0005948091275058687
480.0,-0.0005853887414559722
512.0,-0.0017840474611148238
576.0,-0.0021570208482444286
640.0,-0.0020845297258347273
704.0,-0.0033103320747613907
768.0,-0.0028577621560543776
832.0,-0.0021096908021718264
896.0,-0.00032092008041217923
960.0,-0.00020578247494995594
1024.0,-0.002794800791889429
1152.0,-0.004786458797752857
1280.0,0.00010482383368071169
1408.0,0.002451755339279771
1536.0,0.003654500236734748
1664.0,0.003610581625252962
1792.0,0.0048220278695225716
1920.0,0.00203183526173234
2048.0,-0.0007053831941448152
2304.0,-0.0013713525841012597
2560.0,-0.00030048019834794104
2816.0,-0.0021183895878493786
3072.0,-0.0046314760111272335
3328.0,-0.0029475607443600893
3584.0,0.0025545747485011816
3840.0,0.0016449691029265523
4096.0,0.005355524830520153
4608.0,-0.00405895197764039
5120.0,-0.004714408423751593
5632.0,0.002599291503429413
6144.0,-7.567083230242133e-05
6656.0,-0.006228979676961899
7168.0,0.00018906743207480758
7680.0,0.0038354997523128986
8192.0,-0.0018675685860216618
end
