version,3.0
numOfCh,1
type,point
parent_name,ff67b_0dot1-0dot1
ch_type,1_1
kcount,1
numberNandB,1
brightnessNandB,1
carpet pos,0
pc,0
Time (ms),CH1 Auto-Correlation
1.0,0.053955256938934326
2.0,0.05338211730122566
3.0,0.05280883237719536
4.0,0.05225987732410431
5.0,0.051743343472480774
6.0,0.05123129114508629
7.0,0.05075033754110336
8.0,0.050281740725040436
9.0,0.049810998141765594
10.0,0.0493435300886631
11.0,0.04885629937052727
12.0,0.048397429287433624
13.0,0.04794970899820328
14.0,0.0475161112844944
15.0,0.04708224534988403
16.0,0.04663798213005066
18.0,0.0458105243742466
20.0,0.04504572972655296
22.0,0.04429187998175621
24.0,0.04354061558842659
26.0,0.04281783103942871
28.0,0.0421682633459568
30.0,0.041563864797353745
32.0,0.040981896221637726
36.0,0.03982309624552727
40.0,0.03873332962393761
44.0,0.03763755410909653
48.0,0.03664660081267357
52.0,0.03571061044931412
56.0,0.03481562063097954
60.0,0.03399132564663887
64.0,0.03322718292474747
72.0,0.03161732479929924
80.0,0.030310140922665596
88.0,0.029220160096883774
96.0,0.028353286907076836
104.0,0.02742781862616539
112.0,0.02659648284316063
120.0,0.0259135402739048
128.0,0.025363754481077194
144.0,0.024426095187664032
160.0,0.023754166439175606
176.0,0.023402312770485878
192.0,0.022673524916172028
208.0,0.02193894051015377
224.0,0.021446041762828827
240.0,0.020442072302103043
256.0,0.019343746826052666
288.0,0.01844874769449234
320.0,0.01819297857582569
352.0,0.018353067338466644
384.0,0.01838904619216919
416.0,0.017862113192677498
448.0,0.017399780452251434
480.0,0.016846613958477974
512.0,0.016786914318799973
576.0,0.017930828034877777
640.0,0.01643824577331543
704.0,0.013403083197772503
768.0,0.011743340641260147
832.0,0.011819722130894661
896.0,0.013206704519689083
960.0,0.01457766443490982
1024.0,0.015257836319506168
1152.0,0.015924902632832527
1280.0,0.015772158280014992
1408.0,0.014194093644618988
1536.0,0.01685521751642227
1664.0,0.018648691475391388
1792.0,0.013164740987122059
1920.0,0.010321960784494877
2048.0,0.009307190775871277
2304.0,0.006017508450895548
2560.0,0.003071482526138425
2816.0,0.005797042977064848
3072.0,0.0018718168139457703
3328.0,0.00023911212338134646
3584.0,-0.004876813851296902
3840.0,-0.006540735252201557
4096.0,-0.008995003998279572
4608.0,-0.009987788274884224
5120.0,-0.017510896548628807
5632.0,-0.01707407273352146
6144.0,-0.010124452412128448
6656.0,-0.014719625003635883
7168.0,-0.017837226390838623
7680.0,-0.01267198659479618
8192.0,-0.008486192673444748
end
