version,3.0
numOfCh,1
type,point
parent_name,ff67b_0dot1-0dot1
ch_type,1_1
kcount,1
numberNandB,1
brightnessNandB,1
carpet pos,0
pc,0
Time (ms),CH1 Auto-Correlation
1.0,0.047439027577638626
2.0,0.046781979501247406
3.0,0.04615338519215584
4.0,0.04558074101805687
5.0,0.04499920457601547
6.0,0.04444245249032974
7.0,0.043887510895729065
8.0,0.043354567140340805
9.0,0.04284080117940903
10.0,0.04233343526721001
11.0,0.04178755730390549
12.0,0.0412762314081192
13.0,0.04076889157295227
14.0,0.04023900255560875
15.0,0.039746250957250595
16.0,0.03926447033882141
18.0,0.03826628252863884
20.0,0.03737862780690193
22.0,0.036516640335321426
24.0,0.035632528364658356
26.0,0.034785132855176926
28.0,0.03396931290626526
30.0,0.03317920118570328
32.0,0.03243923932313919
36.0,0.031011786311864853
40.0,0.02963518165051937
44.0,0.028318144381046295
48.0,0.027142925187945366
52.0,0.02600209042429924
56.0,0.024930808693170547
60.0,0.02390288934111595
64.0,0.022864287719130516
72.0,0.020822513848543167
80.0,0.0187374297529459
88.0,0.016924025490880013
96.0,0.015280095860362053
104.0,0.013994640670716763
112.0,0.012944642454385757
120.0,0.012107419781386852
128.0,0.011624040082097054
144.0,0.010975886136293411
160.0,0.010015098378062248
176.0,0.008533790707588196
192.0,0.00752508919686079
208.0,0.005941919516772032
224.0,0.004340932238847017
240.0,0.0025331522338092327
256.0,0.0011930189793929458
288.0,0.001448833616450429
320.0,0.0024062308948487043
352.0,0.003036431036889553
384.0,0.0027266701217740774
416.0,0.0018135434947907925
448.0,0.0004932864685542881
480.0,0.00014326488599181175
512.0,0.0012847816105931997
576.0,0.0016938289627432823
640.0,-0.0007656253292225301
704.0,-0.003161831758916378
768.0,-0.0037326852325350046
832.0,-0.005044120829552412
896.0,-0.005286914296448231
960.0,-0.002714733825996518
1024.0,-0.0026946018915623426
1152.0,-0.0027260305359959602
1280.0,-0.008601677604019642
1408.0,-0.007381625939160585
1536.0,-0.006862365175038576
1664.0,0.0005439452361315489
1792.0,0.0019672606140375137
1920.0,-0.0005200181039981544
2048.0,0.0014967353781685233
2304.0,0.004046240355819464
2560.0,0.0009221966029144824
2816.0,0.0026667567435652018
3072.0,-0.003445799695327878
3328.0,0.0008502707350999117
3584.0,-0.003753675613552332
3840.0,-0.0051635866984725
4096.0,-0.00356356636621058
4608.0,0.0015590752009302378
5120.0,0.0033153556287288666
5632.0,-0.0013541257940232754
6144.0,-0.00011100980918854475
6656.0,-0.0010581344831734896
7168.0,0.0020321356132626534
7680.0,-0.0018814257346093655
8192.0,-0.00024133117403835058
end
