version,3.0
numOfCh,1
type,point
parent_name,ff67b_0dot1-0dot1
ch_type,1_1
kcount,1
numberNandB,1
brightnessNandB,1
carpet pos,0
pc,0
Time (ms),CH1 Auto-Correlation
1.0,0.04121067374944687
2.0,0.04072191193699837
3.0,0.04024682939052582
4.0,0.039790306240320206
5.0,0.03934120386838913
6.0,0.03891640529036522
7.0,0.03848595917224884
8.0,0.03807007148861885
9.0,0.037642113864421844
10.0,0.037239834666252136
11.0,0.036838892847299576
12.0,0.03644125908613205
13.0,0.03605618327856064
14.0,0.03568411245942116
15.0,0.03531518578529358
16.0,0.034955982118844986
18.0,0.03427990898489952
20.0,0.03363249823451042
22.0,0.03300026059150696
24.0,0.03241025656461716
26.0,0.03185002878308296
28.0,0.03128611668944359
30.0,0.030736900866031647
32.0,0.030214644968509674
36.0,0.0291067473590374
40.0,0.02798977680504322
44.0,0.026885489001870155
48.0,0.02578495815396309
52.0,0.024752512574195862
56.0,0.023763028904795647
60.0,0.022771911695599556
64.0,0.021777404472231865
72.0,0.019973669201135635
80.0,0.018356841057538986
88.0,0.016862493008375168
96.0,0.015467638149857521
104.0,0.014134394004940987
112.0,0.01286334078758955
120.0,0.011737309396266937
128.0,0.010685563087463379
144.0,0.009121716022491455
160.0,0.00835124496370554
176.0,0.0076158721931278706
192.0,0.006667099427431822
208.0,0.005866711027920246
224.0,0.005305815488100052
240.0,0.0051389033906161785
256.0,0.005232842173427343
288.0,0.006001646630465984
320.0,0.006899483967572451
352.0,0.007199105340987444
384.0,0.0064989603124558926
416.0,0.005601522047072649
448.0,0.004205174278467894
480.0,0.0013567862333729863
512.0,-0.0016178700607270002
576.0,-0.0024217742029577494
640.0,-0.0008377354824915528
704.0,-0.0015842396533116698
768.0,-0.004355607088655233
832.0,-0.006347282789647579
896.0,-0.00803627260029316
960.0,-0.007342837750911713
1024.0,-0.004537193104624748
1152.0,-0.0020098318345844746
1280.0,-0.001967189833521843
1408.0,0.0008126604370772839
1536.0,0.00318484497256577
1664.0,0.0015041204169392586
1792.0,0.00016053779108915478
1920.0,-0.0009951224783435464
2048.0,-0.00218050554394722
2304.0,0.0013166330754756927
2560.0,0.004673853982239962
2816.0,0.004139452241361141
3072.0,0.0018121751490980387
3328.0,-0.005440998822450638
3584.0,-0.003159640822559595
3840.0,0.0021044195163995028
4096.0,0.006252484396100044
4608.0,-0.0038891530130058527
5120.0,-0.0026944337878376245
5632.0,0.003480789717286825
6144.0,-0.0010845516808331013
6656.0,-0.0008033409831114113
7168.0,-0.002017728518694639
7680.0,-0.00230661709792912
8192.0,0.002984881866723299
end
