version,3.0
numOfCh,1
type,point
parent_name,ff67b_0dot1-0dot1
ch_type,1_1
kcount,1
numberNandB,1
brightnessNandB,1
carpet pos,0
pc,0
Time (ms),CH1 Auto-Correlation
1.0,0.03704827278852463
2.0,0.03644106537103653
3.0,0.035866037011146545
4.0,0.03531207889318466
5.0,0.034774813801050186
6.0,0.034233469516038895
7.0,0.03370765969157219
8.0,0.03318015858530998
9.0,0.03266327828168869
10.0,0.03216498717665672
11.0,0.03168030455708504
12.0,0.031209208071231842
13.0,0.030749822035431862
14.0,0.030300259590148926
15.0,0.029862485826015472
16.0,0.029437629505991936
18.0,0.028614943847060204
20.0,0.027834078297019005
22.0,0.027071526274085045
24.0,0.02630685642361641
26.0,0.02557111531496048
28.0,0.02488563023507595
30.0,0.024205850437283516
32.0,0.02353823184967041
36.0,0.022241340950131416
40.0,0.020990023389458656
44.0,0.019868964329361916
48.0,0.018797552213072777
52.0,0.01779596507549286
56.0,0.016859112307429314
60.0,0.016014253720641136
64.0,0.015269586816430092
72.0,0.014100541360676289
80.0,0.013313787057995796
88.0,0.0126207759603858
96.0,0.011785595677793026
104.0,0.010845369659364223
112.0,0.010005027987062931
120.0,0.009062353521585464
128.0,0.00813763216137886
144.0,0.006372862495481968
160.0,0.004774073138833046
176.0,0.003805306740105152
192.0,0.003505424363538623
208.0,0.003937022760510445
224.0,0.004779518116265535
240.0,0.005219512153416872
256.0,0.004689855966717005
288.0,0.0035440826322883368
320.0,0.003075975924730301
352.0,0.002288704738020897
384.0,0.0014071062905713916
416.0,0.000805940362624824
448.0,0.0006266256677918136
480.0,0.0006113232811912894
512.0,0.0013956339098513126
576.0,0.0026851920410990715
640.0,0.000478359084809199
704.0,-0.00044726915075443685
768.0,-0.0016467961249873042
832.0,-0.0010130428709089756
896.0,-0.002172124106436968
960.0,-0.002388225169852376
1024.0,-0.0011715575819835067
1152.0,-0.0004419184406287968
1280.0,1.5161103874561377e-06
1408.0,0.001625518430955708
1536.0,0.0020422691013664007
1664.0,-0.0005246986402198672
1792.0,0.00035756846773438156
1920.0,0.0008957328973338008
2048.0,0.003660355694591999
2304.0,0.00043070854735560715
2560.0,0.00156551250256598
2816.0,-0.003755976678803563
3072.0,-0.0039516170509159565
3328.0,-0.0018517633434385061
3584.0,0.0018874419620260596
3840.0,0.0017937876982614398
4096.0,0.0012003786396235228
4608.0,-0.0014579598791897297
5120.0,-0.002708189422264695
5632.0,-0.0015069672372192144
6144.0,-0.0003439374268054962
6656.0,-0.0005968640325590968
7168.0,-0.004191429354250431
7680.0,-0.005470913834869862
8192.0,0.0002973330265376717
end
