version,3.0
numOfCh,1
type,point
parent_name,ff67b_0dot1-0dot1
ch_type,1_1
kcount,1
numberNandB,1
brightnessNandB,1
carpet pos,0
pc,0
Time (ms),CH1 Auto-Correlation
1.0,0.05944512411952019
2.0,0.05885865166783333
3.0,0.05829577520489693
4.0,0.05774969235062599
5.0,0.05720948055386543
6.0,0.05668829008936882
7.0,0.0562191940844059
8.0,0.05575195327401161
9.0,0.05530291423201561
10.0,0.0548674575984478
11.0,0.05446048825979233
12.0,0.05405852198600769
13.0,0.05368228629231453
14.0,0.053296178579330444
15.0,0.05291479825973511
16.0,0.05256391689181328
18.0,0.05189550668001175
20.0,0.05121181160211563
22.0,0.05050608888268471
24.0,0.04987295717000961
26.0,0.049232061952352524
28.0,0.048606593161821365
30.0,0.04801962524652481
32.0,0.04746447503566742
36.0,0.04629671573638916
40.0,0.04526018723845482
44.0,0.044260066002607346
48.0,0.043279193341732025
52.0,0.0422370545566082
56.0,0.04124756529927254
60.0,0.04039055481553078
64.0,0.03952396661043167
72.0,0.03794241324067116
80.0,0.036359753459692
88.0,0.03476426377892494
96.0,0.03309732303023338
104.0,0.03147558495402336
112.0,0.029972627758979797
120.0,0.028638793155550957
128.0,0.027461739256978035
144.0,0.025200268253684044
160.0,0.022854741662740707
176.0,0.02055477723479271
192.0,0.01842585764825344
208.0,0.016520801931619644
224.0,0.014630974270403385
240.0,0.012738830409944057
256.0,0.010821101255714893
288.0,0.008323537185788155
320.0,0.006304406560957432
352.0,0.004456416703760624
384.0,0.0038505333941429853
416.0,0.003645084798336029
448.0,0.003350743791088462
480.0,0.0031087116803973913
512.0,0.003907645121216774
576.0,0.004763375502079725
640.0,0.007738483138382435
704.0,0.009039647877216339
768.0,0.007569535169750452
832.0,0.006444394122809172
896.0,0.005049173254519701
960.0,0.0026454480830579996
1024.0,0.004479527939110994
1152.0,0.006472989451140165
1280.0,0.005906360223889351
1408.0,0.006614655256271362
1536.0,0.008995049633085728
1664.0,0.00635384488850832
1792.0,0.003980209585279226
1920.0,-0.003240722231566906
2048.0,-0.004773572087287903
2304.0,-0.004411191213876009
2560.0,-0.001056127017363906
2816.0,-0.0064020617865026
3072.0,-0.01327095553278923
3328.0,-0.0113232946023345
3584.0,-0.005967167671769857
3840.0,-0.0019122088560834527
4096.0,0.0040457104332745075
4608.0,-0.0022586719132959843
5120.0,0.003594829700887203
5632.0,0.0049497284926474094
6144.0,0.003210216760635376
6656.0,0.0033938437700271606
7168.0,-0.0023795331362634897
7680.0,-0.004746422171592712
8192.0,-0.006229231599718332
end
