version,3.0
numOfCh,1
type,point
parent_name,ff67b_0dot069-0dot1
ch_type,1_1
kcount,1
numberNandB,1
brightnessNandB,1
carpet pos,0
pc,0
Time (ms),CH1 Auto-Correlation
1.0,0.07782342284917831
2.0,0.07730492949485779
3.0,0.07680961489677429
4.0,0.0763247013092041
5.0,0.075849749147892
6.0,0.07538200169801712
7.0,0.07493901997804642
8.0,0.07451129704713821
9.0,0.07408376783132553
10.0,0.07366500794887543
11.0,0.0732659325003624
12.0,0.07289303839206696
13.0,0.07253021746873856
14.0,0.07215449213981628
15.0,0.07176900655031204
16.0,0.07139571011066437
18.0,0.07064051181077957
20.0,0.06990505009889603
22.0,0.06917379051446915
24.0,0.06842052936553955
26.0,0.06769201159477234
28.0,0.06697095185518265
30.0,0.06626658886671066
32.0,0.06558047980070114
36.0,0.06425181031227112
40.0,0.06296522170305252
44.0,0.06176384165883064
48.0,0.06061885505914688
52.0,0.05953051149845123
56.0,0.0585390068590641
60.0,0.057672783732414246
64.0,0.05680041015148163
72.0,0.055072300136089325
80.0,0.053495846688747406
88.0,0.051948513835668564
96.0,0.05044100061058998
104.0,0.0489027239382267
112.0,0.04740124195814133
120.0,0.04602363333106041
128.0,0.044649675488471985
144.0,0.041947267949581146
160.0,0.03938673436641693
176.0,0.036726318299770355
192.0,0.03454624116420746
208.0,0.03257555887103081
224.0,0.030593030154705048
240.0,0.028711233288049698
256.0,0.026606649160385132
288.0,0.021412387490272522
320.0,0.016437871381640434
352.0,0.012472527101635933
384.0,0.009668487124145031
416.0,0.008371582254767418
448.0,0.00679010758176446
480.0,0.004762101918458939
512.0,0.0023149042390286922
576.0,-0.0008030544267967343
640.0,6.935737474123016e-05
704.0,0.0038035514298826456
768.0,0.007818575017154217
832.0,0.010720859281718731
896.0,0.013054754585027695
960.0,0.014756572432816029
1024.0,0.012941352091729641
1152.0,0.009126451797783375
1280.0,0.0024646299425512552
1408.0,-0.0051882341504096985
1536.0,-0.0061716376803815365
1664.0,-0.0028111853171139956
1792.0,-0.0005508365575224161
1920.0,0.007363196462392807
2048.0,0.011300922371447086
2304.0,0.0019725272431969643
2560.0,-0.0023532845079898834
2816.0,0.0010185849387198687
3072.0,0.01086850930005312
3328.0,0.0063196816481649876
3584.0,0.004451940301805735
3840.0,0.008764049969613552
4096.0,0.00978758279234171
4608.0,0.004045899026095867
5120.0,-0.00806801300495863
5632.0,-0.014026901684701443
6144.0,-0.005489027593284845
6656.0,0.0018476697150617838
7168.0,-0.012670788913965225
7680.0,-0.008403807878494263
8192.0,-0.017716387286782265
end
