version,3.0
numOfCh,1
type,point
parent_name,ff67b_0dot069-0dot1
ch_type,1_1
kcount,1
numberNandB,1
brightnessNandB,1
carpet pos,0
pc,0
Time (ms),CH1 Auto-Correlation
1.0,0.06907933205366135
2.0,0.06843435764312744
3.0,0.06778457015752792
4.0,0.06718753278255463
5.0,0.06659390777349472
6.0,0.06601571291685104
7.0,0.06545357406139374
8.0,0.0649055615067482
9.0,0.064391128718853
10.0,0.06384772062301636
11.0,0.06335291266441345
12.0,0.06286939978599548
13.0,0.06238468736410141
14.0,0.061939653009176254
15.0,0.06147592514753342
16.0,0.06102816015481949
18.0,0.06012154370546341
20.0,0.05921493098139763
22.0,0.05833735689520836
24.0,0.057462625205516815
26.0,0.05662873014807701
28.0,0.05581679567694664
30.0,0.05506879463791847
32.0,0.05435251444578171
36.0,0.05298880860209465
40.0,0.051519352942705154
44.0,0.05011894181370735
48.0,0.04889783263206482
52.0,0.04767148196697235
56.0,0.046387601643800735
60.0,0.045061398297548294
64.0,0.04372798651456833
72.0,0.041653458029031754
80.0,0.03967529907822609
88.0,0.037838391959667206
96.0,0.036029569804668427
104.0,0.03432665020227432
112.0,0.032600484788417816
120.0,0.03103012964129448
128.0,0.029559873044490814
144.0,0.027410713955760002
160.0,0.025079062208533287
176.0,0.022992847487330437
192.0,0.02183503843843937
208.0,0.02109614945948124
224.0,0.020605474710464478
240.0,0.01936357095837593
256.0,0.018013928085565567
288.0,0.01645725592970848
320.0,0.014757665805518627
352.0,0.012436820194125175
384.0,0.009767469950020313
416.0,0.007863893173635006
448.0,0.006958405487239361
480.0,0.007451718673110008
512.0,0.009850707836449146
576.0,0.012159154750406742
640.0,0.007547962013632059
704.0,0.003400004468858242
768.0,0.0030216493178159
832.0,0.004854316357523203
896.0,0.007439834531396627
960.0,0.006764606107026339
1024.0,0.006055014207959175
1152.0,0.0036658067256212234
1280.0,-0.003196723060682416
1408.0,-0.00440984359011054
1536.0,-0.009965055622160435
1664.0,-0.008718174882233143
1792.0,-0.013586078770458698
1920.0,-0.01250714622437954
2048.0,-0.00876439269632101
2304.0,-0.015184021554887295
2560.0,-0.01398303359746933
2816.0,-0.007637140341103077
3072.0,-0.005804141517728567
3328.0,-0.009119139052927494
3584.0,-0.01263455767184496
3840.0,-0.008949591778218746
4096.0,0.0013045256491750479
4608.0,0.006026268005371094
5120.0,0.003369689919054508
5632.0,0.01336728222668171
6144.0,0.00719964224845171
6656.0,-0.0029313298873603344
7168.0,-0.010492454282939434
7680.0,-0.01185270119458437
8192.0,-0.006188301835209131
end
