version,3.0
numOfCh,1
type,point
parent_name,ff67b_0dot069-0dot1
ch_type,1_1
kcount,1
numberNandB,1
brightnessNandB,1
carpet pos,0
pc,0
Time (ms),CH1 Auto-Correlation
1.0,0.10383999347686768
2.0,0.10333673655986786
3.0,0.10284716635942459
4.0,0.10237060487270355
5.0,0.10191524773836136
6.0,0.10146654397249222
7.0,0.10102440416812897
8.0,0.10057396441698074
9.0,0.1001310795545578
10.0,0.09971660375595093
11.0,0.09929472208023071
12.0,0.09886880964040756
13.0,0.0984506756067276
14.0,0.09804710000753403
15.0,0.09765101969242096
16.0,0.09726471453905106
18.0,0.09653297811746597
20.0,0.09580975770950317
22.0,0.09511502832174301
24.0,0.09445271641016006
26.0,0.09380361437797546
28.0,0.0931822657585144
30.0,0.09255389869213104
32.0,0.09189730882644653
36.0,0.0905810073018074
40.0,0.08928274363279343
44.0,0.0880693569779396
48.0,0.08692153543233871
52.0,0.08575838059186935
56.0,0.08466959744691849
60.0,0.0836120992898941
64.0,0.08258586376905441
72.0,0.08067432790994644
80.0,0.07888369262218475
88.0,0.07711823284626007
96.0,0.07558950781822205
104.0,0.07425091415643692
112.0,0.07309053093194962
120.0,0.07202864438295364
128.0,0.07102566957473755
144.0,0.06950042396783829
160.0,0.06840211153030396
176.0,0.06704612076282501
192.0,0.06554943323135376
208.0,0.06398504972457886
224.0,0.06263425946235657
240.0,0.06160573661327362
256.0,0.06023687124252319
288.0,0.05805579200387001
320.0,0.05667528510093689
352.0,0.0566469170153141
384.0,0.056521832942962646
416.0,0.05454539507627487
448.0,0.05293136090040207
480.0,0.05292005091905594
512.0,0.05370732769370079
576.0,0.05342051759362221
640.0,0.05233117938041687
704.0,0.05333602428436279
768.0,0.05469204857945442
832.0,0.05131952092051506
896.0,0.049818892031908035
960.0,0.04801597073674202
1024.0,0.044759444892406464
1152.0,0.04045456275343895
1280.0,0.03404862433671951
1408.0,0.034687019884586334
1536.0,0.03612862527370453
1664.0,0.030743669718503952
1792.0,0.02743053250014782
1920.0,0.02810453064739704
2048.0,0.027391862124204636
2304.0,0.02803652174770832
2560.0,0.02472860738635063
2816.0,0.008107572793960571
3072.0,0.013584150932729244
3328.0,0.01420501060783863
3584.0,0.004442153498530388
3840.0,0.0048845610581338406
4096.0,0.010905246250331402
4608.0,-0.010977894999086857
5120.0,-0.025912102311849594
5632.0,-0.036943450570106506
6144.0,-0.05111416056752205
6656.0,-0.054450515657663345
7168.0,-0.04800400137901306
7680.0,-0.039267439395189285
8192.0,-0.041620224714279175
end
