version,3.0
numOfCh,1
type,point
parent_name,ff67b_0dot069-0dot1
ch_type,1_1
kcount,1
numberNandB,1
brightnessNandB,1
carpet pos,0
pc,0
Time (ms),CH1 Auto-Correlation
1.0,0.08005305379629135
2.0,0.07939450442790985
3.0,0.07877159118652344
4.0,0.07817684859037399
5.0,0.07760636508464813
6.0,0.0770539790391922
7.0,0.0765095204114914
8.0,0.07599474489688873
9.0,0.07546954602003098
10.0,0.07496299594640732
11.0,0.07446140795946121
12.0,0.07396777719259262
13.0,0.07349450886249542
14.0,0.07301818579435349
15.0,0.07253991812467575
16.0,0.07204493135213852
18.0,0.0710512176156044
20.0,0.07010901719331741
22.0,0.06918799877166748
24.0,0.06825114041566849
26.0,0.06731768697500229
28.0,0.06640919297933578
30.0,0.06549514085054398
32.0,0.06466463208198547
36.0,0.06318172812461853
40.0,0.061817269772291183
44.0,0.06054464727640152
48.0,0.05942663922905922
52.0,0.058427318930625916
56.0,0.05747070163488388
60.0,0.05642011761665344
64.0,0.05537741631269455
72.0,0.05354313924908638
80.0,0.051854945719242096
88.0,0.05042243003845215
96.0,0.04913395270705223
104.0,0.04779070243239403
112.0,0.04628261178731918
120.0,0.044945333153009415
128.0,0.043777648359537125
144.0,0.04140768200159073
160.0,0.03936746343970299
176.0,0.038207992911338806
192.0,0.03747939690947533
208.0,0.035974062979221344
224.0,0.0344097875058651
240.0,0.03279029577970505
256.0,0.03102790005505085
288.0,0.027994072064757347
320.0,0.02493496797978878
352.0,0.021823996677994728
384.0,0.017735477536916733
416.0,0.014061471447348595
448.0,0.010996093973517418
480.0,0.00862057600170374
512.0,0.006980796344578266
576.0,0.0038405065424740314
640.0,0.0007011864800006151
704.0,-0.004022511187940836
768.0,-0.004459043964743614
832.0,-0.004095963202416897
896.0,-0.008519528433680534
960.0,-0.012212746776640415
1024.0,-0.012619423680007458
1152.0,-0.011376562528312206
1280.0,-0.012521841563284397
1408.0,-0.012355606071650982
1536.0,-0.00831815879791975
1664.0,-0.002338902559131384
1792.0,-0.0029072051402181387
1920.0,-0.00714140385389328
2048.0,-0.01264751423150301
2304.0,-0.002920550759881735
2560.0,0.006021562032401562
2816.0,0.0034905094653367996
3072.0,-0.0066516646184027195
3328.0,-0.011814752593636513
3584.0,-0.004678754601627588
3840.0,-0.002960695419460535
4096.0,0.006293748505413532
4608.0,-0.005048012360930443
5120.0,-0.010137101635336876
5632.0,-0.01223917305469513
6144.0,-0.01751885935664177
6656.0,0.0017552326899021864
7168.0,0.006836999673396349
7680.0,0.009638380259275436
8192.0,0.032300181686878204
end
