version,3.0
numOfCh,1
type,point
parent_name,ff67b_0dot069-0dot1
ch_type,1_1
kcount,1
numberNandB,1
brightnessNandB,1
carpet pos,0
pc,0
Time (ms),CH1 Auto-Correlation
1.0,0.058153148740530014
2.0,0.05766505375504494
3.0,0.057186659425497055
4.0,0.056740302592515945
5.0,0.056298475712537766
6.0,0.05586174502968788
7.0,0.055434007197618484
8.0,0.05503058806061745
9.0,0.05463569611310959
10.0,0.05422881990671158
11.0,0.05380459502339363
12.0,0.05338932201266289
13.0,0.05297044664621353
14.0,0.052564267069101334
15.0,0.05217256024479866
16.0,0.0517839640378952
18.0,0.05106748640537262
20.0,0.050360873341560364
22.0,0.0496908500790596
24.0,0.04904249310493469
26.0,0.04842066392302513
28.0,0.04781457781791687
30.0,0.04720956087112427
32.0,0.046619102358818054
36.0,0.04546330124139786
40.0,0.04440225660800934
44.0,0.04338160902261734
48.0,0.04234423115849495
52.0,0.041361697018146515
56.0,0.040439672768116
60.0,0.03954814374446869
64.0,0.03866492584347725
72.0,0.03707180917263031
80.0,0.035727016627788544
88.0,0.034592896699905396
96.0,0.0335504524409771
104.0,0.032617270946502686
112.0,0.031874965876340866
120.0,0.03117377497255802
128.0,0.030390048399567604
144.0,0.028978930786252022
160.0,0.027630656957626343
176.0,0.02612929232418537
192.0,0.024816349148750305
208.0,0.02376798540353775
224.0,0.022407906129956245
240.0,0.021474583074450493
256.0,0.021434685215353966
288.0,0.020331619307398796
320.0,0.019586928188800812
352.0,0.01801181212067604
384.0,0.015940356999635696
416.0,0.013730593957006931
448.0,0.012567655183374882
480.0,0.01147171575576067
512.0,0.01038289349526167
576.0,0.008887119591236115
640.0,0.007910269312560558
704.0,0.009258277714252472
768.0,0.010791095905005932
832.0,0.009146573953330517
896.0,0.006761061027646065
960.0,0.007813173346221447
1024.0,0.009291996248066425
1152.0,0.009393231943249702
1280.0,0.00782256294041872
1408.0,0.006743033416569233
1536.0,0.0063080498948693275
1664.0,0.0024296860210597515
1792.0,-0.001680042245425284
1920.0,-0.006554227788001299
2048.0,-0.0070231459103524685
2304.0,-0.009292093105614185
2560.0,-0.010000999085605145
2816.0,-0.0108953807502985
3072.0,-0.015150124207139015
3328.0,-0.014839080162346363
3584.0,-0.012960669584572315
3840.0,-0.00992728490382433
4096.0,-0.006939978804439306
4608.0,0.0018019572598859668
5120.0,0.008883402682840824
5632.0,0.014257910661399364
6144.0,0.011478148400783539
6656.0,0.007463816087692976
7168.0,0.005324531812220812
7680.0,-0.003948923200368881
8192.0,-0.007448235526680946
end
