version,3.0
numOfCh,1
type,point
parent_name,ff67b_0dot069-0dot1
ch_type,1_1
kcount,1
numberNandB,1
brightnessNandB,1
carpet pos,0
pc,0
Time (ms),CH1 Auto-Correlation
1.0,0.08625338971614838
2.0,0.0857580229640007
3.0,0.08526209741830826
4.0,0.0847778171300888
5.0,0.08431113511323929
6.0,0.08386410772800446
7.0,0.08341015875339508
8.0,0.08297424763441086
9.0,0.08255290240049362
10.0,0.0821426510810852
11.0,0.08173854649066925
12.0,0.08134302496910095
13.0,0.08093918859958649
14.0,0.08054783940315247
15.0,0.08016020059585571
16.0,0.07978121191263199
18.0,0.07899679243564606
20.0,0.07822512835264206
22.0,0.077472023665905
24.0,0.07671588659286499
26.0,0.07596646994352341
28.0,0.07526078820228577
30.0,0.07458009570837021
32.0,0.07391129434108734
36.0,0.07262090593576431
40.0,0.07130970060825348
44.0,0.07004707306623459
48.0,0.06882981210947037
52.0,0.06772436201572418
56.0,0.06669753044843674
60.0,0.06566586345434189
64.0,0.06469948589801788
72.0,0.06281357258558273
80.0,0.06096787005662918
88.0,0.05931426212191582
96.0,0.05779998004436493
104.0,0.05658915266394615
112.0,0.055616915225982666
120.0,0.05467407777905464
128.0,0.05371076241135597
144.0,0.05177174508571625
160.0,0.05007302761077881
176.0,0.04863382875919342
192.0,0.047650668770074844
208.0,0.046727683395147324
224.0,0.04561542347073555
240.0,0.044642843306064606
256.0,0.04370814934372902
288.0,0.04106918349862099
320.0,0.038151487708091736
352.0,0.03659403696656227
384.0,0.03606633096933365
416.0,0.036186061799526215
448.0,0.03501477837562561
480.0,0.034619078040122986
512.0,0.03392984718084335
576.0,0.03070506453514099
640.0,0.03230488672852516
704.0,0.03368688002228737
768.0,0.031820040196180344
832.0,0.029644373804330826
896.0,0.026408180594444275
960.0,0.025445081293582916
1024.0,0.022826775908470154
1152.0,0.016054973006248474
1280.0,0.005826572887599468
1408.0,0.0006315467762760818
1536.0,0.0008922089473344386
1664.0,0.0033276909962296486
1792.0,0.004218507558107376
1920.0,-0.0021794147323817015
2048.0,-0.005658688489347696
2304.0,-0.0028465203940868378
2560.0,-0.0034385244362056255
2816.0,0.003024390432983637
3072.0,0.0018968171207234263
3328.0,0.0071456278674304485
3584.0,0.0036471663042902946
3840.0,-0.0021105443593114614
4096.0,-0.00115760019980371
4608.0,-0.00942944921553135
5120.0,-0.01623321883380413
5632.0,-0.025968948379158974
6144.0,-0.029762471094727516
6656.0,-0.022151608020067215
7168.0,-0.007637105882167816
7680.0,0.010516409762203693
8192.0,0.017612645402550697
end
