version,3.0
numOfCh,1
type,point
parent_name,ff67b_0dot069-0dot1
ch_type,1_1
kcount,1
numberNandB,1
brightnessNandB,1
carpet pos,0
pc,0
Time (ms),CH1 Auto-Correlation
1.0,0.06164383515715599
2.0,0.06067770719528198
3.0,0.059921473264694214
4.0,0.05913117900490761
5.0,0.058290768414735794
6.0,0.05754857882857323
7.0,0.056652333587408066
8.0,0.05594901740550995
9.0,0.05532953515648842
10.0,0.05468349903821945
11.0,0.0539126992225647
12.0,0.05338529497385025
13.0,0.05285358056426048
14.0,0.05231775715947151
15.0,0.05184539034962654
16.0,0.05143064260482788
18.0,0.0505698025226593
20.0,0.04970979690551758
22.0,0.048864420503377914
24.0,0.04801235347986221
26.0,0.04723624885082245
28.0,0.046492647379636765
30.0,0.04575749486684799
32.0,0.04503107815980911
36.0,0.04358469322323799
40.0,0.042018771171569824
44.0,0.04027184098958969
48.0,0.03868502005934715
52.0,0.03734962269663811
56.0,0.0361989364027977
60.0,0.03512294963002205
64.0,0.033808834850788116
72.0,0.03141115605831146
80.0,0.02950420416891575
88.0,0.027771439403295517
96.0,0.026271706447005272
104.0,0.02501847967505455
112.0,0.023944003507494926
120.0,0.022898955270648003
128.0,0.022221282124519348
144.0,0.020803701132535934
160.0,0.019069602712988853
176.0,0.01751071773469448
192.0,0.016337702050805092
208.0,0.016018018126487732
224.0,0.01576419360935688
240.0,0.015450450591742992
256.0,0.014704478904604912
288.0,0.01289654802531004
320.0,0.00938174594193697
352.0,0.005449656397104263
384.0,0.003058526897802949
416.0,0.0018761581741273403
448.0,0.00028556547476910055
480.0,-0.0015119959134608507
512.0,-0.0035960725508630276
576.0,-0.005386953707784414
640.0,-0.007095105014741421
704.0,-0.009427733719348907
768.0,-0.008837185800075531
832.0,-0.009501971304416656
896.0,-0.01113822776824236
960.0,-0.011284108273684978
1024.0,-0.007541554514318705
1152.0,-0.00315937795676291
1280.0,-0.007446450646966696
1408.0,-0.008498544804751873
1536.0,-0.0071693118661642075
1664.0,-0.004962645471096039
1792.0,-0.005218212492763996
1920.0,-0.005015254020690918
2048.0,-0.002281057182699442
2304.0,0.001131136785261333
2560.0,0.004092549439519644
2816.0,0.006124039180576801
3072.0,0.0028820543084293604
3328.0,0.001191584626212716
3584.0,-0.004125466104596853
3840.0,-0.005850879475474358
4096.0,-0.0044572497718036175
4608.0,0.0008404545369558036
5120.0,0.005919686984270811
5632.0,0.0008252718253061175
6144.0,0.0012131596449762583
6656.0,-0.004651214461773634
7168.0,-0.0056605651043355465
7680.0,-0.0025062216445803642
8192.0,0.012915474362671375
end
