version,3.0
numOfCh,1
type,point
parent_name,ff67b_0dot069-0dot1
ch_type,1_1
kcount,1
numberNandB,1
brightnessNandB,1
carpet pos,0
pc,0
Time (ms),CH1 Auto-Correlation
1.0,0.05901489779353142
2.0,0.057560741901397705
3.0,0.056196797639131546
4.0,0.05527431145310402
5.0,0.05467258393764496
6.0,0.05391903594136238
7.0,0.05333440378308296
8.0,0.052726514637470245
9.0,0.052243977785110474
10.0,0.05180814489722252
11.0,0.051316503435373306
12.0,0.0509280227124691
13.0,0.05027494579553604
14.0,0.049380600452423096
15.0,0.04836377128958702
16.0,0.0475485622882843
18.0,0.04674521088600159
20.0,0.045924581587314606
22.0,0.04506951943039894
24.0,0.04422914236783981
26.0,0.043244145810604095
28.0,0.04251253604888916
30.0,0.04188363999128342
32.0,0.04129129648208618
36.0,0.04035273939371109
40.0,0.039512570947408676
44.0,0.038568127900362015
48.0,0.03762700408697128
52.0,0.03666113689541817
56.0,0.035792216658592224
60.0,0.03478584438562393
64.0,0.033723656088113785
72.0,0.03197372704744339
80.0,0.03080286830663681
88.0,0.029333971440792084
96.0,0.027532756328582764
104.0,0.02552947588264942
112.0,0.02388252131640911
120.0,0.022622408345341682
128.0,0.02143748477101326
144.0,0.01967136189341545
160.0,0.01815878227353096
176.0,0.017041686922311783
192.0,0.015906400978565216
208.0,0.015148873440921307
224.0,0.014280137605965137
240.0,0.013376585207879543
256.0,0.012707305140793324
288.0,0.01067398488521576
320.0,0.009890890680253506
352.0,0.010261674411594868
384.0,0.010304796509444714
416.0,0.01050558965653181
448.0,0.010273655876517296
480.0,0.008946724236011505
512.0,0.007818645797669888
576.0,0.007798409555107355
640.0,0.007644590921700001
704.0,0.006412450689822435
768.0,0.005814529024064541
832.0,0.007826169021427631
896.0,0.0074814362451434135
960.0,0.007157358806580305
1024.0,0.009221748448908329
1152.0,0.010784757323563099
1280.0,0.01013962458819151
1408.0,0.007395012304186821
1536.0,0.0030617923475801945
1664.0,0.0026765172369778156
1792.0,0.004080541431903839
1920.0,0.0037642461247742176
2048.0,0.006070647854357958
2304.0,-0.0009628586121834815
2560.0,-0.006235377863049507
2816.0,-0.0062561240047216415
3072.0,-0.006346852984279394
3328.0,-0.0038235043175518513
3584.0,-0.0030402871780097485
3840.0,-0.006066462025046349
4096.0,-0.006172544322907925
4608.0,-0.004601141903549433
5120.0,-0.002549228724092245
5632.0,0.004682648461312056
6144.0,-0.0006454207468777895
6656.0,0.010043742135167122
7168.0,0.011217324063181877
7680.0,0.009304314851760864
8192.0,0.0015893200179561973
end
