version,3.0
numOfCh,1
type,point
parent_name,ff67b_0dot069-0dot1
ch_type,1_1
kcount,1
numberNandB,1
brightnessNandB,1
carpet pos,0
pc,0
Time (ms),CH1 Auto-Correlation
1.0,0.06180163472890854
2.0,0.06135464832186699
3.0,0.06091820448637009
4.0,0.060483552515506744
5.0,0.06005880609154701
6.0,0.05964707210659981
7.0,0.059238024055957794
8.0,0.05882294103503227
9.0,0.05841953679919243
10.0,0.05801449343562126
11.0,0.0576053187251091
12.0,0.05718640238046646
13.0,0.056769587099552155
14.0,0.05634821578860283
15.0,0.05593304708600044
16.0,0.05551041662693024
18.0,0.05466286092996597
20.0,0.053842272609472275
22.0,0.053063925355672836
24.0,0.05229777470231056
26.0,0.05152617394924164
28.0,0.050773296505212784
30.0,0.05001182109117508
32.0,0.04928100109100342
36.0,0.047887347638607025
40.0,0.04660237580537796
44.0,0.04535581171512604
48.0,0.04413028806447983
52.0,0.04289010912179947
56.0,0.04168877750635147
60.0,0.040544237941503525
64.0,0.03944141045212746
72.0,0.03736329823732376
80.0,0.03550425544381142
88.0,0.03391219675540924
96.0,0.03265910968184471
104.0,0.031513504683971405
112.0,0.030515993013978004
120.0,0.02966352179646492
128.0,0.028840679675340652
144.0,0.027518445625901222
160.0,0.026578757911920547
176.0,0.025472445413470268
192.0,0.023848075419664383
208.0,0.021724557504057884
224.0,0.019500643014907837
240.0,0.017340581864118576
256.0,0.015896176919341087
288.0,0.014361076056957245
320.0,0.012744950130581856
352.0,0.010727924294769764
384.0,0.008373096585273743
416.0,0.006041460670530796
448.0,0.004069226793944836
480.0,0.0032469406723976135
512.0,0.002419336000457406
576.0,0.0009034178219735622
640.0,0.002664451487362385
704.0,0.003003097837790847
768.0,0.002741622505709529
832.0,0.0022575347684323788
896.0,0.0032155762892216444
960.0,0.0033727732952684164
1024.0,0.0006373992073349655
1152.0,-0.003123084083199501
1280.0,-0.0055310167372226715
1408.0,-0.007857835851609707
1536.0,-0.007593480870127678
1664.0,-0.006152222398668528
1792.0,-0.009886100888252258
1920.0,-0.006931747309863567
2048.0,-0.009262967854738235
2304.0,-0.009867150336503983
2560.0,-0.0075174542143940926
2816.0,-0.0029694614931941032
3072.0,0.0004491990839596838
3328.0,0.0019427707884460688
3584.0,0.0033802990801632404
3840.0,-0.0013732024235650897
4096.0,0.001081051304936409
4608.0,0.0030811885371804237
5120.0,0.00017307877715211362
5632.0,-0.0024704914540052414
6144.0,-0.0029531654436141253
6656.0,-0.0017081685364246368
7168.0,-0.01008518785238266
7680.0,-0.009654742665588856
8192.0,0.0016329963691532612
end
