version,3.0
numOfCh,1
type,point
parent_name,ff67b_0dot069-0dot1
ch_type,1_1
kcount,1
numberNandB,1
brightnessNandB,1
carpet pos,0
pc,0
Time (ms),CH1 Auto-Correlation
1.0,0.059991057962179184
2.0,0.05948714539408684
3.0,0.058999203145504
4.0,0.05850030854344368
5.0,0.05800848454236984
6.0,0.05751994252204895
7.0,0.05705808475613594
8.0,0.05661052465438843
9.0,0.056174084544181824
10.0,0.05574703589081764
11.0,0.05530897155404091
12.0,0.05487632006406784
13.0,0.054442647844552994
14.0,0.05402236804366112
15.0,0.053590789437294006
16.0,0.05316341295838356
18.0,0.05232907086610794
20.0,0.05151594802737236
22.0,0.050743360072374344
24.0,0.049989357590675354
26.0,0.04926813021302223
28.0,0.04855678975582123
30.0,0.047822609543800354
32.0,0.04711027815937996
36.0,0.045679863542318344
40.0,0.0443161278963089
44.0,0.042956724762916565
48.0,0.04158744215965271
52.0,0.04035840928554535
56.0,0.03920581936836243
60.0,0.03809584304690361
64.0,0.0370774120092392
72.0,0.03530825674533844
80.0,0.03360629826784134
88.0,0.032029710710048676
96.0,0.03059210442006588
104.0,0.029333069920539856
112.0,0.027996640652418137
120.0,0.026697715744376183
128.0,0.025403590872883797
144.0,0.022735826671123505
160.0,0.02050347998738289
176.0,0.01812247559428215
192.0,0.015749597921967506
208.0,0.01339000929147005
224.0,0.011345649138092995
240.0,0.009960221126675606
256.0,0.008813943713903427
288.0,0.006427772343158722
320.0,0.004014258738607168
352.0,0.0019531946163624525
384.0,0.000502694514580071
416.0,-0.0009973578853532672
448.0,-0.002457553520798683
480.0,-0.004094015806913376
512.0,-0.006917738821357489
576.0,-0.011467373929917812
640.0,-0.014039093628525734
704.0,-0.014846831560134888
768.0,-0.014246402308344841
832.0,-0.010939705185592175
896.0,-0.008282776921987534
960.0,-0.006668068002909422
1024.0,-0.004593817982822657
1152.0,0.0033994808327406645
1280.0,0.009985744021832943
1408.0,0.008536648005247116
1536.0,0.0018543628975749016
1664.0,-0.0013268952025100589
1792.0,-0.006155971437692642
1920.0,-0.00787228811532259
2048.0,-0.008840019814670086
2304.0,0.0003719163069035858
2560.0,0.0048482539132237434
2816.0,0.0033145740162581205
3072.0,-0.001443341257981956
3328.0,-0.003839588724076748
3584.0,0.0017343214713037014
3840.0,0.009965776465833187
4096.0,-6.657248741248623e-05
4608.0,-0.0035354802384972572
5120.0,-0.004989836364984512
5632.0,-0.003029797924682498
6144.0,-0.0042600687593221664
6656.0,0.002734708832576871
7168.0,0.011727857403457165
7680.0,-0.0021378870587795973
8192.0,-0.0032580464612692595
end
