version,3.0
numOfCh,1
type,point
parent_name,ff67b_0dot069-0dot1
ch_type,1_1
kcount,1
numberNandB,1
brightnessNandB,1
carpet pos,0
pc,0
Time (ms),CH1 Auto-Correlation
1.0,0.07034377008676529
2.0,0.06975823640823364
3.0,0.06922987848520279
4.0,0.06872209906578064
5.0,0.06822104007005692
6.0,0.06773768365383148
7.0,0.06728766113519669
8.0,0.06683307141065598
9.0,0.06639771163463593
10.0,0.06597531586885452
11.0,0.0655573233962059
12.0,0.06512743979692459
13.0,0.06469056010246277
14.0,0.06425417959690094
15.0,0.06382165849208832
16.0,0.06340184062719345
18.0,0.06257114559412003
20.0,0.06182819604873657
22.0,0.0611378438770771
24.0,0.060488954186439514
26.0,0.05985268950462341
28.0,0.059226132929325104
30.0,0.05858784541487694
32.0,0.057939548045396805
36.0,0.056777432560920715
40.0,0.0556216798722744
44.0,0.054465848952531815
48.0,0.053341738879680634
52.0,0.05226071551442146
56.0,0.05127644166350365
60.0,0.05024157091975212
64.0,0.04919721931219101
72.0,0.047252822667360306
80.0,0.04556530714035034
88.0,0.04421764612197876
96.0,0.04274807125329971
104.0,0.04122898355126381
112.0,0.03971587121486664
120.0,0.03843832015991211
128.0,0.0373348593711853
144.0,0.03558606654405594
160.0,0.03413734585046768
176.0,0.03281708434224129
192.0,0.03174116089940071
208.0,0.030563462525606155
224.0,0.029378263279795647
240.0,0.028525205329060555
256.0,0.027983762323856354
288.0,0.025915106758475304
320.0,0.024479616433382034
352.0,0.02420470304787159
384.0,0.02338365465402603
416.0,0.022469665855169296
448.0,0.020878108218312263
480.0,0.018638448789715767
512.0,0.016017474234104156
576.0,0.01178197655826807
640.0,0.009756932966411114
704.0,0.009049152955412865
768.0,0.007218319457024336
832.0,0.0037849487271159887
896.0,5.478096500155516e-05
960.0,-0.002228435594588518
1024.0,-0.0016775259282439947
1152.0,-0.0045959847047924995
1280.0,-0.009368167258799076
1408.0,-0.00851284060627222
1536.0,-0.006770845036953688
1664.0,-0.009420204907655716
1792.0,-0.009969023056328297
1920.0,-0.007056783884763718
2048.0,-0.006836460437625647
2304.0,0.004601414315402508
2560.0,0.009517778642475605
2816.0,0.007896129973232746
3072.0,0.007862317375838757
3328.0,0.003959961701184511
3584.0,-0.0025288008619099855
3840.0,-0.007051010616123676
4096.0,-0.011241592466831207
4608.0,-0.016714459285140038
5120.0,-0.008874624967575073
5632.0,0.00973255094140768
6144.0,0.01685081049799919
6656.0,-0.0055807894095778465
7168.0,-0.02471664920449257
7680.0,-0.028662893921136856
8192.0,-0.014924651011824608
end
