version,3.0
numOfCh,1
type,point
parent_name,ff67b_0dot069-0dot1
ch_type,1_1
kcount,1
numberNandB,1
brightnessNandB,1
carpet pos,0
pc,0
Time (ms),CH1 Auto-Correlation
1.0,0.07391364127397537
2.0,0.07349066436290741
3.0,0.07306692749261856
4.0,0.07265502959489822
5.0,0.07224346697330475
6.0,0.07184296101331711
7.0,0.07143981754779816
8.0,0.07103394716978073
9.0,0.07063904404640198
10.0,0.07023883610963821
11.0,0.06984566897153854
12.0,0.06944360584020615
13.0,0.0690314769744873
14.0,0.068623386323452
15.0,0.06821739673614502
16.0,0.06781315803527832
18.0,0.06701584160327911
20.0,0.06624684482812881
22.0,0.0655125230550766
24.0,0.06478266417980194
26.0,0.06402941048145294
28.0,0.06328029185533524
30.0,0.06255140155553818
32.0,0.061836302280426025
36.0,0.060411274433135986
40.0,0.059075310826301575
44.0,0.05773603171110153
48.0,0.05642382800579071
52.0,0.05518443137407303
56.0,0.05394123122096062
60.0,0.05273675173521042
64.0,0.051591187715530396
72.0,0.04920869320631027
80.0,0.04691530391573906
88.0,0.044891610741615295
96.0,0.04318084195256233
104.0,0.04164041578769684
112.0,0.04030437022447586
120.0,0.039213187992572784
128.0,0.038431521505117416
144.0,0.0373726449906826
160.0,0.0365266352891922
176.0,0.03603615239262581
192.0,0.035765141248703
208.0,0.035399265587329865
224.0,0.03467506170272827
240.0,0.033622317016124725
256.0,0.031926099210977554
288.0,0.028011702001094818
320.0,0.024937067180871964
352.0,0.022550249472260475
384.0,0.021810302510857582
416.0,0.022058427333831787
448.0,0.021945368498563766
480.0,0.020983722060918808
512.0,0.018267551437020302
576.0,0.0132524399086833
640.0,0.012900743633508682
704.0,0.016487058252096176
768.0,0.015589974820613861
832.0,0.013092738576233387
896.0,0.010350953787565231
960.0,0.008057246915996075
1024.0,0.005847136024385691
1152.0,0.00509258359670639
1280.0,-0.0006172508583404124
1408.0,-0.004817828070372343
1536.0,-0.00437548803165555
1664.0,-0.001796963158994913
1792.0,-0.00220323889516294
1920.0,0.001603251206688583
2048.0,0.002588618081063032
2304.0,-0.00022997762425802648
2560.0,2.5465160433668643e-05
2816.0,-5.53152640350163e-05
3072.0,-0.00367891532368958
3328.0,-0.017282629385590553
3584.0,-0.022242369130253792
3840.0,-0.017524471506476402
4096.0,-0.011284539476037025
4608.0,-0.004086320288479328
5120.0,0.008832916617393494
5632.0,0.0006115558790042996
6144.0,0.0006477150018326938
6656.0,0.0008563640876673162
7168.0,0.008527737110853195
7680.0,-0.0008687473018653691
8192.0,-0.01670907996594906
end
