version,3.0
numOfCh,1
type,point
parent_name,ff67b_0dot069-0dot1
ch_type,1_1
kcount,1
numberNandB,1
brightnessNandB,1
carpet pos,0
pc,0
Time (ms),CH1 Auto-Correlation
1.0,0.054112475365400314
2.0,0.053559742867946625
3.0,0.053013090044260025
4.0,0.0524798259139061
5.0,0.05197427421808243
6.0,0.05145858973264694
7.0,0.05095623806118965
8.0,0.05046369507908821
9.0,0.04999524727463722
10.0,0.04954400286078453
11.0,0.04910619184374809
12.0,0.0486820824444294
13.0,0.04826560616493225
14.0,0.04786807671189308
15.0,0.04749789461493492
16.0,0.04715779423713684
18.0,0.0465242825448513
20.0,0.04590568691492081
22.0,0.04531683400273323
24.0,0.04473215714097023
26.0,0.04411913827061653
28.0,0.04345113784074783
30.0,0.042796436697244644
32.0,0.04214154928922653
36.0,0.04084154590964317
40.0,0.039559394121170044
44.0,0.03838213160634041
48.0,0.03723812475800514
52.0,0.036161985248327255
56.0,0.03520268574357033
60.0,0.034345414489507675
64.0,0.033533018082380295
72.0,0.03197994455695152
80.0,0.030418764799833298
88.0,0.028980063274502754
96.0,0.027551447972655296
104.0,0.026319168508052826
112.0,0.02522128075361252
120.0,0.023968564346432686
128.0,0.02262767031788826
144.0,0.020248793065547943
160.0,0.01807822287082672
176.0,0.016079990193247795
192.0,0.013895007781684399
208.0,0.011743561364710331
224.0,0.009325128048658371
240.0,0.00738145224750042
256.0,0.005681490059942007
288.0,0.004180983640253544
320.0,0.004458327312022448
352.0,0.004524581134319305
384.0,0.004957773722708225
416.0,0.0039989156648516655
448.0,0.003069947473704815
480.0,0.0033529738429933786
512.0,0.0028761900030076504
576.0,0.0011544146109372377
640.0,0.0011030941968783736
704.0,0.0008233297849074006
768.0,9.92630302789621e-05
832.0,-0.001055693137459457
896.0,-0.0016518192132934928
960.0,-0.00265714293345809
1024.0,-0.002783164381980896
1152.0,0.0015202370705083013
1280.0,0.0010964289540424943
1408.0,0.0005068566533736885
1536.0,0.004145556129515171
1664.0,0.006263950373977423
1792.0,0.003991481848061085
1920.0,0.0008299779728986323
2048.0,-0.006080244202166796
2304.0,-0.006506651174277067
2560.0,-0.005521077197045088
2816.0,0.0026436815969645977
3072.0,0.003975991625338793
3328.0,0.0034492765553295612
3584.0,0.0038876612670719624
3840.0,-0.0053902301006019115
4096.0,-0.01124824769794941
4608.0,0.0027415237855166197
5120.0,-0.006137161981314421
5632.0,-0.005725558381527662
6144.0,-0.006017039064317942
6656.0,-4.316518243285827e-05
7168.0,-0.004575134254992008
7680.0,0.002199688460677862
8192.0,0.005510755814611912
end
