version,3.0
numOfCh,1
type,point
parent_name,ff67b_0dot069-0dot1
ch_type,1_1
kcount,1
numberNandB,1
brightnessNandB,1
carpet pos,0
pc,0
Time (ms),CH1 Auto-Correlation
1.0,0.04903315007686615
2.0,0.048560816794633865
3.0,0.04809856042265892
4.0,0.04762910678982735
5.0,0.047164879739284515
6.0,0.046708397567272186
7.0,0.04629700258374214
8.0,0.04587965086102486
9.0,0.045481860637664795
10.0,0.04511299356818199
11.0,0.0447472482919693
12.0,0.04437502846121788
13.0,0.04400412365794182
14.0,0.04364430159330368
15.0,0.043302230536937714
16.0,0.042965080589056015
18.0,0.042298365384340286
20.0,0.04163949936628342
22.0,0.04100893810391426
24.0,0.040414780378341675
26.0,0.039865609258413315
28.0,0.0393148735165596
30.0,0.03876061737537384
32.0,0.03822702541947365
36.0,0.03725326433777809
40.0,0.03629988804459572
44.0,0.03544141724705696
48.0,0.034642208367586136
52.0,0.033777277916669846
56.0,0.03293943405151367
60.0,0.03209715709090233
64.0,0.03126581385731697
72.0,0.029777349904179573
80.0,0.02865409478545189
88.0,0.027608513832092285
96.0,0.026710031554102898
104.0,0.025834880769252777
112.0,0.02497933618724346
120.0,0.024052321910858154
128.0,0.023229354992508888
144.0,0.021970899775624275
160.0,0.020716888830065727
176.0,0.019309112802147865
192.0,0.017923643812537193
208.0,0.016590846702456474
224.0,0.015259143896400928
240.0,0.014112372882664204
256.0,0.013093997724354267
288.0,0.011453301645815372
320.0,0.00897336658090353
352.0,0.007186716888099909
384.0,0.006635425146669149
416.0,0.007010428700596094
448.0,0.006165036931633949
480.0,0.005740093998610973
512.0,0.005374970845878124
576.0,0.005946393124759197
640.0,0.008378876373171806
704.0,0.013074484653770924
768.0,0.014102829620242119
832.0,0.012241571210324764
896.0,0.010548559948801994
960.0,0.008897463791072369
1024.0,0.008149199187755585
1152.0,0.006209177430719137
1280.0,0.0018817402888089418
1408.0,6.160491011542035e-06
1536.0,0.0030268600676208735
1664.0,0.002639299025759101
1792.0,0.0014754872536286712
1920.0,0.0013296562246978283
2048.0,0.0020116418600082397
2304.0,-0.0006616345490328968
2560.0,-0.010415477678179741
2816.0,-0.0096474913880229
3072.0,-0.001271975226700306
3328.0,-0.0072965724393725395
3584.0,-0.01601678505539894
3840.0,-0.005779705010354519
4096.0,-0.00488359946757555
4608.0,-0.005684946198016405
5120.0,0.0007559651276096702
5632.0,-0.005328726023435593
6144.0,0.001198422396555543
6656.0,-0.006313560996204615
7168.0,0.003643796080723405
7680.0,0.0056870803236961365
8192.0,0.012959095649421215
end
