version,3.0
numOfCh,1
type,point
parent_name,ff67b_0dot069-0dot1
ch_type,1_1
kcount,1
numberNandB,1
brightnessNandB,1
carpet pos,0
pc,0
Time (ms),CH1 Auto-Correlation
1.0,0.07762257754802704
2.0,0.07686980813741684
3.0,0.07620293647050858
4.0,0.07556629180908203
5.0,0.07496203482151031
6.0,0.07437872886657715
7.0,0.07381092756986618
8.0,0.07327274978160858
9.0,0.07275017350912094
10.0,0.072180837392807
11.0,0.07162293046712875
12.0,0.07104331254959106
13.0,0.07049249857664108
14.0,0.069943867623806
15.0,0.06941193342208862
16.0,0.06889878213405609
18.0,0.06792223453521729
20.0,0.0669834241271019
22.0,0.0659877210855484
24.0,0.06497185677289963
26.0,0.0640358179807663
28.0,0.06311501562595367
30.0,0.06219879537820816
32.0,0.0612846277654171
36.0,0.05943095684051514
40.0,0.057699430733919144
44.0,0.055889301002025604
48.0,0.05415968596935272
52.0,0.05241556838154793
56.0,0.050820834934711456
60.0,0.04925662279129028
64.0,0.047783199697732925
72.0,0.04518217220902443
80.0,0.04274173080921173
88.0,0.04066014289855957
96.0,0.038771942257881165
104.0,0.03696554899215698
112.0,0.03528618812561035
120.0,0.03370838612318039
128.0,0.03230874985456467
144.0,0.030026325955986977
160.0,0.028953367844223976
176.0,0.028398921713232994
192.0,0.02733479253947735
208.0,0.025513509288430214
224.0,0.02377988211810589
240.0,0.022177785634994507
256.0,0.020528391003608704
288.0,0.01873764581978321
320.0,0.01817427948117256
352.0,0.01778670959174633
384.0,0.01667802594602108
416.0,0.016694609075784683
448.0,0.018924999982118607
480.0,0.020370520651340485
512.0,0.019668908789753914
576.0,0.01754857413470745
640.0,0.018512168899178505
704.0,0.015892116352915764
768.0,0.012953856028616428
832.0,0.011235316284000874
896.0,0.008081222884356976
960.0,0.006205112207680941
1024.0,0.004961191210895777
1152.0,0.005735380109399557
1280.0,0.0006598228355869651
1408.0,-0.0012824401492252946
1536.0,-0.007094297092407942
1664.0,-0.0040189353749156
1792.0,-0.008466100320219994
1920.0,-0.007821766659617424
2048.0,-0.009833301417529583
2304.0,-0.0034641989041119814
2560.0,0.006113035604357719
2816.0,0.006815241649746895
3072.0,0.008662283420562744
3328.0,0.01850544661283493
3584.0,0.010452385060489178
3840.0,0.003825309919193387
4096.0,-0.003626006655395031
4608.0,-0.017439277842640877
5120.0,-0.027571501210331917
5632.0,-0.015355044044554234
6144.0,-0.006990327499806881
6656.0,-0.003867321414873004
7168.0,0.004797039553523064
7680.0,-0.009032501839101315
8192.0,-0.012227259576320648
end
