version,3.0
numOfCh,1
type,point
parent_name,ff67b_0dot069-0dot1
ch_type,1_1
kcount,1
numberNandB,1
brightnessNandB,1
carpet pos,0
pc,0
Time (ms),CH1 Auto-Correlation
1.0,0.046011410653591156
2.0,0.045418962836265564
3.0,0.04485920071601868
4.0,0.04431711509823799
5.0,0.043794017285108566
6.0,0.043297503143548965
7.0,0.042821358889341354
8.0,0.04233897849917412
9.0,0.04186806082725525
10.0,0.04140784963965416
11.0,0.04096893221139908
12.0,0.04054759815335274
13.0,0.040143661201000214
14.0,0.039750706404447556
15.0,0.03936987370252609
16.0,0.039016243070364
18.0,0.038289304822683334
20.0,0.03761904314160347
22.0,0.03694460913538933
24.0,0.036295969039201736
26.0,0.035677310079336166
28.0,0.035103749483823776
30.0,0.034500621259212494
32.0,0.033952128142118454
36.0,0.03282604366540909
40.0,0.03182819485664368
44.0,0.030954018235206604
48.0,0.030129579827189445
52.0,0.029278282076120377
56.0,0.028383005410432816
60.0,0.027521908283233643
64.0,0.026671888306736946
72.0,0.02513585425913334
80.0,0.024008283391594887
88.0,0.023217465728521347
96.0,0.02246255986392498
104.0,0.021838659420609474
112.0,0.021243160590529442
120.0,0.020555848255753517
128.0,0.019817868247628212
144.0,0.018212387338280678
160.0,0.016525190323591232
176.0,0.015184612944722176
192.0,0.014762927778065205
208.0,0.014314279891550541
224.0,0.013320380821824074
240.0,0.012856378220021725
256.0,0.012934657745063305
288.0,0.012026994489133358
320.0,0.010449407622218132
352.0,0.008613171055912971
384.0,0.006509056314826012
416.0,0.005182775668799877
448.0,0.004924311768263578
480.0,0.004984034691005945
512.0,0.005188430193811655
576.0,0.007342127151787281
640.0,0.0069601889699697495
704.0,0.00498101394623518
768.0,0.0029410936404019594
832.0,0.0025527519173920155
896.0,0.003381788730621338
960.0,0.0017343161161988974
1024.0,-0.00036403207923285663
1152.0,-0.002321305451914668
1280.0,-0.006070735398679972
1408.0,-0.00655555771663785
1536.0,-0.00475870817899704
1664.0,-0.003586655482649803
1792.0,-0.005254213232547045
1920.0,-0.005994712468236685
2048.0,-0.007912149652838707
2304.0,-0.007438936736434698
2560.0,-0.001566638587974012
2816.0,-0.0043282294645905495
3072.0,-0.0014783372171223164
3328.0,-0.002277894178405404
3584.0,0.0016887333476915956
3840.0,0.004419855773448944
4096.0,0.005674140993505716
4608.0,0.004008177667856216
5120.0,-0.00180443178396672
5632.0,-0.007695849984884262
6144.0,-0.013376623392105103
6656.0,-0.012766596861183643
7168.0,-0.0015051759546622634
7680.0,0.006458905525505543
8192.0,0.011850454844534397
end
