version,3.0
numOfCh,1
type,point
parent_name,ff67b_0dot069-0dot1
ch_type,1_1
kcount,1
numberNandB,1
brightnessNandB,1
carpet pos,0
pc,0
Time (ms),CH1 Auto-Correlation
1.0,0.04736930876970291
2.0,0.046881578862667084
3.0,0.046397995203733444
4.0,0.045930929481983185
5.0,0.04547422379255295
6.0,0.045052431523799896
7.0,0.044641558080911636
8.0,0.04424363747239113
9.0,0.04385821893811226
10.0,0.043483808636665344
11.0,0.043114565312862396
12.0,0.042763471603393555
13.0,0.04239790141582489
14.0,0.04201967641711235
15.0,0.041643526405096054
16.0,0.0412776842713356
18.0,0.04058697819709778
20.0,0.03992389887571335
22.0,0.03927714750170708
24.0,0.03867562115192413
26.0,0.038091957569122314
28.0,0.03750398010015488
30.0,0.036966629326343536
32.0,0.03650477156043053
36.0,0.03561093285679817
40.0,0.03479929640889168
44.0,0.03399595245718956
48.0,0.03320813179016113
52.0,0.032436467707157135
56.0,0.031719449907541275
60.0,0.030975421890616417
64.0,0.030293237417936325
72.0,0.02916952408850193
80.0,0.028155742213129997
88.0,0.027153069153428078
96.0,0.02604081854224205
104.0,0.024991631507873535
112.0,0.02397511713206768
120.0,0.023017417639493942
128.0,0.02215479128062725
144.0,0.02073097974061966
160.0,0.01951771229505539
176.0,0.018142743036150932
192.0,0.017239559441804886
208.0,0.01625833660364151
224.0,0.01519005373120308
240.0,0.014641046524047852
256.0,0.013612060807645321
288.0,0.011339242570102215
320.0,0.009033320471644402
352.0,0.007742281537503004
384.0,0.00777288805693388
416.0,0.007145424839109182
448.0,0.006360406521707773
480.0,0.005751131102442741
512.0,0.003994140308350325
576.0,0.0027956529520452023
640.0,0.002521952847018838
704.0,0.0007998642395250499
768.0,0.0020795802120119333
832.0,0.002322494750842452
896.0,0.002741292817518115
960.0,0.002177585382014513
1024.0,0.0016867693047970533
1152.0,0.0019144447287544608
1280.0,0.0053453403525054455
1408.0,0.006504453253000975
1536.0,0.005866754334419966
1664.0,0.004705821629613638
1792.0,0.0043455432169139385
1920.0,0.008457689546048641
2048.0,0.007554661948233843
2304.0,0.005465654190629721
2560.0,0.00019493029685691
2816.0,-0.00624361215159297
3072.0,-0.009170958772301674
3328.0,-0.001688297837972641
3584.0,0.0027114080730825663
3840.0,0.006409924011677504
4096.0,0.0036961070727556944
4608.0,-0.011632544919848442
5120.0,-0.00963572971522808
5632.0,-0.011730327270925045
6144.0,-0.007348486687988043
6656.0,-0.013149524107575417
7168.0,-0.0024755571503192186
7680.0,-0.000461185205494985
8192.0,0.0007659359253011644
end
