version,3.0
numOfCh,1
type,point
parent_name,c1204_0dot08-0dot1
ch_type,1_1
kcount,1
numberNandB,1
brightnessNandB,1
carpet pos,0
pc,0
Time (ms),CH1 Auto-Correlation
1.0,0.06568442285060883
2.0,0.06498733907938004
3.0,0.06429259479045868
4.0,0.06365956366062164
5.0,0.06304746866226196
6.0,0.0624585784971714
7.0,0.0618693009018898
8.0,0.06129653751850128
9.0,0.06072719767689705
10.0,0.06017293408513069
11.0,0.05962652340531349
12.0,0.05909659340977669
13.0,0.05860591307282448
14.0,0.058085568249225616
15.0,0.057594601064920425
16.0,0.057140424847602844
18.0,0.056172020733356476
20.0,0.055201295763254166
22.0,0.05429893732070923
24.0,0.0534290187060833
26.0,0.05256370082497597
28.0,0.05172276496887207
30.0,0.05091414228081703
32.0,0.050145070999860764
36.0,0.04870491474866867
40.0,0.047246675938367844
44.0,0.045640360563993454
48.0,0.04403110593557358
52.0,0.04256502166390419
56.0,0.041083499789237976
60.0,0.039532601833343506
64.0,0.03800101950764656
72.0,0.03531825169920921
80.0,0.03301188349723816
88.0,0.030687568709254265
96.0,0.02844264544546604
104.0,0.026357049122452736
112.0,0.02451544627547264
120.0,0.022852823138237
128.0,0.021595653146505356
144.0,0.019127413630485535
160.0,0.01773093454539776
176.0,0.016552863642573357
192.0,0.015551012009382248
208.0,0.015106779523193836
224.0,0.015168780460953712
240.0,0.015401049517095089
256.0,0.01573210582137108
288.0,0.015232807956635952
320.0,0.014098882675170898
352.0,0.012231381610035896
384.0,0.010070458985865116
416.0,0.008340534754097462
448.0,0.007560496684163809
480.0,0.006471357308328152
512.0,0.005625688936561346
576.0,0.0032320707105100155
640.0,0.002193662105128169
704.0,0.0035908627323806286
768.0,0.0027874389197677374
832.0,0.001549797016195953
896.0,-0.0033499442506581545
960.0,-0.006328970193862915
1024.0,-0.0073942989110946655
1152.0,-0.004700054880231619
1280.0,0.00357867032289505
1408.0,0.0024116893764585257
1536.0,0.000600597180891782
1664.0,-0.0020783436484634876
1792.0,-0.00019840132154058665
1920.0,0.003382122376933694
2048.0,0.003672549966722727
2304.0,-0.003608273807913065
2560.0,-0.004266537260264158
2816.0,0.007694940082728863
3072.0,0.010025185532867908
3328.0,0.0018000317504629493
3584.0,-0.003097985638305545
3840.0,-0.00921974889934063
4096.0,-0.00522977951914072
4608.0,-0.011388790793716908
5120.0,-0.010452321730554104
5632.0,-0.008415249176323414
6144.0,0.0010919368360191584
6656.0,-0.0039868284948170185
7168.0,-0.013861066661775112
7680.0,-0.010012615472078323
8192.0,-0.006177856121212244
end
