version,3.0
numOfCh,1
type,point
parent_name,c1204_0dot08-0dot1
ch_type,1_1
kcount,1
numberNandB,1
brightnessNandB,1
carpet pos,0
pc,0
Time (ms),CH1 Auto-Correlation
1.0,0.05810689181089401
2.0,0.05757633224129677
3.0,0.057064179331064224
4.0,0.05657617747783661
5.0,0.05610344186425209
6.0,0.055621299892663956
7.0,0.05514512583613396
8.0,0.05467677861452103
9.0,0.054214105010032654
10.0,0.053766880184412
11.0,0.05333022400736809
12.0,0.05290042236447334
13.0,0.05246739089488983
14.0,0.05204285308718681
15.0,0.0516238771378994
16.0,0.05122833698987961
18.0,0.05042947083711624
20.0,0.04966682195663452
22.0,0.048932451754808426
24.0,0.04822412505745888
26.0,0.047529272735118866
28.0,0.04685697704553604
30.0,0.046211127191782
32.0,0.045572638511657715
36.0,0.0443451888859272
40.0,0.043107688426971436
44.0,0.04192185774445534
48.0,0.040816258639097214
52.0,0.03972187265753746
56.0,0.038627803325653076
60.0,0.03756509721279144
64.0,0.03655228763818741
72.0,0.034641657024621964
80.0,0.03293034806847572
88.0,0.03154103830456734
96.0,0.03037470206618309
104.0,0.029310936108231544
112.0,0.028424151241779327
120.0,0.02778628095984459
128.0,0.02721993438899517
144.0,0.02652510441839695
160.0,0.026142703369259834
176.0,0.025704866275191307
192.0,0.02585749886929989
208.0,0.02638724446296692
224.0,0.026758303865790367
240.0,0.026300352066755295
256.0,0.02586470916867256
288.0,0.025513900443911552
320.0,0.024487020447850227
352.0,0.021714255213737488
384.0,0.019285259768366814
416.0,0.017402300611138344
448.0,0.017172880470752716
480.0,0.016662614420056343
512.0,0.016402337700128555
576.0,0.017370961606502533
640.0,0.014855309389531612
704.0,0.01211519818753004
768.0,0.010479995980858803
832.0,0.010183906182646751
896.0,0.008870217949151993
960.0,0.005977045278996229
1024.0,0.006852007005363703
1152.0,0.005910555366426706
1280.0,0.0025254879146814346
1408.0,0.00047956901835277677
1536.0,0.0026301019825041294
1664.0,0.004439425654709339
1792.0,0.002900663297623396
1920.0,-0.0010046111419796944
2048.0,-0.0020315637812018394
2304.0,-0.0008002534159459174
2560.0,-0.0014869020087644458
2816.0,-0.004546592477709055
3072.0,-0.006550144404172897
3328.0,-0.008127356879413128
3584.0,-0.015027991496026516
3840.0,-0.016881899908185005
4096.0,-0.01590770110487938
4608.0,-0.012677224352955818
5120.0,-0.009529676288366318
5632.0,-0.007897078059613705
6144.0,-0.01473687682300806
6656.0,-0.01045015174895525
7168.0,0.0056618801318109035
7680.0,0.012190140783786774
8192.0,0.01262643001973629
end
