version,3.0
numOfCh,1
type,point
parent_name,c1204_0dot08-0dot1
ch_type,1_1
kcount,1
numberNandB,1
brightnessNandB,1
carpet pos,0
pc,0
Time (ms),CH1 Auto-Correlation
1.0,0.05905952304601669
2.0,0.058168668299913406
3.0,0.05736599490046501
4.0,0.05661069229245186
5.0,0.055895447731018066
6.0,0.05515442416071892
7.0,0.05445297807455063
8.0,0.05377349257469177
9.0,0.05312301591038704
10.0,0.052515659481287
11.0,0.05191653221845627
12.0,0.05126039683818817
13.0,0.05063742399215698
14.0,0.050037726759910583
15.0,0.04947719722986221
16.0,0.04892890155315399
18.0,0.04785512387752533
20.0,0.04688306152820587
22.0,0.04599893465638161
24.0,0.0451338104903698
26.0,0.04424198716878891
28.0,0.0433410182595253
30.0,0.042485542595386505
32.0,0.04169018194079399
36.0,0.04016883671283722
40.0,0.03871941938996315
44.0,0.03745701536536217
48.0,0.03644305095076561
52.0,0.03549860045313835
56.0,0.03460249304771423
60.0,0.03385702893137932
64.0,0.032885268330574036
72.0,0.030638305470347404
80.0,0.028455888852477074
88.0,0.026831142604351044
96.0,0.025552725419402122
104.0,0.024192102253437042
112.0,0.023250015452504158
120.0,0.0223145242780447
128.0,0.02155679278075695
144.0,0.020125005394220352
160.0,0.01754661276936531
176.0,0.015321612358093262
192.0,0.014090093784034252
208.0,0.013780223205685616
224.0,0.013266203925013542
240.0,0.01240598876029253
256.0,0.01129025686532259
288.0,0.007126884534955025
320.0,0.004791267681866884
352.0,0.0033628137316554785
384.0,0.0034349095076322556
416.0,0.002614871598780155
448.0,0.0019129395950585604
480.0,0.002234051236882806
512.0,0.0024977801367640495
576.0,0.0015512693207710981
640.0,-0.0007799412123858929
704.0,-0.0026080897077918053
768.0,-0.0002470693434588611
832.0,0.0007693702937103808
896.0,0.003281487850472331
960.0,0.005363272503018379
1024.0,0.006185635458678007
1152.0,0.008067972026765347
1280.0,0.0025465998332947493
1408.0,-0.004254075698554516
1536.0,-0.012154537253081799
1664.0,-0.010293057188391685
1792.0,-0.008751694113016129
1920.0,-0.011595219373703003
2048.0,-0.014150222763419151
2304.0,-0.007321108132600784
2560.0,-0.009719042107462883
2816.0,-0.00904657132923603
3072.0,-0.008103164844214916
3328.0,-0.0094519704580307
3584.0,0.002232193248346448
3840.0,-0.0009448809432797134
4096.0,0.005062726326286793
4608.0,0.011355916038155556
5120.0,0.01145023200660944
5632.0,0.010524967685341835
6144.0,-0.003709339303895831
6656.0,-0.0032575216609984636
7168.0,-0.010583562776446342
7680.0,-0.009390666149556637
8192.0,0.0013179518282413483
end
