version,3.0
numOfCh,1
type,point
parent_name,c1204_0dot08-0dot1
ch_type,1_1
kcount,1
numberNandB,1
brightnessNandB,1
carpet pos,0
pc,0
Time (ms),CH1 Auto-Correlation
1.0,0.05930393189191818
2.0,0.05870179459452629
3.0,0.05811622738838196
4.0,0.0575428381562233
5.0,0.05699184536933899
6.0,0.056457795202732086
7.0,0.055930498987436295
8.0,0.0554073341190815
9.0,0.054885026067495346
10.0,0.05436735227704048
11.0,0.053872235119342804
12.0,0.05338625609874725
13.0,0.0529131218791008
14.0,0.052433326840400696
15.0,0.05196049436926842
16.0,0.05150507390499115
18.0,0.050622694194316864
20.0,0.04975263029336929
22.0,0.04893720522522926
24.0,0.04819297045469284
26.0,0.047485966235399246
28.0,0.046794336289167404
30.0,0.04612412303686142
32.0,0.045431945472955704
36.0,0.04412184655666351
40.0,0.042895976454019547
44.0,0.04169943183660507
48.0,0.040540911257267
52.0,0.0394403412938118
56.0,0.03850527107715607
60.0,0.03775656223297119
64.0,0.03709157928824425
72.0,0.03584844246506691
80.0,0.03459105268120766
88.0,0.03329268470406532
96.0,0.03203374147415161
104.0,0.030681954696774483
112.0,0.029223183169960976
120.0,0.027729544788599014
128.0,0.02632908709347248
144.0,0.023936936631798744
160.0,0.021604884415864944
176.0,0.019812215119600296
192.0,0.017960697412490845
208.0,0.01608717255294323
224.0,0.014260215684771538
240.0,0.013111712411046028
256.0,0.012138140387833118
288.0,0.010147917084395885
320.0,0.008485691621899605
352.0,0.006987523753196001
384.0,0.006396366748958826
416.0,0.005879000760614872
448.0,0.005038309842348099
480.0,0.003321979660540819
512.0,0.00175573886372149
576.0,0.002604134613648057
640.0,0.003921498078852892
704.0,0.00496478658169508
768.0,0.0022206243593245745
832.0,-0.0010538810165598989
896.0,-0.00508972629904747
960.0,-0.009296974167227745
1024.0,-0.012810696847736835
1152.0,-0.013820335268974304
1280.0,-0.011743173003196716
1408.0,-0.0076531521044671535
1536.0,-0.005608079489320517
1664.0,-0.00631763506680727
1792.0,-0.006009573116898537
1920.0,-0.003914455883204937
2048.0,0.0015213118167594075
2304.0,0.003196352394297719
2560.0,-0.0019189598970115185
2816.0,0.00046031561214476824
3072.0,0.005345270037651062
3328.0,0.0010290679056197405
3584.0,-0.0009817982790991664
3840.0,0.0029624623712152243
4096.0,-0.004208603873848915
4608.0,0.0001493213785579428
5120.0,-0.001003763172775507
5632.0,0.005161537788808346
6144.0,0.0061432113870978355
6656.0,0.008125679567456245
7168.0,-0.014970840886235237
7680.0,-0.010665721260011196
8192.0,0.003586377715691924
end
