version,3.0
numOfCh,1
type,point
parent_name,c1204_0dot08-0dot1
ch_type,1_1
kcount,1
numberNandB,1
brightnessNandB,1
carpet pos,0
pc,0
Time (ms),CH1 Auto-Correlation
1.0,0.06743203848600388
2.0,0.06673697382211685
3.0,0.06605371087789536
4.0,0.06539586186408997
5.0,0.064783476293087
6.0,0.06420698761940002
7.0,0.06363151967525482
8.0,0.06305285543203354
9.0,0.0624627023935318
10.0,0.06188899278640747
11.0,0.061330996453762054
12.0,0.060775864869356155
13.0,0.060217712074518204
14.0,0.05964123457670212
15.0,0.05907607078552246
16.0,0.05848091095685959
18.0,0.05738977715373039
20.0,0.056379806250333786
22.0,0.05542164295911789
24.0,0.05451281741261482
26.0,0.05361455678939819
28.0,0.05270543694496155
30.0,0.051774270832538605
32.0,0.05093127861618996
36.0,0.04945120960474014
40.0,0.04800884425640106
44.0,0.046618059277534485
48.0,0.04541367292404175
52.0,0.04421893134713173
56.0,0.043010350316762924
60.0,0.04178720340132713
64.0,0.04065491259098053
72.0,0.03834361955523491
80.0,0.036340173333883286
88.0,0.03470795229077339
96.0,0.03332041949033737
104.0,0.032249681651592255
112.0,0.031216444447636604
120.0,0.030070755630731583
128.0,0.028710072860121727
144.0,0.025534581393003464
160.0,0.02264965884387493
176.0,0.01957555115222931
192.0,0.017389880493283272
208.0,0.01499966997653246
224.0,0.012506009079515934
240.0,0.010378280654549599
256.0,0.008979515172541142
288.0,0.005073026288300753
320.0,0.0026310051325708628
352.0,0.0020449869334697723
384.0,0.001400198321789503
416.0,0.001138809253461659
448.0,0.001926638768054545
480.0,0.0034399868454784155
512.0,0.00377576588653028
576.0,0.003932620398700237
640.0,0.0015424328157678246
704.0,-0.002863303292542696
768.0,-0.0027360396925359964
832.0,-0.00016079779015854
896.0,0.00028164545074105263
960.0,0.000457300862763077
1024.0,0.0022969446144998074
1152.0,7.009365072008222e-05
1280.0,-0.0055327219888567924
1408.0,-0.007206030655652285
1536.0,-0.007396017666906118
1664.0,-0.009980766102671623
1792.0,-0.009706537239253521
1920.0,-0.004911860916763544
2048.0,-0.005732748191803694
2304.0,-0.015023822896182537
2560.0,-0.0018254583701491356
2816.0,-0.007227715104818344
3072.0,-0.002212467137724161
3328.0,0.00011145116877742112
3584.0,0.01338977087289095
3840.0,0.016450636088848114
4096.0,0.012000078335404396
4608.0,-0.0011197874555364251
5120.0,0.001300700125284493
5632.0,-0.00800268817692995
6144.0,-0.00851086899638176
6656.0,-0.01028428878635168
7168.0,0.0007499956991523504
7680.0,0.009666608646512032
8192.0,-0.00015106236969586462
end
