version,3.0
numOfCh,1
type,point
parent_name,c1204_0dot08-0dot1
ch_type,1_1
kcount,1
numberNandB,1
brightnessNandB,1
carpet pos,0
pc,0
Time (ms),CH1 Auto-Correlation
1.0,0.051852136850357056
2.0,0.051275335252285004
3.0,0.05071644484996796
4.0,0.05017664283514023
5.0,0.049650900065898895
6.0,0.04911721870303154
7.0,0.04862312972545624
8.0,0.048146411776542664
9.0,0.047681789845228195
10.0,0.047230545431375504
11.0,0.04677356779575348
12.0,0.04632190242409706
13.0,0.045859746634960175
14.0,0.04540782421827316
15.0,0.044968459755182266
16.0,0.04454601928591728
18.0,0.043707024306058884
20.0,0.04294032230973244
22.0,0.042217276990413666
24.0,0.04152248427271843
26.0,0.04086805135011673
28.0,0.04024853557348251
30.0,0.03966096043586731
32.0,0.039097487926483154
36.0,0.038094788789749146
40.0,0.03723488003015518
44.0,0.03636155277490616
48.0,0.0354326032102108
52.0,0.03453265503048897
56.0,0.033697161823511124
60.0,0.032917801290750504
64.0,0.03215384483337402
72.0,0.030641863122582436
80.0,0.02904074266552925
88.0,0.027477944269776344
96.0,0.026123691350221634
104.0,0.02479187771677971
112.0,0.02374432049691677
120.0,0.02284022979438305
128.0,0.021996229887008667
144.0,0.020765982568264008
160.0,0.01974480412900448
176.0,0.01842169463634491
192.0,0.01757611148059368
208.0,0.016689399257302284
224.0,0.015494473278522491
240.0,0.014854082837700844
256.0,0.014291735365986824
288.0,0.011396732181310654
320.0,0.009016131050884724
352.0,0.007013396825641394
384.0,0.005970166530460119
416.0,0.004966309759765863
448.0,0.004470568150281906
480.0,0.004541403613984585
512.0,0.004111087881028652
576.0,0.0014087323797866702
640.0,-0.0013429189566522837
704.0,-0.0020074357744306326
768.0,-0.002090561669319868
832.0,-0.0027045561000704765
896.0,-0.0033369094599038363
960.0,-0.0028872268740087748
1024.0,-0.002233065664768219
1152.0,-0.0027798376977443695
1280.0,-0.0022817219141870737
1408.0,-0.0014194442192092538
1536.0,-0.003499977756291628
1664.0,-0.003510054899379611
1792.0,-0.003010011510923505
1920.0,0.0009120766771957278
2048.0,0.0036728503182530403
2304.0,0.006346164271235466
2560.0,0.002320316154509783
2816.0,0.000577425176743418
3072.0,-0.0006388298934325576
3328.0,-0.00238936860114336
3584.0,-0.005836055614054203
3840.0,-0.010641675442457199
4096.0,-0.012199519202113152
4608.0,-0.00503111258149147
5120.0,0.0015862766886129975
5632.0,0.002669591223821044
6144.0,-0.014403758570551872
6656.0,-0.007994087412953377
7168.0,0.0037086845841258764
7680.0,0.0053919171914458275
8192.0,-0.002022059168666601
end
