version,3.0
numOfCh,1
type,point
parent_name,c1204_0dot08-0dot1
ch_type,1_1
kcount,1
numberNandB,1
brightnessNandB,1
carpet pos,0
pc,0
Time (ms),CH1 Auto-Correlation
1.0,0.06450865417718887
2.0,0.06399956345558167
3.0,0.06351550668478012
4.0,0.06303046643733978
5.0,0.06255053728818893
6.0,0.06208563968539238
7.0,0.06163172423839569
8.0,0.0611901693046093
9.0,0.060756128281354904
10.0,0.06034214049577713
11.0,0.05993505194783211
12.0,0.05954117327928543
13.0,0.05915641412138939
14.0,0.05875960364937782
15.0,0.05837632715702057
16.0,0.057997699826955795
18.0,0.05724981799721718
20.0,0.056516390293836594
22.0,0.05578211694955826
24.0,0.05505084991455078
26.0,0.0543394573032856
28.0,0.05367396026849747
30.0,0.053043559193611145
32.0,0.05241949111223221
36.0,0.05124654248356819
40.0,0.05016929283738136
44.0,0.04917401447892189
48.0,0.04816169664263725
52.0,0.0471990630030632
56.0,0.04639749974012375
60.0,0.045642659068107605
64.0,0.044864553958177567
72.0,0.04332888871431351
80.0,0.04174951836466789
88.0,0.040239475667476654
96.0,0.038767438381910324
104.0,0.037437207996845245
112.0,0.03606697544455528
120.0,0.03476583957672119
128.0,0.03349576145410538
144.0,0.031106360256671906
160.0,0.028624264523386955
176.0,0.026177870109677315
192.0,0.024202382192015648
208.0,0.022233981639146805
224.0,0.020444389432668686
240.0,0.01890169456601143
256.0,0.017518300563097
288.0,0.014118640683591366
320.0,0.012163673527538776
352.0,0.01060782466083765
384.0,0.008576304651796818
416.0,0.006393091753125191
448.0,0.005052367690950632
480.0,0.004845165181905031
512.0,0.0054293726570904255
576.0,0.00574447400867939
640.0,0.007172202691435814
704.0,0.007594658061861992
768.0,0.006075945682823658
832.0,0.007331428118050098
896.0,0.0120225939899683
960.0,0.014638309367001057
1024.0,0.015301833860576153
1152.0,0.01401754654943943
1280.0,0.009721120819449425
1408.0,0.007575356401503086
1536.0,0.006853451021015644
1664.0,0.004860856104642153
1792.0,0.0002785961842164397
1920.0,-0.0006353703793138266
2048.0,0.0029990465845912695
2304.0,0.0027491229120641947
2560.0,-0.0023657341953366995
2816.0,-0.009179612621665001
3072.0,-0.00783734954893589
3328.0,-0.004389607347548008
3584.0,0.002671994501724839
3840.0,0.0024623291101306677
4096.0,-0.0022738270927220583
4608.0,-0.005705058109015226
5120.0,-0.005241678562015295
5632.0,0.005773886106908321
6144.0,-0.01327692624181509
6656.0,-0.009618787094950676
7168.0,-0.010552851483225822
7680.0,-0.014517550356686115
8192.0,-0.014099564403295517
end
