version,3.0
numOfCh,1
type,point
parent_name,c1204_0dot08-0dot1
ch_type,1_1
kcount,1
numberNandB,1
brightnessNandB,1
carpet pos,0
pc,0
Time (ms),CH1 Auto-Correlation
1.0,0.08959431946277618
2.0,0.08896256983280182
3.0,0.08835255354642868
4.0,0.08777341991662979
5.0,0.08722427487373352
6.0,0.08670807629823685
7.0,0.08620347827672958
8.0,0.08566280454397202
9.0,0.08516506105661392
10.0,0.08466773480176926
11.0,0.08419520407915115
12.0,0.08372670412063599
13.0,0.08328069001436234
14.0,0.08281049877405167
15.0,0.08233229070901871
16.0,0.08187451958656311
18.0,0.08095911890268326
20.0,0.08007235825061798
22.0,0.07926249504089355
24.0,0.07844281196594238
26.0,0.07761507481336594
28.0,0.07678449153900146
30.0,0.07596945762634277
32.0,0.07516152411699295
36.0,0.07369338721036911
40.0,0.0722784772515297
44.0,0.07093125581741333
48.0,0.06963518261909485
52.0,0.0683252364397049
56.0,0.0670631155371666
60.0,0.06587263196706772
64.0,0.06470680236816406
72.0,0.06249045953154564
80.0,0.060432542115449905
88.0,0.05840366333723068
96.0,0.0562780387699604
104.0,0.05414019525051117
112.0,0.052415549755096436
120.0,0.051277536898851395
128.0,0.05033985897898674
144.0,0.04859967902302742
160.0,0.04630209133028984
176.0,0.043861035257577896
192.0,0.042015738785266876
208.0,0.040971383452415466
224.0,0.04005315899848938
240.0,0.03878367319703102
256.0,0.037269022315740585
288.0,0.03582286089658737
320.0,0.03254358842968941
352.0,0.02959560975432396
384.0,0.028324931859970093
416.0,0.02789495326578617
448.0,0.028698597103357315
480.0,0.02856581099331379
512.0,0.027615420520305634
576.0,0.02365279570221901
640.0,0.019787997007369995
704.0,0.018420064821839333
768.0,0.018111031502485275
832.0,0.016917625442147255
896.0,0.01430261880159378
960.0,0.010250015184283257
1024.0,0.009079372510313988
1152.0,0.004092133603990078
1280.0,0.0019487892277538776
1408.0,-0.00040181263466365635
1536.0,0.0027164521161466837
1664.0,0.009453367441892624
1792.0,0.016666224226355553
1920.0,0.017214007675647736
2048.0,0.01833641715347767
2304.0,0.02217782475054264
2560.0,0.020141709595918655
2816.0,0.016599316149950027
3072.0,0.013025710359215736
3328.0,0.00938213337212801
3584.0,0.008773528039455414
3840.0,-0.001032019266858697
4096.0,-0.007651803083717823
4608.0,-0.006177794653922319
5120.0,-0.0036246217787265778
5632.0,0.0017189023783430457
6144.0,-0.015343280509114265
6656.0,-0.033769745379686356
7168.0,-0.01795790158212185
7680.0,-0.02353908121585846
8192.0,-0.018931593745946884
end
