version,3.0
numOfCh,1
type,point
parent_name,c1204_0dot08-0dot1
ch_type,1_1
kcount,1
numberNandB,1
brightnessNandB,1
carpet pos,0
pc,0
Time (ms),CH1 Auto-Correlation
1.0,0.06031276658177376
2.0,0.05967449024319649
3.0,0.05903360992670059
4.0,0.058411870151758194
5.0,0.05779644846916199
6.0,0.05720989778637886
7.0,0.05666457489132881
8.0,0.05614954233169556
9.0,0.05563066527247429
10.0,0.055113568902015686
11.0,0.054621659219264984
12.0,0.054133523255586624
13.0,0.05365946888923645
14.0,0.053170960396528244
15.0,0.05270664393901825
16.0,0.052234992384910583
18.0,0.05137983337044716
20.0,0.05056646466255188
22.0,0.04977090656757355
24.0,0.048982180655002594
26.0,0.04823075979948044
28.0,0.04752502962946892
30.0,0.04682287573814392
32.0,0.046117305755615234
36.0,0.04480394721031189
40.0,0.04364367946982384
44.0,0.0425720289349556
48.0,0.041514281183481216
52.0,0.040503185242414474
56.0,0.03952294960618019
60.0,0.038480453193187714
64.0,0.03751731291413307
72.0,0.035911597311496735
80.0,0.03453025221824646
88.0,0.0332646444439888
96.0,0.0318843349814415
104.0,0.030497383326292038
112.0,0.02908320166170597
120.0,0.027795786038041115
128.0,0.026463307440280914
144.0,0.024192677810788155
160.0,0.023198267444968224
176.0,0.02274596318602562
192.0,0.022103143855929375
208.0,0.02132486179471016
224.0,0.020375089719891548
240.0,0.01900273934006691
256.0,0.017610391601920128
288.0,0.015392466448247433
320.0,0.013096626847982407
352.0,0.011221916414797306
384.0,0.008689931593835354
416.0,0.005652247928082943
448.0,0.0041598486714065075
480.0,0.0029096149373799562
512.0,0.0026700885500758886
576.0,0.002467224607244134
640.0,0.0008289602119475603
704.0,-0.00043891879613511264
768.0,0.0007333497633226216
832.0,0.0012083826586604118
896.0,0.0023397239856421947
960.0,0.0022990761790424585
1024.0,0.0024419017136096954
1152.0,0.0073377955704927444
1280.0,0.009860695339739323
1408.0,0.006188295781612396
1536.0,0.002598803024739027
1664.0,-0.0010920254280790687
1792.0,-0.005049608647823334
1920.0,-0.007361904717981815
2048.0,-0.007909930311143398
2304.0,-0.004544414114207029
2560.0,-0.0031131873838603497
2816.0,-0.0045573716051876545
3072.0,-0.011010450311005116
3328.0,-0.012898439541459084
3584.0,-0.00629338389262557
3840.0,-0.0015035502146929502
4096.0,0.000977344810962677
4608.0,-0.007665357552468777
5120.0,0.002859947970137
5632.0,-0.0010419063037261367
6144.0,-1.4802214536757674e-05
6656.0,0.008148299530148506
7168.0,0.00545443594455719
7680.0,0.009715864434838295
8192.0,-0.0017482225084677339
end
