version,3.0
numOfCh,1
type,point
parent_name,c1204_0dot08-0dot1
ch_type,1_1
kcount,1
numberNandB,1
brightnessNandB,1
carpet pos,0
pc,0
Time (ms),CH1 Auto-Correlation
1.0,0.06522245705127716
2.0,0.0645015612244606
3.0,0.06384294480085373
4.0,0.06321284174919128
5.0,0.06263353675603867
6.0,0.06209462136030197
7.0,0.06157514825463295
8.0,0.06108317896723747
9.0,0.060580138117074966
10.0,0.06005801633000374
11.0,0.059547264128923416
12.0,0.059075042605400085
13.0,0.05863460898399353
14.0,0.0582287535071373
15.0,0.05781608819961548
16.0,0.057407401502132416
18.0,0.0566730797290802
20.0,0.055939480662345886
22.0,0.05517652630805969
24.0,0.054395534098148346
26.0,0.05357329919934273
28.0,0.05276951566338539
30.0,0.05200335383415222
32.0,0.05126063525676727
36.0,0.04983655735850334
40.0,0.04848717898130417
44.0,0.04721367359161377
48.0,0.0459464006125927
52.0,0.04465733841061592
56.0,0.04341677948832512
60.0,0.042309340089559555
64.0,0.041301894932985306
72.0,0.03927793726325035
80.0,0.037200864404439926
88.0,0.0355304554104805
96.0,0.03380422666668892
104.0,0.03206834942102432
112.0,0.030574139207601547
120.0,0.02919689193367958
128.0,0.027691645547747612
144.0,0.024940090253949165
160.0,0.02228030189871788
176.0,0.01956702396273613
192.0,0.017055602744221687
208.0,0.015088667161762714
224.0,0.013421701267361641
240.0,0.012208531610667706
256.0,0.010520927608013153
288.0,0.007138357963413
320.0,0.0049390834756195545
352.0,0.004124865401536226
384.0,0.004516638349741697
416.0,0.003976819105446339
448.0,0.0044769952073693275
480.0,0.005249587818980217
512.0,0.0060236467979848385
576.0,0.00559419859200716
640.0,0.002820401219651103
704.0,-0.0019981535151600838
768.0,-0.0011356619652360678
832.0,0.0007940854993648827
896.0,-7.827937952242792e-05
960.0,-0.001815824885852635
1024.0,-0.0019874069839715958
1152.0,-0.003230081172659993
1280.0,0.001556771108880639
1408.0,0.007278655655682087
1536.0,0.005040495190769434
1664.0,0.000996123068034649
1792.0,-0.002839110791683197
1920.0,-0.0027521629817783833
2048.0,-0.004796144086867571
2304.0,-0.005796365439891815
2560.0,-0.0002764886012300849
2816.0,0.00379500281997025
3072.0,0.001913871499709785
3328.0,-0.0023800418712198734
3584.0,-0.0007379508460871875
3840.0,-0.004721553064882755
4096.0,-0.01567644625902176
4608.0,-0.005676494911313057
5120.0,-0.0065354108810424805
5632.0,-0.01857782155275345
6144.0,0.0015315315686166286
6656.0,0.00911459419876337
7168.0,-7.61545670684427e-05
7680.0,0.011527949944138527
8192.0,6.48384157102555e-05
end
