version,3.0
numOfCh,1
type,point
parent_name,c1204_0dot08-0dot1
ch_type,1_1
kcount,1
numberNandB,1
brightnessNandB,1
carpet pos,0
pc,0
Time (ms),CH1 Auto-Correlation
1.0,0.08130638301372528
2.0,0.08061248809099197
3.0,0.07997402548789978
4.0,0.07935211062431335
5.0,0.07874726504087448
6.0,0.07820722460746765
7.0,0.07768889516592026
8.0,0.07715252041816711
9.0,0.07659903168678284
10.0,0.07604427635669708
11.0,0.07550843805074692
12.0,0.07495628297328949
13.0,0.07442960888147354
14.0,0.07390966266393661
15.0,0.07341603934764862
16.0,0.07295561581850052
18.0,0.0720621794462204
20.0,0.07118803262710571
22.0,0.07031138241291046
24.0,0.06947053223848343
26.0,0.0686592310667038
28.0,0.06785716116428375
30.0,0.06704645603895187
32.0,0.066273532807827
36.0,0.06486651301383972
40.0,0.0635470524430275
44.0,0.06230875849723816
48.0,0.06113630533218384
52.0,0.060188136994838715
56.0,0.059266477823257446
60.0,0.05838862061500549
64.0,0.05751753970980644
72.0,0.055912334471940994
80.0,0.05409754440188408
88.0,0.05242576822638512
96.0,0.051009345799684525
104.0,0.049449291080236435
112.0,0.04783937335014343
120.0,0.046437863260507584
128.0,0.0450805127620697
144.0,0.042758893221616745
160.0,0.040854260325431824
176.0,0.039345987141132355
192.0,0.037267379462718964
208.0,0.03501603379845619
224.0,0.03353692218661308
240.0,0.03214733302593231
256.0,0.030757660046219826
288.0,0.02904464118182659
320.0,0.02721031941473484
352.0,0.025197084993124008
384.0,0.024703102186322212
416.0,0.024456193670630455
448.0,0.023591576144099236
480.0,0.02335936576128006
512.0,0.022454775869846344
576.0,0.020698197185993195
640.0,0.019441580399870872
704.0,0.020648781210184097
768.0,0.022242559120059013
832.0,0.02247731387615204
896.0,0.02583371289074421
960.0,0.024355968460440636
1024.0,0.022066863253712654
1152.0,0.02033623494207859
1280.0,0.022512083873152733
1408.0,0.02636743150651455
1536.0,0.02338143065571785
1664.0,0.014748151414096355
1792.0,0.008933696895837784
1920.0,0.013128557242453098
2048.0,0.013236640952527523
2304.0,0.02028791420161724
2560.0,0.019629616290330887
2816.0,0.012491703033447266
3072.0,0.003941650036722422
3328.0,0.003921035211533308
3584.0,0.008783435449004173
3840.0,0.01010205689817667
4096.0,5.149975550011732e-05
4608.0,-0.0017402367666363716
5120.0,-0.009178116917610168
5632.0,-0.02545788325369358
6144.0,-0.027868811041116714
6656.0,-0.028761185705661774
7168.0,-0.026190023869276047
7680.0,-0.01964947208762169
8192.0,-0.02648036740720272
end
