version,3.0
numOfCh,1
type,point
parent_name,c1204_0dot08-0dot1
ch_type,1_1
kcount,1
numberNandB,1
brightnessNandB,1
carpet pos,0
pc,0
Time (ms),CH1 Auto-Correlation
1.0,0.09248598664999008
2.0,0.0917457640171051
3.0,0.09101296961307526
4.0,0.09030841290950775
5.0,0.08963470906019211
6.0,0.0889572873711586
7.0,0.08830582350492477
8.0,0.08770456165075302
9.0,0.08708157390356064
10.0,0.08653318881988525
11.0,0.08597342669963837
12.0,0.08544366806745529
13.0,0.08496128767728806
14.0,0.08448082953691483
15.0,0.0839531198143959
16.0,0.08342491090297699
18.0,0.08232634514570236
20.0,0.08125286549329758
22.0,0.08030544221401215
24.0,0.07939441502094269
26.0,0.07855930924415588
28.0,0.0777791365981102
30.0,0.07697276026010513
32.0,0.07618952542543411
36.0,0.07464112341403961
40.0,0.0732666403055191
44.0,0.07206358015537262
48.0,0.07095938175916672
52.0,0.07000648975372314
56.0,0.06903955340385437
60.0,0.06808619201183319
64.0,0.06714962422847748
72.0,0.06526070088148117
80.0,0.06372370570898056
88.0,0.06247973069548607
96.0,0.061025455594062805
104.0,0.05926724150776863
112.0,0.05759010091423988
120.0,0.055858176201581955
128.0,0.05418571084737778
144.0,0.052925899624824524
160.0,0.05234764143824577
176.0,0.05132274329662323
192.0,0.04982130974531174
208.0,0.048731230199337006
224.0,0.047991979867219925
240.0,0.04768576845526695
256.0,0.04732770100235939
288.0,0.04618627578020096
320.0,0.045433927327394485
352.0,0.04356874153017998
384.0,0.04139750078320503
416.0,0.040167760103940964
448.0,0.03914584219455719
480.0,0.03791908919811249
512.0,0.03518189489841461
576.0,0.03369710221886635
640.0,0.0337710902094841
704.0,0.0318484902381897
768.0,0.031046802178025246
832.0,0.031032871454954147
896.0,0.03281151130795479
960.0,0.03272212669253349
1024.0,0.030003603547811508
1152.0,0.026134217157959938
1280.0,0.026270294561982155
1408.0,0.023895399644970894
1536.0,0.021052522584795952
1664.0,0.01821592077612877
1792.0,0.014026409946382046
1920.0,0.01958364248275757
2048.0,0.02420629747211933
2304.0,0.016527678817510605
2560.0,0.004920887760818005
2816.0,-0.0036183542106300592
3072.0,-0.005957446992397308
3328.0,-0.0051712337881326675
3584.0,-0.011505725793540478
3840.0,-0.016718484461307526
4096.0,-0.015577521175146103
4608.0,-0.023321062326431274
5120.0,-0.03174516186118126
5632.0,-0.031093427911400795
6144.0,-0.02734137512743473
6656.0,-0.016735853627324104
7168.0,-0.027842102572321892
7680.0,-0.01510332990437746
8192.0,-0.012975453399121761
end
