version,3.0
numOfCh,1
type,point
parent_name,c1204_0dot08-0dot1
ch_type,1_1
kcount,1
numberNandB,1
brightnessNandB,1
carpet pos,0
pc,0
Time (ms),CH1 Auto-Correlation
1.0,0.08129403740167618
2.0,0.08040349185466766
3.0,0.07956153899431229
4.0,0.07875168323516846
5.0,0.07801776379346848
6.0,0.0772576853632927
7.0,0.07654401659965515
8.0,0.07585402578115463
9.0,0.07514314353466034
10.0,0.07439568638801575
11.0,0.07365640997886658
12.0,0.07298793643712997
13.0,0.07235094904899597
14.0,0.07176458835601807
15.0,0.07117466628551483
16.0,0.07055961340665817
18.0,0.0694289356470108
20.0,0.068327397108078
22.0,0.06730375438928604
24.0,0.06629697978496552
26.0,0.06531700491905212
28.0,0.06434892117977142
30.0,0.06344860047101974
32.0,0.06251134723424911
36.0,0.06068102642893791
40.0,0.058966632932424545
44.0,0.05743727460503578
48.0,0.0561104342341423
52.0,0.05493088811635971
56.0,0.053861912339925766
60.0,0.05285152047872543
64.0,0.05177507549524307
72.0,0.049546368420124054
80.0,0.04739538952708244
88.0,0.045602940022945404
96.0,0.0437438040971756
104.0,0.04177756980061531
112.0,0.040148619562387466
120.0,0.038678351789712906
128.0,0.03736317157745361
144.0,0.034475427120923996
160.0,0.0314941368997097
176.0,0.029012951999902725
192.0,0.026102760806679726
208.0,0.024629604071378708
224.0,0.023116199299693108
240.0,0.021221965551376343
256.0,0.018556103110313416
288.0,0.013849389739334583
320.0,0.010373449884355068
352.0,0.007214503362774849
384.0,0.006923722568899393
416.0,0.006495520938187838
448.0,0.004506656900048256
480.0,0.002077252371236682
512.0,0.0009225496905855834
576.0,0.005027109291404486
640.0,0.009303014725446701
704.0,0.013446374796330929
768.0,0.017732655629515648
832.0,0.0172603540122509
896.0,0.01485198363661766
960.0,0.009575131349265575
1024.0,0.005378069821745157
1152.0,-0.0004957299097441137
1280.0,-0.002499554306268692
1408.0,-0.003514159470796585
1536.0,-0.0032522929832339287
1664.0,-0.002794088562950492
1792.0,-0.007211453281342983
1920.0,-0.0071959602646529675
2048.0,-0.013560797087848186
2304.0,-0.0219555851072073
2560.0,-0.006842893082648516
2816.0,-0.004236387554556131
3072.0,-0.00580837344750762
3328.0,-0.008011823520064354
3584.0,-0.003884723177179694
3840.0,0.006075881887227297
4096.0,-0.002647407352924347
4608.0,-0.004414647817611694
5120.0,-0.008278465829789639
5632.0,-0.013248533010482788
6144.0,-0.014003004878759384
6656.0,0.012834317982196808
7168.0,0.006500953808426857
7680.0,0.0311414897441864
8192.0,0.008332339115440845
end
