version,3.0
numOfCh,1
type,point
parent_name,c1204_0dot08-0dot1
ch_type,1_1
kcount,1
numberNandB,1
brightnessNandB,1
carpet pos,0
pc,0
Time (ms),CH1 Auto-Correlation
1.0,0.0617033988237381
2.0,0.06102873757481575
3.0,0.060376062989234924
4.0,0.05974959954619408
5.0,0.05913711339235306
6.0,0.05853046476840973
7.0,0.05793679505586624
8.0,0.05738043040037155
9.0,0.05686068534851074
10.0,0.05631585791707039
11.0,0.05579879507422447
12.0,0.055286988615989685
13.0,0.054782189428806305
14.0,0.054270707070827484
15.0,0.05375894904136658
16.0,0.05323868989944458
18.0,0.05218424275517464
20.0,0.05120444297790527
22.0,0.05032287910580635
24.0,0.049462154507637024
26.0,0.048616696149110794
28.0,0.047814421355724335
30.0,0.04704926535487175
32.0,0.046277448534965515
36.0,0.0448911190032959
40.0,0.04351363703608513
44.0,0.04225911945104599
48.0,0.04111612215638161
52.0,0.040124718099832535
56.0,0.03933091461658478
60.0,0.03851558640599251
64.0,0.03773893415927887
72.0,0.03645936772227287
80.0,0.03524524345993996
88.0,0.03406807407736778
96.0,0.03306784853339195
104.0,0.0318906307220459
112.0,0.030891668051481247
120.0,0.029941653832793236
128.0,0.02889438532292843
144.0,0.026779090985655785
160.0,0.02430521510541439
176.0,0.022000432014465332
192.0,0.020408902317285538
208.0,0.01874624565243721
224.0,0.017149513587355614
240.0,0.01535926852375269
256.0,0.013745452277362347
288.0,0.011462409980595112
320.0,0.00890666339546442
352.0,0.007535290904343128
384.0,0.006317203864455223
416.0,0.004726799204945564
448.0,0.0024265374522656202
480.0,0.001566119259223342
512.0,0.0009126109653152525
576.0,0.001982959220185876
640.0,0.004631825722754002
704.0,0.008190170861780643
768.0,0.010322080925107002
832.0,0.009725653566420078
896.0,0.007258858997374773
960.0,0.002552250400185585
1024.0,0.00038328106165863574
1152.0,0.0006738505908288062
1280.0,-0.003629779675975442
1408.0,-0.0032261605374515057
1536.0,-0.001360219088383019
1664.0,-0.0022676207590848207
1792.0,-0.002003138419240713
1920.0,-0.002078258665278554
2048.0,-0.000964594422839582
2304.0,0.0004154679481871426
2560.0,-0.0029860828071832657
2816.0,-0.009713204577565193
3072.0,-0.011876942589879036
3328.0,-0.010851318947970867
3584.0,-0.009442390874028206
3840.0,-0.004136260598897934
4096.0,-0.003852027701213956
4608.0,0.005934977438300848
5120.0,0.003951876889914274
5632.0,0.0007754098041914403
6144.0,0.007159460801631212
6656.0,-0.00010354266851209104
7168.0,0.0027200449258089066
7680.0,-0.011809805408120155
8192.0,-0.013739286921918392
end
