version,3.0
numOfCh,1
type,point
parent_name,c1204_0dot08-0dot1
ch_type,1_1
kcount,1
numberNandB,1
brightnessNandB,1
carpet pos,0
pc,0
Time (ms),CH1 Auto-Correlation
1.0,0.06401992589235306
2.0,0.0633091852068901
3.0,0.062605120241642
4.0,0.061857640743255615
5.0,0.061210136860609055
6.0,0.06055628880858421
7.0,0.0599195659160614
8.0,0.05929877236485481
9.0,0.058706268668174744
10.0,0.05811276659369469
11.0,0.05752105265855789
12.0,0.05694284662604332
13.0,0.05638543516397476
14.0,0.05583779886364937
15.0,0.05530868098139763
16.0,0.054789844900369644
18.0,0.05381355062127113
20.0,0.052874207496643066
22.0,0.05198010802268982
24.0,0.05110554397106171
26.0,0.050285741686820984
28.0,0.04949232563376427
30.0,0.04873146116733551
32.0,0.047999318689107895
36.0,0.046424027532339096
40.0,0.04482012242078781
44.0,0.04331381991505623
48.0,0.04164659604430199
52.0,0.040131162852048874
56.0,0.038882751017808914
60.0,0.03770793229341507
64.0,0.03656264394521713
72.0,0.034564319998025894
80.0,0.032941192388534546
88.0,0.03135315328836441
96.0,0.029975328594446182
104.0,0.028796222060918808
112.0,0.02783634141087532
120.0,0.026955386623740196
128.0,0.025985023006796837
144.0,0.023993581533432007
160.0,0.022334741428494453
176.0,0.020505379885435104
192.0,0.019176004454493523
208.0,0.017497902736067772
224.0,0.0156356543302536
240.0,0.013756334781646729
256.0,0.012353739701211452
288.0,0.011013871058821678
320.0,0.010104222223162651
352.0,0.009055332280695438
384.0,0.006853971164673567
416.0,0.0042330012656748295
448.0,0.0024251483846455812
480.0,-5.035490175941959e-05
512.0,-0.0023552768398076296
576.0,-0.00715221744030714
640.0,-0.007508247159421444
704.0,-0.00508569460362196
768.0,-0.0022644323762506247
832.0,0.0011650515953078866
896.0,0.0012309383600950241
960.0,-0.0006772826891392469
1024.0,-0.003876687493175268
1152.0,-0.005183522589504719
1280.0,-0.008228057064116001
1408.0,-0.013992724940180779
1536.0,-0.014081412926316261
1664.0,-0.011207042261958122
1792.0,-0.009946531616151333
1920.0,-0.010538649745285511
2048.0,-0.007214216981083155
2304.0,-0.000856584869325161
2560.0,0.005435936152935028
2816.0,0.003980032168328762
3072.0,-0.0023137666285037994
3328.0,-0.0012623596703633666
3584.0,0.003361948300153017
3840.0,0.0026677059940993786
4096.0,-0.00063845026306808
4608.0,-0.006512835156172514
5120.0,0.007469703443348408
5632.0,0.003968136850744486
6144.0,0.0033326277043670416
6656.0,0.00025929833645932376
7168.0,-0.014573080465197563
7680.0,-0.00442546559497714
8192.0,-0.01010751910507679
end
