version,3.0
numOfCh,1
type,point
parent_name,c1204_0dot08-0dot1
ch_type,1_1
kcount,1
numberNandB,1
brightnessNandB,1
carpet pos,0
pc,0
Time (ms),CH1 Auto-Correlation
1.0,0.08500360697507858
2.0,0.08436308801174164
3.0,0.08376075327396393
4.0,0.08317864686250687
5.0,0.08262678235769272
6.0,0.08206640183925629
7.0,0.08150617778301239
8.0,0.08097394555807114
9.0,0.0804460272192955
10.0,0.07990004867315292
11.0,0.07938024401664734
12.0,0.0788557380437851
13.0,0.07833550870418549
14.0,0.07780981063842773
15.0,0.07729584723711014
16.0,0.07682318985462189
18.0,0.07591588795185089
20.0,0.07500024884939194
22.0,0.07410011440515518
24.0,0.07322294265031815
26.0,0.07236387580633163
28.0,0.07152250409126282
30.0,0.07068884372711182
32.0,0.06987147778272629
36.0,0.06830162554979324
40.0,0.06686006486415863
44.0,0.06547757238149643
48.0,0.06420551985502243
52.0,0.06306508928537369
56.0,0.061942208558321
60.0,0.060870461165905
64.0,0.059750206768512726
72.0,0.057216428220272064
80.0,0.054873909801244736
88.0,0.05293511971831322
96.0,0.050906747579574585
104.0,0.04874081909656525
112.0,0.046618834137916565
120.0,0.04465975612401962
128.0,0.042894329875707626
144.0,0.03975142911076546
160.0,0.037317946553230286
176.0,0.03481484577059746
192.0,0.03237492963671684
208.0,0.030849503353238106
224.0,0.029902562499046326
240.0,0.02872173860669136
256.0,0.027693046256899834
288.0,0.025619851425290108
320.0,0.02295595593750477
352.0,0.020824449136853218
384.0,0.018841156736016273
416.0,0.0163419172167778
448.0,0.014060948975384235
480.0,0.01280165370553732
512.0,0.011765466071665287
576.0,0.010122941806912422
640.0,0.005064483266323805
704.0,1.1249845556449145e-05
768.0,-0.003217825200408697
832.0,-0.004883592948317528
896.0,-0.005237547215074301
960.0,-0.0068595437332987785
1024.0,-0.009689448401331902
1152.0,-0.01324577908962965
1280.0,-0.012109668925404549
1408.0,-0.017901873216032982
1536.0,-0.020525101572275162
1664.0,-0.018066860735416412
1792.0,-0.013177711516618729
1920.0,-0.0057852184399962425
2048.0,-0.002589887473732233
2304.0,-0.002521594986319542
2560.0,0.004149726592004299
2816.0,0.000918487086892128
3072.0,0.006572973448783159
3328.0,0.007135406136512756
3584.0,0.0006816769018769264
3840.0,0.0010674716904759407
4096.0,-0.006938696838915348
4608.0,-0.01287905778735876
5120.0,-0.01189777348190546
5632.0,0.0008226093486882746
6144.0,-0.008302733302116394
6656.0,0.0005694989813491702
7168.0,0.025102371349930763
7680.0,0.02552066184580326
8192.0,-0.003941564355045557
end
