version,3.0
numOfCh,1
type,point
parent_name,c1204_0dot08-0dot1
ch_type,1_1
kcount,1
numberNandB,1
brightnessNandB,1
carpet pos,0
pc,0
Time (ms),CH1 Auto-Correlation
1.0,0.0653475970029831
2.0,0.06466013193130493
3.0,0.06400762498378754
4.0,0.06338413059711456
5.0,0.06274980306625366
6.0,0.06211509928107262
7.0,0.06150992587208748
8.0,0.0608864389359951
9.0,0.0602961927652359
10.0,0.05975618213415146
11.0,0.05923038348555565
12.0,0.058699559420347214
13.0,0.05815256014466286
14.0,0.057623475790023804
15.0,0.0571245402097702
16.0,0.05661921203136444
18.0,0.055654771625995636
20.0,0.05473686382174492
22.0,0.05384230613708496
24.0,0.05294342339038849
26.0,0.0520106665790081
28.0,0.05110207200050354
30.0,0.05025770515203476
32.0,0.04947695508599281
36.0,0.04795828461647034
40.0,0.04658844321966171
44.0,0.045350998640060425
48.0,0.04407183453440666
52.0,0.042725056409835815
56.0,0.04140859097242355
60.0,0.04018025100231171
64.0,0.039084721356630325
72.0,0.03732270747423172
80.0,0.035648804157972336
88.0,0.034233368933200836
96.0,0.032894302159547806
104.0,0.031278546899557114
112.0,0.02967795729637146
120.0,0.028074340894818306
128.0,0.026333283632993698
144.0,0.023240527138113976
160.0,0.020348437130451202
176.0,0.01823694258928299
192.0,0.017427150160074234
208.0,0.01688019186258316
224.0,0.016210271045565605
240.0,0.015474239364266396
256.0,0.014377450570464134
288.0,0.012635313905775547
320.0,0.00923896860331297
352.0,0.006504310294985771
384.0,0.005205219611525536
416.0,0.004913652315735817
448.0,0.004020872060209513
480.0,0.0033924425952136517
512.0,0.00317589333280921
576.0,0.003452145028859377
640.0,0.0056121996603906155
704.0,0.008100410923361778
768.0,0.006317740771919489
832.0,0.004422254394739866
896.0,0.003613998182117939
960.0,0.0032329673413187265
1024.0,0.0003592936263885349
1152.0,-0.002553193597123027
1280.0,0.0004381414328236133
1408.0,0.00016685975424479693
1536.0,0.0038599895779043436
1664.0,0.0041475254110991955
1792.0,0.0022768396884202957
1920.0,0.0031772314105182886
2048.0,0.005493260454386473
2304.0,0.0031903262715786695
2560.0,-0.0055129132233560085
2816.0,-0.011203470639884472
3072.0,-0.00649378402158618
3328.0,-0.0009895414113998413
3584.0,-0.0049399733543396
3840.0,-0.01015000231564045
4096.0,-0.01161200925707817
4608.0,-0.008968439884483814
5120.0,-0.0070755695924162865
5632.0,-0.005493278615176678
6144.0,-0.0010372011456638575
6656.0,-0.0015534323174506426
7168.0,-0.005642291624099016
7680.0,-0.00016696886450517923
8192.0,0.011861166916787624
end
