version,3.0
numOfCh,1
type,point
parent_name,c1204_0dot08-0dot1
ch_type,1_1
kcount,1
numberNandB,1
brightnessNandB,1
carpet pos,0
pc,0
Time (ms),CH1 Auto-Correlation
1.0,0.060858726501464844
2.0,0.06010863929986954
3.0,0.059381451457738876
4.0,0.05868171155452728
5.0,0.058003343641757965
6.0,0.05735082924365997
7.0,0.05671084299683571
8.0,0.05607633292675018
9.0,0.05545474588871002
10.0,0.054844144731760025
11.0,0.05425618961453438
12.0,0.0536896251142025
13.0,0.053166210651397705
14.0,0.05267326533794403
15.0,0.0521879680454731
16.0,0.051691148430109024
18.0,0.05073114112019539
20.0,0.04977728798985481
22.0,0.048822566866874695
24.0,0.04790063574910164
26.0,0.04699096083641052
28.0,0.046102024614810944
30.0,0.0451820008456707
32.0,0.044311653822660446
36.0,0.042702142149209976
40.0,0.04110724478960037
44.0,0.03967094048857689
48.0,0.0382375493645668
52.0,0.03687506541609764
56.0,0.0356544628739357
60.0,0.034589458256959915
64.0,0.033619631081819534
72.0,0.03206462413072586
80.0,0.03067609667778015
88.0,0.029306091368198395
96.0,0.028243431821465492
104.0,0.027486613020300865
112.0,0.026613233610987663
120.0,0.025623032823204994
128.0,0.02478635311126709
144.0,0.0229470394551754
160.0,0.021385623142123222
176.0,0.020026979967951775
192.0,0.0185747891664505
208.0,0.01651572622358799
224.0,0.014435643330216408
240.0,0.012123113498091698
256.0,0.009747369214892387
288.0,0.006803655531257391
320.0,0.005430577788501978
352.0,0.004669100511819124
384.0,0.0037194015458226204
416.0,0.0026594868395477533
448.0,0.0013561192899942398
480.0,-3.93148957300582e-06
512.0,-0.0002192169486079365
576.0,-0.0006110928952693939
640.0,-0.003213914344087243
704.0,-0.001918753026984632
768.0,0.0017575831152498722
832.0,0.0026336219161748886
896.0,0.0009839260019361973
960.0,-0.002257369225844741
1024.0,-0.005472847726196051
1152.0,-0.0037660361267626286
1280.0,0.00061488599749282
1408.0,0.0029813258443027735
1536.0,0.002962195547297597
1664.0,0.0008895156206563115
1792.0,-0.005847764667123556
1920.0,-0.011487851850688457
2048.0,-0.013528760522603989
2304.0,-0.01755090430378914
2560.0,-0.011477980762720108
2816.0,-0.0034740252885967493
3072.0,0.0014682520413771272
3328.0,0.007640791591256857
3584.0,-0.006119533907622099
3840.0,-0.010025858879089355
4096.0,-0.0027263269294053316
4608.0,0.013276203535497189
5120.0,0.007567678112536669
5632.0,0.0014382845256477594
6144.0,0.0064321174286305904
6656.0,-0.0009033983806148171
7168.0,-0.01779005490243435
7680.0,-0.0005632287357002497
8192.0,-0.0051313964650034904
end
