version,3.0
numOfCh,1
type,point
parent_name,c1204_0dot08-0dot1
ch_type,1_1
kcount,1
numberNandB,1
brightnessNandB,1
carpet pos,0
pc,0
Time (ms),CH1 Auto-Correlation
1.0,0.05984475836157799
2.0,0.05930186063051224
3.0,0.058766793459653854
4.0,0.05823030322790146
5.0,0.05771257355809212
6.0,0.05721433460712433
7.0,0.05671374127268791
8.0,0.056215688586235046
9.0,0.05572877824306488
10.0,0.05525391548871994
11.0,0.05480947718024254
12.0,0.05436968803405762
13.0,0.05394524335861206
14.0,0.053527023643255234
15.0,0.05312837287783623
16.0,0.05273433402180672
18.0,0.05198828503489494
20.0,0.051249612122774124
22.0,0.05054828152060509
24.0,0.04984157532453537
26.0,0.049127452075481415
28.0,0.04843388497829437
30.0,0.04779432341456413
32.0,0.04722273349761963
36.0,0.04620715603232384
40.0,0.04518558457493782
44.0,0.04413783177733421
48.0,0.04312628507614136
52.0,0.04214731231331825
56.0,0.04115784168243408
60.0,0.04016692563891411
64.0,0.039211127907037735
72.0,0.03746256232261658
80.0,0.03581615164875984
88.0,0.03425522521138191
96.0,0.03240654617547989
104.0,0.030665462836623192
112.0,0.029245244339108467
120.0,0.028028393164277077
128.0,0.0266642477363348
144.0,0.02358841896057129
160.0,0.020982129499316216
176.0,0.01880759559571743
192.0,0.017257481813430786
208.0,0.016252847388386726
224.0,0.015588488429784775
240.0,0.015134881250560284
256.0,0.014692287892103195
288.0,0.013510722666978836
320.0,0.012958768755197525
352.0,0.012664304114878178
384.0,0.011760354042053223
416.0,0.00977491308003664
448.0,0.008706504479050636
480.0,0.008030887693166733
512.0,0.006684500258415937
576.0,0.004554803483188152
640.0,0.002760494127869606
704.0,0.00019646815781015903
768.0,0.00023243454052135348
832.0,0.0018984826747328043
896.0,0.006617214065045118
960.0,0.009034029208123684
1024.0,0.010667352937161922
1152.0,0.00562189519405365
1280.0,0.004645205102860928
1408.0,0.005869811400771141
1536.0,0.0036060234997421503
1664.0,0.004304597619920969
1792.0,0.004008015617728233
1920.0,0.006557667627930641
2048.0,0.009024892933666706
2304.0,0.006995451636612415
2560.0,-0.0018185576191172004
2816.0,-0.004663244821131229
3072.0,0.00046696371282450855
3328.0,0.00492814788594842
3584.0,-0.002752940636128187
3840.0,-0.001014298410154879
4096.0,0.002476899418979883
4608.0,0.0009021476143971086
5120.0,-0.0014077892992645502
5632.0,-0.00010215905058430508
6144.0,-0.003049679333344102
6656.0,0.002565781818702817
7168.0,-0.005886998027563095
7680.0,-0.0011664082994684577
8192.0,-0.004811606835573912
end
