version,3.0
numOfCh,1
type,point
parent_name,c1204_0dot08-0dot1
ch_type,1_1
kcount,1
numberNandB,1
brightnessNandB,1
carpet pos,0
pc,0
Time (ms),CH1 Auto-Correlation
1.0,0.0674428790807724
2.0,0.06655740737915039
3.0,0.06575286388397217
4.0,0.06491805613040924
5.0,0.0640970841050148
6.0,0.06335185468196869
7.0,0.06269095093011856
8.0,0.062046945095062256
9.0,0.06138179078698158
10.0,0.060725271701812744
11.0,0.060132283717393875
12.0,0.05951092019677162
13.0,0.058900050818920135
14.0,0.05827450379729271
15.0,0.0576445534825325
16.0,0.05700739473104477
18.0,0.055742472410202026
20.0,0.05449414625763893
22.0,0.05329511687159538
24.0,0.0522480234503746
26.0,0.05115843936800957
28.0,0.050136346369981766
30.0,0.049159448593854904
32.0,0.048283278942108154
36.0,0.04665857553482056
40.0,0.04500799626111984
44.0,0.04324626550078392
48.0,0.04138593003153801
52.0,0.03964859992265701
56.0,0.03793202340602875
60.0,0.03626721724867821
64.0,0.034862667322158813
72.0,0.03253466635942459
80.0,0.03044893778860569
88.0,0.028614474460482597
96.0,0.02695641852915287
104.0,0.025085054337978363
112.0,0.023131854832172394
120.0,0.021251816302537918
128.0,0.01983550190925598
144.0,0.01716420240700245
160.0,0.014873716980218887
176.0,0.012987254187464714
192.0,0.011562749743461609
208.0,0.010441198945045471
224.0,0.008895169012248516
240.0,0.0072033945471048355
256.0,0.005547122564166784
288.0,0.005367102101445198
320.0,0.004454710055142641
352.0,0.004103225655853748
384.0,0.0040311007760465145
416.0,0.004155238624662161
448.0,0.006308701355010271
480.0,0.009608171880245209
512.0,0.010384704917669296
576.0,0.011696316301822662
640.0,0.012864011339843273
704.0,0.01674506440758705
768.0,0.018942352384328842
832.0,0.017558330669999123
896.0,0.01426252257078886
960.0,0.010694785974919796
1024.0,0.011245773173868656
1152.0,0.011165897361934185
1280.0,0.0063887545838952065
1408.0,0.00866371113806963
1536.0,0.013574528507888317
1664.0,0.011885634623467922
1792.0,0.004951878916472197
1920.0,0.002692930633202195
2048.0,-0.0008588996133767068
2304.0,0.00965956225991249
2560.0,0.0035296042915433645
2816.0,-0.009965334087610245
3072.0,0.0027400918770581484
3328.0,0.001563087571412325
3584.0,-0.009122015908360481
3840.0,-0.006344448775053024
4096.0,-0.0035233465023338795
4608.0,-0.010466871783137321
5120.0,-0.010149232111871243
5632.0,-0.009297152049839497
6144.0,-0.009565427899360657
6656.0,-0.007150704972445965
7168.0,-0.008552836254239082
7680.0,-0.010938955470919609
8192.0,-0.003753816243261099
end
