version,3.0
numOfCh,1
type,point
parent_name,c1204_0dot08-0dot1
ch_type,1_1
kcount,1
numberNandB,1
brightnessNandB,1
carpet pos,0
pc,0
Time (ms),CH1 Auto-Correlation
1.0,0.06537279486656189
2.0,0.06414598226547241
3.0,0.06304550915956497
4.0,0.06207623332738876
5.0,0.061121612787246704
6.0,0.06015700101852417
7.0,0.05925331264734268
8.0,0.05848722904920578
9.0,0.05770747363567352
10.0,0.05693100765347481
11.0,0.056137677282094955
12.0,0.055364735424518585
13.0,0.05457216128706932
14.0,0.053730446845293045
15.0,0.05296797305345535
16.0,0.0522477962076664
18.0,0.05096385255455971
20.0,0.04980099946260452
22.0,0.04887186363339424
24.0,0.04799245297908783
26.0,0.047207362949848175
28.0,0.046428125351667404
30.0,0.04573656618595123
32.0,0.04492324963212013
36.0,0.04379597678780556
40.0,0.04268602654337883
44.0,0.041409943252801895
48.0,0.040108587592840195
52.0,0.03864257037639618
56.0,0.037082187831401825
60.0,0.03544485196471214
64.0,0.03395222872495651
72.0,0.03175022453069687
80.0,0.02981257438659668
88.0,0.027981486171483994
96.0,0.026346299797296524
104.0,0.025021255016326904
112.0,0.023928003385663033
120.0,0.02260827086865902
128.0,0.021490367129445076
144.0,0.019943151623010635
160.0,0.018262792378664017
176.0,0.01755346730351448
192.0,0.017268594354391098
208.0,0.017471879720687866
224.0,0.01739414967596531
240.0,0.016654590144753456
256.0,0.0167276319116354
288.0,0.015864433720707893
320.0,0.01649400033056736
352.0,0.015307812951505184
384.0,0.012322482652962208
416.0,0.011418068781495094
448.0,0.010649113915860653
480.0,0.010102605447173119
512.0,0.011058032512664795
576.0,0.010461745783686638
640.0,0.0077666305005550385
704.0,0.0024017319083213806
768.0,-0.0008161150035448372
832.0,-0.0016153426840901375
896.0,-0.0010101060615852475
960.0,0.0003910415980499238
1024.0,-0.0007179866661317647
1152.0,0.002118832664564252
1280.0,-0.0008550997590646148
1408.0,-0.009638682007789612
1536.0,-0.01054635550826788
1664.0,-0.007490220014005899
1792.0,-0.003078901907429099
1920.0,-0.008979729376733303
2048.0,-0.003257177537307143
2304.0,-0.0012443537125363946
2560.0,-0.002276273677125573
2816.0,0.0003671766316983849
3072.0,0.000853000907227397
3328.0,-0.0034717917442321777
3584.0,-0.007466873154044151
3840.0,-0.007732348050922155
4096.0,-0.010576043277978897
4608.0,-0.006141819059848785
5120.0,0.002221284434199333
5632.0,0.0016850469401106238
6144.0,-0.0010229316540062428
6656.0,-0.01071990467607975
7168.0,0.004751303233206272
7680.0,0.003359188325703144
8192.0,0.008978771977126598
end
