version,3.0
numOfCh,1
type,point
parent_name,c1204_0dot08-0dot1
ch_type,1_1
kcount,1
numberNandB,1
brightnessNandB,1
carpet pos,0
pc,0
Time (ms),CH1 Auto-Correlation
1.0,0.054036419838666916
2.0,0.053364336490631104
3.0,0.052720628678798676
4.0,0.05212951451539993
5.0,0.05153404176235199
6.0,0.05095968022942543
7.0,0.05042528361082077
8.0,0.04989669471979141
9.0,0.04939631000161171
10.0,0.048910174518823624
11.0,0.04843682795763016
12.0,0.04797079786658287
13.0,0.0475136935710907
14.0,0.047094255685806274
15.0,0.04665502533316612
16.0,0.046206314116716385
18.0,0.04528088867664337
20.0,0.04442419856786728
22.0,0.04363127797842026
24.0,0.042849015444517136
26.0,0.04207468032836914
28.0,0.041343748569488525
30.0,0.04063493758440018
32.0,0.039955489337444305
36.0,0.038640737533569336
40.0,0.03740799427032471
44.0,0.03629632666707039
48.0,0.035296469926834106
52.0,0.03435755893588066
56.0,0.03341326490044594
60.0,0.03253615275025368
64.0,0.03164874389767647
72.0,0.02986523136496544
80.0,0.028305577114224434
88.0,0.026899855583906174
96.0,0.025541482493281364
104.0,0.024331066757440567
112.0,0.02299249731004238
120.0,0.021839791908860207
128.0,0.020834652706980705
144.0,0.018722297623753548
160.0,0.016646049916744232
176.0,0.014365710318088531
192.0,0.012642639689147472
208.0,0.010801265016198158
224.0,0.009437869302928448
240.0,0.00848977267742157
256.0,0.007552431896328926
288.0,0.005145684815943241
320.0,0.00415031285956502
352.0,0.003713911632075906
384.0,0.003422175068408251
416.0,0.003701354842633009
448.0,0.0038718231953680515
480.0,0.002792979823425412
512.0,0.0017602986190468073
576.0,0.000399582291720435
640.0,0.000802629510872066
704.0,0.002515945117920637
768.0,0.004397333599627018
832.0,0.006463446654379368
896.0,0.007399315480142832
960.0,0.008946817368268967
1024.0,0.00917197484523058
1152.0,0.006469656713306904
1280.0,-0.000982495374046266
1408.0,-0.0010289725614711642
1536.0,0.0003300420939922333
1664.0,-0.00015706074191257358
1792.0,0.0017363711958751082
1920.0,0.006013310514390469
2048.0,0.007367671001702547
2304.0,0.0028225420974195004
2560.0,-0.002693049842491746
2816.0,0.00219689030200243
3072.0,0.00895337387919426
3328.0,0.004290597978979349
3584.0,-0.008428163826465607
3840.0,-0.009801547974348068
4096.0,-0.002984032966196537
4608.0,-0.009031707420945168
5120.0,0.0005265390500426292
5632.0,-0.009921368211507797
6144.0,-0.0011055782670155168
6656.0,-0.011193759739398956
7168.0,-0.007823855616152287
7680.0,-0.005227356683462858
8192.0,-0.0003822074504569173
end
