version,3.0
numOfCh,1
type,point
parent_name,c1204_0dot08-0dot1
ch_type,1_1
kcount,1
numberNandB,1
brightnessNandB,1
carpet pos,0
pc,0
Time (ms),CH1 Auto-Correlation
1.0,0.04564139246940613
2.0,0.04512118548154831
3.0,0.04462019354104996
4.0,0.044135358184576035
5.0,0.04365445673465729
6.0,0.0431702584028244
7.0,0.04269847646355629
8.0,0.04222376272082329
9.0,0.04175679758191109
10.0,0.04129903391003609
11.0,0.04084889590740204
12.0,0.04038945212960243
13.0,0.03994264081120491
14.0,0.03951020538806915
15.0,0.03908410668373108
16.0,0.03867095336318016
18.0,0.03787505626678467
20.0,0.03707827255129814
22.0,0.03628147393465042
24.0,0.03548840060830116
26.0,0.03472417965531349
28.0,0.033986348658800125
30.0,0.03328923508524895
32.0,0.0326358936727047
36.0,0.03140813857316971
40.0,0.03024488501250744
44.0,0.029153645038604736
48.0,0.028073862195014954
52.0,0.027089836075901985
56.0,0.026147618889808655
60.0,0.025229038670659065
64.0,0.024368487298488617
72.0,0.022692333906888962
80.0,0.021220184862613678
88.0,0.0199205931276083
96.0,0.018707916140556335
104.0,0.01756265014410019
112.0,0.01634659618139267
120.0,0.015026158653199673
128.0,0.013781975954771042
144.0,0.012159980833530426
160.0,0.011108512058854103
176.0,0.009710612706840038
192.0,0.008587234653532505
208.0,0.007769185118377209
224.0,0.006877758074551821
240.0,0.005828294903039932
256.0,0.005452834535390139
288.0,0.003957843873649836
320.0,0.003755405778065324
352.0,0.0036614942364394665
384.0,0.004013571888208389
416.0,0.004064365290105343
448.0,0.003274788148701191
480.0,0.002785296179354191
512.0,0.0030972056556493044
576.0,0.0030384487472474575
640.0,0.001512089278548956
704.0,0.0005376998451538384
768.0,0.0011206942144781351
832.0,0.0018113387050107121
896.0,0.002543507842347026
960.0,0.0036025552544742823
1024.0,0.002939921570941806
1152.0,0.0009303485858254135
1280.0,-6.445281906053424e-05
1408.0,-0.0007840328617021441
1536.0,-0.0011881171958521008
1664.0,-0.000455078057711944
1792.0,-0.0014389235293492675
1920.0,-0.0009828326292335987
2048.0,7.19112140359357e-05
2304.0,0.00014041700342204422
2560.0,-0.005702275782823563
2816.0,-0.005384018644690514
3072.0,-0.004036315716803074
3328.0,0.004773493856191635
3584.0,0.0026933427434414625
3840.0,0.006872964557260275
4096.0,0.0030379982199519873
4608.0,-0.0011537979589775205
5120.0,-0.0007825639913789928
5632.0,-0.001001268858090043
6144.0,-0.0018482335144653916
6656.0,-0.003229209454730153
7168.0,0.0014268506783992052
7680.0,0.0033001000992953777
8192.0,0.0005674647982232273
end
