version,3.0
numOfCh,1
type,point
parent_name,c1204_0dot08-0dot1
ch_type,1_1
kcount,1
numberNandB,1
brightnessNandB,1
carpet pos,0
pc,0
Time (ms),CH1 Auto-Correlation
1.0,0.05556735396385193
2.0,0.05478266254067421
3.0,0.05403832346200943
4.0,0.05336780473589897
5.0,0.05272374674677849
6.0,0.0520801842212677
7.0,0.05147669091820717
8.0,0.05092431977391243
9.0,0.050366975367069244
10.0,0.049854129552841187
11.0,0.04933321103453636
12.0,0.04883059486746788
13.0,0.04833393543958664
14.0,0.047864608466625214
15.0,0.04739925637841225
16.0,0.04694962501525879
18.0,0.04606486111879349
20.0,0.045199666172266006
22.0,0.04446972906589508
24.0,0.04378644376993179
26.0,0.04313236102461815
28.0,0.04246847704052925
30.0,0.04181130975484848
32.0,0.041141290217638016
36.0,0.03995833545923233
40.0,0.03878799453377724
44.0,0.037692513316869736
48.0,0.03673338517546654
52.0,0.03580652177333832
56.0,0.03489133343100548
60.0,0.03396821767091751
64.0,0.03310123831033707
72.0,0.03150114417076111
80.0,0.029726944863796234
88.0,0.028081128373742104
96.0,0.026573611423373222
104.0,0.025371218100190163
112.0,0.024345582351088524
120.0,0.023400243371725082
128.0,0.022589610889554024
144.0,0.02150261215865612
160.0,0.02074962481856346
176.0,0.02004660665988922
192.0,0.01930142752826214
208.0,0.018283890560269356
224.0,0.016978906467556953
240.0,0.015682000666856766
256.0,0.014534424990415573
288.0,0.011376766487956047
320.0,0.01009419932961464
352.0,0.009205738082528114
384.0,0.008587457239627838
416.0,0.007166557013988495
448.0,0.0064608193933963776
480.0,0.006379604805260897
512.0,0.004995592869818211
576.0,0.002183152362704277
640.0,0.0026170278433710337
704.0,0.0016648777527734637
768.0,-8.81306768860668e-05
832.0,-0.0007447755197063088
896.0,0.0006764989229850471
960.0,-0.0013074547750875354
1024.0,-0.0028548198752105236
1152.0,-0.005253235809504986
1280.0,-0.008013268001377583
1408.0,-0.009577902033925056
1536.0,-0.005955998785793781
1664.0,-0.00021567780640907586
1792.0,0.0029710496310144663
1920.0,-0.00024825462605804205
2048.0,0.0013758136192336679
2304.0,0.0030911178328096867
2560.0,0.000841463974211365
2816.0,-0.0016570682637393475
3072.0,-0.004984110593795776
3328.0,-0.008195164613425732
3584.0,-0.012879484333097935
3840.0,-0.010084082372486591
4096.0,-0.004456182476133108
4608.0,0.007795055862516165
5120.0,0.008458931930363178
5632.0,-0.0024021281860768795
6144.0,0.0016840449534356594
6656.0,0.012506553903222084
7168.0,0.006536575499922037
7680.0,-0.010022634640336037
8192.0,-0.011020719073712826
end
