version,3.0
numOfCh,1
type,point
parent_name,c1204_0dot08-0dot1
ch_type,1_1
kcount,1
numberNandB,1
brightnessNandB,1
carpet pos,0
pc,0
Time (ms),CH1 Auto-Correlation
1.0,0.06572563946247101
2.0,0.0650787204504013
3.0,0.06446459889411926
4.0,0.06384430080652237
5.0,0.06323395669460297
6.0,0.06263677030801773
7.0,0.06205585226416588
8.0,0.061498891562223434
9.0,0.06096314638853073
10.0,0.060453496873378754
11.0,0.05997771769762039
12.0,0.059509627521038055
13.0,0.059042274951934814
14.0,0.0586155466735363
15.0,0.05816066265106201
16.0,0.05771176517009735
18.0,0.05689302831888199
20.0,0.05612536147236824
22.0,0.05537012591958046
24.0,0.05462958291172981
26.0,0.05389189347624779
28.0,0.05314871668815613
30.0,0.05240577086806297
32.0,0.05161411315202713
36.0,0.04999895021319389
40.0,0.048483170568943024
44.0,0.04707932844758034
48.0,0.045948486775159836
52.0,0.044855281710624695
56.0,0.043711062520742416
60.0,0.042446158826351166
64.0,0.0411430262029171
72.0,0.038449835032224655
80.0,0.03609047830104828
88.0,0.03413350135087967
96.0,0.03244789317250252
104.0,0.03096112608909607
112.0,0.02953728474676609
120.0,0.027956174686551094
128.0,0.02647547423839569
144.0,0.024157008156180382
160.0,0.022268781438469887
176.0,0.02033250965178013
192.0,0.018501298502087593
208.0,0.01676229014992714
224.0,0.015118483453989029
240.0,0.014141826890408993
256.0,0.013916531577706337
288.0,0.012978790327906609
320.0,0.012388188391923904
352.0,0.010972063057124615
384.0,0.009988632053136826
416.0,0.008319886401295662
448.0,0.008309931494295597
480.0,0.008595778606832027
512.0,0.0087139792740345
576.0,0.006075419485569
640.0,0.004366106819361448
704.0,0.0003955506253987551
768.0,-0.0035553891211748123
832.0,-0.005788639187812805
896.0,-0.010442749597132206
960.0,-0.013324100524187088
1024.0,-0.010803417302668095
1152.0,-0.009891862981021404
1280.0,-0.008574271574616432
1408.0,-0.009876390919089317
1536.0,-0.006026075687259436
1664.0,-0.010061787441372871
1792.0,-0.005282753612846136
1920.0,-0.0006675929762423038
2048.0,0.005796558689326048
2304.0,0.0049529969692230225
2560.0,0.004677655175328255
2816.0,0.00018795407959260046
3072.0,-0.005762601736932993
3328.0,-0.005547912325710058
3584.0,-0.006807543803006411
3840.0,-0.007142701186239719
4096.0,-0.007528847083449364
4608.0,0.0006130237597972155
5120.0,-0.001286773127503693
5632.0,-0.0025667964946478605
6144.0,0.011718706227838993
6656.0,0.009513268247246742
7168.0,-0.0012413448421284556
7680.0,-0.004487756639719009
8192.0,0.002971166744828224
end
