version,3.0
numOfCh,1
type,point
parent_name,c1204_0dot08-0dot1
ch_type,1_1
kcount,1
numberNandB,1
brightnessNandB,1
carpet pos,0
pc,0
Time (ms),CH1 Auto-Correlation
1.0,0.06946088373661041
2.0,0.06886876374483109
3.0,0.06828170269727707
4.0,0.06769926100969315
5.0,0.06713905185461044
6.0,0.06659266352653503
7.0,0.06605852395296097
8.0,0.06555495411157608
9.0,0.06504935771226883
10.0,0.06456340849399567
11.0,0.06406933069229126
12.0,0.06355706602334976
13.0,0.06304652243852615
14.0,0.06253449618816376
15.0,0.062049198895692825
16.0,0.06155240908265114
18.0,0.06057574599981308
20.0,0.05963518097996712
22.0,0.058718957006931305
24.0,0.05780690535902977
26.0,0.05693494901061058
28.0,0.056094784289598465
30.0,0.05528407543897629
32.0,0.05454161763191223
36.0,0.05311421677470207
40.0,0.051792267709970474
44.0,0.05051480978727341
48.0,0.049262382090091705
52.0,0.04809695854783058
56.0,0.047021616250276566
60.0,0.0460016131401062
64.0,0.045054372400045395
72.0,0.043191470205783844
80.0,0.041429553180933
88.0,0.03975529968738556
96.0,0.03815067559480667
104.0,0.03651677817106247
112.0,0.034917645156383514
120.0,0.033371347934007645
128.0,0.03183309733867645
144.0,0.02986614592373371
160.0,0.028470657765865326
176.0,0.027316400781273842
192.0,0.02651425451040268
208.0,0.025624793022871017
224.0,0.023927710950374603
240.0,0.022288726642727852
256.0,0.021349145099520683
288.0,0.019460873678326607
320.0,0.018536338582634926
352.0,0.018907224759459496
384.0,0.01856759376823902
416.0,0.01713504083454609
448.0,0.015585917979478836
480.0,0.012889650650322437
512.0,0.010540255345404148
576.0,0.008270880207419395
640.0,0.005003500729799271
704.0,0.0014350282726809382
768.0,-3.288327889094944e-06
832.0,0.0002463485288899392
896.0,-0.00041535880882292986
960.0,-0.0005255034193396568
1024.0,-0.001698958338238299
1152.0,0.0014575589448213577
1280.0,0.004951158072799444
1408.0,0.0018719149520620704
1536.0,-0.0005727329989895225
1664.0,-0.003829180495813489
1792.0,-0.010444896295666695
1920.0,-0.016859164461493492
2048.0,-0.023919103667140007
2304.0,-0.030117733404040337
2560.0,-0.020980659872293472
2816.0,-0.017597215250134468
3072.0,-0.007062676828354597
3328.0,-0.007284664548933506
3584.0,-0.0036819549277424812
3840.0,0.004241684451699257
4096.0,0.011833339929580688
4608.0,0.017573386430740356
5120.0,0.01827862299978733
5632.0,0.005171543452888727
6144.0,-0.006980119273066521
6656.0,-0.011067171581089497
7168.0,-0.013454646803438663
7680.0,-0.010378447361290455
8192.0,-0.008673134259879589
end
