version,3.0
numOfCh,1
type,point
parent_name,c1204_0dot08-0dot1
ch_type,1_1
kcount,1
numberNandB,1
brightnessNandB,1
carpet pos,0
pc,0
Time (ms),CH1 Auto-Correlation
1.0,0.06851421296596527
2.0,0.06781233847141266
3.0,0.06714655458927155
4.0,0.06647250801324844
5.0,0.06585238873958588
6.0,0.0652470663189888
7.0,0.06469251960515976
8.0,0.06414579600095749
9.0,0.06359174102544785
10.0,0.0629877820611
11.0,0.06237677112221718
12.0,0.061783015727996826
13.0,0.061206262558698654
14.0,0.06061869114637375
15.0,0.06005823239684105
16.0,0.059506431221961975
18.0,0.05848374217748642
20.0,0.057395074516534805
22.0,0.056286491453647614
24.0,0.055231522768735886
26.0,0.05427661910653114
28.0,0.05337193235754967
30.0,0.05242045596241951
32.0,0.051431722939014435
36.0,0.04969315975904465
40.0,0.04825075343251228
44.0,0.04685385897755623
48.0,0.0455208458006382
52.0,0.044325150549411774
56.0,0.043125271797180176
60.0,0.04196524620056152
64.0,0.04082951694726944
72.0,0.03875952586531639
80.0,0.03672387823462486
88.0,0.034695468842983246
96.0,0.03262736648321152
104.0,0.030621396377682686
112.0,0.028742803260684013
120.0,0.02702956087887287
128.0,0.02548302337527275
144.0,0.0225246362388134
160.0,0.019464651122689247
176.0,0.016390958800911903
192.0,0.013476517051458359
208.0,0.01141966599971056
224.0,0.009907010942697525
240.0,0.00782450195401907
256.0,0.005244839005172253
288.0,0.0018555170390754938
320.0,-0.003041310468688607
352.0,-0.006388521753251553
384.0,-0.007711207028478384
416.0,-0.007621875964105129
448.0,-0.006806827150285244
480.0,-0.007632285822182894
512.0,-0.008309154771268368
576.0,-0.006849598605185747
640.0,-0.003233312861993909
704.0,-0.0007292734808288515
768.0,0.0017470380989834666
832.0,0.005717488005757332
896.0,0.009587252512574196
960.0,0.010773560963571072
1024.0,0.013228710740804672
1152.0,0.013016740791499615
1280.0,0.0084462258964777
1408.0,0.00031020655296742916
1536.0,-0.0023930345196276903
1664.0,-0.0004535136104095727
1792.0,0.002130295615643263
1920.0,0.004643465392291546
2048.0,0.0007825549691915512
2304.0,-0.003366734366863966
2560.0,0.0010760579025372863
2816.0,0.0017537474632263184
3072.0,-0.0017627925844863057
3328.0,-5.991019861539826e-06
3584.0,0.0036945603787899017
3840.0,0.005161373410373926
4096.0,-0.004040800034999847
4608.0,0.006516629830002785
5120.0,-0.010018236003816128
5632.0,0.003677121829241514
6144.0,-0.009365268051624298
6656.0,-0.002412081230431795
7168.0,-0.004087571986019611
7680.0,-0.003620689734816551
8192.0,-0.008325922302901745
end
