version,3.0
numOfCh,1
type,point
parent_name,c1204_0dot08-0dot1
ch_type,1_1
kcount,1
numberNandB,1
brightnessNandB,1
carpet pos,0
pc,0
Time (ms),CH1 Auto-Correlation
1.0,0.07066468149423599
2.0,0.06988774985074997
3.0,0.06913779675960541
4.0,0.06841912865638733
5.0,0.06776311248540878
6.0,0.0671394094824791
7.0,0.0665362998843193
8.0,0.06591683626174927
9.0,0.06534942239522934
10.0,0.06481266021728516
11.0,0.06428947299718857
12.0,0.06377656012773514
13.0,0.06326852738857269
14.0,0.06276547163724899
15.0,0.06224218010902405
16.0,0.0617278516292572
18.0,0.06068345159292221
20.0,0.0597027949988842
22.0,0.05880953371524811
24.0,0.05795861780643463
26.0,0.05713965743780136
28.0,0.056353162974119186
30.0,0.055659741163253784
32.0,0.05502532795071602
36.0,0.05385245755314827
40.0,0.05280839279294014
44.0,0.051862556487321854
48.0,0.050908640027046204
52.0,0.04992052540183067
56.0,0.04891989752650261
60.0,0.0480722151696682
64.0,0.04721372202038765
72.0,0.04572749510407448
80.0,0.04459485784173012
88.0,0.04341844469308853
96.0,0.04232257977128029
104.0,0.041175056248903275
112.0,0.039955735206604004
120.0,0.0387234129011631
128.0,0.037282973527908325
144.0,0.034894175827503204
160.0,0.03245466202497482
176.0,0.029842525720596313
192.0,0.02827332727611065
208.0,0.02671041153371334
224.0,0.025074567645788193
240.0,0.02384904958307743
256.0,0.022576477378606796
288.0,0.021082457154989243
320.0,0.020308898761868477
352.0,0.020886875689029694
384.0,0.020481372252106667
416.0,0.019952302798628807
448.0,0.020315181463956833
480.0,0.020393766462802887
512.0,0.019809097051620483
576.0,0.017292656004428864
640.0,0.007974292151629925
704.0,0.0010589421726763248
768.0,-0.0009888655040413141
832.0,-0.0028550613205879927
896.0,-0.0023888021241873503
960.0,-0.003393510589376092
1024.0,-0.00294875749386847
1152.0,-0.0018746554851531982
1280.0,-0.0065777720883488655
1408.0,-0.005821711383759975
1536.0,-0.002793932566419244
1664.0,0.006066962145268917
1792.0,0.004922906402498484
1920.0,0.0034323916770517826
2048.0,0.003468345385044813
2304.0,0.008632117882370949
2560.0,0.007017641328275204
2816.0,0.011123652569949627
3072.0,0.008945319801568985
3328.0,0.003609339939430356
3584.0,-0.0046823518350720406
3840.0,-0.007114173378795385
4096.0,-0.004618295002728701
4608.0,0.0021909275092184544
5120.0,-0.0006792234489694238
5632.0,-0.00525903282687068
6144.0,-0.0015141949988901615
6656.0,0.0026858218479901552
7168.0,0.005568263120949268
7680.0,0.0008101998828351498
8192.0,-0.015278127044439316
end
