version,3.0
numOfCh,1
type,point
parent_name,c1204_0dot08-0dot1
ch_type,1_1
kcount,1
numberNandB,1
brightnessNandB,1
carpet pos,0
pc,0
Time (ms),CH1 Auto-Correlation
1.0,0.07313580065965652
2.0,0.07243528217077255
3.0,0.07177390903234482
4.0,0.07113315165042877
5.0,0.07053801417350769
6.0,0.06995746493339539
7.0,0.06939999759197235
8.0,0.06885482370853424
9.0,0.06832340359687805
10.0,0.06776808202266693
11.0,0.06724198907613754
12.0,0.06672032922506332
13.0,0.06622139364480972
14.0,0.06574565917253494
15.0,0.06525029242038727
16.0,0.06475459784269333
18.0,0.0637826919555664
20.0,0.06279779970645905
22.0,0.0618046373128891
24.0,0.06085465848445892
26.0,0.05995387211441994
28.0,0.05913975462317467
30.0,0.05834505334496498
32.0,0.057603899389505386
36.0,0.05627121776342392
40.0,0.05497217923402786
44.0,0.053668439388275146
48.0,0.05235676094889641
52.0,0.051111288368701935
56.0,0.04989844560623169
60.0,0.04874374344944954
64.0,0.04756643995642662
72.0,0.04540639743208885
80.0,0.04330350086092949
88.0,0.041274454444646835
96.0,0.03932651877403259
104.0,0.037638988345861435
112.0,0.036031290888786316
120.0,0.034203097224235535
128.0,0.032207656651735306
144.0,0.02954063005745411
160.0,0.02755708619952202
176.0,0.026707317680120468
192.0,0.026627253741025925
208.0,0.026358483359217644
224.0,0.026190314441919327
240.0,0.02590894140303135
256.0,0.026163900271058083
288.0,0.027435755357146263
320.0,0.02751307375729084
352.0,0.026841841638088226
384.0,0.02463921718299389
416.0,0.022971492260694504
448.0,0.019326237961649895
480.0,0.016077036038041115
512.0,0.012303413823246956
576.0,0.008691894821822643
640.0,0.008690576069056988
704.0,0.012143031693994999
768.0,0.012472514994442463
832.0,0.006945990025997162
896.0,0.0031130604911595583
960.0,0.0012190061388537288
1024.0,0.003234290285035968
1152.0,-0.0016532166628167033
1280.0,-0.0011082091368734837
1408.0,-0.004414429888129234
1536.0,-0.0003928130026906729
1664.0,-0.00313714612275362
1792.0,-0.004886367823928595
1920.0,-0.011388605460524559
2048.0,-0.014755705371499062
2304.0,-0.018069526180624962
2560.0,-0.01436219085007906
2816.0,-0.014232233166694641
3072.0,-0.012579130940139294
3328.0,-0.00841299444437027
3584.0,-0.008043690584599972
3840.0,-0.004186691250652075
4096.0,0.001970738172531128
4608.0,0.010386579670011997
5120.0,0.007356436923146248
5632.0,0.004527994431555271
6144.0,0.003128243610262871
6656.0,-0.006738887168467045
7168.0,-0.007258777506649494
7680.0,-0.013334589079022408
8192.0,-0.012518680654466152
end
