version,3.0
numOfCh,1
type,point
parent_name,c1204_0dot08-0dot1
ch_type,1_1
kcount,1
numberNandB,1
brightnessNandB,1
carpet pos,0
pc,0
Time (ms),CH1 Auto-Correlation
1.0,0.08835875242948532
2.0,0.087674081325531
3.0,0.0869932770729065
4.0,0.08635097742080688
5.0,0.08570743352174759
6.0,0.08513443171977997
7.0,0.08455787599086761
8.0,0.08403385430574417
9.0,0.08355468511581421
10.0,0.08309276401996613
11.0,0.08264773339033127
12.0,0.08220291137695312
13.0,0.08176229149103165
14.0,0.08132010698318481
15.0,0.08090142905712128
16.0,0.080494724214077
18.0,0.07968935370445251
20.0,0.0789027139544487
22.0,0.07812563329935074
24.0,0.07738029211759567
26.0,0.07669198513031006
28.0,0.07599974423646927
30.0,0.07531479001045227
32.0,0.07461698353290558
36.0,0.07315754145383835
40.0,0.0717368870973587
44.0,0.07034055888652802
48.0,0.06886628270149231
52.0,0.06748296320438385
56.0,0.06640581041574478
60.0,0.06536364555358887
64.0,0.06426677107810974
72.0,0.062267132103443146
80.0,0.06019892171025276
88.0,0.0582679882645607
96.0,0.0565163716673851
104.0,0.05481336638331413
112.0,0.05281898379325867
120.0,0.05104178190231323
128.0,0.04924397170543671
144.0,0.04594780132174492
160.0,0.04311958700418472
176.0,0.04006517305970192
192.0,0.03726493939757347
208.0,0.034850187599658966
224.0,0.03265959769487381
240.0,0.03128410130739212
256.0,0.03006020188331604
288.0,0.028032196685671806
320.0,0.024269483983516693
352.0,0.020404348149895668
384.0,0.017727142199873924
416.0,0.015799596905708313
448.0,0.012533154338598251
480.0,0.009551824070513248
512.0,0.007392660714685917
576.0,0.005738528445363045
640.0,0.0032038672361522913
704.0,0.0010104859247803688
768.0,-0.0014019538648426533
832.0,-0.0068619828671216965
896.0,-0.01002162229269743
960.0,-0.014346679672598839
1024.0,-0.015217580832540989
1152.0,-0.012231569737195969
1280.0,-0.0069771804846823215
1408.0,-0.0019883594941347837
1536.0,0.00021867064060643315
1664.0,0.00038059966755099595
1792.0,0.004031184129416943
1920.0,0.01086830161511898
2048.0,0.012533003464341164
2304.0,0.0014822423690930009
2560.0,0.004964119754731655
2816.0,0.00751408701762557
3072.0,0.007577716838568449
3328.0,0.0015491540543735027
3584.0,-0.006767308339476585
3840.0,-0.003509818809106946
4096.0,-0.008083367720246315
4608.0,0.012005910277366638
5120.0,0.0050546349957585335
5632.0,-0.01557313185185194
6144.0,-0.016392497345805168
6656.0,0.008636817336082458
7168.0,0.016972225159406662
7680.0,-0.004762911703437567
8192.0,-0.027518359944224358
end
