version,3.0
numOfCh,1
type,point
parent_name,fe81d_0dot069-0dot01
ch_type,1_1
kcount,1
numberNandB,1
brightnessNandB,1
carpet pos,0
pc,0
Time (ms),CH1 Auto-Correlation
1.0,0.027443313971161842
2.0,0.02723461203277111
3.0,0.027016889303922653
4.0,0.026806840673089027
5.0,0.02659507840871811
6.0,0.026382926851511
7.0,0.0261701587587595
8.0,0.025962911546230316
9.0,0.025760946795344353
10.0,0.02555862069129944
11.0,0.025358714163303375
12.0,0.025169840082526207
13.0,0.02498231641948223
14.0,0.024794822558760643
15.0,0.024605881422758102
16.0,0.024420130997896194
18.0,0.02405734546482563
20.0,0.023709172382950783
22.0,0.023364199325442314
24.0,0.02302428148686886
26.0,0.0227041132748127
28.0,0.02237975038588047
30.0,0.02206011861562729
32.0,0.021751191467046738
36.0,0.021173520013689995
40.0,0.02062522992491722
44.0,0.020064618438482285
48.0,0.019513500854372978
52.0,0.018986143171787262
56.0,0.018465781584382057
60.0,0.017948715016245842
64.0,0.01746230199933052
72.0,0.016575487330555916
80.0,0.015819648280739784
88.0,0.015174852684140205
96.0,0.014631588011980057
104.0,0.014118203893303871
112.0,0.013605944812297821
120.0,0.013201615773141384
128.0,0.012851313687860966
144.0,0.012207786552608013
160.0,0.011775285936892033
176.0,0.011410851962864399
192.0,0.010912062600255013
208.0,0.010216490365564823
224.0,0.009356683120131493
240.0,0.008429189212620258
256.0,0.0073381345719099045
288.0,0.0057329232804477215
320.0,0.0047316765412688255
352.0,0.003858213545754552
384.0,0.003949499223381281
416.0,0.0038053859025239944
448.0,0.003260701894760132
480.0,0.0025715678930282593
512.0,0.0020094141364097595
576.0,0.0019302881555631757
640.0,0.001830596593208611
704.0,0.000780929287429899
768.0,0.0016518529737368226
832.0,0.001786908251233399
896.0,0.001319415052421391
960.0,0.0009716054191812873
1024.0,-0.00019681746198330075
1152.0,-0.001975234365090728
1280.0,-0.0030405193101614714
1408.0,-0.0032248112838715315
1536.0,-0.004766969010233879
1664.0,-0.004710771143436432
1792.0,-0.004228293430060148
1920.0,-0.0029795956797897816
2048.0,-0.0021306336857378483
2304.0,-0.003538765711709857
2560.0,-0.004167248960584402
2816.0,-0.004312470089644194
3072.0,-0.005460668355226517
3328.0,-0.006999693810939789
3584.0,-0.00445421552285552
3840.0,-0.0032425185199826956
4096.0,0.0015171696431934834
4608.0,0.005708386190235615
5120.0,0.006927633658051491
5632.0,0.005751989781856537
6144.0,0.0014879715163260698
6656.0,-0.0005330038256943226
7168.0,-0.006977448705583811
7680.0,-0.007737499661743641
8192.0,-0.003980000503361225
end
