version,3.0
numOfCh,1
type,point
parent_name,fe81d_0dot069-0dot01
ch_type,1_1
kcount,1
numberNandB,1
brightnessNandB,1
carpet pos,0
pc,0
Time (ms),CH1 Auto-Correlation
1.0,0.02855594828724861
2.0,0.028351305052638054
3.0,0.02814725786447525
4.0,0.02794080413877964
5.0,0.027737285941839218
6.0,0.027533719316124916
7.0,0.027329836040735245
8.0,0.027128558605909348
9.0,0.02693137526512146
10.0,0.02674102783203125
11.0,0.02655869349837303
12.0,0.026377564296126366
13.0,0.026203704997897148
14.0,0.02602892555296421
15.0,0.025847656652331352
16.0,0.025668522343039513
18.0,0.025327282026410103
20.0,0.02499525435268879
22.0,0.024671422317624092
24.0,0.024352261796593666
26.0,0.024039296433329582
28.0,0.023740097880363464
30.0,0.023449938744306564
32.0,0.023159043863415718
36.0,0.02259266935288906
40.0,0.0220655407756567
44.0,0.02156829461455345
48.0,0.02108914591372013
52.0,0.02060677483677864
56.0,0.02011999487876892
60.0,0.019654814153909683
64.0,0.019207417964935303
72.0,0.018304111436009407
80.0,0.017401786521077156
88.0,0.016546988859772682
96.0,0.015736445784568787
104.0,0.014979981817305088
112.0,0.014272883534431458
120.0,0.013617761433124542
128.0,0.012976308353245258
144.0,0.011911654844880104
160.0,0.010897532105445862
176.0,0.00992223434150219
192.0,0.008989430032670498
208.0,0.0080704465508461
224.0,0.0073591358959674835
240.0,0.006921563297510147
256.0,0.006571127101778984
288.0,0.005832406226545572
320.0,0.00482891546562314
352.0,0.0035240405704826117
384.0,0.002064187079668045
416.0,0.0007202172419056296
448.0,-0.00028280215337872505
480.0,-0.0006512492545880377
512.0,-0.0005290123517625034
576.0,0.0005276512820273638
640.0,0.0007471401477232575
704.0,0.0008541533607058227
768.0,0.0009721727692522109
832.0,0.0013211262412369251
896.0,0.002450196072459221
960.0,0.0033610560931265354
1024.0,0.003155076876282692
1152.0,0.0039671012200415134
1280.0,0.002949313260614872
1408.0,0.0005444451817311347
1536.0,-0.0032276397105306387
1664.0,-0.006750081665813923
1792.0,-0.006468102335929871
1920.0,-0.0033078619744628668
2048.0,-0.00019706152670551091
2304.0,0.0008297468884848058
2560.0,-0.0009416689863428473
2816.0,-0.0029628316406160593
3072.0,-0.002496408298611641
3328.0,0.0012456090189516544
3584.0,-0.0044036912731826305
3840.0,-0.007511069532483816
4096.0,-0.003877585055306554
4608.0,-0.0050194826908409595
5120.0,-0.0019602393731474876
5632.0,-0.001709764706902206
6144.0,-0.0011954634683206677
6656.0,0.008246899582445621
7168.0,0.002877063350751996
7680.0,0.00412202812731266
8192.0,0.000575971556827426
end
