version,3.0
numOfCh,1
type,point
parent_name,fe81d_0dot069-0dot01
ch_type,1_1
kcount,1
numberNandB,1
brightnessNandB,1
carpet pos,0
pc,0
Time (ms),CH1 Auto-Correlation
1.0,0.03528236970305443
2.0,0.035043131560087204
3.0,0.034804876893758774
4.0,0.03457155451178551
5.0,0.034338582307100296
6.0,0.03412095084786415
7.0,0.033906906843185425
8.0,0.033697545528411865
9.0,0.03349972143769264
10.0,0.03331853449344635
11.0,0.033141303807497025
12.0,0.032967206090688705
13.0,0.032796189188957214
14.0,0.032630354166030884
15.0,0.032454900443553925
16.0,0.03227199986577034
18.0,0.03192050755023956
20.0,0.031579840928316116
22.0,0.031234633177518845
24.0,0.030903253704309464
26.0,0.03057657554745674
28.0,0.030254339799284935
30.0,0.029933230951428413
32.0,0.029614092782139778
36.0,0.029047872871160507
40.0,0.028518445789813995
44.0,0.028006257489323616
48.0,0.027523484081029892
52.0,0.027056917548179626
56.0,0.026598671451210976
60.0,0.026146933436393738
64.0,0.02568742446601391
72.0,0.024834102019667625
80.0,0.024154212325811386
88.0,0.023538095876574516
96.0,0.022968662902712822
104.0,0.02245442569255829
112.0,0.02207539789378643
120.0,0.02173309028148651
128.0,0.021395094692707062
144.0,0.02086474746465683
160.0,0.020329581573605537
176.0,0.019814515486359596
192.0,0.019421692937612534
208.0,0.019060520455241203
224.0,0.018843408674001694
240.0,0.018938008695840836
256.0,0.019080674275755882
288.0,0.019007572904229164
320.0,0.018363971263170242
352.0,0.017773665487766266
384.0,0.016589928418397903
416.0,0.01591363549232483
448.0,0.01574094407260418
480.0,0.015720058232545853
512.0,0.015644770115613937
576.0,0.014958797954022884
640.0,0.013071020133793354
704.0,0.012700807303190231
768.0,0.011784721165895462
832.0,0.011502048000693321
896.0,0.011402199044823647
960.0,0.011062981560826302
1024.0,0.011110390536487103
1152.0,0.009770704433321953
1280.0,0.009620792232453823
1408.0,0.008741388097405434
1536.0,0.006966186687350273
1664.0,0.004891352262347937
1792.0,0.0052708727307617664
1920.0,0.0038235338870435953
2048.0,0.0025110053829848766
2304.0,0.002738481154665351
2560.0,0.006903837434947491
2816.0,0.007761067245155573
3072.0,0.0073509071953594685
3328.0,0.005135265178978443
3584.0,0.003235832555219531
3840.0,0.004187664017081261
4096.0,0.0011723627103492618
4608.0,-0.006498668342828751
5120.0,-0.008151931688189507
5632.0,-0.007449794560670853
6144.0,-0.008358897641301155
6656.0,-0.004164696205407381
7168.0,-0.009606880135834217
7680.0,-0.019389405846595764
8192.0,-0.023859508335590363
end
