version,3.0
numOfCh,1
type,point
parent_name,fe81d_0dot069-0dot01
ch_type,1_1
kcount,1
numberNandB,1
brightnessNandB,1
carpet pos,0
pc,0
Time (ms),CH1 Auto-Correlation
1.0,0.02685542032122612
2.0,0.02665380761027336
3.0,0.026459146291017532
4.0,0.02626952715218067
5.0,0.026084259152412415
6.0,0.02590419352054596
7.0,0.025729650631546974
8.0,0.025552453473210335
9.0,0.02537774294614792
10.0,0.025202231481671333
11.0,0.02502278983592987
12.0,0.024848083034157753
13.0,0.02467881143093109
14.0,0.024516262114048004
15.0,0.024356793612241745
16.0,0.024204259738326073
18.0,0.02390657365322113
20.0,0.02360951155424118
22.0,0.023312000557780266
24.0,0.023018041625618935
26.0,0.022727971896529198
28.0,0.022435279563069344
30.0,0.022145751863718033
32.0,0.0218539759516716
36.0,0.021288206800818443
40.0,0.020742880180478096
44.0,0.020225321874022484
48.0,0.019757941365242004
52.0,0.019320497289299965
56.0,0.018893465399742126
60.0,0.018470020964741707
64.0,0.01808570697903633
72.0,0.017314298078417778
80.0,0.016561098396778107
88.0,0.015919530764222145
96.0,0.015317956916987896
104.0,0.014711415395140648
112.0,0.014081469736993313
120.0,0.013474448584020138
128.0,0.012970633804798126
144.0,0.012141712941229343
160.0,0.011595028452575207
176.0,0.011189623735845089
192.0,0.010762132704257965
208.0,0.010350068099796772
224.0,0.009954343549907207
240.0,0.009553325362503529
256.0,0.00900442898273468
288.0,0.007670766208320856
320.0,0.006811383180320263
352.0,0.0063971481285989285
384.0,0.005532794166356325
416.0,0.004952182061970234
448.0,0.004421262536197901
480.0,0.004053189884871244
512.0,0.003912251442670822
576.0,0.0032796652521938086
640.0,0.003356941044330597
704.0,0.002859732136130333
768.0,0.0024768903385847807
832.0,0.0015941093442961574
896.0,0.0004884512163698673
960.0,-0.00029739420278929174
1024.0,-0.0005044435383751988
1152.0,0.0003828594635706395
1280.0,-0.00047783550689928234
1408.0,-0.002493924228474498
1536.0,-0.0035116681829094887
1664.0,-0.005015836097300053
1792.0,-0.0036603715270757675
1920.0,-0.004363315179944038
2048.0,-0.005195373669266701
2304.0,-0.0060770404525101185
2560.0,-0.005032327026128769
2816.0,-0.004270915407687426
3072.0,-0.0033292484004050493
3328.0,-0.0010238290997222066
3584.0,-8.164739119820297e-05
3840.0,0.0034875713754445314
4096.0,0.003970090765506029
4608.0,0.0037567587569355965
5120.0,0.0053511736914515495
5632.0,0.002997015602886677
6144.0,-0.0019691309425979853
6656.0,-0.005913612898439169
7168.0,-0.0030120627488940954
7680.0,-0.0010031084530055523
8192.0,-0.0034654184710234404
end
