version,3.0
numOfCh,1
type,point
parent_name,fe81d_0dot069-0dot01
ch_type,1_1
kcount,1
numberNandB,1
brightnessNandB,1
carpet pos,0
pc,0
Time (ms),CH1 Auto-Correlation
1.0,0.03295475244522095
2.0,0.03276815265417099
3.0,0.03258802741765976
4.0,0.03241671994328499
5.0,0.03225289657711983
6.0,0.032094020396471024
7.0,0.03194237872958183
8.0,0.03178924322128296
9.0,0.03163480386137962
10.0,0.031479351222515106
11.0,0.03132149577140808
12.0,0.031160449609160423
13.0,0.031001200899481773
14.0,0.030849797651171684
15.0,0.03069896809756756
16.0,0.03054947592318058
18.0,0.030255133286118507
20.0,0.029965145513415337
22.0,0.029677586629986763
24.0,0.02938820607960224
26.0,0.029116377234458923
28.0,0.028860900551080704
30.0,0.028608623892068863
32.0,0.028360212221741676
36.0,0.027901696041226387
40.0,0.02745039574801922
44.0,0.02700788527727127
48.0,0.02658352069556713
52.0,0.026149047538638115
56.0,0.025726480409502983
60.0,0.025296200066804886
64.0,0.0248811487108469
72.0,0.024020595476031303
80.0,0.023189602419734
88.0,0.02235565334558487
96.0,0.021632138639688492
104.0,0.021023815497756004
112.0,0.020528538152575493
120.0,0.020088035613298416
128.0,0.01961546018719673
144.0,0.018658781424164772
160.0,0.0176931731402874
176.0,0.01687728613615036
192.0,0.01610194891691208
208.0,0.015118698589503765
224.0,0.014049285091459751
240.0,0.013018655590713024
256.0,0.012180165387690067
288.0,0.01089443452656269
320.0,0.009810222312808037
352.0,0.009152031503617764
384.0,0.008370567113161087
416.0,0.0076986039057374
448.0,0.006958737503737211
480.0,0.006105559412389994
512.0,0.004894362296909094
576.0,0.002928076544776559
640.0,0.002153536770492792
704.0,0.0013920104829594493
768.0,-0.00027081207372248173
832.0,-0.0006768041639588773
896.0,-0.0013231837656348944
960.0,-0.0018143969355151057
1024.0,-0.0018538404256105423
1152.0,-0.0031427480280399323
1280.0,-0.003867432475090027
1408.0,-0.005176811013370752
1536.0,-0.005358067341148853
1664.0,-0.004030348267406225
1792.0,-0.0034067751839756966
1920.0,-0.003807562170550227
2048.0,-0.003966032527387142
2304.0,-0.004562166519463062
2560.0,-0.002593244193121791
2816.0,0.001030749292112887
3072.0,0.005309716332703829
3328.0,0.0035288024228066206
3584.0,0.003302943892776966
3840.0,-0.0023636191617697477
4096.0,-0.003609199309721589
4608.0,-0.0024122842587530613
5120.0,-0.008777582086622715
5632.0,-0.01187691930681467
6144.0,-0.0033436466474086046
6656.0,0.004941911902278662
7168.0,0.009132353588938713
7680.0,0.004933948162943125
8192.0,0.004572274163365364
end
