version,3.0
numOfCh,1
type,point
parent_name,fe81d_0dot069-0dot01
ch_type,1_1
kcount,1
numberNandB,1
brightnessNandB,1
carpet pos,0
pc,0
Time (ms),CH1 Auto-Correlation
1.0,0.03684636577963829
2.0,0.03667409345507622
3.0,0.036506302654743195
4.0,0.03633904457092285
5.0,0.03616840019822121
6.0,0.03599805012345314
7.0,0.03583461791276932
8.0,0.03567947447299957
9.0,0.03552454710006714
10.0,0.03536888211965561
11.0,0.03521425276994705
12.0,0.03506708890199661
13.0,0.03491853550076485
14.0,0.03477183356881142
15.0,0.03462241217494011
16.0,0.034471817314624786
18.0,0.03417221084237099
20.0,0.033879298716783524
22.0,0.033609237521886826
24.0,0.033349327743053436
26.0,0.03309807926416397
28.0,0.03285660967230797
30.0,0.03262389078736305
32.0,0.03240525349974632
36.0,0.03195676952600479
40.0,0.03150004521012306
44.0,0.03105277754366398
48.0,0.030618244782090187
52.0,0.030178368091583252
56.0,0.02976280078291893
60.0,0.02938738465309143
64.0,0.029020102694630623
72.0,0.02825169637799263
80.0,0.02749571017920971
88.0,0.026805158704519272
96.0,0.026215998455882072
104.0,0.02569332905113697
112.0,0.025197191163897514
120.0,0.024704620242118835
128.0,0.024260058999061584
144.0,0.02322555147111416
160.0,0.02226630225777626
176.0,0.021592840552330017
192.0,0.02113758586347103
208.0,0.02068192884325981
224.0,0.019952472299337387
240.0,0.019039876759052277
256.0,0.01793215237557888
288.0,0.01583557203412056
320.0,0.014775227755308151
352.0,0.014294042252004147
384.0,0.013552582822740078
416.0,0.01274804212152958
448.0,0.012281103059649467
480.0,0.011771592311561108
512.0,0.011798083782196045
576.0,0.013430693186819553
640.0,0.015089761465787888
704.0,0.015365113504230976
768.0,0.014275113120675087
832.0,0.014153851196169853
896.0,0.013487299904227257
960.0,0.01219083834439516
1024.0,0.010873563587665558
1152.0,0.008819633163511753
1280.0,0.0070899473503232
1408.0,0.004496640060096979
1536.0,0.0017141075804829597
1664.0,0.0003957330482080579
1792.0,0.0017160149291157722
1920.0,0.003042864380404353
2048.0,0.0019389742519706488
2304.0,-0.0030013639479875565
2560.0,-0.0027159464079886675
2816.0,0.00027078166021965444
3072.0,-0.0007075207540765405
3328.0,0.0028937379829585552
3584.0,0.006209805607795715
3840.0,0.0029149409383535385
4096.0,-0.00046821945579722524
4608.0,-0.004907239228487015
5120.0,-0.018021628260612488
5632.0,-0.021451851353049278
6144.0,-0.027336277067661285
6656.0,-0.02330118790268898
7168.0,-0.022292446345090866
7680.0,-0.01422931533306837
8192.0,-0.0088155847042799
end
