version,3.0
numOfCh,1
type,point
parent_name,fe81d_0dot069-0dot01
ch_type,1_1
kcount,1
numberNandB,1
brightnessNandB,1
carpet pos,0
pc,0
Time (ms),CH1 Auto-Correlation
1.0,0.02941507287323475
2.0,0.029227139428257942
3.0,0.029042629525065422
4.0,0.02886330708861351
5.0,0.028681892901659012
6.0,0.02850654534995556
7.0,0.02833119034767151
8.0,0.02815847098827362
9.0,0.027988990768790245
10.0,0.02782357856631279
11.0,0.027655208483338356
12.0,0.027486097067594528
13.0,0.027316970750689507
14.0,0.02715212292969227
15.0,0.026988035067915916
16.0,0.02682722546160221
18.0,0.026512257754802704
20.0,0.026202993467450142
22.0,0.025911254808306694
24.0,0.025631217285990715
26.0,0.025349577888846397
28.0,0.025066697970032692
30.0,0.02478853054344654
32.0,0.024525003507733345
36.0,0.02402592822909355
40.0,0.02354326844215393
44.0,0.023066168650984764
48.0,0.02258029580116272
52.0,0.02211708575487137
56.0,0.021669555455446243
60.0,0.021221891045570374
64.0,0.020791541785001755
72.0,0.019977765157818794
80.0,0.019166549667716026
88.0,0.018400756642222404
96.0,0.01766301319003105
104.0,0.017000291496515274
112.0,0.016402380540966988
120.0,0.01580924168229103
128.0,0.015285122208297253
144.0,0.014335813000798225
160.0,0.013520730659365654
176.0,0.012789170257747173
192.0,0.012097668834030628
208.0,0.011587313376367092
224.0,0.011163977906107903
240.0,0.010819158516824245
256.0,0.010368331335484982
288.0,0.009367440827190876
320.0,0.008547250181436539
352.0,0.007435731589794159
384.0,0.006488834507763386
416.0,0.005497060716152191
448.0,0.0044000521302223206
480.0,0.0036396286450326443
512.0,0.0030490478966385126
576.0,0.0025023247580975294
640.0,0.0024518549907952547
704.0,0.0017848018324002624
768.0,0.0009747208096086979
832.0,-0.0004978096694685519
896.0,-0.0018437333637848496
960.0,-0.002264076843857765
1024.0,-0.0022984070237725973
1152.0,-0.0020295947324484587
1280.0,-0.001187307178042829
1408.0,-0.0005774339661002159
1536.0,-0.0020672865211963654
1664.0,-0.003511946415528655
1792.0,-0.005704621784389019
1920.0,-0.006186717189848423
2048.0,-0.0070250798016786575
2304.0,-0.005095704924315214
2560.0,-0.003784813918173313
2816.0,-0.004335341509431601
3072.0,-0.005347816273570061
3328.0,-0.004135670606046915
3584.0,-0.002668076427653432
3840.0,-9.967874939320609e-05
4096.0,0.0019148638239130378
4608.0,0.004651839379221201
5120.0,0.005337256006896496
5632.0,0.0024953673128038645
6144.0,0.0041328053921461105
6656.0,-0.0009276162600144744
7168.0,-0.008605203591287136
7680.0,-0.009713036939501762
8192.0,-0.001537179690785706
end
