version,3.0
numOfCh,1
type,point
parent_name,fe81d_0dot069-0dot01
ch_type,1_1
kcount,1
numberNandB,1
brightnessNandB,1
carpet pos,0
pc,0
Time (ms),CH1 Auto-Correlation
1.0,0.02706436812877655
2.0,0.026858320459723473
3.0,0.02665080688893795
4.0,0.026442384347319603
5.0,0.026233259588479996
6.0,0.026023466140031815
7.0,0.025812333449721336
8.0,0.025599375367164612
9.0,0.02538771741092205
10.0,0.025177620351314545
11.0,0.024960525333881378
12.0,0.024744825437664986
13.0,0.024522431194782257
14.0,0.024300528690218925
15.0,0.024082563817501068
16.0,0.023870695382356644
18.0,0.02346121519804001
20.0,0.023042062297463417
22.0,0.02262038178741932
24.0,0.022211872041225433
26.0,0.021802887320518494
28.0,0.02138873189687729
30.0,0.02097960002720356
32.0,0.020590735599398613
36.0,0.019799277186393738
40.0,0.01900600455701351
44.0,0.018263358622789383
48.0,0.017586158588528633
52.0,0.016958415508270264
56.0,0.016364019364118576
60.0,0.0158204585313797
64.0,0.015313636511564255
72.0,0.014329084195196629
80.0,0.013395385816693306
88.0,0.012510888278484344
96.0,0.011650558561086655
104.0,0.01083322148770094
112.0,0.010133359581232071
120.0,0.009494750760495663
128.0,0.008875139988958836
144.0,0.007864805869758129
160.0,0.00721049914136529
176.0,0.006551223807036877
192.0,0.005748644471168518
208.0,0.0048133861273527145
224.0,0.003954590298235416
240.0,0.003394555067643523
256.0,0.003040002891793847
288.0,0.002334033139050007
320.0,0.0018432845827192068
352.0,0.0015453664818778634
384.0,0.0006856016698293388
416.0,-0.0002899062819778919
448.0,-0.0008431286551058292
480.0,-0.0006666590925306082
512.0,0.0001394269202137366
576.0,0.003142670029774308
640.0,0.004380243364721537
704.0,0.004247396718710661
768.0,0.002042636275291443
832.0,0.0007835897849872708
896.0,0.000718667812179774
960.0,0.00031517419847659767
1024.0,8.667698421049863e-05
1152.0,-0.0013862719060853124
1280.0,-0.0009567906963638961
1408.0,-0.00047688581980764866
1536.0,0.0005690924590453506
1664.0,0.0017049413872882724
1792.0,0.0020835082978010178
1920.0,0.0023116343654692173
2048.0,0.0016087826807051897
2304.0,-0.0008656727732159197
2560.0,-0.0005613454850390553
2816.0,0.00100226781796664
3072.0,-0.0011471589095890522
3328.0,1.4048600860405713e-05
3584.0,0.003040999174118042
3840.0,0.0016339856665581465
4096.0,-0.0002989678760059178
4608.0,-0.003618480870500207
5120.0,-0.0007519484497606754
5632.0,0.002067271387204528
6144.0,-0.0005950075574219227
6656.0,-0.0011453144252300262
7168.0,-0.00455885473638773
7680.0,-0.005684790201485157
8192.0,-0.009794364683330059
end
