version,3.0
numOfCh,1
type,point
parent_name,fe81d_0dot069-0dot01
ch_type,1_1
kcount,1
numberNandB,1
brightnessNandB,1
carpet pos,0
pc,0
Time (ms),CH1 Auto-Correlation
1.0,0.026853185147047043
2.0,0.026661168783903122
3.0,0.026467585936188698
4.0,0.026272930204868317
5.0,0.02607421949505806
6.0,0.025874938815832138
7.0,0.02567949704825878
8.0,0.025485966354608536
9.0,0.025290824472904205
10.0,0.025099769234657288
11.0,0.024910829961299896
12.0,0.024721752852201462
13.0,0.0245349183678627
14.0,0.024344729259610176
15.0,0.024157853797078133
16.0,0.023972900584340096
18.0,0.023613469675183296
20.0,0.02326788753271103
22.0,0.022923532873392105
24.0,0.022579854354262352
26.0,0.022244321182370186
28.0,0.021928664296865463
30.0,0.02162032201886177
32.0,0.02130836993455887
36.0,0.0206789318472147
40.0,0.020077966153621674
44.0,0.01953033357858658
48.0,0.019000312313437462
52.0,0.018473736941814423
56.0,0.017950018867850304
60.0,0.017431506887078285
64.0,0.016917765140533447
72.0,0.015952197834849358
80.0,0.015061622485518456
88.0,0.014236717484891415
96.0,0.013505177572369576
104.0,0.01285434328019619
112.0,0.012249278835952282
120.0,0.011684934608638287
128.0,0.01110503077507019
144.0,0.009766238741576672
160.0,0.008437787182629108
176.0,0.007283260114490986
192.0,0.006478767842054367
208.0,0.005653084255754948
224.0,0.004918341524899006
240.0,0.004590877331793308
256.0,0.004427988547831774
288.0,0.00384514220058918
320.0,0.0030550712253898382
352.0,0.0020164605230093002
384.0,0.0012449196074157953
416.0,0.0006909184739924967
448.0,-0.00034685080754570663
480.0,-0.0012652328005060554
512.0,-0.002092926297336817
576.0,-0.0032126919832080603
640.0,-0.0032833784352988005
704.0,-0.0017701785545796156
768.0,-0.0008225177880376577
832.0,0.0008809962309896946
896.0,0.0019253542413935065
960.0,0.0027242950163781643
1024.0,0.0029355790466070175
1152.0,0.001548716682009399
1280.0,0.0013068427797406912
1408.0,0.001057834131643176
1536.0,-0.0006912568933330476
1664.0,-0.0014635727275162935
1792.0,-0.0046377344988286495
1920.0,-0.005447078496217728
2048.0,-0.0043084402568638325
2304.0,-0.0008241153554990888
2560.0,0.003926720470190048
2816.0,0.004363970831036568
3072.0,-0.0009099055896513164
3328.0,-0.0027934841345995665
3584.0,-0.0001461485371692106
3840.0,0.0018588140374049544
4096.0,0.002643910702317953
4608.0,-0.0010725546162575483
5120.0,0.0014388484414666891
5632.0,0.001516516669653356
6144.0,-0.002671776106581092
6656.0,-0.0005441607790999115
7168.0,-0.005412675905972719
7680.0,-0.0007619054522365332
8192.0,-0.00046844175085425377
end
