version,3.0
numOfCh,1
type,point
parent_name,fe81d_0dot069-0dot01
ch_type,1_1
kcount,1
numberNandB,1
brightnessNandB,1
carpet pos,0
pc,0
Time (ms),CH1 Auto-Correlation
1.0,0.028385737910866737
2.0,0.028197437524795532
3.0,0.028009751811623573
4.0,0.027825089171528816
5.0,0.02764555811882019
6.0,0.027468321844935417
7.0,0.027291301637887955
8.0,0.027109168469905853
9.0,0.026929333806037903
10.0,0.02675582468509674
11.0,0.026586657389998436
12.0,0.026422442868351936
13.0,0.026256635785102844
14.0,0.02609199658036232
15.0,0.025928718969225883
16.0,0.02576935850083828
18.0,0.025454899296164513
20.0,0.025148050859570503
22.0,0.024850238114595413
24.0,0.024566009640693665
26.0,0.02428813837468624
28.0,0.02401055209338665
30.0,0.023723062127828598
32.0,0.02344028651714325
36.0,0.02288287878036499
40.0,0.02232475019991398
44.0,0.02178906835615635
48.0,0.021268300712108612
52.0,0.02076699398458004
56.0,0.020282015204429626
60.0,0.01980859600007534
64.0,0.019352197647094727
72.0,0.01852996088564396
80.0,0.017836332321166992
88.0,0.017139503732323647
96.0,0.016478626057505608
104.0,0.015876255929470062
112.0,0.015332711860537529
120.0,0.014854464679956436
128.0,0.01435037050396204
144.0,0.01347461249679327
160.0,0.012597043998539448
176.0,0.011558261699974537
192.0,0.010643314570188522
208.0,0.009868132881820202
224.0,0.009039923548698425
240.0,0.008417272008955479
256.0,0.007978938519954681
288.0,0.0073562017641961575
320.0,0.006738684605807066
352.0,0.006408085580915213
384.0,0.00584173621609807
416.0,0.004742964170873165
448.0,0.003995169419795275
480.0,0.0035487280692905188
512.0,0.003216963028535247
576.0,0.0019147624261677265
640.0,0.0007682096911594272
704.0,0.0003908641228917986
768.0,-0.0008580158464610577
832.0,-0.0016101234359666705
896.0,-0.002430031541734934
960.0,-0.003453379264101386
1024.0,-0.0037363385781645775
1152.0,-0.004504648968577385
1280.0,-0.003565689316019416
1408.0,-0.0013919295743107796
1536.0,-0.0012396372621878982
1664.0,-0.0009311214089393616
1792.0,-7.875365554355085e-05
1920.0,-0.0005649598315358162
2048.0,7.197919330792502e-05
2304.0,0.004412750713527203
2560.0,0.003693096339702606
2816.0,0.002979168901219964
3072.0,0.003576153190806508
3328.0,0.0004035708261653781
3584.0,-0.0030393116176128387
3840.0,-0.004375852644443512
4096.0,-0.007589607033878565
4608.0,-0.002741631818935275
5120.0,-0.003578054253011942
5632.0,0.0015347431180998683
6144.0,-0.0012093136319890618
6656.0,-0.0033120736479759216
7168.0,0.0004976681084372103
7680.0,0.001230470952577889
8192.0,-0.00420879852026701
end
