version,3.0
numOfCh,1
type,point
parent_name,fe81d_0dot069-0dot01
ch_type,1_1
kcount,1
numberNandB,1
brightnessNandB,1
carpet pos,0
pc,0
Time (ms),CH1 Auto-Correlation
1.0,0.024256058037281036
2.0,0.02403528429567814
3.0,0.023814978078007698
4.0,0.02360333316028118
5.0,0.023399418219923973
6.0,0.02319074049592018
7.0,0.022982046008110046
8.0,0.022779356688261032
9.0,0.022581305354833603
10.0,0.02239414118230343
11.0,0.022213563323020935
12.0,0.022038159891963005
13.0,0.02186480164527893
14.0,0.021698664873838425
15.0,0.02153560146689415
16.0,0.021370772272348404
18.0,0.02105267532169819
20.0,0.02074274979531765
22.0,0.02044210210442543
24.0,0.020155129954218864
26.0,0.019872836768627167
28.0,0.019592830911278725
30.0,0.019333377480506897
32.0,0.019074982032179832
36.0,0.01851484552025795
40.0,0.017987821251153946
44.0,0.017522456124424934
48.0,0.017085000872612
52.0,0.016647696495056152
56.0,0.016204388812184334
60.0,0.015789905562996864
64.0,0.01540581788867712
72.0,0.014683675952255726
80.0,0.01400838140398264
88.0,0.013390148058533669
96.0,0.012880265712738037
104.0,0.012352683581411839
112.0,0.011761724017560482
120.0,0.011155528947710991
128.0,0.010554475709795952
144.0,0.009368517436087132
160.0,0.008086021989583969
176.0,0.006748531945049763
192.0,0.005651841871440411
208.0,0.004803428892046213
224.0,0.004085168708115816
240.0,0.003531321883201599
256.0,0.002933318493887782
288.0,0.002530790865421295
320.0,0.0026304475031793118
352.0,0.002424655482172966
384.0,0.002093890681862831
416.0,0.002211691113188863
448.0,0.0026704089250415564
480.0,0.003261556616052985
512.0,0.0028002934996038675
576.0,0.0008605137700214982
640.0,-0.00021350568567868322
704.0,-0.0016356208361685276
768.0,-0.0019219927489757538
832.0,-0.0015059460420161486
896.0,-0.0007241989951580763
960.0,8.561339200241491e-05
1024.0,-0.0004444760852493346
1152.0,-0.00041929021244868636
1280.0,-0.00040498239104636014
1408.0,-9.415433055437461e-07
1536.0,-0.0005821692175231874
1664.0,0.0001145038622780703
1792.0,0.0011789012933149934
1920.0,0.001996497856453061
2048.0,0.0015505821211263537
2304.0,-0.0009178674081340432
2560.0,0.000910793780349195
2816.0,-0.00015068681386765093
3072.0,-0.0007427955861203372
3328.0,-0.0015668498817831278
3584.0,0.0010387562215328217
3840.0,0.002922954736277461
4096.0,0.0014955168589949608
4608.0,-0.0025511435233056545
5120.0,-0.003758056089282036
5632.0,0.0018316070782020688
6144.0,-0.00011975045345025137
6656.0,-0.0055984375067055225
7168.0,-0.0029632742516696453
7680.0,-0.0005220243474468589
8192.0,0.0022509456612169743
end
