version,3.0
numOfCh,1
type,point
parent_name,fe81d_0dot069-0dot01
ch_type,1_1
kcount,1
numberNandB,1
brightnessNandB,1
carpet pos,0
pc,0
Time (ms),CH1 Auto-Correlation
1.0,0.03815348073840141
2.0,0.037963006645441055
3.0,0.03776979818940163
4.0,0.03757874667644501
5.0,0.03738894313573837
6.0,0.03721243515610695
7.0,0.03703286498785019
8.0,0.03685509413480759
9.0,0.03667603060603142
10.0,0.036492738872766495
11.0,0.03631344810128212
12.0,0.036131106317043304
13.0,0.03595045208930969
14.0,0.03576326370239258
15.0,0.03558061644434929
16.0,0.03539963439106941
18.0,0.03504592180252075
20.0,0.034684665501117706
22.0,0.034321412444114685
24.0,0.033963244408369064
26.0,0.03361492231488228
28.0,0.03328470140695572
30.0,0.03297948092222214
32.0,0.03269800916314125
36.0,0.03212033584713936
40.0,0.03154216334223747
44.0,0.031003162264823914
48.0,0.030467722564935684
52.0,0.029962243512272835
56.0,0.029429424554109573
60.0,0.028878754004836082
64.0,0.028332805261015892
72.0,0.027281757444143295
80.0,0.026350772008299828
88.0,0.02554030530154705
96.0,0.02478158287703991
104.0,0.023960916325449944
112.0,0.023104669526219368
120.0,0.022343657910823822
128.0,0.02173205092549324
144.0,0.020792244002223015
160.0,0.020073866471648216
176.0,0.019189370796084404
192.0,0.018358329311013222
208.0,0.01769925281405449
224.0,0.017061349004507065
240.0,0.016450393944978714
256.0,0.01596868224442005
288.0,0.014139310456812382
320.0,0.012496176175773144
352.0,0.011172644793987274
384.0,0.010783224366605282
416.0,0.010346336290240288
448.0,0.009159833192825317
480.0,0.007508526090532541
512.0,0.005988311488181353
576.0,0.004749948158860207
640.0,0.004232674837112427
704.0,0.003108084201812744
768.0,0.00013218105596024543
832.0,-0.00253569264896214
896.0,-0.004464436788111925
960.0,-0.00629101786762476
1024.0,-0.0067170835100114346
1152.0,-0.006693459115922451
1280.0,-0.00417832238599658
1408.0,-0.0019149855943396688
1536.0,-0.00033462364808656275
1664.0,0.0026541268453001976
1792.0,0.005432789213955402
1920.0,0.006000800058245659
2048.0,0.004452031571418047
2304.0,-0.0010223325807601213
2560.0,0.0013324626488611102
2816.0,0.0035073759499937296
3072.0,0.0032297878060489893
3328.0,0.004744668956845999
3584.0,0.00200056959874928
3840.0,-0.009533097967505455
4096.0,-0.0105122746899724
end
