version,3.0
numOfCh,1
type,point
parent_name,fe81d_0dot069-0dot01
ch_type,1_1
kcount,1
numberNandB,1
brightnessNandB,1
carpet pos,0
pc,0
Time (ms),CH1 Auto-Correlation
1.0,0.027209438383579254
2.0,0.02702285535633564
3.0,0.02684110403060913
4.0,0.02666456252336502
5.0,0.026493405923247337
6.0,0.02632281742990017
7.0,0.02615164965391159
8.0,0.025986431166529655
9.0,0.025821520015597343
10.0,0.025651834905147552
11.0,0.025483259931206703
12.0,0.02531714178621769
13.0,0.02515026368200779
14.0,0.024982377886772156
15.0,0.02481229044497013
16.0,0.024643804877996445
18.0,0.024306420236825943
20.0,0.023978393524885178
22.0,0.023660389706492424
24.0,0.023350762203335762
26.0,0.023048223927617073
28.0,0.022749818861484528
30.0,0.022448191419243813
32.0,0.022153537720441818
36.0,0.02160302922129631
40.0,0.021074118092656136
44.0,0.020567361265420914
48.0,0.02008669637143612
52.0,0.019639190286397934
56.0,0.019204292446374893
60.0,0.018781328573822975
64.0,0.018365737050771713
72.0,0.01758849062025547
80.0,0.016872242093086243
88.0,0.01618351973593235
96.0,0.015547817572951317
104.0,0.015031957998871803
112.0,0.014567864127457142
120.0,0.01414784137159586
128.0,0.013759317807853222
144.0,0.01310781016945839
160.0,0.012429964728653431
176.0,0.011809378862380981
192.0,0.011377152986824512
208.0,0.01101744920015335
224.0,0.010672870092093945
240.0,0.010473896749317646
256.0,0.010413740761578083
288.0,0.01043933629989624
320.0,0.010340189561247826
352.0,0.01019101869314909
384.0,0.01000893209129572
416.0,0.009524527937173843
448.0,0.009386863559484482
480.0,0.009111650288105011
512.0,0.009021648205816746
576.0,0.008120701648294926
640.0,0.007322876248508692
704.0,0.006381476763635874
768.0,0.005349904764443636
832.0,0.005694427993148565
896.0,0.0059074340388178825
960.0,0.0052039711736142635
1024.0,0.0040143211372196674
1152.0,0.003375222673639655
1280.0,0.0031711726915091276
1408.0,0.0020315491128712893
1536.0,0.0011755212908610702
1664.0,-7.043131518003065e-06
1792.0,-0.0011808802373707294
1920.0,-0.0008855969645082951
2048.0,0.0003279033990111202
2304.0,0.00017101923003792763
2560.0,-0.0016160148661583662
2816.0,-0.003994313068687916
3072.0,-0.00497875502333045
3328.0,-0.004191091749817133
3584.0,-0.004494854714721441
3840.0,-0.003216590266674757
4096.0,-0.003567975014448166
4608.0,0.0007129129953682423
5120.0,-0.0007079608622007072
5632.0,-0.00132734514772892
6144.0,-0.0033467032480984926
6656.0,-0.00794960930943489
7168.0,-0.007935436442494392
7680.0,-0.006167342886328697
8192.0,-0.002896416699513793
end
