version,3.0
numOfCh,1
type,point
parent_name,fe81d_0dot069-0dot01
ch_type,1_1
kcount,1
numberNandB,1
brightnessNandB,1
carpet pos,0
pc,0
Time (ms),CH1 Auto-Correlation
1.0,0.02351321280002594
2.0,0.02332126349210739
3.0,0.02313622273504734
4.0,0.02295137569308281
5.0,0.022772042080760002
6.0,0.022593185305595398
7.0,0.022413989529013634
8.0,0.022241605445742607
9.0,0.022065777331590652
10.0,0.021894546225667
11.0,0.021724559366703033
12.0,0.021553082391619682
13.0,0.02138230949640274
14.0,0.021210961043834686
15.0,0.02104066126048565
16.0,0.020870910957455635
18.0,0.020537294447422028
20.0,0.020209886133670807
22.0,0.019879475235939026
24.0,0.019559670239686966
26.0,0.01925230585038662
28.0,0.018963826820254326
30.0,0.01867717318236828
32.0,0.018394654616713524
36.0,0.017842495813965797
40.0,0.01736319623887539
44.0,0.016913076862692833
48.0,0.01650521717965603
52.0,0.016123207286000252
56.0,0.01574869267642498
60.0,0.015379415825009346
64.0,0.015040382742881775
72.0,0.01444729883223772
80.0,0.013942725956439972
88.0,0.01348158624023199
96.0,0.013060464523732662
104.0,0.012623102404177189
112.0,0.012296403758227825
120.0,0.012050831690430641
128.0,0.011802281253039837
144.0,0.01115384977310896
160.0,0.010277193039655685
176.0,0.009602929465472698
192.0,0.00916902907192707
208.0,0.008819088339805603
224.0,0.00837571918964386
240.0,0.007784045767039061
256.0,0.007314900867640972
288.0,0.0068842689506709576
320.0,0.0068999966606497765
352.0,0.006779909133911133
384.0,0.00662923464551568
416.0,0.006392148323357105
448.0,0.005806329194456339
480.0,0.0053469277918338776
512.0,0.004811059683561325
576.0,0.0030327574349939823
640.0,0.0018022482981905341
704.0,0.0014798601623624563
768.0,0.0012924334732815623
832.0,0.001482268562540412
896.0,0.000915996846742928
960.0,0.0006769603933207691
1024.0,0.000894564320333302
1152.0,0.00040491484105587006
1280.0,0.00036020949482917786
1408.0,-0.00048420557868666947
1536.0,-0.00269651273265481
1664.0,-0.0031189846340566874
1792.0,-0.0014949468895792961
1920.0,-0.0007422093767672777
2048.0,-0.00072257942520082
2304.0,0.0007614036439917982
2560.0,0.0019348571076989174
2816.0,0.0011614840477705002
3072.0,-0.0006065465859137475
3328.0,0.00016850065730977803
3584.0,0.0037293676286935806
3840.0,0.0013481770874932408
4096.0,0.0025152177549898624
4608.0,0.001862388919107616
5120.0,0.0006911623640917242
5632.0,-0.0003217743069399148
6144.0,0.00033957778941839933
6656.0,-0.0013273520162329078
7168.0,-0.004410526715219021
7680.0,-0.0055602677166461945
8192.0,-0.004653675947338343
end
