version,3.0
numOfCh,1
type,point
parent_name,fe81d_0dot069-0dot01
ch_type,1_1
kcount,1
numberNandB,1
brightnessNandB,1
carpet pos,0
pc,0
Time (ms),CH1 Auto-Correlation
1.0,0.030402250587940216
2.0,0.029934672638773918
3.0,0.029495732858777046
4.0,0.029060890898108482
5.0,0.028617803007364273
6.0,0.028166308999061584
7.0,0.027714857831597328
8.0,0.027283351868391037
9.0,0.0268272552639246
10.0,0.02640538103878498
11.0,0.025996467098593712
12.0,0.02561667189002037
13.0,0.025229888036847115
14.0,0.024831142276525497
15.0,0.024441514164209366
16.0,0.024064011871814728
18.0,0.023475615307688713
20.0,0.02297406829893589
22.0,0.02253381721675396
24.0,0.022162655368447304
26.0,0.021855242550373077
28.0,0.02159927412867546
30.0,0.02139905095100403
32.0,0.021221883594989777
36.0,0.0208585225045681
40.0,0.020341765135526657
44.0,0.019502995535731316
48.0,0.018514011055231094
52.0,0.01753937639296055
56.0,0.016613705083727837
60.0,0.015678076073527336
64.0,0.014982020482420921
72.0,0.013429081998765469
80.0,0.012414754368364811
88.0,0.010709569789469242
96.0,0.008589879609644413
104.0,0.006785066798329353
112.0,0.005433897487819195
120.0,0.004501792602241039
128.0,0.00368406530469656
144.0,0.0009350423933938146
160.0,-0.0005827492568641901
176.0,-0.00259925308637321
192.0,-0.003457883605733514
208.0,-0.004194039851427078
224.0,-0.004834912717342377
240.0,-0.004979971330612898
256.0,-0.005097302608191967
288.0,-0.0043719494715332985
320.0,-0.004093741998076439
352.0,-0.004464386031031609
384.0,-0.003670772537589073
416.0,-0.0022290397901088
448.0,-1.236352909472771e-05
480.0,0.0025525724049657583
512.0,0.0030247457325458527
576.0,0.0016345136100426316
640.0,-0.0013787703355774283
704.0,-0.0037232728209346533
768.0,-0.0028976222965866327
832.0,-0.004344928544014692
896.0,-0.002089474117383361
960.0,-0.0004015795420855284
1024.0,-0.0006271059974096715
1152.0,-0.0010296147083863616
1280.0,0.00335480272769928
1408.0,0.0034323441796004772
1536.0,0.0028027333319187164
1664.0,0.0006506466306746006
1792.0,0.0004452462017070502
1920.0,0.0032244171015918255
2048.0,0.0005033992347307503
end
