version,3.0
numOfCh,1
type,point
parent_name,fe81d_0dot069-0dot01
ch_type,1_1
kcount,1
numberNandB,1
brightnessNandB,1
carpet pos,0
pc,0
Time (ms),CH1 Auto-Correlation
1.0,0.04048498347401619
2.0,0.040110837668180466
3.0,0.03972378373146057
4.0,0.039348095655441284
5.0,0.038973357528448105
6.0,0.038606420159339905
7.0,0.0382574237883091
8.0,0.037887606769800186
9.0,0.037542734295129776
10.0,0.037189047783613205
11.0,0.0368218831717968
12.0,0.03645605593919754
13.0,0.03610530123114586
14.0,0.03575065732002258
15.0,0.035378191620111465
16.0,0.03499951213598251
18.0,0.03422919660806656
20.0,0.033471934497356415
22.0,0.032754331827163696
24.0,0.03204924985766411
26.0,0.03139330819249153
28.0,0.030779654160141945
30.0,0.030206777155399323
32.0,0.029652690514922142
36.0,0.02856348641216755
40.0,0.02747243456542492
44.0,0.026510559022426605
48.0,0.025575002655386925
52.0,0.024614689871668816
56.0,0.02374173328280449
60.0,0.022806596010923386
64.0,0.021772004663944244
72.0,0.01898910291492939
80.0,0.01673521287739277
88.0,0.014628937467932701
96.0,0.013096053153276443
104.0,0.012544536963105202
112.0,0.011938865296542645
120.0,0.011448974721133709
128.0,0.010997455567121506
144.0,0.0105059202760458
160.0,0.01019567996263504
176.0,0.00990299228578806
192.0,0.009551305323839188
208.0,0.009318956173956394
224.0,0.009079467505216599
240.0,0.00881399866193533
256.0,0.00850346777588129
288.0,0.007562092039734125
320.0,0.006566925439983606
352.0,0.005834725685417652
384.0,0.005786082707345486
416.0,0.005825495813041925
448.0,0.00501998420804739
480.0,0.004940110258758068
512.0,0.0057503473944962025
576.0,0.00696947006508708
640.0,0.005953045561909676
704.0,0.005698567721992731
768.0,0.0063371011056005955
832.0,0.005116784479469061
896.0,0.003276112722232938
960.0,0.003465990535914898
1024.0,0.005018479656428099
1152.0,0.00624358095228672
1280.0,0.0037758988328278065
1408.0,0.003199547529220581
1536.0,0.0030503501184284687
1664.0,0.0028444125782698393
1792.0,0.0024372367188334465
1920.0,0.0013239772524684668
2048.0,0.002338856691494584
2304.0,0.0012877394910901785
2560.0,-0.002223620656877756
2816.0,-0.0016629317542538047
3072.0,-0.002193801337853074
3328.0,-0.0021762559190392494
3584.0,-0.002152611268684268
3840.0,-0.00046293166815303266
4096.0,-0.0007317079580388963
4608.0,-0.004905224312096834
5120.0,-0.004116278141736984
5632.0,-0.006263346876949072
6144.0,-0.004780108574777842
6656.0,-0.009023676626384258
7168.0,-0.008081679232418537
7680.0,-0.005612778011709452
8192.0,-0.0009766832226887345
end
