version,3.0
numOfCh,1
type,point
parent_name,fe81d_0dot069-0dot01
ch_type,1_1
kcount,1
numberNandB,1
brightnessNandB,1
carpet pos,0
pc,0
Time (ms),CH1 Auto-Correlation
1.0,0.024849655106663704
2.0,0.024627825245261192
3.0,0.024411408230662346
4.0,0.024199310690164566
5.0,0.02399553917348385
6.0,0.02379670739173889
7.0,0.023598572239279747
8.0,0.02339710295200348
9.0,0.023193931207060814
10.0,0.022994644939899445
11.0,0.022805606946349144
12.0,0.022621287032961845
13.0,0.022439952939748764
14.0,0.022270197048783302
15.0,0.022108513861894608
16.0,0.021952955052256584
18.0,0.021648308262228966
20.0,0.021361093968153
22.0,0.021072398871183395
24.0,0.020785395056009293
26.0,0.020500434562563896
28.0,0.020228862762451172
30.0,0.01996026001870632
32.0,0.0196959488093853
36.0,0.019197169691324234
40.0,0.018716908991336823
44.0,0.018261194229125977
48.0,0.017821334302425385
52.0,0.017387568950653076
56.0,0.016933711245656013
60.0,0.016495659947395325
64.0,0.016062065958976746
72.0,0.015335905365645885
80.0,0.01466762088239193
88.0,0.014063991606235504
96.0,0.013566777110099792
104.0,0.01302133034914732
112.0,0.012476182542741299
120.0,0.011963200755417347
128.0,0.011441691778600216
144.0,0.010417827405035496
160.0,0.009471263736486435
176.0,0.00869880523532629
192.0,0.00800466351211071
208.0,0.007409182842820883
224.0,0.006937441416084766
240.0,0.006430561188608408
256.0,0.006306207738816738
288.0,0.005665563978254795
320.0,0.005302624776959419
352.0,0.005603416822850704
384.0,0.006188615690916777
416.0,0.007284325547516346
448.0,0.007323539350181818
480.0,0.006740593817085028
512.0,0.0061793397180736065
576.0,0.003933608066290617
640.0,0.001299441559240222
704.0,0.0007124737603589892
768.0,0.00037241881364025176
832.0,0.0010012902785092592
896.0,0.0019979532808065414
960.0,0.0025543877854943275
1024.0,0.0017918499652296305
1152.0,0.001451171818189323
1280.0,0.0029730824753642082
1408.0,0.005417687352746725
1536.0,0.0024308857973665
1664.0,0.0005520748673006892
1792.0,0.0016757423290982842
1920.0,-0.000424693658715114
2048.0,-0.004807270132005215
2304.0,-0.004527607001364231
2560.0,-0.004539538640528917
2816.0,-0.006850507576018572
3072.0,-0.003922495990991592
3328.0,-0.004251548554748297
3584.0,-0.003977728076279163
3840.0,-0.005523225758224726
4096.0,-0.0077019440941512585
4608.0,-0.0026493053883314133
5120.0,-0.0011388960992917418
5632.0,-0.002149274805560708
6144.0,0.0022345760371536016
6656.0,0.006155439652502537
7168.0,0.008342222310602665
7680.0,-0.0002644719497766346
8192.0,-0.00881200935691595
end
