version,3.0
numOfCh,1
type,point
parent_name,fe81d_0dot069-0dot01
ch_type,1_1
kcount,1
numberNandB,1
brightnessNandB,1
carpet pos,0
pc,0
Time (ms),CH1 Auto-Correlation
1.0,0.045495230704545975
2.0,0.04471181705594063
3.0,0.0439157634973526
4.0,0.04318259283900261
5.0,0.042439691722393036
6.0,0.041681498289108276
7.0,0.040960367769002914
8.0,0.04027784243226051
9.0,0.03963415324687958
10.0,0.03900432214140892
11.0,0.03834342211484909
12.0,0.03768891096115112
13.0,0.037033211439847946
14.0,0.036400653421878815
15.0,0.03571353852748871
16.0,0.03502930328249931
18.0,0.033103473484516144
20.0,0.03185876086354256
22.0,0.030648093670606613
24.0,0.029453657567501068
26.0,0.028145475313067436
28.0,0.02674185112118721
30.0,0.02537480928003788
32.0,0.02397264540195465
36.0,0.02346351370215416
40.0,0.02280735783278942
44.0,0.02201351709663868
48.0,0.021266929805278778
52.0,0.020503826439380646
56.0,0.019756263121962547
60.0,0.01902613416314125
64.0,0.018253609538078308
72.0,0.01695984974503517
80.0,0.016246248036623
88.0,0.01565939001739025
96.0,0.015202806331217289
104.0,0.014817642979323864
112.0,0.01445290632545948
120.0,0.014218191616237164
128.0,0.013893135823309422
144.0,0.013273444958031178
160.0,0.012189707718789577
176.0,0.011278451420366764
192.0,0.011122489348053932
208.0,0.010860100388526917
224.0,0.010340934619307518
240.0,0.009739410132169724
256.0,0.008859057910740376
288.0,0.008367922157049179
320.0,0.008119686506688595
352.0,0.007868045009672642
384.0,0.007585223764181137
416.0,0.00813603401184082
448.0,0.008567212149500847
480.0,0.007771847769618034
512.0,0.006589253433048725
576.0,0.004275745712220669
640.0,0.0017304390203207731
704.0,0.0003862147277686745
768.0,-0.0014100675471127033
832.0,-0.003261069767177105
896.0,-0.003347969613969326
960.0,-0.0032852631993591785
1024.0,-0.0041419705376029015
1152.0,-0.006011458579450846
1280.0,-0.008421046659350395
1408.0,-0.008272511884570122
1536.0,-0.0068340967409312725
1664.0,-0.007862454280257225
1792.0,-0.007009231485426426
1920.0,-0.0049749030731618404
2048.0,-0.0035664779134094715
2304.0,-0.000848095107357949
2560.0,-0.00015869023627601564
2816.0,0.0023243916220963
3072.0,0.0025362700689584017
3328.0,0.0059596700593829155
3584.0,0.005606662482023239
3840.0,0.004244922660291195
4096.0,0.0005579543067142367
4608.0,-0.0025472063571214676
5120.0,-0.0021942565217614174
5632.0,-0.005292975809425116
6144.0,-0.002552604302763939
6656.0,0.004870908800512552
7168.0,0.009809154085814953
7680.0,0.0038000773638486862
8192.0,-0.004382654093205929
end
