version,3.0
numOfCh,1
type,point
parent_name,fe81d_0dot069-0dot01
ch_type,1_1
kcount,1
numberNandB,1
brightnessNandB,1
carpet pos,0
pc,0
Time (ms),CH1 Auto-Correlation
1.0,0.03478118032217026
2.0,0.03456880897283554
3.0,0.03436175361275673
4.0,0.034158967435359955
5.0,0.0339541956782341
6.0,0.03375459462404251
7.0,0.033557455986738205
8.0,0.03335897624492645
9.0,0.03315795958042145
10.0,0.032962001860141754
11.0,0.03276809677481651
12.0,0.03257927671074867
13.0,0.03239258751273155
14.0,0.032200273126363754
15.0,0.032005492597818375
16.0,0.03181109577417374
18.0,0.03142359107732773
20.0,0.031055336818099022
22.0,0.030701367184519768
24.0,0.03034370020031929
26.0,0.029983459040522575
28.0,0.029638417065143585
30.0,0.029303552582859993
32.0,0.028965109959244728
36.0,0.028286896646022797
40.0,0.027612600475549698
44.0,0.02697763964533806
48.0,0.026390111073851585
52.0,0.025822509080171585
56.0,0.025264928117394447
60.0,0.024706900119781494
64.0,0.02416328713297844
72.0,0.023217907175421715
80.0,0.02239610068500042
88.0,0.021726297214627266
96.0,0.021054640412330627
104.0,0.020295875146985054
112.0,0.0195719413459301
120.0,0.018864288926124573
128.0,0.018228929489850998
144.0,0.017105404287576675
160.0,0.016144488006830215
176.0,0.01530991867184639
192.0,0.014585375785827637
208.0,0.013912512920796871
224.0,0.013072465546429157
240.0,0.01226041465997696
256.0,0.01185195054858923
288.0,0.01100105419754982
320.0,0.010038458742201328
352.0,0.009479638189077377
384.0,0.009633271023631096
416.0,0.009662523865699768
448.0,0.008875482715666294
480.0,0.00820507388561964
512.0,0.007456719409674406
576.0,0.006076505873352289
640.0,0.005098259542137384
704.0,0.0052807750180363655
768.0,0.004956803284585476
832.0,0.0055314041674137115
896.0,0.0054033189080655575
960.0,0.005079164169728756
1024.0,0.004390036221593618
1152.0,0.003214751835912466
1280.0,0.0051333364099264145
1408.0,0.005418120883405209
1536.0,0.0034747037570923567
1664.0,0.0028131064027547836
1792.0,0.004450512118637562
1920.0,0.004255926702171564
2048.0,0.0033505470491945744
2304.0,-0.00021084578474983573
2560.0,0.0008215343696065247
2816.0,0.002378316130489111
3072.0,-0.00015890365466475487
3328.0,-0.0004359372251201421
3584.0,-0.004382888786494732
3840.0,-0.007998269982635975
4096.0,-0.009385859593749046
4608.0,-0.00486753648146987
5120.0,-0.0006144360522739589
5632.0,-0.0013516282197088003
6144.0,-0.002536196494475007
6656.0,-0.004683239385485649
7168.0,-0.0014994502998888493
7680.0,0.0007160223904065788
8192.0,0.006328563205897808
end
