version,3.0
numOfCh,1
type,point
parent_name,484af_0dot1-0dot01
ch_type,1_1
kcount,1
numberNandB,1
brightnessNandB,1
carpet pos,0
pc,0
Time (ms),CH1 Auto-Correlation
1.0,0.015339037403464317
2.0,0.015139232389628887
3.0,0.014943068847060204
4.0,0.014756381511688232
5.0,0.014570840634405613
6.0,0.014390946365892887
7.0,0.01421430055052042
8.0,0.014035974629223347
9.0,0.01386293675750494
10.0,0.013694138266146183
11.0,0.0135321831330657
12.0,0.01337525062263012
13.0,0.01321721076965332
14.0,0.013057220727205276
15.0,0.012892278842628002
16.0,0.012735903263092041
18.0,0.012418235652148724
20.0,0.012103579007089138
22.0,0.011792652308940887
24.0,0.011503168381750584
26.0,0.011224819347262383
28.0,0.010955520905554295
30.0,0.01070812251418829
32.0,0.010480464436113834
36.0,0.01002916693687439
40.0,0.009576254524290562
44.0,0.009159436449408531
48.0,0.008809839375317097
52.0,0.008484603837132454
56.0,0.008142701350152493
60.0,0.007823219522833824
64.0,0.007538046687841415
72.0,0.006967710331082344
80.0,0.006382733583450317
88.0,0.005724471528083086
96.0,0.00511883944272995
104.0,0.004587351810187101
112.0,0.004158056806772947
120.0,0.0037409691140055656
128.0,0.003261962905526161
144.0,0.002573856618255377
160.0,0.002153293928131461
176.0,0.0018371104961261153
192.0,0.0016228980384767056
208.0,0.0014595029642805457
224.0,0.0014000452356413007
240.0,0.0013417719164863229
256.0,0.0014192868256941438
288.0,0.0012649059062823653
320.0,0.0012535637943074107
352.0,0.001612689346075058
384.0,0.00217573088593781
416.0,0.0024013719521462917
448.0,0.0026267790235579014
480.0,0.0026748054660856724
512.0,0.002791806124150753
576.0,0.0027256032917648554
640.0,0.002600474515929818
704.0,0.002390420064330101
768.0,0.0021124687045812607
832.0,0.001311877858825028
896.0,-0.0001279219868592918
960.0,-0.0007266691536642611
1024.0,-0.0004039441409986466
1152.0,0.0009998343884944916
1280.0,0.0009290173766203225
1408.0,0.00041324750054627657
1536.0,0.00045541420695371926
1664.0,0.0017028354341164231
1792.0,0.0016299919225275517
1920.0,-1.6416581274825148e-05
2048.0,0.0012238445924594998
2304.0,0.0010935176396742463
2560.0,-9.192990546580404e-05
2816.0,0.0010602101683616638
3072.0,-0.00042391475290060043
3328.0,-0.0009065133635886014
3584.0,-0.001294261310249567
3840.0,-0.0018299956573173404
4096.0,-0.0015771172475069761
4608.0,-0.0014361835783347487
5120.0,-0.0026409418787807226
5632.0,-0.0036435986403375864
6144.0,-0.0031659575179219246
6656.0,-0.0005546665634028614
7168.0,-0.001286783255636692
7680.0,0.0001563373807584867
8192.0,-0.002189667895436287
end
