version,3.0
numOfCh,1
type,point
parent_name,484af_0dot1-0dot01
ch_type,1_1
kcount,1
numberNandB,1
brightnessNandB,1
carpet pos,0
pc,0
Time (ms),CH1 Auto-Correlation
1.0,0.028350019827485085
2.0,0.02810307964682579
3.0,0.027858128771185875
4.0,0.027618728578090668
5.0,0.027385734021663666
6.0,0.027148298919200897
7.0,0.026920687407255173
8.0,0.026700135320425034
9.0,0.026481952518224716
10.0,0.026264751330018044
11.0,0.026046080514788628
12.0,0.025824246928095818
13.0,0.025609202682971954
14.0,0.025400837883353233
15.0,0.025207752361893654
16.0,0.025010308250784874
18.0,0.02465895563364029
20.0,0.024346422404050827
22.0,0.024035198614001274
24.0,0.02372610755264759
26.0,0.023431861773133278
28.0,0.023169180378317833
30.0,0.022916242480278015
32.0,0.02267422527074814
36.0,0.022207526490092278
40.0,0.021750492975115776
44.0,0.02127152308821678
48.0,0.020801056176424026
52.0,0.020346175879240036
56.0,0.019883224740624428
60.0,0.019457660615444183
64.0,0.019188428297638893
72.0,0.01857047900557518
80.0,0.01786961406469345
88.0,0.017160838469862938
96.0,0.016482872888445854
104.0,0.01581667922437191
112.0,0.015200318768620491
120.0,0.014615054242312908
128.0,0.014107020571827888
144.0,0.01290244422852993
160.0,0.011508083902299404
176.0,0.01021753903478384
192.0,0.009330271743237972
208.0,0.008569876663386822
224.0,0.007954076863825321
240.0,0.0073156156577169895
256.0,0.006301316898316145
288.0,0.005006819497793913
320.0,0.00371138215996325
352.0,0.002997564384713769
384.0,0.002752568107098341
416.0,0.00267845019698143
448.0,0.002734065055847168
480.0,0.0031769254710525274
512.0,0.00293582770973444
576.0,0.0007573227630928159
640.0,-3.732226832653396e-05
704.0,-0.0014587888726964593
768.0,-0.001761342864483595
832.0,-0.0019441358745098114
896.0,-0.0025529705453664064
960.0,-0.0029270602390170097
1024.0,-0.0035967330913990736
1152.0,-0.004666155204176903
1280.0,-0.0041481913067400455
1408.0,-0.0024005796294659376
1536.0,-0.0016709523042663932
1664.0,-0.0023818816989660263
1792.0,-0.000919346057344228
1920.0,-0.00026717648142948747
2048.0,0.0008146538748405874
2304.0,-0.0013713785447180271
2560.0,0.0009428884950466454
2816.0,-0.002214242471382022
3072.0,0.00012409512419253588
3328.0,0.0019734499510377645
3584.0,0.00497392937541008
3840.0,0.0004288247146178037
4096.0,-0.0035172251518815756
4608.0,-0.004566462244838476
5120.0,0.001637148903682828
5632.0,0.0021303885150700808
6144.0,-0.004237592685967684
6656.0,-0.003160457592457533
7168.0,-0.0006567347445525229
7680.0,0.004845424555242062
8192.0,0.0007395823486149311
end
