version,3.0
numOfCh,1
type,point
parent_name,484af_0dot1-0dot01
ch_type,1_1
kcount,1
numberNandB,1
brightnessNandB,1
carpet pos,0
pc,0
Time (ms),CH1 Auto-Correlation
1.0,0.0515931062400341
2.0,0.0507613830268383
3.0,0.04996838793158531
4.0,0.0491771437227726
5.0,0.048353809863328934
6.0,0.04754738137125969
7.0,0.04676339402794838
8.0,0.045995112508535385
9.0,0.04522210732102394
10.0,0.04449643939733505
11.0,0.04375593364238739
12.0,0.0429973229765892
13.0,0.042288489639759064
14.0,0.04156659543514252
15.0,0.04085274413228035
16.0,0.04016423225402832
18.0,0.03897163271903992
20.0,0.03777226060628891
22.0,0.03654764965176582
24.0,0.03543148934841156
26.0,0.03431105241179466
28.0,0.03320324793457985
30.0,0.03214788809418678
32.0,0.03112572245299816
36.0,0.028940748423337936
40.0,0.02673049084842205
44.0,0.024326909333467484
48.0,0.021852517500519753
52.0,0.019118985161185265
56.0,0.017480751499533653
60.0,0.01703542284667492
64.0,0.016620725393295288
72.0,0.015844929963350296
80.0,0.015208272263407707
88.0,0.014547544531524181
96.0,0.014148985967040062
104.0,0.013988743536174297
112.0,0.013950304128229618
120.0,0.013799658045172691
128.0,0.013482119888067245
144.0,0.012843545526266098
160.0,0.011989790946245193
176.0,0.012143918313086033
192.0,0.012584365904331207
208.0,0.012839692644774914
224.0,0.01312091015279293
240.0,0.013358701020479202
256.0,0.013507185503840446
288.0,0.01401881966739893
320.0,0.013372410088777542
352.0,0.01091369241476059
384.0,0.008856130763888359
416.0,0.009475070051848888
448.0,0.009215469472110271
480.0,0.007558684796094894
512.0,0.0066156513057649136
576.0,0.004785405937582254
640.0,0.003545032348483801
704.0,0.0018625083612278104
768.0,7.509327406296507e-05
832.0,-0.001823809347115457
896.0,-0.0029631610959768295
960.0,-0.004425606224685907
1024.0,-0.004861313849687576
1152.0,-0.004300228785723448
1280.0,-0.005809921305626631
1408.0,-0.007908572442829609
1536.0,-0.009020066820085049
1664.0,-0.008540946990251541
1792.0,-0.008190702646970749
1920.0,-0.008959898725152016
2048.0,-0.006923676934093237
2304.0,-0.0007803444168530405
2560.0,0.004256667569279671
2816.0,0.005430757533758879
3072.0,0.0034611541777849197
3328.0,0.002979914890602231
3584.0,0.00192733621224761
3840.0,0.0012983205961063504
4096.0,-0.0008902116678655148
4608.0,-0.003314669942483306
5120.0,0.0016451803967356682
5632.0,0.0047068288549780846
6144.0,0.004705329891294241
6656.0,-0.005458822473883629
7168.0,-0.010907732881605625
7680.0,-0.006561798043549061
8192.0,-0.0006048677605576813
end
