version,3.0
numOfCh,1
type,point
parent_name,484af_0dot1-0dot01
ch_type,1_1
kcount,1
numberNandB,1
brightnessNandB,1
carpet pos,0
pc,0
Time (ms),CH1 Auto-Correlation
1.0,0.19753767549991608
2.0,0.1953369528055191
3.0,0.19315537810325623
4.0,0.19072788953781128
5.0,0.18856766819953918
6.0,0.1864108294248581
7.0,0.18441146612167358
8.0,0.1822585016489029
9.0,0.18002669513225555
10.0,0.17777064442634583
11.0,0.17553718388080597
12.0,0.17328135669231415
13.0,0.17093966901302338
14.0,0.16859687864780426
15.0,0.16623394191265106
16.0,0.16393883526325226
18.0,0.15938709676265717
20.0,0.15507735311985016
22.0,0.15080039203166962
24.0,0.14657481014728546
26.0,0.14239683747291565
28.0,0.1380978524684906
30.0,0.13379882276058197
32.0,0.12969259917736053
36.0,0.12283012270927429
40.0,0.11867250502109528
44.0,0.11545247584581375
48.0,0.11215892434120178
52.0,0.10878827422857285
56.0,0.10490813851356506
60.0,0.10114970803260803
64.0,0.09783151745796204
72.0,0.09177225083112717
80.0,0.08616326749324799
88.0,0.08361977338790894
96.0,0.08344716578722
104.0,0.0839402824640274
112.0,0.08529370278120041
120.0,0.0850600078701973
128.0,0.07942543923854828
144.0,0.06309214979410172
160.0,0.049114640802145004
176.0,0.03579499572515488
192.0,0.02394236996769905
208.0,0.019814271479845047
224.0,0.017623310908675194
240.0,0.01510704681277275
256.0,0.009408017620444298
288.0,-0.0062530566938221455
320.0,-0.034146104007959366
352.0,-0.04555540904402733
384.0,-0.04926156625151634
416.0,-0.04706760495901108
448.0,-0.04190205782651901
480.0,-0.04183821752667427
512.0,-0.04346420243382454
576.0,-0.046100638806819916
640.0,-0.06510325521230698
704.0,-0.08252560347318649
768.0,-0.09535027295351028
832.0,-0.09407711029052734
896.0,-0.07709187269210815
960.0,-0.035888273268938065
1024.0,0.019802598282694817
end
