version,3.0
numOfCh,1
type,point
parent_name,484af_0dot1-0dot01
ch_type,1_1
kcount,1
numberNandB,1
brightnessNandB,1
carpet pos,0
pc,0
Time (ms),CH1 Auto-Correlation
1.0,0.025202319025993347
2.0,0.025019144639372826
3.0,0.024840446189045906
4.0,0.024670636281371117
5.0,0.02450069598853588
6.0,0.024331500753760338
7.0,0.024169445037841797
8.0,0.024005334824323654
9.0,0.023843714967370033
10.0,0.023683374747633934
11.0,0.02352457493543625
12.0,0.02336925081908703
13.0,0.023211723193526268
14.0,0.02305499091744423
15.0,0.02290184795856476
16.0,0.02275179512798786
18.0,0.022467443719506264
20.0,0.02220067009329796
22.0,0.0219415295869112
24.0,0.021691028028726578
26.0,0.021450355648994446
28.0,0.021212808787822723
30.0,0.020984958857297897
32.0,0.020762400701642036
36.0,0.0203009694814682
40.0,0.019871041178703308
44.0,0.01946631819009781
48.0,0.019066495820879936
52.0,0.018687129020690918
56.0,0.018340734764933586
60.0,0.017996156588196754
64.0,0.01769169792532921
72.0,0.01719083823263645
80.0,0.016725312918424606
88.0,0.016243629157543182
96.0,0.015715548768639565
104.0,0.015169563703238964
112.0,0.014703704975545406
120.0,0.014247290790081024
128.0,0.013793091289699078
144.0,0.012992248870432377
160.0,0.012203634716570377
176.0,0.011610678397119045
192.0,0.011174234561622143
208.0,0.010819817893207073
224.0,0.010512764565646648
240.0,0.010327187366783619
256.0,0.010127699002623558
288.0,0.009488293901085854
320.0,0.008831647224724293
352.0,0.008527948521077633
384.0,0.008234872482717037
416.0,0.008115910924971104
448.0,0.007642841432243586
480.0,0.007019270211458206
512.0,0.006562551949173212
576.0,0.006498321425169706
640.0,0.006525098346173763
704.0,0.006685304921120405
768.0,0.006427539046853781
832.0,0.006518461275845766
896.0,0.006612608674913645
960.0,0.006910174619406462
1024.0,0.006633235141634941
1152.0,0.006717321462929249
1280.0,0.00840210821479559
1408.0,0.008902054280042648
1536.0,0.00766131142154336
1664.0,0.004910106770694256
1792.0,0.0025094158481806517
1920.0,0.0020030124578624964
2048.0,0.0022246523294597864
2304.0,0.00019966921536251903
2560.0,0.0016068960539996624
2816.0,0.0026890214066952467
3072.0,-0.00043994523002766073
3328.0,-0.003988540265709162
3584.0,-0.004608181305229664
3840.0,-0.001978078857064247
4096.0,-0.0016486289678141475
4608.0,-0.0014643408358097076
5120.0,-0.0017002070089802146
5632.0,-0.0011702431365847588
6144.0,-0.0038253464736044407
6656.0,-0.004137922544032335
7168.0,-0.004010604694485664
7680.0,-0.006450119893997908
8192.0,-0.006514267064630985
end
