version,3.0
numOfCh,1
type,point
parent_name,484af_0dot1-0dot01
ch_type,1_1
kcount,1
numberNandB,1
brightnessNandB,1
carpet pos,0
pc,0
Time (ms),CH1 Auto-Correlation
1.0,0.020518207922577858
2.0,0.020328909158706665
3.0,0.02014845609664917
4.0,0.01996498368680477
5.0,0.01978420279920101
6.0,0.019611895084381104
7.0,0.019440948963165283
8.0,0.019276373088359833
9.0,0.01911756955087185
10.0,0.01895696483552456
11.0,0.018794115632772446
12.0,0.018632154911756516
13.0,0.018479805439710617
14.0,0.01832478679716587
15.0,0.01818050816655159
16.0,0.018044035881757736
18.0,0.01776711270213127
20.0,0.017490049824118614
22.0,0.017224568873643875
24.0,0.016980260610580444
26.0,0.016758766025304794
28.0,0.016540449112653732
30.0,0.016319455578923225
32.0,0.016093742102384567
36.0,0.015640458092093468
40.0,0.015155467204749584
44.0,0.014690919779241085
48.0,0.014255923219025135
52.0,0.013817288912832737
56.0,0.013396026566624641
60.0,0.013033636845648289
64.0,0.01269133947789669
72.0,0.012001375667750835
80.0,0.011239930987358093
88.0,0.010454029776155949
96.0,0.009788813069462776
104.0,0.009292371571063995
112.0,0.008793922141194344
120.0,0.008302639238536358
128.0,0.007853715680539608
144.0,0.006797270383685827
160.0,0.0057991198264062405
176.0,0.004764707759022713
192.0,0.0038856216706335545
208.0,0.0031139596831053495
224.0,0.0025069033727049828
240.0,0.002111488953232765
256.0,0.0017333186697214842
288.0,0.001650234335102141
320.0,0.0018651479622349143
352.0,0.0017100126715376973
384.0,0.0010777265997603536
416.0,0.0005397495115175843
448.0,0.0001335077395197004
480.0,-0.0006552797858603299
512.0,-0.0020232268143445253
576.0,-0.003910550847649574
640.0,-0.003969868645071983
704.0,-0.0028881458565592766
768.0,-0.0016800622688606381
832.0,-0.0009889391949400306
896.0,-0.0007085056276991963
960.0,-0.00016057332686614245
1024.0,0.0015139386523514986
1152.0,0.003808352630585432
1280.0,0.001216699369251728
1408.0,-0.0027244926895946264
1536.0,-0.0051830788142979145
1664.0,-0.008400877006351948
1792.0,-0.009488599374890327
1920.0,-0.006549825891852379
2048.0,-0.0029578518588095903
2304.0,-0.00013950435095466673
2560.0,0.002143643330782652
2816.0,-0.0011952919885516167
3072.0,0.00021968893997836858
3328.0,0.0033778552897274494
3584.0,0.0017965532606467605
3840.0,-8.694043208379298e-05
4096.0,0.0028191530145704746
end
