version,3.0
numOfCh,1
type,point
parent_name,484af_0dot1-0dot01
ch_type,1_1
kcount,1
numberNandB,1
brightnessNandB,1
carpet pos,0
pc,0
Time (ms),CH1 Auto-Correlation
1.0,0.01888039894402027
2.0,0.018672935664653778
3.0,0.018470220267772675
4.0,0.018278440460562706
5.0,0.018090954050421715
6.0,0.01790020428597927
7.0,0.01771925389766693
8.0,0.017540590837597847
9.0,0.017362263053655624
10.0,0.017189038917422295
11.0,0.01702209748327732
12.0,0.016859300434589386
13.0,0.01670105755329132
14.0,0.016548939049243927
15.0,0.016399992629885674
16.0,0.016255877912044525
18.0,0.015978947281837463
20.0,0.015698175877332687
22.0,0.015426842495799065
24.0,0.015165155753493309
26.0,0.014913825318217278
28.0,0.01469393540173769
30.0,0.01449777465313673
32.0,0.014307307079434395
36.0,0.01393585093319416
40.0,0.013576160185039043
44.0,0.013210216537117958
48.0,0.012809676118195057
52.0,0.012414293363690376
56.0,0.01203355472534895
60.0,0.011676598340272903
64.0,0.011322272010147572
72.0,0.010671596974134445
80.0,0.01013735868036747
88.0,0.009593470022082329
96.0,0.009029325097799301
104.0,0.008429565466940403
112.0,0.007855263538658619
120.0,0.00731368362903595
128.0,0.006815735250711441
144.0,0.005581736098974943
160.0,0.004251381382346153
176.0,0.003082029987126589
192.0,0.0021340695675462484
208.0,0.0013910302659496665
224.0,0.000946614018175751
240.0,0.0005706208758056164
256.0,0.00020343586220405996
288.0,-0.000429378793342039
320.0,-0.0004997525829821825
352.0,-0.0006089789094403386
384.0,-0.0009464533650316298
416.0,-0.0011963158613070846
448.0,-0.0016442314954474568
480.0,-0.0024735769256949425
512.0,-0.00320314965210855
576.0,-0.00385340116918087
640.0,-0.0032969252206385136
704.0,-0.0025595934130251408
768.0,-0.00241842376999557
832.0,-0.003093000967055559
896.0,-0.0024871958885341883
960.0,-0.0005788775742985308
1024.0,0.0022510604467242956
1152.0,0.0059064538218081
1280.0,0.0016802581958472729
1408.0,-0.000895931851118803
1536.0,-0.00034739772672764957
1664.0,-0.0008255924913100898
1792.0,-0.001154790516011417
1920.0,-0.0021685005631297827
2048.0,-0.002272456418722868
2304.0,0.0029080298263579607
2560.0,0.0026741421315819025
2816.0,-0.00083878543227911
3072.0,-0.005018672440201044
3328.0,-0.002178619848564267
3584.0,0.0012130877003073692
3840.0,0.0003682317619677633
4096.0,-0.0035634932573884726
end
