version,3.0
numOfCh,1
type,point
parent_name,484af_0dot1-0dot01
ch_type,1_1
kcount,1
numberNandB,1
brightnessNandB,1
carpet pos,0
pc,0
Time (ms),CH1 Auto-Correlation
1.0,0.02325168438255787
2.0,0.02305186167359352
3.0,0.022858114913105965
4.0,0.022667167708277702
5.0,0.022482700645923615
6.0,0.022303026169538498
7.0,0.02212579920887947
8.0,0.021952854469418526
9.0,0.021780239418148994
10.0,0.021613553166389465
11.0,0.02144712209701538
12.0,0.021281590685248375
13.0,0.021121518686413765
14.0,0.020966269075870514
15.0,0.020812802016735077
16.0,0.020662035793066025
18.0,0.020370256155729294
20.0,0.020088227465748787
22.0,0.019805438816547394
24.0,0.019531482830643654
26.0,0.019270654767751694
28.0,0.019017649814486504
30.0,0.018779847770929337
32.0,0.01855025440454483
36.0,0.01808687299489975
40.0,0.017649630084633827
44.0,0.017235158011317253
48.0,0.016824837774038315
52.0,0.016441000625491142
56.0,0.01607675664126873
60.0,0.01573570817708969
64.0,0.015390990301966667
72.0,0.014752091839909554
80.0,0.014166992157697678
88.0,0.013573224656283855
96.0,0.013065531849861145
104.0,0.012721658684313297
112.0,0.012459528632462025
120.0,0.012238294817507267
128.0,0.012105479836463928
144.0,0.012068609707057476
160.0,0.011888988316059113
176.0,0.011560003273189068
192.0,0.011534796096384525
208.0,0.011390872299671173
224.0,0.01099582388997078
240.0,0.010415765456855297
256.0,0.009628558531403542
288.0,0.008121470920741558
320.0,0.007154305465519428
352.0,0.006680401973426342
384.0,0.006501900032162666
416.0,0.006278249900788069
448.0,0.005806782748550177
480.0,0.005264933221042156
512.0,0.004855690523982048
576.0,0.005146688781678677
640.0,0.00448910566046834
704.0,0.00462222658097744
768.0,0.005198667757213116
832.0,0.005611408967524767
896.0,0.006603718735277653
960.0,0.006720139645040035
1024.0,0.006636522244662046
1152.0,0.004922156222164631
1280.0,0.0028702609706670046
1408.0,0.0019557145424187183
1536.0,0.0019267592579126358
1664.0,0.002146332524716854
1792.0,0.0019609772134572268
1920.0,0.0013162604300305247
2048.0,0.0006819302216172218
2304.0,-0.0020422348752617836
2560.0,-0.004304673057049513
2816.0,-0.004341124556958675
3072.0,-0.005486803129315376
3328.0,-0.006399707403033972
3584.0,-0.007287319749593735
3840.0,-0.007301516830921173
4096.0,-0.008193861693143845
4608.0,-0.004907021299004555
5120.0,-0.0030782893300056458
5632.0,-0.0005531992064788938
6144.0,0.0003617903566919267
6656.0,0.0007958484347909689
7168.0,0.0020260317251086235
7680.0,0.004042129497975111
8192.0,0.0009302832768298686
end
