version,3.0
numOfCh,1
type,point
parent_name,484af_0dot1-0dot01
ch_type,1_1
kcount,1
numberNandB,1
brightnessNandB,1
carpet pos,0
pc,0
Time (ms),CH1 Auto-Correlation
1.0,0.018768930807709694
2.0,0.01859053038060665
3.0,0.018416257575154305
4.0,0.018243657425045967
5.0,0.018071964383125305
6.0,0.01790463924407959
7.0,0.01773994229733944
8.0,0.017578285187482834
9.0,0.017420567572116852
10.0,0.017264455556869507
11.0,0.017109379172325134
12.0,0.01695905439555645
13.0,0.016811739653348923
14.0,0.016668161377310753
15.0,0.0165322907269001
16.0,0.016396692022681236
18.0,0.016137901693582535
20.0,0.015877144411206245
22.0,0.015614613890647888
24.0,0.015356053598225117
26.0,0.015100623480975628
28.0,0.01486281119287014
30.0,0.014644154347479343
32.0,0.014433524571359158
36.0,0.014020164497196674
40.0,0.013625302352011204
44.0,0.013255874626338482
48.0,0.0129202576354146
52.0,0.01262728776782751
56.0,0.012356923893094063
60.0,0.012092218734323978
64.0,0.011864886619150639
72.0,0.011459417641162872
80.0,0.011102539487183094
88.0,0.010777807794511318
96.0,0.010506673716008663
104.0,0.01026066206395626
112.0,0.009988190606236458
120.0,0.009701394475996494
128.0,0.009449978359043598
144.0,0.009012720547616482
160.0,0.008715219795703888
176.0,0.008471686393022537
192.0,0.00809604860842228
208.0,0.007729368284344673
224.0,0.0073285712860524654
240.0,0.00702262157574296
256.0,0.006869418080896139
288.0,0.006248460151255131
320.0,0.0057478235103189945
352.0,0.005551647860556841
384.0,0.0055577876046299934
416.0,0.005496969446539879
448.0,0.004813479259610176
480.0,0.004500601440668106
512.0,0.0046449382789433
576.0,0.004678067751228809
640.0,0.00471213273704052
704.0,0.00435264315456152
768.0,0.004077815916389227
832.0,0.003439877647906542
896.0,0.002433967776596546
960.0,0.0014689518138766289
1024.0,0.0007663016440346837
1152.0,0.00013322375889401883
1280.0,0.00029800127958878875
1408.0,0.001123917638324201
1536.0,0.000818368629552424
1664.0,-0.00045724184019491076
1792.0,-0.0007803392945788801
1920.0,-0.0009655513567849994
2048.0,-0.001298947841860354
2304.0,-0.0003921047900803387
2560.0,-0.001439515734091401
2816.0,-0.001506680273450911
3072.0,0.0001380548346787691
3328.0,-0.0013900359626859426
3584.0,-0.003623993368819356
3840.0,-0.003845695173367858
4096.0,-0.005318603478372097
4608.0,-0.003468339564278722
5120.0,-0.0003318219678476453
5632.0,0.0014829683350399137
6144.0,0.001393809332512319
6656.0,0.00040533908759243786
7168.0,0.00048675877042114735
7680.0,0.0007135186460800469
8192.0,0.0020295267459005117
end
