version,3.0
numOfCh,1
type,point
parent_name,484af_0dot1-0dot01
ch_type,1_1
kcount,1
numberNandB,1
brightnessNandB,1
carpet pos,0
pc,0
Time (ms),CH1 Auto-Correlation
1.0,0.01906728558242321
2.0,0.018889030441641808
3.0,0.0187135748565197
4.0,0.0185496024787426
5.0,0.01838565059006214
6.0,0.018228909000754356
7.0,0.01807296834886074
8.0,0.017921200022101402
9.0,0.017766503617167473
10.0,0.017614876851439476
11.0,0.017467141151428223
12.0,0.017317919060587883
13.0,0.017170241102576256
14.0,0.017026646062731743
15.0,0.016885867342352867
16.0,0.016748959198594093
18.0,0.016473667696118355
20.0,0.016198987141251564
22.0,0.015929773449897766
24.0,0.01566387712955475
26.0,0.015396789647638798
28.0,0.01513025350868702
30.0,0.014874867163598537
32.0,0.014622706919908524
36.0,0.014157544821500778
40.0,0.013714872300624847
44.0,0.013290268369019032
48.0,0.012888031080365181
52.0,0.012519613839685917
56.0,0.012176474556326866
60.0,0.011840862222015858
64.0,0.011524723842740059
72.0,0.01099808793514967
80.0,0.010538125410676003
88.0,0.01009327545762062
96.0,0.009725023061037064
104.0,0.009382345713675022
112.0,0.009012296795845032
120.0,0.008647804148495197
128.0,0.008310705423355103
144.0,0.007726768031716347
160.0,0.007319475058466196
176.0,0.007008206564933062
192.0,0.006692645605653524
208.0,0.006383930798619986
224.0,0.005987313576042652
240.0,0.005693333689123392
256.0,0.005558653734624386
288.0,0.005199752282351255
320.0,0.004596889019012451
352.0,0.003926620818674564
384.0,0.003329841885715723
416.0,0.0027394373901188374
448.0,0.0024230803828686476
480.0,0.0025467099621891975
512.0,0.002614204306155443
576.0,0.0025049292016774416
640.0,0.00275620655156672
704.0,0.00289690843783319
768.0,0.0033055259846150875
832.0,0.003796328790485859
896.0,0.0029706782661378384
960.0,0.0029845500830560923
1024.0,0.00261631584726274
1152.0,0.002189019462093711
1280.0,0.0016883177449926734
1408.0,0.0013639827957376838
1536.0,0.002174241468310356
1664.0,0.001932172104716301
1792.0,-0.00012801693810615689
1920.0,-0.001574717229232192
2048.0,-0.0016490401467308402
2304.0,-0.001519310288131237
2560.0,-0.0003811523783951998
2816.0,-0.0005006332066841424
3072.0,-0.000671219895593822
3328.0,0.0006934296106919646
3584.0,0.0007851189002394676
3840.0,-0.00031878522713668644
4096.0,0.0003024386242032051
4608.0,-0.001524444087408483
5120.0,-0.0007764954352751374
5632.0,-0.00027974165277555585
6144.0,0.00042407261207699776
6656.0,0.0016161426901817322
7168.0,0.0017620846629142761
7680.0,0.000421985168941319
8192.0,-0.001641647657379508
end
