version,3.0
numOfCh,1
type,point
parent_name,484af_0dot1-0dot01
ch_type,1_1
kcount,1
numberNandB,1
brightnessNandB,1
carpet pos,0
pc,0
Time (ms),CH1 Auto-Correlation
1.0,0.01861736923456192
2.0,0.018436232581734657
3.0,0.01825886033475399
4.0,0.018086595460772514
5.0,0.01791783794760704
6.0,0.017752716317772865
7.0,0.017594845965504646
8.0,0.017438456416130066
9.0,0.01728278584778309
10.0,0.017128238454461098
11.0,0.016978198662400246
12.0,0.016831621527671814
13.0,0.016684891656041145
14.0,0.01653587818145752
15.0,0.016392651945352554
16.0,0.01625390164554119
18.0,0.015986602753400803
20.0,0.01573106460273266
22.0,0.01548221055418253
24.0,0.015238861553370953
26.0,0.015000739134848118
28.0,0.014779993332922459
30.0,0.014560552313923836
32.0,0.014342430979013443
36.0,0.01393014844506979
40.0,0.013535241596400738
44.0,0.013159702531993389
48.0,0.01279256772249937
52.0,0.012438942678272724
56.0,0.012090143747627735
60.0,0.011759843677282333
64.0,0.011449162848293781
72.0,0.0108597781509161
80.0,0.010363800451159477
88.0,0.009930500760674477
96.0,0.009462841786444187
104.0,0.008963258937001228
112.0,0.008481697179377079
120.0,0.008021561428904533
128.0,0.007574643474072218
144.0,0.006834886036813259
160.0,0.006264255382120609
176.0,0.005806453060358763
192.0,0.00547468988224864
208.0,0.00535960728302598
224.0,0.005274374503642321
240.0,0.0052041346207261086
256.0,0.005016493611037731
288.0,0.004466552287340164
320.0,0.003961431793868542
352.0,0.0032640579156577587
384.0,0.0027409971226006746
416.0,0.0022583839017897844
448.0,0.0016805592458695173
480.0,0.0011777948820963502
512.0,0.0005201975000090897
576.0,-0.0008530773920938373
640.0,-0.001728060538880527
704.0,-0.0019930019043385983
768.0,-0.002159419469535351
832.0,-0.002193792024627328
896.0,-0.0016902517527341843
960.0,-0.0018492885865271091
1024.0,-0.0018119564047083259
1152.0,-2.6195622922386974e-05
1280.0,0.0017831360455602407
1408.0,0.0015223121736198664
1536.0,-0.000483164272736758
1664.0,-0.0019454124849289656
1792.0,-0.0017591306241229177
1920.0,-0.0013437123270705342
2048.0,-0.00016724276065360755
2304.0,0.0019007863011211157
2560.0,0.003929785452783108
2816.0,0.0014507526066154242
3072.0,-0.0024975338019430637
3328.0,-0.0026744434144347906
3584.0,-0.002497616922482848
3840.0,0.0004297965788282454
4096.0,-0.000915969954803586
4608.0,0.00041384773794561625
5120.0,0.0012326841242611408
5632.0,-0.0005092702340334654
6144.0,-0.0006645250250585377
6656.0,-0.00106065534055233
7168.0,0.0009441815782338381
7680.0,0.0006372081697918475
8192.0,-0.002892102114856243
end
