version,3.0
numOfCh,1
type,point
parent_name,484af_0dot1-0dot01
ch_type,1_1
kcount,1
numberNandB,1
brightnessNandB,1
carpet pos,0
pc,0
Time (ms),CH1 Auto-Correlation
1.0,0.020816797390580177
2.0,0.02061576209962368
3.0,0.020420614629983902
4.0,0.020233213901519775
5.0,0.02005017176270485
6.0,0.01986517757177353
7.0,0.01968860812485218
8.0,0.019517602398991585
9.0,0.019349025562405586
10.0,0.01918252371251583
11.0,0.019017789512872696
12.0,0.018855087459087372
13.0,0.018701007589697838
14.0,0.01854516565799713
15.0,0.018387649208307266
16.0,0.01823173463344574
18.0,0.017936769872903824
20.0,0.01764450967311859
22.0,0.017352234572172165
24.0,0.01706322655081749
26.0,0.01678578183054924
28.0,0.01650378480553627
30.0,0.01623709313571453
32.0,0.01599007658660412
36.0,0.01549214031547308
40.0,0.014999549835920334
44.0,0.014533503912389278
48.0,0.014067775569856167
52.0,0.013581836596131325
56.0,0.013126756995916367
60.0,0.012712004594504833
64.0,0.012305750511586666
72.0,0.011606135405600071
80.0,0.010958942584693432
88.0,0.010361886583268642
96.0,0.009809616953134537
104.0,0.009272903203964233
112.0,0.00871418695896864
120.0,0.00820488017052412
128.0,0.007779596373438835
144.0,0.006884201895445585
160.0,0.0060083260759711266
176.0,0.0053259944543242455
192.0,0.004720906727015972
208.0,0.004223410971462727
224.0,0.003658152651041746
240.0,0.0033579450100660324
256.0,0.002942163497209549
288.0,0.0026289706584066153
320.0,0.0026620482094585896
352.0,0.0026607324834913015
384.0,0.002403571968898177
416.0,0.0029406731482595205
448.0,0.003208430949598551
480.0,0.002625836990773678
512.0,0.0017083205748349428
576.0,0.0005654811975546181
640.0,0.0010698647238314152
704.0,0.0008220337331295013
768.0,-0.00041996908839792013
832.0,-0.0012236313195899129
896.0,-0.0013425829820334911
960.0,-0.0016027151141315699
1024.0,-0.0014711373951286077
1152.0,0.0023109442554414272
1280.0,0.0018341882387176156
1408.0,0.0015319613739848137
1536.0,0.0016612387262284756
1664.0,-0.0005804946995340288
1792.0,-0.0001566547725815326
1920.0,0.0002980376884806901
2048.0,-0.001499239238910377
2304.0,-0.0029815230518579483
2560.0,-0.0021490950603038073
2816.0,0.0009304051054641604
3072.0,-0.001666450290940702
3328.0,-0.0006200425559654832
3584.0,-0.003611962543800473
3840.0,-0.004692418035119772
4096.0,-0.0027161689940840006
4608.0,-0.0011964067816734314
5120.0,-0.0008440109086222947
5632.0,-0.00023509739548899233
6144.0,-2.105912790284492e-05
6656.0,0.00245073763653636
7168.0,0.0004689714696723968
7680.0,-0.001335323671810329
8192.0,0.0011771994177252054
end
