version,3.0
numOfCh,1
type,point
parent_name,484af_0dot1-0dot01
ch_type,1_1
kcount,1
numberNandB,1
brightnessNandB,1
carpet pos,0
pc,0
Time (ms),CH1 Auto-Correlation
1.0,0.014237535186111927
2.0,0.014062819071114063
3.0,0.013887312263250351
4.0,0.01371473353356123
5.0,0.013545180670917034
6.0,0.01338072121143341
7.0,0.013219166547060013
8.0,0.013059944845736027
9.0,0.012898528948426247
10.0,0.012743264436721802
11.0,0.01258731447160244
12.0,0.01243037823587656
13.0,0.012278660200536251
14.0,0.012129968963563442
15.0,0.011980246752500534
16.0,0.011833169497549534
18.0,0.011556320823729038
20.0,0.011289139278233051
22.0,0.011034305207431316
24.0,0.010777032002806664
26.0,0.010522260330617428
28.0,0.010284255258738995
30.0,0.010059010237455368
32.0,0.009845858439803123
36.0,0.009436851367354393
40.0,0.00904057826846838
44.0,0.008661319501698017
48.0,0.008295191451907158
52.0,0.007933642715215683
56.0,0.007566691841930151
60.0,0.007230508141219616
64.0,0.006905033253133297
72.0,0.006335946265608072
80.0,0.00582776078954339
88.0,0.005326477345079184
96.0,0.004874187987297773
104.0,0.004488577600568533
112.0,0.004194806795567274
120.0,0.003983505070209503
128.0,0.003754178760573268
144.0,0.0032495532650500536
160.0,0.0026955001521855593
176.0,0.0022567142732441425
192.0,0.0018760890234261751
208.0,0.001387903350405395
224.0,0.0007888389518484473
240.0,0.0001700797292869538
256.0,-0.0003278639051131904
288.0,-0.000888091279193759
320.0,-0.001351084909401834
352.0,-0.0016123467357829213
384.0,-0.0021177392918616533
416.0,-0.0027260486967861652
448.0,-0.0032442458905279636
480.0,-0.002772259758785367
512.0,-0.0019509396515786648
576.0,-0.0011437111534178257
640.0,-0.00102185586001724
704.0,-1.1221689419471659e-05
768.0,0.0007248183246701956
832.0,0.0002149998035747558
896.0,0.00014511724293697625
960.0,-0.0008512104977853596
1024.0,-0.0012099883751943707
1152.0,-0.0003344384313095361
1280.0,-0.0006675022304989398
1408.0,-0.0013914561131969094
1536.0,-0.0015943662729114294
1664.0,-0.0010288322810083628
1792.0,0.0002258949534734711
1920.0,0.0012627765536308289
2048.0,0.002119720447808504
2304.0,0.0009775656508281827
2560.0,0.0008983630104921758
2816.0,-0.0002829461882356554
3072.0,-0.0015417818212881684
3328.0,-0.000894833414349705
3584.0,0.00044854532461613417
3840.0,-0.0006161574274301529
4096.0,0.0009149402612820268
4608.0,0.0006000326829962432
5120.0,-0.0032456268090754747
5632.0,-5.801105726277456e-05
6144.0,0.0016860810574144125
6656.0,0.0011126975296065211
7168.0,-0.001724244561046362
7680.0,-0.0018401675624772906
8192.0,0.0024988322984427214
end
