version,3.0
numOfCh,1
type,point
parent_name,484af_0dot1-0dot01
ch_type,1_1
kcount,1
numberNandB,1
brightnessNandB,1
carpet pos,0
pc,0
Time (ms),CH1 Auto-Correlation
1.0,0.037891972810029984
2.0,0.03735194727778435
3.0,0.036859337240457535
4.0,0.03641708940267563
5.0,0.03603704273700714
6.0,0.035699475556612015
7.0,0.03535211458802223
8.0,0.035017549991607666
9.0,0.03469795361161232
10.0,0.03435824066400528
11.0,0.03399301692843437
12.0,0.033619899302721024
13.0,0.0332682728767395
14.0,0.03297876939177513
15.0,0.03270364925265312
16.0,0.03241987153887749
18.0,0.03155781328678131
20.0,0.030910609290003777
22.0,0.030180063098669052
24.0,0.029442280530929565
26.0,0.0287643875926733
28.0,0.028120433911681175
30.0,0.02752232551574707
32.0,0.026959087699651718
36.0,0.025911325588822365
40.0,0.024962805211544037
44.0,0.024138908833265305
48.0,0.02328704670071602
52.0,0.022264719009399414
56.0,0.021122444421052933
60.0,0.020109636709094048
64.0,0.019305359572172165
72.0,0.015980582684278488
80.0,0.014873887412250042
88.0,0.013897701166570187
96.0,0.013076405972242355
104.0,0.012459374032914639
112.0,0.01208485383540392
120.0,0.01178023312240839
128.0,0.011530379764735699
144.0,0.010679972358047962
160.0,0.010177623480558395
176.0,0.009513643570244312
192.0,0.008745631203055382
208.0,0.008122141472995281
224.0,0.007322207558900118
240.0,0.006958062760531902
256.0,0.00660842377692461
288.0,0.006285670213401318
320.0,0.005533833522349596
352.0,0.004686915315687656
384.0,0.0034416443668305874
416.0,0.0036196953151375055
448.0,0.0044411844573915005
480.0,0.004328804090619087
512.0,0.004102544393390417
576.0,0.0012197584146633744
640.0,-0.0012384944129735231
704.0,-0.0008665327914059162
768.0,-0.0005914928042329848
832.0,-0.0007023232174105942
896.0,9.631008288124576e-05
960.0,-0.0008686903165653348
1024.0,-0.0005571022629737854
1152.0,0.0027417053934186697
1280.0,0.003996982239186764
1408.0,0.0040930151008069515
1536.0,0.002645021304488182
1664.0,0.0005838068318553269
1792.0,-0.0011764111695811152
1920.0,-0.0016080827917903662
2048.0,-0.0016660201363265514
2304.0,-0.0015134786954149604
2560.0,-0.0005592173547483981
2816.0,-0.0025106596294790506
3072.0,-0.007149981334805489
3328.0,-0.007432649843394756
3584.0,-0.011197769083082676
3840.0,-0.012237387709319592
4096.0,-0.006016797386109829
end
