version,3.0
numOfCh,1
type,point
parent_name,484af_0dot1-0dot01
ch_type,1_1
kcount,1
numberNandB,1
brightnessNandB,1
carpet pos,0
pc,0
Time (ms),CH1 Auto-Correlation
1.0,0.01463575754314661
2.0,0.014461012557148933
3.0,0.014289453625679016
4.0,0.014120309613645077
5.0,0.013952414505183697
6.0,0.013793926686048508
7.0,0.013637939468026161
8.0,0.01348772831261158
9.0,0.013346229679882526
10.0,0.013209138996899128
11.0,0.013071529567241669
12.0,0.012935101054608822
13.0,0.012797084636986256
14.0,0.012667651288211346
15.0,0.01254040002822876
16.0,0.01241209078580141
18.0,0.012166853062808514
20.0,0.011930898763239384
22.0,0.011704578995704651
24.0,0.011488503776490688
26.0,0.011287546716630459
28.0,0.011087221093475819
30.0,0.010894769802689552
32.0,0.010715228505432606
36.0,0.01038955245167017
40.0,0.010070271790027618
44.0,0.009750879369676113
48.0,0.009454932995140553
52.0,0.009212820790708065
56.0,0.009006152860820293
60.0,0.008801616728305817
64.0,0.008606410585343838
72.0,0.008295736275613308
80.0,0.007963769137859344
88.0,0.00757564976811409
96.0,0.007262553088366985
104.0,0.0069881621748209
112.0,0.006692071445286274
120.0,0.006306658498942852
128.0,0.00593509990721941
144.0,0.005458207800984383
160.0,0.004957600962370634
176.0,0.004603798966854811
192.0,0.004312334582209587
208.0,0.003998314496129751
224.0,0.0036655911244452
240.0,0.003425474977120757
256.0,0.0033767709974199533
288.0,0.002755905268713832
320.0,0.0024901600554585457
352.0,0.0021569589152932167
384.0,0.0017300504259765148
416.0,0.0013886409578844905
448.0,0.001458713784813881
480.0,0.0015239836648106575
512.0,0.001016694470308721
576.0,0.0005973619408905506
640.0,0.0006065655034035444
704.0,0.0004725985636468977
768.0,3.627767728175968e-05
832.0,-0.0009514237171970308
896.0,-0.0022730499040335417
960.0,-0.003478431608527899
1024.0,-0.003896958427503705
1152.0,-0.004223892465233803
1280.0,-0.0036677548196166754
1408.0,-0.0028987086843699217
1536.0,-0.002515270607545972
1664.0,-0.002356575336307287
1792.0,-0.0024749969597905874
1920.0,-0.0010728556662797928
2048.0,0.0005267886444926262
2304.0,0.0005515125812962651
2560.0,0.0011764081427827477
2816.0,0.002532718935981393
3072.0,0.0005366944242268801
3328.0,-0.0005753440200351179
3584.0,-0.001124170026741922
3840.0,-0.002332877367734909
4096.0,-0.0010085254907608032
4608.0,0.0006695704651065171
5120.0,0.001708382973447442
5632.0,-0.00011494875070638955
6144.0,-0.0013395050773397088
6656.0,5.342099393601529e-05
7168.0,4.7321296733571216e-05
7680.0,0.0001880967611214146
8192.0,0.0009766868315637112
end
