version,3.0
numOfCh,1
type,point
parent_name,484af_0dot1-0dot01
ch_type,1_1
kcount,1
numberNandB,1
brightnessNandB,1
carpet pos,0
pc,0
Time (ms),CH1 Auto-Correlation
1.0,0.020805591717362404
2.0,0.020608218386769295
3.0,0.02041616477072239
4.0,0.020229186862707138
5.0,0.020046604797244072
6.0,0.01986546814441681
7.0,0.01968958042562008
8.0,0.019515324383974075
9.0,0.0193459615111351
10.0,0.019181828945875168
11.0,0.019020749256014824
12.0,0.018862055614590645
13.0,0.018709519878029823
14.0,0.01855204626917839
15.0,0.01839831843972206
16.0,0.01824648678302765
18.0,0.01794174313545227
20.0,0.017645888030529022
22.0,0.01737583801150322
24.0,0.017111049965023994
26.0,0.01685027964413166
28.0,0.016607148572802544
30.0,0.016373563557863235
32.0,0.016154281795024872
36.0,0.015736320987343788
40.0,0.015317030251026154
44.0,0.014896120876073837
48.0,0.014499049633741379
52.0,0.014105159789323807
56.0,0.013699579052627087
60.0,0.013283206149935722
64.0,0.012912561185657978
72.0,0.012219279073178768
80.0,0.011510833166539669
88.0,0.010847068391740322
96.0,0.010262535884976387
104.0,0.00982341542840004
112.0,0.009524216875433922
120.0,0.009283368475735188
128.0,0.009055493399500847
144.0,0.008599537424743176
160.0,0.008176115341484547
176.0,0.0077528092078864574
192.0,0.007424354553222656
208.0,0.007060600444674492
224.0,0.006704390514642
240.0,0.006545425858348608
256.0,0.006417455617338419
288.0,0.005886470433324575
320.0,0.005611286032944918
352.0,0.005190369673073292
384.0,0.004867321811616421
416.0,0.004380099941045046
448.0,0.003737451508641243
480.0,0.0028285840526223183
512.0,0.0016503293300047517
576.0,0.0006450384971685708
640.0,0.0007534167962148786
704.0,0.0009252186864614487
768.0,0.0008526334422640502
832.0,0.0006521733594126999
896.0,-4.754436304210685e-05
960.0,-0.0015333453193306923
1024.0,-0.0020131582859903574
1152.0,-0.0020564717706292868
1280.0,-0.002415527356788516
1408.0,-0.0010682735592126846
1536.0,0.00021411178749985993
1664.0,0.0005326314712874591
1792.0,0.0003984739014413208
1920.0,0.0004037946346215904
2048.0,7.013406866462901e-05
2304.0,-0.00017510607722215354
2560.0,-0.0003213772433809936
2816.0,-0.0017826029798015952
3072.0,-0.0011297595920041203
3328.0,-0.0008676288998685777
3584.0,-4.667809207603568e-06
3840.0,-0.0005451231263577938
4096.0,0.00020339302136562765
4608.0,0.0005956550012342632
5120.0,0.0019767149351537228
5632.0,0.0010107994312420487
6144.0,0.0005216581630520523
6656.0,-0.0011670752428472042
7168.0,-0.002083228202536702
7680.0,-0.0031854230910539627
8192.0,-0.0003043829055968672
end
