version,3.0
numOfCh,1
type,point
parent_name,484af_0dot1-0dot01
ch_type,1_1
kcount,1
numberNandB,1
brightnessNandB,1
carpet pos,0
pc,0
Time (ms),CH1 Auto-Correlation
1.0,0.024010542780160904
2.0,0.02379372902214527
3.0,0.023580163717269897
4.0,0.023374026641249657
5.0,0.023175304755568504
6.0,0.0229771938174963
7.0,0.022783230990171432
8.0,0.022584130987524986
9.0,0.022389093413949013
10.0,0.022202452644705772
11.0,0.022022726014256477
12.0,0.021848689764738083
13.0,0.0216825008392334
14.0,0.02152230404317379
15.0,0.021360721439123154
16.0,0.02120116353034973
18.0,0.020883522927761078
20.0,0.02057618834078312
22.0,0.02028667740523815
24.0,0.02001159079372883
26.0,0.019722742959856987
28.0,0.019429592415690422
30.0,0.019141685217618942
32.0,0.01887274719774723
36.0,0.018320508301258087
40.0,0.01777271367609501
44.0,0.017259646207094193
48.0,0.016781235113739967
52.0,0.016335323452949524
56.0,0.015907149761915207
60.0,0.01550083514302969
64.0,0.015074091963469982
72.0,0.01423716451972723
80.0,0.01348788756877184
88.0,0.012796537019312382
96.0,0.012138682417571545
104.0,0.01161409355700016
112.0,0.011163411661982536
120.0,0.01071435958147049
128.0,0.010330832563340664
144.0,0.009431947953999043
160.0,0.008574098348617554
176.0,0.0078118424862623215
192.0,0.007221812382340431
208.0,0.006510920822620392
224.0,0.005879362113773823
240.0,0.005191211588680744
256.0,0.0046842354349792
288.0,0.003780592232942581
320.0,0.003191248280927539
352.0,0.0031124483793973923
384.0,0.003301982767879963
416.0,0.0037291308399289846
448.0,0.004220327828079462
480.0,0.004118452779948711
512.0,0.0036043482832610607
576.0,0.003217891324311495
640.0,0.00222813175059855
704.0,0.0015153434360399842
768.0,0.0010311017977073789
832.0,0.0008021208341233432
896.0,0.0020989691838622093
960.0,0.0031259600073099136
1024.0,0.0025622162502259016
1152.0,0.0034420047886669636
1280.0,0.0027805492281913757
1408.0,0.002237761626020074
1536.0,0.002548168646171689
1664.0,0.0008148470078594983
1792.0,-0.00029565018485300243
1920.0,-0.0008592865196987987
2048.0,-0.00048672134289518
2304.0,0.001543952850624919
2560.0,0.002280445070937276
2816.0,0.0022979597561061382
3072.0,-0.001428879564628005
3328.0,0.0001334650005446747
3584.0,3.808698238572106e-05
3840.0,-0.001214108895510435
4096.0,-0.002602396300062537
4608.0,-0.0026505771093070507
5120.0,0.0015255414182320237
5632.0,-0.0009551610564813018
6144.0,-0.002726190257817507
6656.0,-0.0026291264221072197
7168.0,-0.005165168549865484
7680.0,-0.0004623217973858118
8192.0,-0.0008414328331127763
end
