version,3.0
numOfCh,1
type,point
parent_name,484af_0dot1-0dot01
ch_type,1_1
kcount,1
numberNandB,1
brightnessNandB,1
carpet pos,0
pc,0
Time (ms),CH1 Auto-Correlation
1.0,0.01649121195077896
2.0,0.016309207305312157
3.0,0.0161302387714386
4.0,0.015955708920955658
5.0,0.01578812673687935
6.0,0.01561998762190342
7.0,0.015454651787877083
8.0,0.015288600698113441
9.0,0.015121795237064362
10.0,0.014958065003156662
11.0,0.014790594577789307
12.0,0.01462529506534338
13.0,0.014465393498539925
14.0,0.014309045858681202
15.0,0.01415466982871294
16.0,0.014005127362906933
18.0,0.013710737228393555
20.0,0.013434034772217274
22.0,0.013173963874578476
24.0,0.012926976196467876
26.0,0.01268896833062172
28.0,0.01245734840631485
30.0,0.012245044112205505
32.0,0.012040871195495129
36.0,0.011670352891087532
40.0,0.011311426758766174
44.0,0.010964748449623585
48.0,0.010628224350512028
52.0,0.010298671200871468
56.0,0.009945785626769066
60.0,0.009596019983291626
64.0,0.00923430360853672
72.0,0.008588229306042194
80.0,0.008135916665196419
88.0,0.007827872410416603
96.0,0.007582689169794321
104.0,0.007348936051130295
112.0,0.007162768393754959
120.0,0.007019038777798414
128.0,0.006875704508274794
144.0,0.00653338385745883
160.0,0.006252381019294262
176.0,0.006139661651104689
192.0,0.005925408098846674
208.0,0.0056643798016011715
224.0,0.005397119093686342
240.0,0.005112071521580219
256.0,0.004760067444294691
288.0,0.004100284539163113
320.0,0.0037208106368780136
352.0,0.0036780699156224728
384.0,0.003312913700938225
416.0,0.002805852796882391
448.0,0.0026531750336289406
480.0,0.002917627803981304
512.0,0.003098157700151205
576.0,0.0021006762981414795
640.0,0.0013583912514150143
704.0,0.0011337404139339924
768.0,0.000810897268820554
832.0,0.000285827845800668
896.0,0.0005638537695631385
960.0,0.0003838181437458843
1024.0,0.0007581539102829993
1152.0,-5.3732128435513005e-06
1280.0,0.0005093799554742873
1408.0,0.00011152686056448147
1536.0,1.6130408766912296e-05
1664.0,0.0005440741661004722
1792.0,5.535020318347961e-05
1920.0,0.00036384142003953457
2048.0,0.0008601100998930633
2304.0,0.0022664384450763464
2560.0,0.0027572549879550934
2816.0,0.001997035462409258
3072.0,0.0008390493458136916
3328.0,0.0004223585419822484
3584.0,0.0005891600740142167
3840.0,0.001672395272180438
4096.0,0.0008688799571245909
4608.0,-0.001079550595022738
5120.0,-0.0022967292461544275
5632.0,-0.002290768316015601
6144.0,-0.002042193431407213
6656.0,-0.0008658560109324753
7168.0,-0.0019089683191850781
7680.0,-0.001205493463203311
8192.0,-0.002239122986793518
end
