version,3.0
numOfCh,1
type,point
parent_name,484af_0dot1-0dot01
ch_type,1_1
kcount,1
numberNandB,1
brightnessNandB,1
carpet pos,0
pc,0
Time (ms),CH1 Auto-Correlation
1.0,0.032018713653087616
2.0,0.03180450201034546
3.0,0.03159607946872711
4.0,0.03139416500926018
5.0,0.031190281733870506
6.0,0.03099285624921322
7.0,0.030811049044132233
8.0,0.030642027035355568
9.0,0.030475426465272903
10.0,0.030313368886709213
11.0,0.030164901167154312
12.0,0.030010461807250977
13.0,0.029862312600016594
14.0,0.029713265597820282
15.0,0.02956087701022625
16.0,0.029422875493764877
18.0,0.029167884960770607
20.0,0.028939586132764816
22.0,0.028718382120132446
24.0,0.02850596234202385
26.0,0.02830863557755947
28.0,0.028097519651055336
30.0,0.027902022004127502
32.0,0.02770584635436535
36.0,0.027278544381260872
40.0,0.026865603402256966
44.0,0.02650374546647072
48.0,0.026180479675531387
52.0,0.025870410725474358
56.0,0.02552371472120285
60.0,0.02515151910483837
64.0,0.02477157488465309
72.0,0.024135885760188103
80.0,0.02358953095972538
88.0,0.023171579465270042
96.0,0.022675542160868645
104.0,0.022079136222600937
112.0,0.021470488980412483
120.0,0.020850395783782005
128.0,0.02028800919651985
144.0,0.019202537834644318
160.0,0.018392743542790413
176.0,0.017731772735714912
192.0,0.01743084378540516
208.0,0.017012199386954308
224.0,0.016275620087981224
240.0,0.01551276259124279
256.0,0.014908717013895512
288.0,0.013395280577242374
320.0,0.011820327490568161
352.0,0.011087962426245213
384.0,0.009904325939714909
416.0,0.008139608427882195
448.0,0.006236942484974861
480.0,0.0041790916584432125
512.0,0.002435839967802167
576.0,-0.0006827939068898559
640.0,-0.003106334712356329
704.0,-0.005316391121596098
768.0,-0.006645265035331249
832.0,-0.0076569486409425735
896.0,-0.007649740669876337
960.0,-0.0060042692348361015
1024.0,-0.006169862579554319
1152.0,-0.00536676961928606
1280.0,-0.0034192733000963926
1408.0,-0.0025783388409763575
1536.0,-0.004307841882109642
1664.0,-0.004089593421667814
1792.0,-0.006094804964959621
1920.0,-0.006349088624119759
2048.0,-0.006685614585876465
2304.0,-0.005079884082078934
2560.0,8.423344843322411e-05
2816.0,0.0022731563076376915
3072.0,0.0001382749032927677
3328.0,-0.003974069841206074
3584.0,-0.0011178890708833933
3840.0,0.0017923631239682436
4096.0,-0.000612707226537168
end
