version,3.0
numOfCh,1
type,point
parent_name,484af_0dot1-0dot01
ch_type,1_1
kcount,1
numberNandB,1
brightnessNandB,1
carpet pos,0
pc,0
Time (ms),CH1 Auto-Correlation
1.0,0.022426746785640717
2.0,0.0222341176122427
3.0,0.022047383710741997
4.0,0.021859528496861458
5.0,0.021675076335668564
6.0,0.021504653617739677
7.0,0.02133309282362461
8.0,0.02116440050303936
9.0,0.02100420370697975
10.0,0.02085205726325512
11.0,0.020700180903077126
12.0,0.02055617980659008
13.0,0.020422425121068954
14.0,0.020285695791244507
15.0,0.020151609554886818
16.0,0.02001972496509552
18.0,0.019773583859205246
20.0,0.019536655396223068
22.0,0.019308272749185562
24.0,0.019078630954027176
26.0,0.018863484263420105
28.0,0.01865580677986145
30.0,0.018449781462550163
32.0,0.01824970357120037
36.0,0.01786057837307453
40.0,0.017476186156272888
44.0,0.01714392751455307
48.0,0.01686481200158596
52.0,0.016596073284745216
56.0,0.01636935956776142
60.0,0.016167817637324333
64.0,0.01597719080746174
72.0,0.015443816781044006
80.0,0.014848873019218445
88.0,0.01440499722957611
96.0,0.014041086658835411
104.0,0.013660699129104614
112.0,0.013273710384964943
120.0,0.013025516644120216
128.0,0.012774222530424595
144.0,0.01212987583130598
160.0,0.011320915073156357
176.0,0.010502231307327747
192.0,0.009624877013266087
208.0,0.008801955729722977
224.0,0.00822779256850481
240.0,0.007966089062392712
256.0,0.007804506924003363
288.0,0.007837202399969101
320.0,0.0077433413825929165
352.0,0.007811762858182192
384.0,0.007756271865218878
416.0,0.007410944439470768
448.0,0.007222690619528294
480.0,0.007334756199270487
512.0,0.0071716937236487865
576.0,0.0055326963774859905
640.0,0.0034241017419844866
704.0,0.0022385872434824705
768.0,0.0014957693638280034
832.0,0.0017665677005425096
896.0,0.0027484477031975985
960.0,0.0030408657621592283
1024.0,0.003555260831490159
1152.0,0.004048667848110199
1280.0,0.00625059986487031
1408.0,0.007067092228680849
1536.0,0.004907326307147741
1664.0,0.0026768604293465614
1792.0,0.0015200460329651833
1920.0,-0.0011777982581406832
2048.0,-0.005475715268403292
2304.0,-0.007880519144237041
2560.0,-0.007938430644571781
2816.0,-0.001854174304753542
3072.0,-0.004734143149107695
3328.0,-0.00489343237131834
3584.0,-0.009492453187704086
3840.0,-0.009828050620853901
4096.0,-0.004820175003260374
end
