version,3.0
numOfCh,1
type,point
parent_name,484af_0dot1-0dot01
ch_type,1_1
kcount,1
numberNandB,1
brightnessNandB,1
carpet pos,0
pc,0
Time (ms),CH1 Auto-Correlation
1.0,0.016324471682310104
2.0,0.01613513194024563
3.0,0.015952998772263527
4.0,0.015772012993693352
5.0,0.015597490593791008
6.0,0.015429608523845673
7.0,0.015262139961123466
8.0,0.015099689364433289
9.0,0.014937123283743858
10.0,0.014776285737752914
11.0,0.014615864492952824
12.0,0.01445834245532751
13.0,0.014302837662398815
14.0,0.014150802046060562
15.0,0.014005673117935658
16.0,0.013862140476703644
18.0,0.013583360239863396
20.0,0.01331287156790495
22.0,0.01306242123246193
24.0,0.0128203509375453
26.0,0.012583539821207523
28.0,0.012364683672785759
30.0,0.012144073843955994
32.0,0.01192435808479786
36.0,0.01150442659854889
40.0,0.011111141182482243
44.0,0.010746383108198643
48.0,0.010392125695943832
52.0,0.010046933777630329
56.0,0.009751231409609318
60.0,0.009490400552749634
64.0,0.00924291368573904
72.0,0.008811889216303825
80.0,0.008443151600658894
88.0,0.008046070113778114
96.0,0.007672819308936596
104.0,0.0072847953997552395
112.0,0.006902129389345646
120.0,0.006590148899704218
128.0,0.006342361215502024
144.0,0.00578095531091094
160.0,0.005131830461323261
176.0,0.004443838261067867
192.0,0.003958807792514563
208.0,0.0036421772092580795
224.0,0.0034268966410309076
240.0,0.003197279293090105
256.0,0.00301156984642148
288.0,0.002268164651468396
320.0,0.0014248965308070183
352.0,0.0010319538414478302
384.0,0.0005852999165654182
416.0,0.0005570282228291035
448.0,0.00017608849157113582
480.0,-0.0002819180372171104
512.0,-0.0005755822057835758
576.0,-0.0008818987989798188
640.0,-0.0023217378184199333
704.0,-0.00237753102555871
768.0,-0.0027452968060970306
832.0,-0.0029037673957645893
896.0,-0.0031089880503714085
960.0,-0.002698242897167802
1024.0,-0.0027072622906416655
1152.0,-0.00218432629480958
1280.0,-0.00014307234960142523
1408.0,0.0006038174615241587
1536.0,0.0013078603660687804
1664.0,0.0016103655798360705
1792.0,0.0020656920969486237
1920.0,0.001792802824638784
2048.0,-1.739865001582075e-05
2304.0,-0.0007793410331942141
2560.0,-0.00036579990410245955
2816.0,5.84984190936666e-05
3072.0,0.00017836314509622753
3328.0,-0.0004375925927888602
3584.0,-0.002489473670721054
3840.0,-0.002244287170469761
4096.0,-0.0008542980067431927
4608.0,-0.00010058116458822042
5120.0,-0.00023775121371727437
5632.0,-0.0007526688277721405
6144.0,-0.0010643081041052938
6656.0,-0.0002530922647565603
7168.0,0.0005152028170414269
7680.0,0.00015688317944295704
8192.0,0.000118955023935996
end
