version,3.0
numOfCh,1
type,point
parent_name,484af_0dot1-0dot01
ch_type,1_1
kcount,1
numberNandB,1
brightnessNandB,1
carpet pos,0
pc,0
Time (ms),CH1 Auto-Correlation
1.0,0.01936884969472885
2.0,0.019184989854693413
3.0,0.01900467462837696
4.0,0.01882854849100113
5.0,0.018657991662621498
6.0,0.01849251054227352
7.0,0.018334100022912025
8.0,0.018179409205913544
9.0,0.018027694895863533
10.0,0.0178742166608572
11.0,0.017726365476846695
12.0,0.017579589039087296
13.0,0.017438383772969246
14.0,0.017298417165875435
15.0,0.017158955335617065
16.0,0.01702856458723545
18.0,0.016767507418990135
20.0,0.01652524806559086
22.0,0.01628994382917881
24.0,0.01605309545993805
26.0,0.01581868715584278
28.0,0.015596830286085606
30.0,0.01538058090955019
32.0,0.01518337707966566
36.0,0.014810911379754543
40.0,0.014433084987103939
44.0,0.014055468142032623
48.0,0.013689221814274788
52.0,0.013341303914785385
56.0,0.013020041398704052
60.0,0.012715203687548637
64.0,0.012419899925589561
72.0,0.011852875351905823
80.0,0.011363163590431213
88.0,0.010916266590356827
96.0,0.010459494777023792
104.0,0.010065365582704544
112.0,0.009679568000137806
120.0,0.009266048669815063
128.0,0.00884809996932745
144.0,0.007955135777592659
160.0,0.007230412680655718
176.0,0.006717943586409092
192.0,0.006401033606380224
208.0,0.006135547999292612
224.0,0.005901258438825607
240.0,0.005685507319867611
256.0,0.005475784186273813
288.0,0.005170620046555996
320.0,0.004988119471818209
352.0,0.004592431243509054
384.0,0.004144375212490559
416.0,0.0037569375708699226
448.0,0.0033235668670386076
480.0,0.0023657556157559156
512.0,0.0014769582776352763
576.0,0.0010566801065579057
640.0,0.0011138845002278686
704.0,0.0010169838787987828
768.0,0.0008127597393468022
832.0,0.0001538582146167755
896.0,-0.00010572555038379505
960.0,0.00038959039375185966
1024.0,0.0013780524022877216
1152.0,0.0009134500869549811
1280.0,0.0010231889318674803
1408.0,0.0008657273720018566
1536.0,-1.1883940715051722e-05
1664.0,-0.00014581813593395054
1792.0,0.0021175756119191647
1920.0,0.0024568347726017237
2048.0,0.0017187594203278422
2304.0,0.0008335846941918135
2560.0,-0.0010122659150511026
2816.0,-0.0018695441540330648
3072.0,-0.001725558890029788
3328.0,-0.001880464144051075
3584.0,-0.00118317233864218
3840.0,-0.00025969353737309575
4096.0,-0.0018889039056375623
4608.0,-0.004213255364447832
5120.0,-0.0015665482496842742
5632.0,-0.002354478696361184
6144.0,-0.0016093658050522208
6656.0,-0.0015743931289762259
7168.0,0.0011424545664340258
7680.0,-0.0002196839195676148
8192.0,-0.0010262411087751389
end
