version,3.0
numOfCh,1
type,point
parent_name,484af_0dot1-0dot01
ch_type,1_1
kcount,1
numberNandB,1
brightnessNandB,1
carpet pos,0
pc,0
Time (ms),CH1 Auto-Correlation
1.0,0.013605932705104351
2.0,0.013397007249295712
3.0,0.013193965889513493
4.0,0.012997929006814957
5.0,0.01280943863093853
6.0,0.012630689889192581
7.0,0.012454180978238583
8.0,0.012284670025110245
9.0,0.012122376821935177
10.0,0.011962260119616985
11.0,0.011811632663011551
12.0,0.0116671621799469
13.0,0.011525237001478672
14.0,0.011380285955965519
15.0,0.011236782185733318
16.0,0.011091739870607853
18.0,0.010810328647494316
20.0,0.010541875846683979
22.0,0.010285108350217342
24.0,0.010040106251835823
26.0,0.009801792912185192
28.0,0.009556721895933151
30.0,0.009297972545027733
32.0,0.009032698348164558
36.0,0.008500467985868454
40.0,0.008002212271094322
44.0,0.007534956093877554
48.0,0.007080858573317528
52.0,0.006671503186225891
56.0,0.006288442295044661
60.0,0.005953808315098286
64.0,0.005640605464577675
72.0,0.005051359534263611
80.0,0.004482080228626728
88.0,0.00397528987377882
96.0,0.0035259861033409834
104.0,0.0031598329078406096
112.0,0.0027159780729562044
120.0,0.0022804003674536943
128.0,0.001901561627164483
144.0,0.001503524137660861
160.0,0.001344679039902985
176.0,0.0013942427467554808
192.0,0.0013369208900257945
208.0,0.0013484620722010732
224.0,0.0012450983049347997
240.0,0.0012523418990895152
256.0,0.0012882240116596222
288.0,0.0005331056891009212
320.0,-0.00039805768756195903
352.0,-0.0006531869876198471
384.0,-0.00021834115614183247
416.0,0.00025161667144857347
448.0,0.0006963017513044178
480.0,0.0009550346294417977
512.0,0.0008662917534820735
576.0,0.0003014904505107552
640.0,5.1793205784633756e-05
704.0,0.0003390916681382805
768.0,0.0007627472514286637
832.0,0.0011537938844412565
896.0,0.0007727452320978045
960.0,0.00040831646765582263
1024.0,0.0005681521142832935
1152.0,-0.0004747971543110907
1280.0,0.0014487301232293248
1408.0,-0.00021769765589851886
1536.0,-0.00031382686574943364
1664.0,-0.0002999530406668782
1792.0,-0.0007276871474459767
1920.0,-0.002249595243483782
2048.0,-0.000604393717367202
2304.0,-0.0003465585468802601
2560.0,0.0005749749834649265
2816.0,-2.6504858396947384e-05
3072.0,-0.0006206493126228452
3328.0,0.0016474133590236306
3584.0,-0.0005883390549570322
3840.0,0.0009265761473216116
4096.0,-0.00048065034206956625
4608.0,-0.0005705893272534013
5120.0,-0.0018276936607435346
5632.0,-0.0013649554457515478
6144.0,-0.00012700472143478692
6656.0,0.0002457798400428146
7168.0,0.0010509132407605648
7680.0,0.0006345115834847093
8192.0,-7.09853702574037e-05
end
