version,3.0
numOfCh,1
type,point
parent_name,484af_0dot1-0dot01
ch_type,1_1
kcount,1
numberNandB,1
brightnessNandB,1
carpet pos,0
pc,0
Time (ms),CH1 Auto-Correlation
1.0,0.016754882410168648
2.0,0.016561921685934067
3.0,0.016369815915822983
4.0,0.016184113919734955
5.0,0.01600676402449608
6.0,0.015839241445064545
7.0,0.015671180561184883
8.0,0.015506116673350334
9.0,0.015348074957728386
10.0,0.015198709443211555
11.0,0.015052811242640018
12.0,0.014913459308445454
13.0,0.01477536279708147
14.0,0.014642558060586452
15.0,0.014519075863063335
16.0,0.014397715218365192
18.0,0.01416711788624525
20.0,0.013960064388811588
22.0,0.013783643953502178
24.0,0.013612519018352032
26.0,0.013439630158245564
28.0,0.013269447721540928
30.0,0.013105051591992378
32.0,0.012945620343089104
36.0,0.012603540904819965
40.0,0.01227253582328558
44.0,0.011962180025875568
48.0,0.011693148873746395
52.0,0.011411700397729874
56.0,0.011162281036376953
60.0,0.010918458923697472
64.0,0.010653632692992687
72.0,0.010218676179647446
80.0,0.009928897023200989
88.0,0.009643426164984703
96.0,0.009325146675109863
104.0,0.009076462127268314
112.0,0.008832013234496117
120.0,0.008525826036930084
128.0,0.008233331143856049
144.0,0.007732406258583069
160.0,0.007254994008690119
176.0,0.006836158223450184
192.0,0.006546068005263805
208.0,0.006268445868045092
224.0,0.005964009556919336
240.0,0.005572790279984474
256.0,0.0054391431622207165
288.0,0.0052210441790521145
320.0,0.005049495957791805
352.0,0.004271426238119602
384.0,0.003317577764391899
416.0,0.0026923592668026686
448.0,0.0024467746261507273
480.0,0.0024650227278470993
512.0,0.002454944886267185
576.0,0.0026294139679521322
640.0,0.0027133291587233543
704.0,0.002079205820336938
768.0,0.0015068709617480636
832.0,0.0017295967554673553
896.0,0.0022612842731177807
960.0,0.003133844118565321
1024.0,0.0031588838901370764
1152.0,0.00393129326403141
1280.0,0.004209057427942753
1408.0,0.0027786935679614544
1536.0,0.0019324059830978513
1664.0,0.002130190609022975
1792.0,0.002676626667380333
1920.0,0.0031383810564875603
2048.0,0.0030809228774160147
2304.0,0.0021143315825611353
2560.0,0.001179308514110744
2816.0,0.0005157150444574654
3072.0,0.0006613968289457262
3328.0,0.0006224248791113496
3584.0,-0.0006926310015842319
3840.0,-0.000623110739979893
4096.0,0.00039047375321388245
4608.0,-0.001138297375291586
5120.0,-0.0046298992820084095
5632.0,-0.0030888321343809366
6144.0,-0.0052400557324290276
6656.0,-0.0036952286027371883
7168.0,-0.005914634093642235
7680.0,-0.002829686040058732
8192.0,-0.0026053297333419323
end
