version,3.0
numOfCh,1
type,point
parent_name,484af_0dot1-0dot01
ch_type,1_1
kcount,1
numberNandB,1
brightnessNandB,1
carpet pos,0
pc,0
Time (ms),CH1 Auto-Correlation
1.0,0.01703900471329689
2.0,0.016852857545018196
3.0,0.016675136983394623
4.0,0.016497382894158363
5.0,0.01632031612098217
6.0,0.016147291287779808
7.0,0.015975557267665863
8.0,0.015807900577783585
9.0,0.015643542632460594
10.0,0.015479616820812225
11.0,0.015314237214624882
12.0,0.015155384317040443
13.0,0.015002327039837837
14.0,0.014849903993308544
15.0,0.014700895175337791
16.0,0.014554583467543125
18.0,0.014269409701228142
20.0,0.013993718661367893
22.0,0.013732646591961384
24.0,0.013478103093802929
26.0,0.01323439460247755
28.0,0.013001454062759876
30.0,0.01277881395071745
32.0,0.012558268383145332
36.0,0.01215030811727047
40.0,0.011761675588786602
44.0,0.011390650644898415
48.0,0.011050520464777946
52.0,0.010712618008255959
56.0,0.010385914705693722
60.0,0.010096995159983635
64.0,0.009831865318119526
72.0,0.009335150010883808
80.0,0.008842268958687782
88.0,0.008395625278353691
96.0,0.00799902155995369
104.0,0.007609667256474495
112.0,0.00726325111463666
120.0,0.006910296622663736
128.0,0.006532617844641209
144.0,0.005715822335332632
160.0,0.0051211644895374775
176.0,0.004696960095316172
192.0,0.004346692934632301
208.0,0.00406530499458313
224.0,0.003859576303511858
240.0,0.003820806974545121
256.0,0.0037597683258354664
288.0,0.0034475584980100393
320.0,0.0032844485249370337
352.0,0.0027269916608929634
384.0,0.0019842234905809164
416.0,0.0012406804598867893
448.0,0.0008099252008832991
480.0,0.0003992250713054091
512.0,-0.00024466082686558366
576.0,-0.0012871045619249344
640.0,-0.0015168313402682543
704.0,-0.0013011735863983631
768.0,-0.001102422596886754
832.0,-0.001185117056593299
896.0,-0.0020716888830065727
960.0,-0.002440924057736993
1024.0,-0.0024310285225510597
1152.0,-0.0036427495069801807
1280.0,-0.004830732010304928
1408.0,-0.002348658163100481
1536.0,-0.0015287044225260615
1664.0,2.512527134967968e-05
1792.0,3.893137909471989e-05
1920.0,0.0007884140941314399
2048.0,0.00040815913234837353
2304.0,0.0014033251209184527
2560.0,0.002341537969186902
2816.0,0.0022719004191458225
3072.0,-6.426125764846802e-05
3328.0,-0.0017996277892962098
3584.0,-2.5439849196118303e-05
3840.0,-0.0007919931085780263
4096.0,-0.0016070854617282748
4608.0,-0.0013408535160124302
5120.0,0.00015964481281116605
5632.0,0.0038923018146306276
6144.0,0.0004077492922078818
6656.0,-0.0037911117542535067
7168.0,-0.002562720561400056
7680.0,-0.00038747358485125005
8192.0,0.0029155018273741007
end
