version,3.0
numOfCh,1
type,point
parent_name,1000-cuts
ch_type,1_1
kcount,1
numberNandB,1
brightnessNandB,1
carpet pos,0
pc,0
Time (ms),CH1 Auto-Correlation
1.0,0.044474389404058456
2.0,0.03898466005921364
3.0,0.034256428480148315
4.0,0.030213456600904465
5.0,0.026699287816882133
6.0,0.023731976747512817
7.0,0.021408289670944214
8.0,0.019375285133719444
9.0,0.017637893557548523
10.0,0.016033606603741646
11.0,0.014680124819278717
12.0,0.013471530750393867
13.0,0.012236133217811584
14.0,0.011056172661483288
15.0,0.009969932958483696
16.0,0.009020410478115082
18.0,0.007616983260959387
20.0,0.006475523114204407
22.0,0.005392114166170359
24.0,0.004325117450207472
26.0,0.0032562525011599064
28.0,0.002636438701301813
30.0,0.002251524943858385
32.0,0.0018094623228535056
36.0,0.0011902946280315518
40.0,0.0006147282547317445
44.0,0.00014126811583992094
48.0,-0.00018279974756296724
52.0,-0.00025217977236025035
56.0,-0.00033601128961890936
60.0,2.385771404078696e-05
64.0,6.012354788254015e-05
72.0,0.00023714214330539107
80.0,-6.958981248317286e-05
88.0,-0.00011455270578153431
96.0,-0.0012171744601801038
104.0,-0.0019610817544162273
112.0,-0.0010727507760748267
120.0,-8.124179294100031e-05
128.0,-0.0006974602001719177
144.0,0.0002949440968222916
160.0,0.0013772256206721067
176.0,0.0013761214213445783
192.0,0.0007427955861203372
208.0,0.0003307774313725531
224.0,0.0010554797481745481
240.0,0.0022024079225957394
256.0,0.0011300300247967243
288.0,-0.0018496116390451789
320.0,-4.513109161052853e-06
352.0,0.00048317117034457624
384.0,-0.00039618040318600833
416.0,-0.00024340665549971163
448.0,-0.0007864098879508674
480.0,-0.0005955436499789357
512.0,0.0005809478461742401
576.0,-0.0007262865547090769
640.0,-0.00045229322859086096
704.0,-0.0004973766044713557
768.0,0.0006291190511547029
832.0,-0.000385255174478516
896.0,0.0005423079710453749
960.0,0.0016416708240285516
1024.0,5.345711542759091e-05
1152.0,0.0005559761193580925
1280.0,-0.0002705357037484646
1408.0,0.000377020362066105
1536.0,-0.00033926000469364226
1664.0,-0.000780485337600112
1792.0,-0.0007022499921731651
1920.0,9.361706906929612e-05
2048.0,-2.182945354434196e-05
2304.0,-1.6785021443865844e-06
2560.0,8.109868213068694e-05
2816.0,-0.00014830076543148607
3072.0,-0.00048049859469756484
3328.0,2.019028670474654e-06
3584.0,0.0001263627054868266
3840.0,0.00042334134923294187
4096.0,-0.00015951265231706202
4608.0,-1.6377443898818456e-05
5120.0,-0.00036575429840013385
5632.0,0.00011834676115540788
6144.0,2.8087577447877266e-05
6656.0,0.0003401337889954448
7168.0,6.416283576982096e-05
7680.0,0.000424793193815276
8192.0,-0.00040008779615163803
9216.0,-2.6247948881064076e-06
10240.0,-0.0004969202564097941
11264.0,-0.0004957111668772995
12288.0,-0.00020234909607097507
13312.0,-4.678400728153065e-05
14336.0,-0.0005526934401132166
end
