version,3.0
numOfCh,1
type,point
parent_name,1000-cuts
ch_type,1_1
kcount,1
numberNandB,1
brightnessNandB,1
carpet pos,0
pc,0
Time (ms),CH1 Auto-Correlation
1.0,0.08908969163894653
2.0,0.07779737561941147
3.0,0.06858864426612854
4.0,0.06062871217727661
5.0,0.05363182723522186
6.0,0.04775266349315643
7.0,0.04289981350302696
8.0,0.038688499480485916
9.0,0.035177528858184814
10.0,0.03183981403708458
11.0,0.028971923515200615
12.0,0.026450376957654953
13.0,0.024107690900564194
14.0,0.022421356290578842
15.0,0.020625105127692223
16.0,0.018856044858694077
18.0,0.01625179871916771
20.0,0.014163551852107048
22.0,0.012313004583120346
24.0,0.01058749295771122
26.0,0.009074493311345577
28.0,0.007705655414611101
30.0,0.006321797613054514
32.0,0.004950824659317732
36.0,0.004552861675620079
40.0,0.004455390851944685
44.0,0.003244676161557436
48.0,0.0017374622402712703
52.0,-0.000694365007802844
56.0,-0.0027588766533881426
60.0,-0.004643304273486137
64.0,-0.00533047690987587
72.0,-0.00554423313587904
80.0,-0.004686908330768347
88.0,-0.004086985252797604
96.0,-0.0016653768252581358
104.0,-0.0009780614636838436
112.0,0.00159652775619179
120.0,0.0032227332703769207
128.0,0.0019415271235629916
144.0,0.0007124399417079985
160.0,-0.00040819073910824955
176.0,-0.0029698999132961035
192.0,-0.0017175269313156605
208.0,9.070075611816719e-05
224.0,0.0006440702127292752
240.0,0.0004024076333735138
256.0,-0.0009004861349239945
288.0,-0.0008852692553773522
320.0,0.0010038824984803796
352.0,0.00042384848347865045
384.0,-0.0006299262749962509
416.0,-0.002232276601716876
448.0,-0.0005999956629239023
480.0,-0.0010136797791346908
512.0,1.244728537130868e-05
576.0,-0.0010774277616292238
640.0,0.0002331064169993624
704.0,-0.0002520023554097861
768.0,0.0006766672595404088
832.0,-0.0016257315874099731
896.0,0.0010280990973114967
960.0,-0.002436947776004672
1024.0,0.0019180101808160543
1152.0,-0.0006987893721088767
1280.0,0.0010013342835009098
1408.0,-0.0017259314190596342
1536.0,-0.001799769583158195
1664.0,0.00016903967480175197
1792.0,-0.0006895532715134323
1920.0,-0.0005651880637742579
2048.0,0.000649323919788003
2304.0,-0.0013486677780747414
2560.0,-0.0011015429627150297
2816.0,0.0009550247923471034
3072.0,0.0008505902951583266
3328.0,0.0008366506081074476
3584.0,8.52376688271761e-05
3840.0,0.0005320735508576035
4096.0,6.96211209287867e-05
4608.0,-0.000682975456584245
5120.0,-0.0011138240806758404
5632.0,0.00021716070477850735
6144.0,0.0009623761870898306
6656.0,0.0011465458665043116
7168.0,-0.0004994924529455602
7680.0,-0.00025198303046636283
8192.0,-0.000584407418500632
9216.0,9.991299884859473e-05
10240.0,0.00036469465703703463
11264.0,-0.0002186502533731982
12288.0,0.00020437555212993175
13312.0,3.8170946936588734e-06
14336.0,-0.000347557885106653
end
