version,3.0
numOfCh,1
type,point
parent_name,1000-cuts
ch_type,1_1
kcount,1
numberNandB,1
brightnessNandB,1
carpet pos,0
pc,0
Time (ms),CH1 Auto-Correlation
1.0,0.076985664665699
2.0,0.06600801646709442
3.0,0.05664849281311035
4.0,0.049040287733078
5.0,0.042571160942316055
6.0,0.03720855340361595
7.0,0.03250604495406151
8.0,0.02916419506072998
9.0,0.02584543265402317
10.0,0.022812891751527786
11.0,0.020088404417037964
12.0,0.017793826758861542
13.0,0.01600353792309761
14.0,0.014582226052880287
15.0,0.012866230681538582
16.0,0.011468196287751198
18.0,0.009133688174188137
20.0,0.007077057380229235
22.0,0.005812833551317453
24.0,0.0046825893223285675
26.0,0.003903578734025359
28.0,0.0029179330449551344
30.0,0.002053023548796773
32.0,0.0010685431770980358
36.0,0.0008957107202149928
40.0,0.00035430429852567613
44.0,-0.00043613510206341743
48.0,0.0002995581889990717
52.0,0.0009588604443706572
56.0,8.244248601840809e-05
60.0,5.898832023376599e-05
64.0,0.0011540825944393873
72.0,0.00021369689784478396
80.0,0.0012677684426307678
88.0,0.0004925962421111763
96.0,-2.0908819351461716e-05
104.0,0.0008867527358233929
112.0,0.002271285280585289
120.0,0.002306000329554081
128.0,0.0015704972902312875
144.0,0.0003733925404958427
160.0,-0.00011161265865666792
176.0,-0.0011675837449729443
192.0,0.00029229550273157656
208.0,0.0008603695314377546
224.0,0.0028470545075833797
240.0,0.0010023568756878376
256.0,-0.0010950675932690501
288.0,0.001210485934279859
320.0,0.00046889562509022653
352.0,0.0006254749023355544
384.0,-0.0015691346488893032
416.0,-0.0005683238268829882
448.0,0.00037551860441453755
480.0,0.0019282171269878745
512.0,0.0019302263390272856
576.0,-0.0005018147639930248
640.0,0.00030816736398264766
704.0,-0.0007291329093277454
768.0,-0.0005309434491209686
832.0,0.0010203304700553417
896.0,0.0016092694131657481
960.0,0.000922691950108856
1024.0,-0.0004216463421471417
1152.0,0.0010574718471616507
1280.0,-0.0006590572302229702
1408.0,-0.00032222882146015763
1536.0,-0.0002890514151658863
1664.0,-0.00034295054501853883
1792.0,-6.352589844027534e-05
1920.0,-0.0031697351951152086
2048.0,0.0008612150559201837
2304.0,-0.0008254850399680436
2560.0,-0.0002764035598374903
2816.0,-0.000997082213871181
3072.0,-0.0006823353469371796
3328.0,0.00012094587145838886
3584.0,0.0002610492520034313
3840.0,-0.00034327636240050197
4096.0,-4.175589492660947e-05
4608.0,0.0007315264665521681
5120.0,0.00022137572523206472
5632.0,0.0001736941485432908
6144.0,-7.699028356000781e-05
6656.0,-0.0009037662530317903
7168.0,-0.00017798150656744838
7680.0,-0.0007913244771771133
8192.0,0.000503551447764039
9216.0,0.0008780963835306466
10240.0,-0.0003613017324823886
11264.0,-0.001290070009417832
12288.0,-0.0008846299606375396
13312.0,0.000563262146897614
14336.0,0.0016883680364117026
end
