version,3.0
numOfCh,1
type,point
parent_name,1000-cuts
ch_type,1_1
kcount,1
numberNandB,1
brightnessNandB,1
carpet pos,0
pc,0
Time (ms),CH1 Auto-Correlation
1.0,0.026613127440214157
2.0,0.022914845496416092
3.0,0.019820328801870346
4.0,0.017318660393357277
5.0,0.015260927379131317
6.0,0.013329188339412212
7.0,0.011719443835318089
8.0,0.010431789793074131
9.0,0.009257771074771881
10.0,0.00824876967817545
11.0,0.007259716279804707
12.0,0.006385797169059515
13.0,0.005568889435380697
14.0,0.004932577256113291
15.0,0.004279987886548042
16.0,0.003720579668879509
18.0,0.002888862742111087
20.0,0.0022241969127207994
22.0,0.0017419545911252499
24.0,0.0013579708756878972
26.0,0.0011096958769485354
28.0,0.0009613469010218978
30.0,0.0007615539361722767
32.0,0.000541303597856313
36.0,0.0004391402762848884
40.0,0.0005439806263893843
44.0,0.0005193885299377143
48.0,0.0005943336291238666
52.0,0.0007594017079100013
56.0,0.0009903614409267902
60.0,0.0008084389264695346
64.0,0.00039086054312065244
72.0,0.0003174562007188797
80.0,0.0002676033473107964
88.0,-0.00023693963885307312
96.0,-0.0005723254289478064
104.0,-0.0008878046064637601
112.0,-0.0006467881030403078
120.0,-0.0004877788305748254
128.0,-0.0006078972946852446
144.0,-0.001154099008999765
160.0,1.3776111700281035e-05
176.0,0.0002142765006283298
192.0,0.0002913115604314953
208.0,0.0005169571377336979
224.0,0.00032656543771736324
240.0,-0.00028277398087084293
256.0,-0.0001846730156103149
288.0,-0.00036471153725869954
320.0,8.681823965162039e-05
352.0,0.00044155053910799325
384.0,-0.0006080159218981862
416.0,-3.985036528320052e-05
448.0,0.00038938195211812854
480.0,-0.0003732755722012371
512.0,0.0006935689598321915
576.0,2.0770992705365643e-05
640.0,0.00013696803944185376
704.0,-0.000986058614216745
768.0,9.39376786845969e-06
832.0,0.0008664094493724406
896.0,2.908750502683688e-05
960.0,-0.00014645988994743675
1024.0,-0.00040068390080705285
1152.0,0.0003747503214981407
1280.0,-0.0005614100955426693
1408.0,-4.2528095946181566e-05
1536.0,-0.0001992227917071432
1664.0,-0.00011439689114922658
1792.0,-0.00045943944132886827
1920.0,2.926709203165956e-05
2048.0,0.0001275196555070579
2304.0,-0.00017050487804226577
2560.0,-0.00038919190410524607
2816.0,1.3749466234003194e-05
3072.0,-0.00021667563123628497
3328.0,0.0004942890373058617
3584.0,9.747323019837495e-06
3840.0,-1.3432078048936091e-05
4096.0,-2.3708200387773104e-05
4608.0,1.704970964055974e-05
5120.0,0.00023451499873772264
5632.0,0.000160132025484927
6144.0,-0.00031539020710624754
6656.0,-0.00010899454355239868
7168.0,-0.00013413606211543083
7680.0,-0.00021496106637641788
8192.0,1.265585615328746e-05
9216.0,0.00022057638852857053
10240.0,-0.00011105757585028186
11264.0,-0.00015038183482829481
12288.0,0.00011856677883770317
13312.0,0.00011549749615369365
14336.0,-7.165983697632328e-05
end
