version,3.0
numOfCh,1
type,point
parent_name,1000-cuts
ch_type,1_1
kcount,1
numberNandB,1
brightnessNandB,1
carpet pos,0
pc,0
Time (ms),CH1 Auto-Correlation
1.0,0.026755440980196
2.0,0.023307615891098976
3.0,0.020403265953063965
4.0,0.017802821472287178
5.0,0.015560404397547245
6.0,0.013706383295357227
7.0,0.012282577343285084
8.0,0.01105495449155569
9.0,0.009905295446515083
10.0,0.00894475169479847
11.0,0.008115096017718315
12.0,0.007306396029889584
13.0,0.006601677276194096
14.0,0.005918455310165882
15.0,0.005280047655105591
16.0,0.004792471416294575
18.0,0.0038091111928224564
20.0,0.003139758249744773
22.0,0.0027056594844907522
24.0,0.002364239189773798
26.0,0.0022179416846483946
28.0,0.0021987773943692446
30.0,0.001958776731044054
32.0,0.0016501363134011626
36.0,0.0013089599087834358
40.0,0.0010782256722450256
44.0,0.0012123066699132323
48.0,0.0013895513257011771
52.0,0.0014495865907520056
56.0,0.0012891608057543635
60.0,0.0010960919316858053
64.0,0.0007025584345683455
72.0,0.00037908655940555036
80.0,-0.0004230272606946528
88.0,-0.0008411699091084301
96.0,-0.000563449808396399
104.0,-0.0005335892783477902
112.0,-0.0007314808899536729
120.0,-0.0009631143184378743
128.0,-0.00012983060150872916
144.0,5.412151222117245e-05
160.0,-2.0767258320120163e-05
176.0,-0.0005049571627750993
192.0,-0.0002748417027760297
208.0,0.0008376421174034476
224.0,0.0002243326889583841
240.0,-2.209882040915545e-06
256.0,-0.0003685926494654268
288.0,0.00037364018498919904
320.0,0.0011747031239792705
352.0,5.418085493147373e-05
384.0,0.0005908088060095906
416.0,-0.0005097846151329577
448.0,0.00043315617949701846
480.0,0.0007444363436661661
512.0,-0.000650309375487268
576.0,0.0002830361481755972
640.0,0.0003184647939633578
704.0,-1.2187847460154444e-05
768.0,-0.0001696891413303092
832.0,-7.452040154021233e-05
896.0,1.6329062418662943e-05
960.0,1.1464952876849566e-05
1024.0,0.00034989012056030333
1152.0,-2.8664620913332328e-05
1280.0,0.0002902403357438743
1408.0,-0.0003496853169053793
1536.0,-2.5116665710811503e-05
1664.0,6.137969467090443e-05
1792.0,4.3207171984249726e-05
1920.0,-0.0005409541190601885
2048.0,-0.00032635184470564127
2304.0,-0.00014440808445215225
2560.0,-5.366514596971683e-05
2816.0,-5.171389057068154e-05
3072.0,0.0002604214823804796
3328.0,0.00019523288938216865
3584.0,-0.00027923117158934474
3840.0,-0.0003274281625635922
4096.0,-9.64665159699507e-05
4608.0,-0.00010545153054408729
5120.0,-0.00015318146324716508
5632.0,-0.00013031224079895765
6144.0,-8.215657726395875e-05
6656.0,-0.00020124379079788923
7168.0,-0.0002436269132886082
7680.0,-0.00012010108184767887
8192.0,-6.254394975258037e-05
9216.0,0.0002097280084853992
10240.0,0.00014001964882481843
11264.0,0.0001889153354568407
12288.0,7.769605872454122e-05
13312.0,0.00011179326247656718
14336.0,-0.0006431778310798109
end
