version,3.0
numOfCh,1
type,point
parent_name,1000-cuts
ch_type,1_1
kcount,1
numberNandB,1
brightnessNandB,1
carpet pos,0
pc,0
Time (ms),CH1 Auto-Correlation
1.0,0.04344543442130089
2.0,0.03774401172995567
3.0,0.03296355903148651
4.0,0.028898684307932854
5.0,0.02546333521604538
6.0,0.02224607765674591
7.0,0.019375434145331383
8.0,0.017126988619565964
9.0,0.01525229774415493
10.0,0.013555977493524551
11.0,0.01211157813668251
12.0,0.010761797428131104
13.0,0.009723244234919548
14.0,0.008735943585634232
15.0,0.007972720079123974
16.0,0.007334067951887846
18.0,0.006104734726250172
20.0,0.004779801703989506
22.0,0.0035068243741989136
24.0,0.002635400975123048
26.0,0.00211358186788857
28.0,0.002008930081501603
30.0,0.0022334717214107513
32.0,0.002207867568358779
36.0,0.0018034599488601089
40.0,0.0005222721956670284
44.0,-0.00035255911643616855
48.0,-4.9966129154199734e-06
52.0,9.300022065872326e-05
56.0,-0.00020969397155568004
60.0,-0.000620723410975188
64.0,-0.0008433148614130914
72.0,-0.0008619092986918986
80.0,0.00036700122291222215
88.0,0.0002529348712414503
96.0,-0.0003764105204027146
104.0,0.0002798439818434417
112.0,0.001159893348813057
120.0,0.0020656867418438196
128.0,0.0015309492591768503
144.0,-0.00024464199668727815
160.0,-0.0007175196660682559
176.0,0.0005841971142217517
192.0,0.0013363820035010576
208.0,0.0003154842124786228
224.0,-0.00013344308536034077
240.0,-0.0005641146562993526
256.0,-0.0001477846672059968
288.0,-0.000654061499517411
320.0,0.0015299043152481318
352.0,0.0010062286164611578
384.0,0.0010765006300061941
416.0,0.00030458898982033134
448.0,0.0007914727902971208
480.0,-0.0007337029092013836
512.0,-2.3055461497278884e-05
576.0,9.700596274342388e-05
640.0,-0.0014616368571296334
704.0,0.0003644891257863492
768.0,0.0001195283984998241
832.0,-0.0011297529563307762
896.0,-0.00024081325682345778
960.0,-0.0006149850087240338
1024.0,-0.00028910767287015915
1152.0,-0.0005623073666356504
1280.0,0.00039014487992972136
1408.0,-0.000249166478170082
1536.0,0.00020566214516293257
1664.0,-0.00040705481660552323
1792.0,0.00032576537341810763
1920.0,-3.2875956094358116e-05
2048.0,-7.17957882443443e-05
2304.0,-2.439824129396584e-05
2560.0,0.0003316259535495192
2816.0,0.00037654757034033537
3072.0,-0.00045384885743260384
3328.0,0.0005254122661426663
3584.0,-0.0003996746090706438
3840.0,0.00018235338211525232
4096.0,-0.0008721533813513815
4608.0,-0.0002942928404081613
5120.0,0.0006545491050928831
5632.0,6.361133273458108e-05
6144.0,-0.00025717291282489896
6656.0,1.789034104149323e-05
7168.0,-0.0005987407639622688
7680.0,0.00042031516204588115
8192.0,-8.586663170717657e-06
9216.0,1.610403342056088e-05
10240.0,-7.706788164796308e-05
11264.0,-0.00046316056977957487
12288.0,-0.0002816232736222446
13312.0,0.0005494729848578572
14336.0,0.00034938400494866073
end
