version,3.0
numOfCh,1
type,point
parent_name,1000-cuts
ch_type,1_1
kcount,1
numberNandB,1
brightnessNandB,1
carpet pos,0
pc,0
Time (ms),CH1 Auto-Correlation
1.0,0.024890312924981117
2.0,0.021490802988409996
3.0,0.018730830401182175
4.0,0.016453102231025696
5.0,0.014501707628369331
6.0,0.012808889150619507
7.0,0.011301551945507526
8.0,0.01004052720963955
9.0,0.008992703631520271
10.0,0.00820478517562151
11.0,0.00756031833589077
12.0,0.006994861178100109
13.0,0.006397470366209745
14.0,0.005843146704137325
15.0,0.005217208992689848
16.0,0.004690445959568024
18.0,0.0039053214713931084
20.0,0.00326650682836771
22.0,0.002815001644194126
24.0,0.002396057592704892
26.0,0.0019057318568229675
28.0,0.0014455541968345642
30.0,0.000980718294158578
32.0,0.0006995294825173914
36.0,0.0006105603533796966
40.0,0.0004892460419796407
44.0,0.0002086447784677148
48.0,0.000253884878475219
52.0,0.0002543530717957765
56.0,0.0002445043355692178
60.0,0.00014845440455246717
64.0,0.0002080976846627891
72.0,6.526027573272586e-05
80.0,-8.735275332583115e-05
88.0,-0.00010077976185129955
96.0,0.0004554412153083831
104.0,0.00018986717623192817
112.0,-0.0005986272008158267
120.0,-0.0003797943936660886
128.0,-0.0008754733134992421
144.0,-0.0011994586093351245
160.0,-0.00102254340890795
176.0,-0.0006761588156223297
192.0,-0.0005792639567516744
208.0,0.0002202177856815979
224.0,-0.0008876404608599842
240.0,-0.00030840918770991266
256.0,0.00025269886828027666
288.0,-0.0005469957832247019
320.0,-0.0012495663249865174
352.0,-0.0007046856335364282
384.0,0.0005251651746220887
416.0,0.0005411177407950163
448.0,-3.5769768146565184e-05
480.0,0.0007709495257586241
512.0,0.0002983660961035639
576.0,-0.00011377447663107887
640.0,4.6058026782702655e-05
704.0,-0.0007920408388599753
768.0,0.00015663776139263064
832.0,-0.0002989565837197006
896.0,0.000248881580773741
960.0,-5.036282891524024e-05
1024.0,0.0004940744256600738
1152.0,-0.0008030661265365779
1280.0,-0.00047899785568006337
1408.0,0.0002428130537737161
1536.0,-0.00011533534416230395
1664.0,-0.00013295635289978236
1792.0,4.1431896534049883e-05
1920.0,-0.000386990635888651
2048.0,0.0005627695936709642
2304.0,-0.0004523240204434842
2560.0,0.0003389230405446142
2816.0,0.00013284513261169195
3072.0,-0.00046487071085721254
3328.0,0.0002607960777822882
3584.0,0.0002940909471362829
3840.0,-0.0002038197562796995
4096.0,0.00047677705879323184
4608.0,0.0002691222180146724
5120.0,-0.0005406351992860436
5632.0,-2.9436448585329344e-06
6144.0,-4.803307092515752e-05
6656.0,0.00018431348144076765
7168.0,4.78133988508489e-05
7680.0,-0.0003373904328327626
8192.0,0.0005388990393839777
9216.0,-0.00019544533279258758
10240.0,0.00012975273421034217
11264.0,-0.0001484196982346475
12288.0,0.00011067659215768799
13312.0,-0.00012267559941392392
14336.0,4.8847472498891875e-05
end
