version,3.0
numOfCh,1
type,point
parent_name,1000-cuts
ch_type,1_1
kcount,1
numberNandB,1
brightnessNandB,1
carpet pos,0
pc,0
Time (ms),CH1 Auto-Correlation
1.0,0.03956117853522301
2.0,0.034517377614974976
3.0,0.03025541640818119
4.0,0.026740787550807
5.0,0.02392614260315895
6.0,0.021567536517977715
7.0,0.019473714753985405
8.0,0.01772690750658512
9.0,0.015956029295921326
10.0,0.014483751729130745
11.0,0.01301931869238615
12.0,0.01172643806785345
13.0,0.010679665952920914
14.0,0.009665681049227715
15.0,0.008704746142029762
16.0,0.007840214297175407
18.0,0.006887311581522226
20.0,0.006199062801897526
22.0,0.005568786058574915
24.0,0.004797731526196003
26.0,0.004039126913994551
28.0,0.003311403328552842
30.0,0.0025892595294862986
32.0,0.0019836651626974344
36.0,0.001383656752295792
40.0,0.0006902439636178315
44.0,0.00013783066242467612
48.0,-1.2834325389121659e-05
52.0,2.8316377211012878e-05
56.0,-8.23718000901863e-05
60.0,-0.0008809337159618735
64.0,-0.0008302692440338433
72.0,9.626882092561573e-05
80.0,-0.000553349032998085
88.0,-0.0008213914697989821
96.0,-0.00014679731975775212
104.0,0.0007602174300700426
112.0,0.000288734445348382
120.0,-0.0007166325231082737
128.0,-0.0012182635255157948
144.0,-0.0007616096991114318
160.0,-0.0011317330645397305
176.0,-0.0012849998893216252
192.0,-0.002564591821283102
208.0,-0.0019311035284772515
224.0,-0.0012296601198613644
240.0,-0.0003637669433373958
256.0,0.0005499343387782574
288.0,0.0004235368687659502
320.0,5.8899939176626503e-05
352.0,-0.0009070769301615655
384.0,-0.0004896295140497386
416.0,-0.000579404120799154
448.0,6.34996104054153e-05
480.0,-0.0008718399913050234
512.0,-0.0005612610257230699
576.0,-2.4789693270577118e-05
640.0,0.0001934658648679033
704.0,0.0014360257191583514
768.0,0.00029250665102154016
832.0,-0.00025693545467220247
896.0,-0.0016149097355082631
960.0,-0.0007879803888499737
1024.0,0.00010183617996517569
1152.0,0.0002406782004982233
1280.0,-0.000656775024253875
1408.0,0.0007293241214938462
1536.0,0.00024667431716807187
1664.0,0.0006035805563442409
1792.0,-0.0002509615442249924
1920.0,0.0003863408346660435
2048.0,-0.0009802059503272176
2304.0,-0.0003753769851755351
2560.0,-1.8870319763664156e-05
2816.0,0.00023104318825062364
3072.0,0.00038460263749584556
3328.0,-0.00016080054047051817
3584.0,-0.00018353748600929976
3840.0,-0.00031370180658996105
4096.0,0.0003116642765235156
4608.0,0.00024715636391192675
5120.0,-0.00020499898528214544
5632.0,-8.565638563595712e-05
6144.0,-0.00026225735200569034
6656.0,1.895002060336992e-05
7168.0,-0.000332778028678149
7680.0,0.00012633563892450184
8192.0,-5.839480218128301e-05
9216.0,0.00020225936896167696
10240.0,2.301964741491247e-05
11264.0,-0.00039449415635317564
12288.0,0.0003120928886346519
13312.0,0.00011544536391738802
14336.0,-0.00021838946850039065
end
