version,3.0
numOfCh,1
type,point
parent_name,1000-cuts
ch_type,1_1
kcount,1
numberNandB,1
brightnessNandB,1
carpet pos,0
pc,0
Time (ms),CH1 Auto-Correlation
1.0,0.02731592208147049
2.0,0.023675037547945976
3.0,0.020580509677529335
4.0,0.01782912015914917
5.0,0.015399640426039696
6.0,0.013274225406348705
7.0,0.01154337264597416
8.0,0.010084510780870914
9.0,0.00879287626594305
10.0,0.007640848867595196
11.0,0.006589609198272228
12.0,0.005678529851138592
13.0,0.004949825815856457
14.0,0.004506251309067011
15.0,0.004104631952941418
16.0,0.00376402260735631
18.0,0.0031684350688010454
20.0,0.0024878180120140314
22.0,0.0020404518581926823
24.0,0.0018015915993601084
26.0,0.0016334963729605079
28.0,0.0013612742768600583
30.0,0.0011473511112853885
32.0,0.0011080519761890173
36.0,0.0010261314455419779
40.0,0.0009367963648401201
44.0,0.0008851673337630928
48.0,0.0005417686188593507
52.0,0.00011916457151528448
56.0,-7.099827780621126e-05
60.0,-0.00042809490696527064
64.0,-0.0008294952567666769
72.0,-0.001167900045402348
80.0,-0.0005520954728126526
88.0,5.077758396510035e-05
96.0,0.0006044745096005499
104.0,0.0006363989086821675
112.0,-0.00032270565861836076
120.0,-0.0007056706817820668
128.0,-0.00048652634723111987
144.0,2.6306690415367484e-05
160.0,-0.0007585105486214161
176.0,0.0006919598090462387
192.0,0.0011886723805218935
208.0,0.0011290082475170493
224.0,-0.0003620373026933521
240.0,-7.934665336506441e-05
256.0,0.0001803539926186204
288.0,-0.00010874839790631086
320.0,-0.0005840964149683714
352.0,-0.0006253698375076056
384.0,0.0009083892800845206
416.0,0.0004049933049827814
448.0,0.0004919922794215381
480.0,-0.0001524027029518038
512.0,-6.454753020079806e-05
576.0,0.0004944160464219749
640.0,0.0001429422409273684
704.0,2.392658871031017e-06
768.0,-0.00039341324009001255
832.0,-0.00016992882592603564
896.0,4.612364136846736e-05
960.0,0.0002134900278178975
1024.0,-0.00035332224797457457
1152.0,-7.701153663219884e-05
1280.0,-0.0003513866395223886
1408.0,0.0002756140602286905
1536.0,0.00028417856083251536
1664.0,0.00043491835822351277
1792.0,-0.00029016213375143707
1920.0,3.7031524698249996e-05
2048.0,0.0007664030999876559
2304.0,0.0003427463525440544
2560.0,2.321039755770471e-05
2816.0,-6.867528281873092e-05
3072.0,-2.6916468414128758e-05
3328.0,-0.00020971050253137946
3584.0,7.605852442793548e-05
3840.0,3.94862854591338e-06
4096.0,2.974216295115184e-05
4608.0,-9.854599738901015e-06
5120.0,-0.00010026447853306308
5632.0,-0.00013279014092404395
6144.0,-0.00017284194473177195
6656.0,2.788064011838287e-05
7168.0,-0.00024171317636501044
7680.0,-0.00027028031763620675
8192.0,-0.00014111679047346115
9216.0,0.00018758316582534462
10240.0,-7.741294393781573e-05
11264.0,9.884993232844863e-07
12288.0,-4.9108835810329765e-05
13312.0,-2.862872861442156e-05
14336.0,-0.0003801440470851958
end
