version,3.0
numOfCh,1
type,point
parent_name,1000-cuts
ch_type,1_1
kcount,1
numberNandB,1
brightnessNandB,1
carpet pos,0
pc,0
Time (ms),CH1 Auto-Correlation
1.0,0.025145940482616425
2.0,0.021642766892910004
3.0,0.018678558990359306
4.0,0.01620263233780861
5.0,0.014150216244161129
6.0,0.01243257150053978
7.0,0.011029236949980259
8.0,0.009774436242878437
9.0,0.00868319533765316
10.0,0.007760332431644201
11.0,0.006860425230115652
12.0,0.0060879262164235115
13.0,0.005502800922840834
14.0,0.004915124271064997
15.0,0.004440395627170801
16.0,0.004027008544653654
18.0,0.003237728727981448
20.0,0.0026579322293400764
22.0,0.002194241853430867
24.0,0.0018166207009926438
26.0,0.0014796811155974865
28.0,0.0012236643815413117
30.0,0.000863651919644326
32.0,0.0008672083495184779
36.0,0.0011533700162544847
40.0,0.001169133116491139
44.0,0.0009096885332837701
48.0,0.0006719552911818027
52.0,0.0005174275720492005
56.0,0.0003210051218047738
60.0,0.0003741770051419735
64.0,0.0007384294294752181
72.0,8.596067345933989e-05
80.0,-0.0004909693961963058
88.0,-0.00037359437556006014
96.0,-0.0002541889843996614
104.0,-0.00019549693388398737
112.0,-0.0005432399339042604
120.0,-0.0007165545248426497
128.0,-0.0002678879245650023
144.0,2.212996878370177e-05
160.0,0.0005811743321828544
176.0,0.0006092615658417344
192.0,-0.0008237608126364648
208.0,-0.0005306843668222427
224.0,-0.0009995118016377091
240.0,-0.0005450298776850104
256.0,-0.0004618342500180006
288.0,0.0006663755048066378
320.0,-4.874036312685348e-05
352.0,-0.0002904264547396451
384.0,-0.00026846773107536137
416.0,5.2785359002882615e-05
448.0,0.00039820809615775943
480.0,-0.00044980671373195946
512.0,-0.0007310537621378899
576.0,-0.000554509402718395
640.0,0.0004416242882143706
704.0,0.00021214221487753093
768.0,0.00024828442838042974
832.0,-3.904245386365801e-05
896.0,1.010025243886048e-05
960.0,0.0003831771609839052
1024.0,-0.00041667334153316915
1152.0,0.0002358726051170379
1280.0,-0.0003939173766411841
1408.0,-0.00023461770615540445
1536.0,-0.0002281873021274805
1664.0,-0.0002822855894919485
1792.0,0.0002256964216940105
1920.0,-6.678668432869017e-05
2048.0,-8.83551620063372e-05
2304.0,2.139177559001837e-05
2560.0,-0.0001800451282178983
2816.0,-0.00019097472249995917
3072.0,-0.00023692533432040364
3328.0,1.758787766448222e-05
3584.0,0.00010159906378248706
3840.0,-7.53217755118385e-05
4096.0,-0.00018047606863547117
4608.0,0.0004159349191468209
5120.0,-9.193502046400681e-05
5632.0,0.00013448992103803903
6144.0,-0.00013881719496566802
6656.0,-1.6041674825828522e-05
7168.0,1.2787516425305512e-05
7680.0,-0.00011194832040928304
8192.0,5.295488517731428e-05
9216.0,-1.0931005817838013e-05
10240.0,-0.00014896142238285393
11264.0,-8.493028144584969e-05
12288.0,0.00024227982794400305
13312.0,0.000130672546220012
14336.0,-0.00020984912407584488
end
