version,3.0
numOfCh,1
type,point
parent_name,1000-cuts
ch_type,1_1
kcount,1
numberNandB,1
brightnessNandB,1
carpet pos,0
pc,0
Time (ms),CH1 Auto-Correlation
1.0,0.024400901049375534
2.0,0.021078871563076973
3.0,0.018266456201672554
4.0,0.015942879021167755
5.0,0.014006372541189194
6.0,0.012345174327492714
7.0,0.011012916453182697
8.0,0.009860595688223839
9.0,0.008842618204653263
10.0,0.00792103074491024
11.0,0.006958244368433952
12.0,0.0061935787089169025
13.0,0.005500169936567545
14.0,0.004892326891422272
15.0,0.004399015102535486
16.0,0.00400166679173708
18.0,0.003515537129715085
20.0,0.0031214344780892134
22.0,0.002694417955353856
24.0,0.002407732652500272
26.0,0.002087500412017107
28.0,0.0017514476785436273
30.0,0.0014853536849841475
32.0,0.0014124639565125108
36.0,0.0011710339458659291
40.0,0.000691365625243634
44.0,0.00032443180680274963
48.0,0.00024968336219899356
52.0,0.0004498311609495431
56.0,0.00020780543854925781
60.0,0.00026153866201639175
64.0,0.0001828670792747289
72.0,0.0006542798364534974
80.0,0.0010447812965139747
88.0,0.0011737075401470065
96.0,0.001232856186106801
104.0,0.001370321144349873
112.0,0.0010287301847711205
120.0,0.0007282080478034914
128.0,0.00015723872638773173
144.0,0.0004859902837779373
160.0,0.00042230781400576234
176.0,8.031341712921858e-05
192.0,-0.00010252925858367234
208.0,-0.00018259503121953458
224.0,-0.000275754980975762
240.0,-0.0003899739822372794
256.0,0.00036177030415274203
288.0,0.00011782365618273616
320.0,9.99727999442257e-05
352.0,-4.482686790652224e-07
384.0,-0.0005604833131656051
416.0,-3.750056976059568e-06
448.0,0.0002876394719351083
480.0,2.398359720245935e-05
512.0,-0.0007185316644608974
576.0,-8.772488945396617e-05
640.0,0.0006793796201236546
704.0,0.0009204410016536713
768.0,0.0007024126825854182
832.0,0.00015665627142880112
896.0,0.0006048120558261871
960.0,0.00025779896532185376
1024.0,-6.340592517517507e-05
1152.0,2.7217731258133426e-05
1280.0,0.00023509426682721823
1408.0,0.00022970090503804386
1536.0,-0.0008222134201787412
1664.0,-0.0007036286988295615
1792.0,0.0004702299484051764
1920.0,9.500286250840873e-05
2048.0,9.314048656960949e-05
2304.0,-0.0003291399625595659
2560.0,-0.0003201643703505397
2816.0,6.287696305662394e-05
3072.0,0.0003049663791898638
3328.0,-0.00021989083325024694
3584.0,-0.00027442595455795527
3840.0,0.0005364001262933016
4096.0,0.00010679188562789932
4608.0,4.334112963988446e-05
5120.0,-8.529243496013805e-05
5632.0,4.540574082056992e-06
6144.0,-5.7680823374539614e-05
6656.0,0.0001388440141454339
7168.0,0.00013710468192584813
7680.0,-2.4705839678063057e-05
8192.0,-9.143108763964847e-05
9216.0,-0.00034762322320602834
10240.0,-0.00025282095884904265
11264.0,6.1448690757970326e-06
12288.0,0.00017754719010554254
13312.0,-0.0007681851275265217
14336.0,-0.00040916138095781207
end
