version,3.0
numOfCh,1
type,point
parent_name,1000-cuts
ch_type,1_1
kcount,1
numberNandB,1
brightnessNandB,1
carpet pos,0
pc,0
Time (ms),CH1 Auto-Correlation
1.0,0.026295233517885208
2.0,0.02284199371933937
3.0,0.020024171099066734
4.0,0.017676029354333878
5.0,0.015594655647873878
6.0,0.013754764571785927
7.0,0.012169603258371353
8.0,0.01084453146904707
9.0,0.009693240746855736
10.0,0.008700178936123848
11.0,0.007915761321783066
12.0,0.007286801002919674
13.0,0.006625444162636995
14.0,0.006020239554345608
15.0,0.005487636663019657
16.0,0.005019836593419313
18.0,0.004206339828670025
20.0,0.003607681719586253
22.0,0.0031106143724173307
24.0,0.002668673638254404
26.0,0.002403800841420889
28.0,0.0023776439484208822
30.0,0.002032624091953039
32.0,0.0017991538625210524
36.0,0.0012518962612375617
40.0,0.0009468886419199407
44.0,0.0008285870426334441
48.0,0.000511645688675344
52.0,0.0003102899936493486
56.0,4.1345145291415974e-05
60.0,-6.258866778807715e-05
64.0,0.0001336713758064434
72.0,-5.0791612011380494e-05
80.0,0.00033658742904663086
88.0,6.120590842328966e-05
96.0,-3.80657656933181e-05
104.0,-1.829231950978283e-05
112.0,-3.168829789501615e-05
120.0,0.0003306407597847283
128.0,0.00026932702166959643
144.0,0.00035697463317774236
160.0,0.00045878783566877246
176.0,-0.0003269248700235039
192.0,-0.00078758125891909
208.0,-0.0006585544906556606
224.0,-0.0007759717991575599
240.0,-0.0005980138084851205
256.0,-0.00047653037472628057
288.0,0.0008894110796973109
320.0,0.00017948377353604883
352.0,-0.0005633225664496422
384.0,-0.0011156060500070453
416.0,-0.0005339721101336181
448.0,-0.0007462906651198864
480.0,8.12934449641034e-05
512.0,0.0006587757379747927
576.0,8.255245120381005e-06
640.0,-8.629295916762203e-05
704.0,-0.0012662544613704085
768.0,-0.00014017120702192187
832.0,-8.047416486078873e-05
896.0,-0.0006810207851231098
960.0,0.001130593242123723
1024.0,9.0325869678054e-05
1152.0,0.00021984122577123344
1280.0,0.00035147211747244
1408.0,0.00017287246009800583
1536.0,9.556304576108232e-05
1664.0,0.00022333867673296481
1792.0,-0.0002851543831638992
1920.0,9.525073255645111e-05
2048.0,0.00014522508718073368
2304.0,0.00015614964650012553
2560.0,-9.419069101568311e-05
2816.0,0.00013141905947122723
3072.0,0.0003050612867809832
3328.0,-9.060419688466936e-05
3584.0,-0.0004112520255148411
3840.0,3.030607695109211e-05
4096.0,0.0004692897491622716
4608.0,-4.149313099333085e-05
5120.0,4.832096237805672e-05
5632.0,-4.840158362640068e-05
6144.0,-0.00033357468782924116
6656.0,2.43421000050148e-05
7168.0,-9.333726484328508e-05
7680.0,-0.00026089802850037813
8192.0,-2.0348226826172322e-05
9216.0,-0.0001238723489223048
10240.0,-0.00027781949029304087
11264.0,-0.00025468721287325025
12288.0,0.00023541859991382807
13312.0,0.0001796475116861984
14336.0,-5.2484541811281815e-05
end
