version,3.0
numOfCh,1
type,point
parent_name,1000-cuts
ch_type,1_1
kcount,1
numberNandB,1
brightnessNandB,1
carpet pos,0
pc,0
Time (ms),CH1 Auto-Correlation
1.0,0.09062090516090393
2.0,0.07915395498275757
3.0,0.0695786401629448
4.0,0.06140216067433357
5.0,0.05459747090935707
6.0,0.048617828637361526
7.0,0.04333068057894707
8.0,0.03908456489443779
9.0,0.0352390855550766
10.0,0.0320182628929615
11.0,0.028885552659630775
12.0,0.02618216536939144
13.0,0.02388499304652214
14.0,0.02204127237200737
15.0,0.020032767206430435
16.0,0.01814442127943039
18.0,0.01569315232336521
20.0,0.013917435891926289
22.0,0.012327009811997414
24.0,0.011053352616727352
26.0,0.010034379549324512
28.0,0.008507180027663708
30.0,0.00733208516612649
32.0,0.006345187779515982
36.0,0.005386460106819868
40.0,0.00553407846018672
44.0,0.005143863148987293
48.0,0.005161880981177092
52.0,0.004779554437845945
56.0,0.005199622828513384
60.0,0.005797709804028273
64.0,0.004768251907080412
72.0,0.002609482267871499
80.0,0.0009765453287400305
88.0,-0.0013950144639238715
96.0,-0.001558019663207233
104.0,-0.001524304854683578
112.0,-0.002317339414730668
120.0,-0.0038105249404907227
128.0,-0.004874442704021931
144.0,-0.00460698502138257
160.0,-0.001150305150076747
176.0,-0.0013774646213278174
192.0,-0.0020044418051838875
208.0,-0.0021472200751304626
224.0,-0.003641626099124551
240.0,-0.007690710946917534
256.0,-0.0045504337176680565
288.0,-0.004047714173793793
320.0,-0.002423021011054516
352.0,0.00012670592695940286
384.0,0.0003113263810519129
416.0,-0.00037638540379703045
448.0,0.0021993720438331366
480.0,0.002126354956999421
512.0,0.0015491131925955415
576.0,0.0012338659726083279
640.0,0.0010479491902515292
704.0,1.291843545914162e-05
768.0,-0.0005235316348262131
832.0,-0.003966168034821749
896.0,-0.004402728285640478
960.0,-0.0018890335923060775
1024.0,0.003552910638973117
1152.0,0.0031118805054575205
1280.0,3.85161729354877e-05
1408.0,-0.002084181411191821
1536.0,-0.0018780977698042989
1664.0,8.343890658579767e-05
1792.0,-0.00034778707777149975
1920.0,-0.0017864255933091044
2048.0,-0.001367616350762546
2304.0,0.00020135538943577558
2560.0,-0.0008483774145133793
2816.0,8.384286047657952e-05
3072.0,0.0006477194838225842
3328.0,0.0004532734164968133
3584.0,-0.002109429333359003
3840.0,0.0016665420262143016
4096.0,0.00020340101036708802
4608.0,-6.584088259842247e-05
5120.0,0.0002277902967762202
5632.0,-0.0005418541841208935
6144.0,0.0010523064993321896
6656.0,-0.0006432523368857801
7168.0,0.0001248101470991969
7680.0,-0.0007022942299954593
8192.0,-0.00014363053196575493
9216.0,0.0002034661010839045
10240.0,-4.5411721657728776e-05
11264.0,-5.1840452215401456e-05
12288.0,-0.000122196608572267
13312.0,1.6089721611933783e-05
14336.0,7.007898966548964e-05
end
