version,3.0
numOfCh,1
type,point
parent_name,1000-cuts
ch_type,1_1
kcount,1
numberNandB,1
brightnessNandB,1
carpet pos,0
pc,0
Time (ms),CH1 Auto-Correlation
1.0,0.07520869374275208
2.0,0.06502611190080643
3.0,0.05676620081067085
4.0,0.04971820116043091
5.0,0.04360540956258774
6.0,0.03872253745794296
7.0,0.03436592221260071
8.0,0.030693119391798973
9.0,0.02719721570611
10.0,0.024755112826824188
11.0,0.02214043028652668
12.0,0.020014287903904915
13.0,0.018104463815689087
14.0,0.016095176339149475
15.0,0.01423217449337244
16.0,0.012447037734091282
18.0,0.010499767027795315
20.0,0.009304909035563469
22.0,0.008368758484721184
24.0,0.007441642694175243
26.0,0.006999885197728872
28.0,0.006442952901124954
30.0,0.006137973163276911
32.0,0.005132838152348995
36.0,0.0035086404532194138
40.0,0.0021031417418271303
44.0,0.0014891187893226743
48.0,0.000967463362030685
52.0,0.000520536326803267
56.0,0.0006457397830672562
60.0,0.0006924279150553048
64.0,0.000717895629350096
72.0,0.001478064339607954
80.0,0.0013890716945752501
88.0,0.0010611339239403605
96.0,-0.0010039282497018576
104.0,-0.0015366914449259639
112.0,-0.001494301133789122
120.0,-0.002089190296828747
128.0,-0.00283987307921052
144.0,-0.003844587365165353
160.0,-0.003628632752224803
176.0,-0.0002591957454569638
192.0,-0.001164484885521233
208.0,-0.002484156284481287
224.0,-0.0009428785997442901
240.0,0.0007977240020409226
256.0,0.00015183526556938887
288.0,0.0016824239864945412
320.0,0.0031175524927675724
352.0,-6.762944849469932e-06
384.0,-0.0008382963133044541
416.0,-0.0018139566527679563
448.0,-0.0008574642706662416
480.0,0.001668951939791441
512.0,0.0010227822931483388
576.0,0.00020643869356717914
640.0,0.0008167000487446785
704.0,-0.0007802005857229233
768.0,0.0008478086092509329
832.0,0.0013857843587175012
896.0,-0.0005318372859619558
960.0,0.00029972370248287916
1024.0,0.0001238598779309541
1152.0,-0.0005545979365706444
1280.0,-0.0012184419902041554
1408.0,-7.723427552264184e-05
1536.0,-0.0014158060075715184
1664.0,0.0003239531652070582
1792.0,-0.0008331092540174723
1920.0,-0.0002180191222578287
2048.0,6.481578748207539e-05
2304.0,0.00014143515727482736
2560.0,-0.0005206066998653114
2816.0,-0.00018040774739347398
3072.0,-0.00021209735132288188
3328.0,-0.00015914751566015184
3584.0,-0.0005374311585910618
3840.0,0.000954330200329423
4096.0,0.00023297271400224417
4608.0,-0.0003942237817682326
5120.0,-0.00035525846760720015
5632.0,-0.00026795381563715637
6144.0,0.0003056966816075146
6656.0,-9.280198719352484e-05
7168.0,-0.0002985164464917034
7680.0,-0.0006170094711706042
8192.0,0.001170006929896772
9216.0,-0.00011582237493712455
10240.0,-8.256743603851646e-05
11264.0,-0.00012262363452464342
12288.0,0.0003806605818681419
13312.0,-0.0006344759021885693
14336.0,0.0003939407761208713
end
