version,3.0
numOfCh,1
type,point
parent_name,1000-cuts
ch_type,1_1
kcount,1
numberNandB,1
brightnessNandB,1
carpet pos,0
pc,0
Time (ms),CH1 Auto-Correlation
1.0,0.026301199570298195
2.0,0.022707663476467133
3.0,0.01965150237083435
4.0,0.016997510567307472
5.0,0.01478430163115263
6.0,0.012825430370867252
7.0,0.011124778538942337
8.0,0.009702963754534721
9.0,0.008528856560587883
10.0,0.007557279895991087
11.0,0.006738852243870497
12.0,0.006035332102328539
13.0,0.0053736362606287
14.0,0.0047891936264932156
15.0,0.0044322567991912365
16.0,0.004096184857189655
18.0,0.0034318557009100914
20.0,0.0028075280133634806
22.0,0.0023637886624783278
24.0,0.0018590687541291118
26.0,0.0014166388427838683
28.0,0.0009139400208368897
30.0,0.00042739370837807655
32.0,-1.6797055650386028e-05
36.0,-0.0006144117214716971
40.0,-0.0010903847869485617
44.0,-0.0013953368179500103
48.0,-0.001298693474382162
52.0,-0.0010714867385104299
56.0,-0.0009386833989992738
60.0,-0.0005573537782765925
64.0,-0.0003168840194121003
72.0,0.00021864550944883376
80.0,0.0006601854111067951
88.0,0.0006210143910720944
96.0,0.000627495173830539
104.0,0.00043090953840874135
112.0,0.0003291673492640257
120.0,0.00023554358631372452
128.0,-0.00022827929933555424
144.0,8.432667527813464e-06
160.0,-1.7330215769106871e-06
176.0,-0.00034049779060296714
192.0,-0.00016723292355891317
208.0,0.00026870029978454113
224.0,-0.0004320558509789407
240.0,-0.00040459807496517897
256.0,-0.00024856769596226513
288.0,-0.00017076122458092868
320.0,-0.00045966909965500236
352.0,-0.00017363714869134128
384.0,-0.0007332884124480188
416.0,-8.232043182943016e-05
448.0,-4.89793746965006e-05
480.0,-0.0002893034543376416
512.0,0.00013219189713709056
576.0,-3.322238626424223e-05
640.0,0.0005976626998744905
704.0,0.0004096736083738506
768.0,-0.00012324358976911753
832.0,0.00012898068234790117
896.0,0.0005984709714539349
960.0,-8.901222463464364e-05
1024.0,-0.0003006011829711497
1152.0,4.4664124288829044e-05
1280.0,0.00013623578706756234
1408.0,-0.00030910890200175345
1536.0,-0.00020654812396969646
1664.0,-0.00019670475739985704
1792.0,-0.0003488207294140011
1920.0,-9.894642062135972e-06
2048.0,1.2642690307984594e-05
2304.0,-0.00014602318697143346
2560.0,-9.371515625389293e-05
2816.0,-0.0002522332943044603
3072.0,-0.00039821467362344265
3328.0,0.00011320695193717256
3584.0,0.00025506282690912485
3840.0,-0.00024888000916689634
4096.0,-0.00017933813796844333
4608.0,0.00018942455062642694
5120.0,0.0001638791582081467
5632.0,0.00018579304742161185
6144.0,0.00023684096231590956
6656.0,-0.0003110179677605629
7168.0,-0.00018967626965604722
7680.0,-0.0004043186781927943
8192.0,7.183542766142637e-05
9216.0,0.00014111395284999162
10240.0,-9.10857561393641e-05
11264.0,0.00014755455777049065
12288.0,-5.958665133221075e-05
13312.0,6.712639901707007e-07
14336.0,0.00014176216791383922
end
