version,3.0
numOfCh,1
type,point
parent_name,1000-cuts
ch_type,1_1
kcount,1
numberNandB,1
brightnessNandB,1
carpet pos,0
pc,0
Time (ms),CH1 Auto-Correlation
1.0,0.04120515286922455
2.0,0.03578908368945122
3.0,0.03122507408261299
4.0,0.027415964752435684
5.0,0.02418527379631996
6.0,0.021384941413998604
7.0,0.018853114917874336
8.0,0.016599468886852264
9.0,0.014570563100278378
10.0,0.012758702971041203
11.0,0.011122217401862144
12.0,0.00975609291344881
13.0,0.00875604897737503
14.0,0.007917677983641624
15.0,0.007029634900391102
16.0,0.006243244744837284
18.0,0.0045778206549584866
20.0,0.0032063666731119156
22.0,0.002100774087011814
24.0,0.0012812466593459249
26.0,0.0007604375132359564
28.0,0.0005352328880690038
30.0,0.00036003830609843135
32.0,-9.339360985904932e-05
36.0,-0.000754387816414237
40.0,-0.0005212359828874469
44.0,-7.144191476982087e-05
48.0,0.0001583138800924644
52.0,-0.000140304648084566
56.0,-0.00018176210869569331
60.0,-0.0002265855437144637
64.0,1.9354311007191427e-06
72.0,-0.00015736153000034392
80.0,-0.00021798323723487556
88.0,-0.0009046603227034211
96.0,-0.0022639145608991385
104.0,-0.002101052785292268
112.0,-0.0016048942925408483
120.0,-0.000914863427169621
128.0,5.427411451819353e-05
144.0,0.0004920801729895175
160.0,-0.0005472712218761444
176.0,6.506908539449796e-05
192.0,0.000985548598691821
208.0,0.00019270210759714246
224.0,0.0007116248016245663
240.0,-2.873015182558447e-05
256.0,-0.0010072779841721058
288.0,-0.0015761152608320117
320.0,-0.0015725180273875594
352.0,0.00094024179270491
384.0,0.0015826881863176823
416.0,0.0006685161497443914
448.0,0.0006714168703183532
480.0,-0.0001694785023573786
512.0,-0.0004863193607889116
576.0,-0.00014266851940192282
640.0,-0.00010193857451668009
704.0,-0.001382385496981442
768.0,-0.0008535850211046636
832.0,-0.0002012374170590192
896.0,-0.0005686906515620649
960.0,-0.0003331748303025961
1024.0,-0.0006306762807071209
1152.0,-0.00030079414136707783
1280.0,-0.000822051428258419
1408.0,0.00011842661479022354
1536.0,0.0005553263472393155
1664.0,0.0003975888539571315
1792.0,0.0006024218746460974
1920.0,1.1548711881914642e-05
2048.0,0.0005400591180659831
2304.0,-0.0003250176378060132
2560.0,-0.00010663989814929664
2816.0,-0.00025488465325906873
3072.0,4.074495518580079e-05
3328.0,0.0002823013928718865
3584.0,0.00018554748385213315
3840.0,-0.00028033903799951077
4096.0,-0.00018896698020398617
4608.0,-0.00012719725782517344
5120.0,6.0061873227823526e-05
5632.0,4.266062751412392e-05
6144.0,4.897903636447154e-05
6656.0,-0.0001889912091428414
7168.0,6.742380355717614e-05
7680.0,-5.4346182878362015e-05
8192.0,3.590745836845599e-05
9216.0,7.14044799678959e-05
10240.0,-7.125487172743306e-05
11264.0,0.00010809418745338917
12288.0,-0.00023187935585156083
13312.0,0.00026775605510920286
14336.0,-0.00037406577030196786
end
