version,3.0
numOfCh,1
type,point
parent_name,1000-cuts
ch_type,1_1
kcount,1
numberNandB,1
brightnessNandB,1
carpet pos,0
pc,0
Time (ms),CH1 Auto-Correlation
1.0,0.039124276489019394
2.0,0.03368401899933815
3.0,0.029234910383820534
4.0,0.025363003835082054
5.0,0.021998338401317596
6.0,0.019078047946095467
7.0,0.016522010788321495
8.0,0.01436226349323988
9.0,0.012529324740171432
10.0,0.01096544973552227
11.0,0.009608007036149502
12.0,0.008557645604014397
13.0,0.007730817887932062
14.0,0.006981151644140482
15.0,0.006321707274764776
16.0,0.005830580368638039
18.0,0.004889831878244877
20.0,0.004309610929340124
22.0,0.0036835174541920424
24.0,0.0030307138804346323
26.0,0.002342525403946638
28.0,0.0018661664798855782
30.0,0.0014905240386724472
32.0,0.0013321457663550973
36.0,0.001114299870096147
40.0,0.0007397191948257387
44.0,0.0005366833065636456
48.0,7.290439680218697e-05
52.0,-0.0002777314221020788
56.0,-0.0005914748180657625
60.0,-0.0004934770986437798
64.0,-0.0004097627243027091
72.0,-0.0010076232720166445
80.0,-0.0010698167607188225
88.0,-0.00042947466135956347
96.0,-5.72858662053477e-05
104.0,-0.0005962100112810731
112.0,-0.0007143758703023195
120.0,-0.0005455173086374998
128.0,-0.0006631587166339159
144.0,-0.00020888967264909297
160.0,0.0007105533150024712
176.0,0.00017730075342115015
192.0,0.0008351755095645785
208.0,0.0024950499646365643
224.0,0.0005317896720953286
240.0,-0.00031178214703686535
256.0,-0.00031131666037254035
288.0,-0.0005673392442986369
320.0,-9.159294131677598e-05
352.0,0.0006041627493686974
384.0,-0.001410944852977991
416.0,-0.0011500053806230426
448.0,-0.0004300031578168273
480.0,-0.00027034973027184606
512.0,-3.0250213967519812e-05
576.0,0.00010894957085838541
640.0,-0.0007987470598891377
704.0,-0.00011758687469409779
768.0,-0.00011219207954127342
832.0,0.000753829488530755
896.0,-0.000961884914431721
960.0,0.0003765574947465211
1024.0,0.00034356664400547743
1152.0,0.0006721960962750018
1280.0,-0.0004842689086217433
1408.0,0.00021189084509387612
1536.0,0.00039143560570664704
1664.0,0.00031074180151335895
1792.0,-0.0007389828097075224
1920.0,-7.200677646324039e-05
2048.0,-0.0005736591410823166
2304.0,-0.0004432096902746707
2560.0,-0.00012893578968942165
2816.0,0.0002075309312203899
3072.0,0.0007191583863459527
3328.0,9.212479199049994e-06
3584.0,0.0001978244836209342
3840.0,0.00010702567669795826
4096.0,-1.7159916751552373e-05
4608.0,7.225473382277414e-05
5120.0,-0.0004972493625245988
5632.0,0.0001513386087026447
6144.0,-0.00015348901797551662
6656.0,-6.971189577598125e-05
7168.0,0.0006151033448986709
7680.0,-5.797536869067699e-05
8192.0,-0.0006601169006898999
9216.0,-0.00013820627646055073
10240.0,0.0002396815543761477
11264.0,8.405357948504388e-05
12288.0,-0.0006972079863771796
13312.0,-7.46849036659114e-05
14336.0,8.209434599848464e-05
end
