version,3.0
numOfCh,1
type,point
parent_name,1000-cuts
ch_type,1_1
kcount,1
numberNandB,1
brightnessNandB,1
carpet pos,0
pc,0
Time (ms),CH1 Auto-Correlation
1.0,0.04033505171537399
2.0,0.03517169505357742
3.0,0.03084706887602806
4.0,0.027114374563097954
5.0,0.02401147224009037
6.0,0.02113909088075161
7.0,0.018709352239966393
8.0,0.0166278425604105
9.0,0.014776245690882206
10.0,0.013064572587609291
11.0,0.011589049361646175
12.0,0.01014456432312727
13.0,0.008867199532687664
14.0,0.007665986195206642
15.0,0.0066436161287128925
16.0,0.0059631806798279285
18.0,0.00456677982583642
20.0,0.0035092646721750498
22.0,0.002706846222281456
24.0,0.0023773496504873037
26.0,0.0022809640504419804
28.0,0.0020026937127113342
30.0,0.0014367923140525818
32.0,0.0007250627386383712
36.0,6.0852755268570036e-05
40.0,-4.309612631914206e-05
44.0,-0.000594975077547133
48.0,-0.0008593080565333366
52.0,-0.0015988369705155492
56.0,-0.0017339390469715
60.0,-0.0014161557191982865
64.0,-0.0015000960556790233
72.0,-0.0005835124757140875
80.0,-0.00024607032537460327
88.0,-0.00020811664580833167
96.0,-0.0003774096257984638
104.0,-0.0008120800484903157
112.0,-0.00026979477843269706
120.0,0.00045498611871153116
128.0,0.00124362763017416
144.0,0.0003588342806324363
160.0,-0.0012913409154862165
176.0,-0.00029544401331804693
192.0,-0.0006362320273183286
208.0,0.0011023961706086993
224.0,3.62610153388232e-05
240.0,0.00027093171956948936
256.0,-0.0004690946952905506
288.0,0.00013745349133387208
320.0,-7.842241029720753e-05
352.0,-0.00016495096497237682
384.0,-0.00023817441251594573
416.0,0.0015348474262282252
448.0,0.0007021416677162051
480.0,0.00040336052188649774
512.0,0.0007783386972732842
576.0,0.00019268703181296587
640.0,-0.0005703523638658226
704.0,0.00031144850072450936
768.0,0.0002404795668553561
832.0,-0.000648420536890626
896.0,0.00020261754980310798
960.0,-0.00023630184296052903
1024.0,-0.00033265099045820534
1152.0,-0.0003270401793997735
1280.0,0.000542891095392406
1408.0,-0.00039548505446873605
1536.0,0.00029262149473652244
1664.0,-0.00044740657904185355
1792.0,0.0002716602466534823
1920.0,0.0002995774557348341
2048.0,0.00022095569875091314
2304.0,0.0002577605191618204
2560.0,-5.980426794849336e-05
2816.0,-0.00045193859841674566
3072.0,-0.00010233982175122947
3328.0,0.00011111988715128973
3584.0,0.0003267987340223044
3840.0,0.0005469575989991426
4096.0,-0.00014179511344991624
4608.0,-0.00012547049846034497
5120.0,-0.0007302747690118849
5632.0,8.753246947890148e-05
6144.0,4.626012741937302e-05
6656.0,-0.00010490586282685399
7168.0,-0.00040518349851481616
7680.0,1.2731082279060502e-05
8192.0,-0.0003401325084269047
9216.0,-0.00010210838809143752
10240.0,1.2360324035398662e-05
11264.0,-0.00014828743587713689
12288.0,-0.00020342804782558233
13312.0,0.00034090864937752485
14336.0,0.0003414474776946008
end
