version,3.0
numOfCh,1
type,point
parent_name,1000-cuts
ch_type,1_1
kcount,1
numberNandB,1
brightnessNandB,1
carpet pos,0
pc,0
Time (ms),CH1 Auto-Correlation
1.0,0.0281923096626997
2.0,0.0245297122746706
3.0,0.02138623781502247
4.0,0.018799472600221634
5.0,0.016596993431448936
6.0,0.01462627574801445
7.0,0.012981303036212921
8.0,0.011523035354912281
9.0,0.010380652733147144
10.0,0.00937702041119337
11.0,0.008458091877400875
12.0,0.007583379279822111
13.0,0.0069846417754888535
14.0,0.006559872068464756
15.0,0.006110526621341705
16.0,0.005679266061633825
18.0,0.004713614471256733
20.0,0.0037646025884896517
22.0,0.002906783716753125
24.0,0.0022112084552645683
26.0,0.0016696503153070807
28.0,0.0013201418332755566
30.0,0.0011900255922228098
32.0,0.0010502792429178953
36.0,0.0007147512515075505
40.0,0.00035106288851238787
44.0,-0.0002308868570253253
48.0,-0.00022869673557579517
52.0,-0.0002834285260178149
56.0,5.6245451560243964e-05
60.0,0.00048294413136318326
64.0,0.0008405655389651656
72.0,0.0005196199053898454
80.0,0.0005319383344613016
88.0,0.0001994574849959463
96.0,0.000397859257645905
104.0,0.00017653178656473756
112.0,0.000372636248357594
120.0,0.00024271639995276928
128.0,-0.0002257364831166342
144.0,-0.0004583034897223115
160.0,-7.32599146431312e-05
176.0,0.0008038372616283596
192.0,0.00036584623740054667
208.0,0.00033977392013184726
224.0,0.000150652282172814
240.0,4.803442789125256e-05
256.0,0.0004268773482181132
288.0,-9.700269583845511e-05
320.0,-0.0004080315993633121
352.0,-0.0016297759721055627
384.0,-0.00034160452196374536
416.0,0.0004884503432549536
448.0,0.00015313882613554597
480.0,0.0007236938108690083
512.0,0.0013607084983959794
576.0,0.000126563390949741
640.0,-0.0007305687176994979
704.0,5.521634011529386e-05
768.0,-8.500868716510013e-05
832.0,-0.0005722004570998251
896.0,-0.0005250846734270453
960.0,0.00039066842873580754
1024.0,-2.558184860390611e-05
1152.0,-8.555433305446059e-05
1280.0,0.00018378726963419467
1408.0,0.0007740998989902437
1536.0,0.0002596451959107071
1664.0,-0.00029192923102527857
1792.0,-7.46341684134677e-05
1920.0,0.00036088298656977713
2048.0,0.0003092080296482891
2304.0,-0.00049310497706756
2560.0,-0.00032403282239101827
2816.0,-0.00015635059389751405
3072.0,0.00011099510447820649
3328.0,8.871439786162227e-05
3584.0,0.00015210287529043853
3840.0,-0.00044394267024472356
4096.0,-3.8948193832766265e-05
4608.0,-4.934181197313592e-05
5120.0,0.00011504899157444015
5632.0,-0.00010422012564959005
6144.0,8.705177606316283e-05
6656.0,0.00025644231936894357
7168.0,-0.000497683766297996
7680.0,-3.874457979691215e-05
8192.0,-0.0001365596690448001
9216.0,-0.0001578055671416223
10240.0,-5.367586254578782e-06
11264.0,0.00012592213170137256
12288.0,-0.00013766584743279964
13312.0,-0.0001400070177624002
14336.0,-0.00020139770640525967
end
