version,3.0
numOfCh,1
type,point
parent_name,1000-cuts
ch_type,1_1
kcount,1
numberNandB,1
brightnessNandB,1
carpet pos,0
pc,0
Time (ms),CH1 Auto-Correlation
1.0,0.08868123590946198
2.0,0.07718700170516968
3.0,0.06767699867486954
4.0,0.060133833438158035
5.0,0.053442224860191345
6.0,0.047717053443193436
7.0,0.04285033419728279
8.0,0.03866958245635033
9.0,0.034966837614774704
10.0,0.03159281611442566
11.0,0.028438223525881767
12.0,0.025554528459906578
13.0,0.022917162626981735
14.0,0.02034449577331543
15.0,0.018317798152565956
16.0,0.016298843547701836
18.0,0.013403061777353287
20.0,0.011529523879289627
22.0,0.009666183032095432
24.0,0.008600713685154915
26.0,0.00783704873174429
28.0,0.006247369106858969
30.0,0.005007467698305845
32.0,0.0037669315934181213
36.0,0.003176472382619977
40.0,0.0030308791901916265
44.0,0.0027869215700775385
48.0,0.0017392111476510763
52.0,0.0006220105569809675
56.0,0.0009509564843028784
60.0,0.0016820981400087476
64.0,0.0022139393258839846
72.0,0.0018822316778823733
80.0,0.00047833664575591683
88.0,0.0006621759384870529
96.0,-0.001097274711355567
104.0,-0.003390543395653367
112.0,-0.0029188324697315693
120.0,-0.001463595312088728
128.0,-0.002141344826668501
144.0,-0.0016243824502453208
160.0,-0.0016988626448437572
176.0,-0.0009357513044960797
192.0,0.003120232140645385
208.0,0.002601860323920846
224.0,0.0005671926192007959
240.0,0.0021199998445808887
256.0,0.00023527372104581445
288.0,4.286169496481307e-05
320.0,0.0013925068778917193
352.0,0.002742636715993285
384.0,0.0019707060419023037
416.0,0.00019116651674266905
448.0,-0.0031561104115098715
480.0,-3.225695309083676e-06
512.0,0.00062871805857867
576.0,-0.000579601270146668
640.0,0.0015151925617828965
704.0,0.0014668717049062252
768.0,0.0022495167795568705
832.0,-0.0005880736280232668
896.0,-0.0004108729772269726
960.0,-0.0007281553698703647
1024.0,-0.000648279266897589
1152.0,0.00010176450450671837
1280.0,0.0007486484246328473
1408.0,-0.0006026282790116966
1536.0,3.724698763107881e-05
1664.0,-0.001110403216443956
1792.0,-0.003120841458439827
1920.0,0.001084350747987628
2048.0,-0.001981775974854827
2304.0,-0.0008031613542698324
2560.0,-0.0017628609202802181
2816.0,-0.0007862858474254608
3072.0,-0.0008308343822136521
3328.0,-7.028615800663829e-05
3584.0,-0.0013011593837291002
3840.0,-0.0008203116594813764
4096.0,0.0010007325327023864
4608.0,3.9862588891992345e-05
5120.0,0.0008332481374964118
5632.0,0.0001997187064262107
6144.0,-2.0929144739056937e-05
6656.0,0.0013507265830412507
7168.0,-0.000708012783434242
7680.0,0.0007843796629458666
8192.0,0.0002818698703777045
9216.0,-0.0004322477907408029
10240.0,-0.0015275219921022654
11264.0,-0.00034180606598965824
12288.0,0.0016249699983745813
13312.0,0.0005651635583490133
14336.0,-0.0010114904725924134
end
