version,3.0
numOfCh,1
type,point
parent_name,1000-cuts
ch_type,1_1
kcount,1
numberNandB,1
brightnessNandB,1
carpet pos,0
pc,0
Time (ms),CH1 Auto-Correlation
1.0,0.07948856800794601
2.0,0.06855129450559616
3.0,0.05961277708411217
4.0,0.05227895826101303
5.0,0.04608481004834175
6.0,0.040915392339229584
7.0,0.03680367022752762
8.0,0.03306352347135544
9.0,0.029782680794596672
10.0,0.026903942227363586
11.0,0.024222563952207565
12.0,0.02207816392183304
13.0,0.020104579627513885
14.0,0.018632106482982635
15.0,0.01724504679441452
16.0,0.01594817452132702
18.0,0.013163000345230103
20.0,0.011150489561259747
22.0,0.009684975259006023
24.0,0.008013797923922539
26.0,0.006267604883760214
28.0,0.0043960390612483025
30.0,0.003076787805184722
32.0,0.00227548205293715
36.0,0.002090470166876912
40.0,0.0023874319158494473
44.0,0.002720445394515991
48.0,0.003485541557893157
52.0,0.004057752434164286
56.0,0.0024446318857371807
60.0,0.001323859323747456
64.0,0.0011330978013575077
72.0,0.0007895521121099591
80.0,-0.0014061079127714038
88.0,-0.0031136912293732166
96.0,-0.002341852057725191
104.0,-0.0004609589232131839
112.0,-0.00022886242368258536
120.0,-0.00012781520490534604
128.0,0.00050131551688537
144.0,0.0022282840218394995
160.0,0.0022037711460143328
176.0,0.0027687670662999153
192.0,0.0028337014373391867
208.0,0.0004500822687987238
224.0,-0.00200125970877707
240.0,-0.0004578306106850505
256.0,-0.0005699387402273715
288.0,-0.0004948437563143671
320.0,-0.0007472583092749119
352.0,-0.001981775276362896
384.0,-0.0009888351196423173
416.0,0.001335503184236586
448.0,-0.000618991325609386
480.0,-0.0010168023873120546
512.0,-0.0028620127122849226
576.0,0.0005196978454478085
640.0,-0.0003386173921171576
704.0,0.0010032602585852146
768.0,0.00039317389018833637
832.0,-0.00016893071006052196
896.0,0.0008999680285342038
960.0,0.0006053574034012854
1024.0,-0.0002861068060155958
1152.0,0.0012992755509912968
1280.0,-0.000153671731823124
1408.0,-0.0007825604407116771
1536.0,-0.0006543433992192149
1664.0,0.0003667868149932474
1792.0,-0.0008011222234927118
1920.0,-0.0006517453584820032
2048.0,0.0011406915728002787
2304.0,0.0013863821513950825
2560.0,0.0003506666689645499
2816.0,0.00037043949123471975
3072.0,-9.94176443782635e-05
3328.0,-0.0008695316500961781
3584.0,0.00045492820208892226
3840.0,-0.0006936535355634987
4096.0,-0.001285239472053945
4608.0,3.318267044960521e-05
5120.0,-0.00019858680025208741
5632.0,-0.0007291511283256114
6144.0,-0.00016058192704804242
6656.0,0.0004260940186213702
7168.0,-0.0007028778782114387
7680.0,-1.48454219015548e-05
8192.0,0.00046475997078232467
9216.0,-0.0009416288230568171
10240.0,0.0005708453827537596
11264.0,-0.0004935362376272678
12288.0,-0.000960746721830219
13312.0,0.0007191472104750574
14336.0,-0.0007005808874964714
end
