version,3.0
numOfCh,1
type,point
parent_name,1000-cuts
ch_type,1_1
kcount,1
numberNandB,1
brightnessNandB,1
carpet pos,0
pc,0
Time (ms),CH1 Auto-Correlation
1.0,0.02466118149459362
2.0,0.02139327861368656
3.0,0.01871512643992901
4.0,0.016414279118180275
5.0,0.014525032602250576
6.0,0.012879115529358387
7.0,0.011471922509372234
8.0,0.010293693281710148
9.0,0.009133732877671719
10.0,0.008188048377633095
11.0,0.007361722178757191
12.0,0.006562180817127228
13.0,0.005828438326716423
14.0,0.0051744491793215275
15.0,0.004640122409909964
16.0,0.004199337214231491
18.0,0.00329413590952754
20.0,0.0027994175907224417
22.0,0.0024019647389650345
24.0,0.0021831418853253126
26.0,0.0022798029240220785
28.0,0.0024665456730872393
30.0,0.0026398717891424894
32.0,0.0025227759033441544
36.0,0.0018087747739627957
40.0,0.0014740284532308578
44.0,0.001446189358830452
48.0,0.0013614974450320005
52.0,0.0012287403224036098
56.0,0.0009897466516122222
60.0,0.0011455187341198325
64.0,0.0013743054587394
72.0,0.0013550349976867437
80.0,0.0009001202415674925
88.0,0.000575475103687495
96.0,0.00030780371162109077
104.0,-0.00012923195026814938
112.0,-0.0005420915549620986
120.0,-0.0007920247153379023
128.0,-0.0007699643610976636
144.0,-1.910854916786775e-05
160.0,-0.00021396261581685394
176.0,-0.0006064036278985441
192.0,-0.0005546162719838321
208.0,-0.00037069604150019586
224.0,1.9783872630796395e-05
240.0,-0.00014651606034021825
256.0,0.0001890255807666108
288.0,-0.0005404964904300869
320.0,-0.0005826344131492078
352.0,-0.0010971479350700974
384.0,-0.00023177957336883992
416.0,-0.0005759255727753043
448.0,-0.00046562374336645007
480.0,-0.0011256192810833454
512.0,-0.0006340001127682626
576.0,-0.0005757386097684503
640.0,4.9069483793573454e-05
704.0,0.00032032589660957456
768.0,-0.0003627858532126993
832.0,-0.00016687234165146947
896.0,-0.00019252757192589343
960.0,-0.00023998429242055863
1024.0,-0.00038343697087839246
1152.0,-0.00035258455318398774
1280.0,0.0006084447959437966
1408.0,0.0005323286168277264
1536.0,-0.00027776736533269286
1664.0,0.0005676057771779597
1792.0,-0.0008275724248960614
1920.0,0.0005144754541106522
2048.0,-4.694989911513403e-05
2304.0,-0.00037633543252013624
2560.0,-5.4648051445838064e-05
2816.0,0.0005129852797836065
3072.0,-0.000517208653036505
3328.0,-0.00016379325825255364
3584.0,0.0003413191589061171
3840.0,-0.00036385905696079135
4096.0,0.0002843340625986457
4608.0,0.00010807449871208519
5120.0,6.349067007249687e-06
5632.0,0.00019058574980590492
6144.0,-0.00027195611619390547
6656.0,0.00025378665304742754
7168.0,-5.9562615206232294e-05
7680.0,-0.0003039523435290903
8192.0,6.142790516605601e-05
9216.0,1.7848447896540165e-05
10240.0,0.00030709474231116474
11264.0,-0.0002616835408844054
12288.0,-5.896762013435364e-05
13312.0,-0.00028169856523163617
14336.0,1.6293199223582633e-05
end
