version,3.0
numOfCh,1
type,point
parent_name,1000-cuts
ch_type,1_1
kcount,1
numberNandB,1
brightnessNandB,1
carpet pos,0
pc,0
Time (ms),CH1 Auto-Correlation
1.0,0.03863726183772087
2.0,0.03347659111022949
3.0,0.029119091108441353
4.0,0.025523722171783447
5.0,0.02230924926698208
6.0,0.019628023728728294
7.0,0.01734878122806549
8.0,0.015184951946139336
9.0,0.0134319718927145
10.0,0.011935786344110966
11.0,0.010668803006410599
12.0,0.009667807258665562
13.0,0.008710470050573349
14.0,0.007806738838553429
15.0,0.006896259728819132
16.0,0.005955793429166079
18.0,0.004705817438662052
20.0,0.0038278319407254457
22.0,0.0032650534994900227
24.0,0.0026642868760973215
26.0,0.0021730202715843916
28.0,0.0017548204632475972
30.0,0.0012782082194462419
32.0,0.0007201802218332887
36.0,6.428577762562782e-05
40.0,0.0005087336176075041
44.0,0.0005391446175053716
48.0,0.00036314676981419325
52.0,0.00035376354935579
56.0,0.0006852273363620043
60.0,0.000907530018594116
64.0,0.0011737837921828032
72.0,0.00043713426566682756
80.0,-0.0003109449171461165
88.0,-2.637891157064587e-05
96.0,0.0002845916897058487
104.0,0.0007691537030041218
112.0,0.0005893820780329406
120.0,0.0010212045162916183
128.0,0.0006194990128278732
144.0,-0.000593237578868866
160.0,-0.0005696533480659127
176.0,-0.0006557757733389735
192.0,0.00010413968266220763
208.0,3.2693402317818254e-05
224.0,0.0007458098116330802
240.0,0.0019507427932694554
256.0,0.00040597381303086877
288.0,-0.0006834775558672845
320.0,7.95689265942201e-05
352.0,0.0009164852672256529
384.0,0.0006857340922579169
416.0,0.0008792486623860896
448.0,-0.0011661084135994315
480.0,-0.0014299077447503805
512.0,-0.00022985356918070465
576.0,0.0004158408846706152
640.0,-1.3400691386777908e-05
704.0,0.000262207118794322
768.0,5.210727613302879e-05
832.0,0.00015443249139934778
896.0,0.0011290904367342591
960.0,0.0003695438790600747
1024.0,-0.0006821632850915194
1152.0,-0.0005080138216726482
1280.0,0.00014096182712819427
1408.0,-0.0006278725923039019
1536.0,-0.0005452245241031051
1664.0,4.9062753532780334e-05
1792.0,-0.00045663854689337313
1920.0,-7.769211515551433e-05
2048.0,-0.0006932332180440426
2304.0,-0.0004054754099342972
2560.0,-0.0004708034102804959
2816.0,-0.0002159477153327316
3072.0,0.000563092646189034
3328.0,-0.0002784735115710646
3584.0,0.00019245207658968866
3840.0,0.0007063733646646142
4096.0,-0.0007607493316754699
4608.0,0.0003481491294223815
5120.0,-0.0003339505346957594
5632.0,-0.0005216748104430735
6144.0,0.00020651904924307019
6656.0,0.0004662157443817705
7168.0,-5.8110992540605366e-05
7680.0,6.235281762201339e-05
8192.0,0.00021730340085923672
9216.0,-5.331972351996228e-05
10240.0,0.0003977466549258679
11264.0,8.285028161481023e-05
12288.0,-0.0007882071658968925
13312.0,0.00017902419494930655
14336.0,0.0005709374090656638
end
