version,3.0
numOfCh,1
type,point
parent_name,1000-cuts
ch_type,1_1
kcount,1
numberNandB,1
brightnessNandB,1
carpet pos,0
pc,0
Time (ms),CH1 Auto-Correlation
1.0,0.025778306648135185
2.0,0.022277668118476868
3.0,0.019332628697156906
4.0,0.016857504844665527
5.0,0.014683988876640797
6.0,0.012754729948937893
7.0,0.011109409853816032
8.0,0.009652707725763321
9.0,0.008411619812250137
10.0,0.007482935208827257
11.0,0.006604881025850773
12.0,0.005855097901076078
13.0,0.005137414671480656
14.0,0.0044141365215182304
15.0,0.0038026333786547184
16.0,0.0032361289486289024
18.0,0.0021797223016619682
20.0,0.001469072187319398
22.0,0.0008309316472150385
24.0,0.0004429708351381123
26.0,0.0003382099384907633
28.0,0.00021235126769170165
30.0,0.000257616164162755
32.0,0.00046288524754345417
36.0,0.0010087297996506095
40.0,0.0012008316116407514
44.0,0.0009379407856613398
48.0,0.000747558893635869
52.0,0.0006273584440350533
56.0,0.00038864699308760464
60.0,0.0002813911996781826
64.0,0.0001621932751731947
72.0,3.7574350244540256e-06
80.0,-0.00042654445860534906
88.0,-0.0007669471087865531
96.0,-0.00022771007206756622
104.0,0.0010256455279886723
112.0,0.0010741890873759985
120.0,0.0002067267632810399
128.0,0.0004416878509800881
144.0,2.6881125450017862e-05
160.0,-0.0005512006464414299
176.0,-0.001082558068446815
192.0,-0.0006060036248527467
208.0,0.00046047198702581227
224.0,0.00013911443238612264
240.0,0.00017018188373185694
256.0,9.281082020606846e-05
288.0,0.00010058481711894274
320.0,0.00027429815963841975
352.0,0.0002255939325550571
384.0,-0.00018137699225917459
416.0,-0.0001956182677531615
448.0,-0.00017581600695848465
480.0,2.9805822123307735e-05
512.0,0.0006497050635516644
576.0,-2.5954470402211882e-05
640.0,0.00011065605940530077
704.0,6.718246731907129e-05
768.0,-0.000366354885045439
832.0,0.0005589820793829858
896.0,-3.7700545362895355e-05
960.0,0.00033334249746985734
1024.0,-0.0006038267747499049
1152.0,4.865895607508719e-05
1280.0,0.00017872425087261945
1408.0,-0.0001353128463961184
1536.0,0.00015271450683940202
1664.0,0.00012544018682092428
1792.0,-0.00021266094699967653
1920.0,-0.00011968749458901584
2048.0,8.964534208644181e-05
2304.0,-0.00020613742526620626
2560.0,-0.0002776556939352304
2816.0,7.404886855510995e-05
3072.0,-1.2411040188453626e-05
3328.0,-0.0002493164502084255
3584.0,0.00022660987451672554
3840.0,-0.0004733609384857118
4096.0,6.0766768001485616e-05
4608.0,0.00023565682931803167
5120.0,-0.00013142605894245207
5632.0,0.00022726913448423147
6144.0,-3.247174754505977e-05
6656.0,3.555851662895293e-06
7168.0,-0.00020089189638383687
7680.0,-0.00012257404159754515
8192.0,-0.00027631563716568053
9216.0,-8.832659659674391e-05
10240.0,-0.00013441876217257231
11264.0,0.000139687312184833
12288.0,0.00017017933714669198
13312.0,-3.681841553770937e-05
14336.0,7.189999450929463e-05
end
