version,3.0
numOfCh,1
type,point
parent_name,1000-cuts
ch_type,1_1
kcount,1
numberNandB,1
brightnessNandB,1
carpet pos,0
pc,0
Time (ms),CH1 Auto-Correlation
1.0,0.09017971903085709
2.0,0.07960288971662521
3.0,0.0705341249704361
4.0,0.06245952472090721
5.0,0.05570383369922638
6.0,0.049640633165836334
7.0,0.04455489292740822
8.0,0.040146224200725555
9.0,0.03661665692925453
10.0,0.033400144428014755
11.0,0.030474431812763214
12.0,0.027720576152205467
13.0,0.025232894346117973
14.0,0.023197583854198456
15.0,0.021125096827745438
16.0,0.019323229789733887
18.0,0.016454031690955162
20.0,0.014705883339047432
22.0,0.013401621952652931
24.0,0.011698747053742409
26.0,0.009632623754441738
28.0,0.008442346937954426
30.0,0.007117368746548891
32.0,0.00663816649466753
36.0,0.0051752859726548195
40.0,0.003507769899442792
44.0,0.0011697255540639162
48.0,0.0001389711251249537
52.0,-0.00011145747703267261
56.0,-0.00012497577699832618
60.0,0.000951958994846791
64.0,0.0012806890299543738
72.0,0.002834148006513715
80.0,0.002132407622411847
88.0,0.0006629343843087554
96.0,-7.06133505445905e-05
104.0,-9.968636732082814e-05
112.0,0.0004999855300411582
120.0,0.00019454272114671767
128.0,0.0005128078628331423
144.0,0.00010721587750595063
160.0,-0.000739028793759644
176.0,0.0012464320752769709
192.0,3.974722130806185e-05
208.0,-0.0020352296996861696
224.0,-0.0037916891742497683
240.0,-0.005432278849184513
256.0,-0.0026870027650147676
288.0,-0.0013459932524710894
320.0,0.000978019554167986
352.0,0.0004819948226213455
384.0,0.0013104312820360065
416.0,0.0013252360513433814
448.0,-0.0016845079371705651
480.0,0.0019934235606342554
512.0,-0.0003458208520896733
576.0,0.0032812056597322226
640.0,5.995841638650745e-05
704.0,-0.0006714652408845723
768.0,-0.0006244577234610915
832.0,0.00010751777881523594
896.0,9.532067633699626e-05
960.0,0.002202104777097702
1024.0,-0.001686052419245243
1152.0,0.00132179690990597
1280.0,-0.0020958716049790382
1408.0,-0.000858193845488131
1536.0,0.0003230368020012975
1664.0,0.001258780132047832
1792.0,0.000986826722510159
1920.0,-0.0005077133537270129
2048.0,-4.7859510232228786e-05
2304.0,0.0008323172805830836
2560.0,0.0009652337757870555
2816.0,-0.0020912594627588987
3072.0,0.00010551014565862715
3328.0,0.00010516940528759733
3584.0,-0.0004769533406943083
3840.0,-0.0017973380163311958
4096.0,0.000347870314726606
4608.0,0.0001072871164069511
5120.0,-5.566082108998671e-05
5632.0,0.0003453511744737625
6144.0,-0.0007583826663903892
6656.0,0.00026293584960512817
7168.0,-0.000465975928818807
7680.0,0.0006009641219861805
8192.0,-0.0002794667088892311
9216.0,-0.0009003226296044886
10240.0,0.000548559648450464
11264.0,-0.0005722438218072057
12288.0,0.0005104112206026912
13312.0,-0.0006498771253973246
14336.0,0.0003571523411665112
end
