version,3.0
numOfCh,1
type,point
parent_name,1000-cuts
ch_type,1_1
kcount,1
numberNandB,1
brightnessNandB,1
carpet pos,0
pc,0
Time (ms),CH1 Auto-Correlation
1.0,0.040804654359817505
2.0,0.035180214792490005
3.0,0.030431684106588364
4.0,0.02639884687960148
5.0,0.022967228665947914
6.0,0.020037390291690826
7.0,0.01758265309035778
8.0,0.015242641791701317
9.0,0.013237826526165009
10.0,0.011596319265663624
11.0,0.010346825234591961
12.0,0.009270640090107918
13.0,0.00824561808258295
14.0,0.007448592688888311
15.0,0.006830397993326187
16.0,0.006141101475805044
18.0,0.005089018493890762
20.0,0.003859997959807515
22.0,0.002757445676252246
24.0,0.0018390256445854902
26.0,0.0010948613053187728
28.0,0.0006293299957178533
30.0,0.00023522543779108673
32.0,-6.7398592364043e-05
36.0,-0.0004378367739263922
40.0,-0.00038413007860071957
44.0,-4.068746056873351e-05
48.0,-9.342533303424716e-05
52.0,0.00014851328160148114
56.0,0.000328750436892733
60.0,-0.00022309111955109984
64.0,-0.0005984320305287838
72.0,0.0006297238287515938
80.0,0.0008445198182016611
88.0,0.0013199914246797562
96.0,0.0018658250337466598
104.0,0.0007920741336420178
112.0,0.0002597970305941999
120.0,-0.00062914052978158
128.0,-0.0002556347462814301
144.0,5.130784120410681e-05
160.0,-0.0007352565880864859
176.0,-0.0012782951816916466
192.0,-0.000854969781357795
208.0,-0.0006586044328287244
224.0,-2.407248211966362e-05
240.0,-0.000988741870969534
256.0,0.00028074905276298523
288.0,-0.00024819752434268594
320.0,0.00023917735961731523
352.0,-0.00041443906957283616
384.0,0.0003661401569843292
416.0,0.0006297217332758009
448.0,-0.0010936605976894498
480.0,-5.40221190021839e-05
512.0,-0.0007797542493790388
576.0,-0.00023918422812130302
640.0,-0.00012053783575538546
704.0,-0.000407546351198107
768.0,0.00028299452969804406
832.0,0.00014283166092354804
896.0,-0.0003462531603872776
960.0,0.00039354045293293893
1024.0,-4.299276497476967e-06
1152.0,-0.00031516459421254694
1280.0,-0.000900531536899507
1408.0,0.00011395919136703014
1536.0,-0.0001973374601220712
1664.0,0.0002415921917418018
1792.0,-6.490326632047072e-05
1920.0,0.0008183547179214656
2048.0,-0.00012404577864799649
2304.0,2.811705599015113e-05
2560.0,-0.000352099712472409
2816.0,0.0002202633477281779
3072.0,-0.00037713261554017663
3328.0,-0.00011023982369806617
3584.0,0.000492702005431056
3840.0,-1.4169714631862007e-05
4096.0,0.00014622900926042348
4608.0,-0.00027254922315478325
5120.0,-0.0004714332753792405
5632.0,0.0004582065448630601
6144.0,-2.5350116629851982e-05
6656.0,4.237842949805781e-05
7168.0,-0.0006060285377316177
7680.0,0.00018769402231555432
8192.0,0.00011182965681655332
9216.0,-0.0003281812241766602
10240.0,0.00027926688198931515
11264.0,-0.00028978861519135535
12288.0,0.0003407234908081591
13312.0,-3.139901309623383e-05
14336.0,-0.0001499155769124627
end
