version,3.0
numOfCh,1
type,point
parent_name,1000-cuts
ch_type,1_1
kcount,1
numberNandB,1
brightnessNandB,1
carpet pos,0
pc,0
Time (ms),CH1 Auto-Correlation
1.0,0.044611744582653046
2.0,0.03901691734790802
3.0,0.03427829593420029
4.0,0.03032417595386505
5.0,0.026901019737124443
6.0,0.023901237174868584
7.0,0.02134665846824646
8.0,0.019148942083120346
9.0,0.01719193160533905
10.0,0.015320833772420883
11.0,0.013600736856460571
12.0,0.012216951698064804
13.0,0.010930679738521576
14.0,0.009717414155602455
15.0,0.00885257963091135
16.0,0.008099799044430256
18.0,0.00683118961751461
20.0,0.005427861120551825
22.0,0.004506966099143028
24.0,0.0038851716089993715
26.0,0.003508311463519931
28.0,0.0030320927035063505
30.0,0.0025506867095828056
32.0,0.0022744101006537676
36.0,0.0021733297035098076
40.0,0.0012224571546539664
44.0,0.00038515764754265547
48.0,0.00024276651674881577
52.0,0.00017733803542796522
56.0,0.00023848724958952516
60.0,0.0009746943833306432
64.0,0.0019790525548160076
72.0,0.0019418321317061782
80.0,0.0013486376265063882
88.0,0.0013166271382942796
96.0,0.00180365692358464
104.0,0.0018236826872453094
112.0,0.0015437196707352996
120.0,0.001196977449581027
128.0,0.000831546145491302
144.0,-1.2631701792997774e-05
160.0,-0.0015637642936781049
176.0,-0.0007991142338141799
192.0,0.00035924153053201735
208.0,-0.0009828924667090178
224.0,-0.0022003347985446453
240.0,-0.001806177431717515
256.0,-0.0014947440940886736
288.0,-0.0010322994785383344
320.0,-0.0010972708696499467
352.0,-0.001131488592363894
384.0,-0.000281194515991956
416.0,-0.00025776581605896354
448.0,0.00013289610797073692
480.0,0.0012720567174255848
512.0,0.000900612969417125
576.0,-0.000865642330609262
640.0,-0.0003003134625032544
704.0,-0.0008429466397501528
768.0,-0.0006456651026383042
832.0,0.00031836453126743436
896.0,-0.0008292352431453764
960.0,-0.0002620171580929309
1024.0,-0.0003753508790396154
1152.0,6.507817306555808e-05
1280.0,-0.0005186439957469702
1408.0,-0.0007036761962808669
1536.0,0.0007428409298881888
1664.0,0.0006014203536324203
1792.0,-0.001186345238238573
1920.0,0.001217345241457224
2048.0,0.0009246279951184988
2304.0,-0.0012474487302824855
2560.0,4.235515734762885e-05
2816.0,-0.0008391498704440892
3072.0,0.000262215529801324
3328.0,-0.0003736290382221341
3584.0,0.0011031790636479855
3840.0,-0.0004090523289050907
4096.0,0.00036290977732278407
4608.0,0.00025551239377819
5120.0,0.00030618178425356746
5632.0,-0.0004130098095629364
6144.0,-0.0004330751544330269
6656.0,0.0002054847136605531
7168.0,-1.1970082596235443e-05
7680.0,-0.0002517595421522856
8192.0,0.0002442641125526279
9216.0,7.969894795678556e-05
10240.0,-7.536443445133045e-05
11264.0,4.6487271902151406e-05
12288.0,-0.00011468087177490816
13312.0,-1.8140750398742966e-05
14336.0,-5.380520087783225e-05
end
