version,3.0
numOfCh,1
type,point
parent_name,1000-cuts
ch_type,1_1
kcount,1
numberNandB,1
brightnessNandB,1
carpet pos,0
pc,0
Time (ms),CH1 Auto-Correlation
1.0,0.09211617708206177
2.0,0.08089276403188705
3.0,0.07160444557666779
4.0,0.06376494467258453
5.0,0.05727561190724373
6.0,0.051352646201848984
7.0,0.04621699079871178
8.0,0.04197767749428749
9.0,0.03801979869604111
10.0,0.03479703515768051
11.0,0.031671106815338135
12.0,0.0290116835385561
13.0,0.02653452567756176
14.0,0.02411370910704136
15.0,0.0218619666993618
16.0,0.020202962681651115
18.0,0.016927625983953476
20.0,0.013916626572608948
22.0,0.01149079017341137
24.0,0.009871176443994045
26.0,0.0077866134233772755
28.0,0.0057420628145337105
30.0,0.005162039306014776
32.0,0.004234387073665857
36.0,0.00299218506552279
40.0,0.0013477990869432688
44.0,-0.0007431856356561184
48.0,-0.0010377716971561313
52.0,-7.324132457142696e-05
56.0,-0.0001261642319150269
60.0,-0.0003942556504625827
64.0,4.714682654594071e-05
72.0,0.0008826929843053222
80.0,0.0005911787156946957
88.0,-0.0009782053530216217
96.0,-0.00254980381578207
104.0,-0.004753416869789362
112.0,-0.0041929734870791435
120.0,-0.0032756654545664787
128.0,-0.002732402877882123
144.0,-0.00415221881121397
160.0,-0.003546494757756591
176.0,-0.0018916834378615022
192.0,0.00023570140183437616
208.0,0.003422716399654746
224.0,0.002682441147044301
240.0,0.0018421666463837028
256.0,0.002334215911105275
288.0,0.0018388669705018401
320.0,-0.0002076285018119961
352.0,-0.001736052567139268
384.0,-0.0025604821275919676
416.0,-0.0037287347950041294
448.0,-0.0009380539413541555
480.0,0.0005621998570859432
512.0,0.002045590663328767
576.0,0.000826219329610467
640.0,-0.000525154173374176
704.0,8.6456180724781e-05
768.0,0.0031299784313887358
832.0,-0.00019623807747848332
896.0,0.00033302014344371855
960.0,0.0001682917500147596
1024.0,-0.0004757565329782665
1152.0,-0.001382986782118678
1280.0,0.0006650914438068867
1408.0,-0.0003791422350332141
1536.0,-0.0008444873383268714
1664.0,-0.0020053170155733824
1792.0,0.0009288609144277871
1920.0,-0.001137529849074781
2048.0,0.0009112872648984194
2304.0,-0.0006892428500577807
2560.0,0.00034678762312978506
2816.0,0.00022654088388662785
3072.0,-0.001144782523624599
3328.0,0.0005961111164651811
3584.0,0.0008370046853087842
3840.0,0.00031644717091694474
4096.0,0.0012328904122114182
4608.0,-0.0003720686654560268
5120.0,-0.0007636028458364308
5632.0,-0.00014020541857462376
6144.0,-0.00016414532728958875
6656.0,-0.0004266011237632483
7168.0,-0.0005307533429004252
7680.0,0.0007792471442371607
8192.0,-0.0009279261576011777
9216.0,-0.0002940442936960608
10240.0,-0.0002592219098005444
11264.0,-0.000727277307305485
12288.0,0.0006550074904225767
13312.0,0.00017677519645076245
14336.0,0.00040220783557742834
end
