version,3.0
numOfCh,1
type,point
parent_name,1000-cuts
ch_type,1_1
kcount,1
numberNandB,1
brightnessNandB,1
carpet pos,0
pc,0
Time (ms),CH1 Auto-Correlation
1.0,0.039844971150159836
2.0,0.03432301804423332
3.0,0.029766395688056946
4.0,0.026132527738809586
5.0,0.023063702508807182
6.0,0.02035357989370823
7.0,0.017833620309829712
8.0,0.01565350592136383
9.0,0.013925072737038136
10.0,0.012500056996941566
11.0,0.011196129955351353
12.0,0.010192771442234516
13.0,0.009248200803995132
14.0,0.008319112472236156
15.0,0.0076113310642540455
16.0,0.006945019122213125
18.0,0.005880050361156464
20.0,0.004662980325520039
22.0,0.0039054120425134897
24.0,0.0034073858987540007
26.0,0.0031346301548182964
28.0,0.0030492779333144426
30.0,0.0032404735684394836
32.0,0.0032158643007278442
36.0,0.00253647961653769
40.0,0.0017949915491044521
44.0,0.0012340846005827188
48.0,0.0006869867793284357
52.0,0.0010752376401796937
56.0,0.0014134282246232033
60.0,0.0016050718259066343
64.0,0.000860544212628156
72.0,0.0001869449479272589
80.0,-7.808177906554192e-05
88.0,-8.696847544342745e-06
96.0,-0.00017129075422417372
104.0,-0.0004776220303028822
112.0,9.73714804786141e-07
120.0,-0.0007378588779829443
128.0,-0.001457669772207737
144.0,-0.00015136679576244205
160.0,-0.0010629675816744566
176.0,-0.00012084487389074638
192.0,0.001214011455886066
208.0,0.0008198409923352301
224.0,0.0005704637733288109
240.0,-0.0008732216665521264
256.0,-0.0013113552704453468
288.0,-0.00047495932085439563
320.0,-0.0018771846080198884
352.0,-0.000945540436077863
384.0,0.0002760629286058247
416.0,-0.0004703700833488256
448.0,-0.0005483734421432018
480.0,-0.001827683299779892
512.0,-0.0012455167016014457
576.0,-0.0005331048159860075
640.0,0.0001036983376252465
704.0,-8.438286022283137e-05
768.0,-4.69235674245283e-05
832.0,0.0009380949777550995
896.0,0.0009415823151357472
960.0,0.00047531528980471194
1024.0,-0.0004493389860726893
1152.0,-0.0007850704132579267
1280.0,-7.24892015568912e-06
1408.0,0.0004123422841075808
1536.0,6.719394150422886e-05
1664.0,0.0004782800388056785
1792.0,-0.00023095568758435547
1920.0,0.00019320446881465614
2048.0,-0.0004794012929778546
2304.0,0.00022428568627219647
2560.0,-0.0009742683614604175
2816.0,0.0006825231248512864
3072.0,-0.00031247534207068384
3328.0,-4.997178621124476e-05
3584.0,0.0006412651855498552
3840.0,4.6409928472712636e-05
4096.0,-0.0009708595462143421
4608.0,6.005528848618269e-05
5120.0,0.00022888746752869338
5632.0,-0.00011121755960630253
6144.0,-0.0002824468829203397
6656.0,0.00024173551355488598
7168.0,0.00012663491361308843
7680.0,-0.0007892338326200843
8192.0,1.9331468138261698e-05
9216.0,-0.000175662396941334
10240.0,0.00012588515528477728
11264.0,-0.00016269633488263935
12288.0,-0.0001487934496253729
13312.0,-4.541949965641834e-05
14336.0,-5.984530071145855e-05
end
