version,3.0
numOfCh,1
type,point
parent_name,1000-cuts
ch_type,1_1
kcount,1
numberNandB,1
brightnessNandB,1
carpet pos,0
pc,0
Time (ms),CH1 Auto-Correlation
1.0,0.0846436396241188
2.0,0.07358359545469284
3.0,0.0639948844909668
4.0,0.055868636816740036
5.0,0.048924051225185394
6.0,0.0430087149143219
7.0,0.03789955750107765
8.0,0.033719271421432495
9.0,0.03016902692615986
10.0,0.0270535908639431
11.0,0.024207675829529762
12.0,0.0214212816208601
13.0,0.018900414928793907
14.0,0.01691571995615959
15.0,0.01499585248529911
16.0,0.013323774561285973
18.0,0.010732545517385006
20.0,0.008373812772333622
22.0,0.006648413836956024
24.0,0.005756229627877474
26.0,0.005154312122613192
28.0,0.004503631964325905
30.0,0.004359852056950331
32.0,0.0039347573183476925
36.0,0.002762376796454191
40.0,0.0021886290051043034
44.0,0.0019487988902255893
48.0,0.001914486289024353
52.0,0.0010888008400797844
56.0,0.00028282703715376556
60.0,3.263942926423624e-05
64.0,0.0005465217982418835
72.0,0.0011478555388748646
80.0,-0.001070818630978465
88.0,-0.0030548747163265944
96.0,-0.0017479840898886323
104.0,-0.0008351609576493502
112.0,-0.0006644793320447206
120.0,-0.0013591963797807693
128.0,-0.002035088138654828
144.0,-0.0022907513193786144
160.0,0.0005890735192224383
176.0,-0.000333070958731696
192.0,-0.0008432479808107018
208.0,0.0014777706237509847
224.0,0.00212467391975224
240.0,6.782417767681181e-05
256.0,0.00020935341308359057
288.0,-0.0017334509175270796
320.0,-0.0032468412537127733
352.0,-0.0007337933056987822
384.0,0.0003544821229297668
416.0,0.0006306007271632552
448.0,0.001595643232576549
480.0,-0.00025281665148213506
512.0,-4.778341462952085e-06
576.0,0.00179641495924443
640.0,0.0008734492585062981
704.0,0.0014183924067765474
768.0,0.00033148558577522635
832.0,-0.0009144743671640754
896.0,-4.1442614019615576e-05
960.0,0.001972745405510068
1024.0,-0.0006546017248183489
1152.0,-0.0008078667451627553
1280.0,-0.00031735762604512274
1408.0,-0.0004677659017033875
1536.0,0.00010592240141704679
1664.0,-0.0003734725760295987
1792.0,-0.0003714747726917267
1920.0,-0.00017292670963797718
2048.0,-0.0001792437833501026
2304.0,-0.0005397861823439598
2560.0,-0.0004973970935679972
2816.0,-0.0003673707542475313
3072.0,2.1782503608847037e-05
3328.0,-0.0012007267214357853
3584.0,-0.0013688828330487013
3840.0,0.00019856584549415857
4096.0,0.00018728888244368136
4608.0,0.0006124727660790086
5120.0,0.0005298226024024189
5632.0,0.0005797010380774736
6144.0,-0.00021283849491737783
6656.0,-0.00039344525430351496
7168.0,-5.861747013113927e-06
7680.0,-0.0008854455081745982
8192.0,-0.0009432416991330683
9216.0,0.0003564789367374033
10240.0,0.0005069534527137876
11264.0,-5.103964213049039e-05
12288.0,-0.002378840232267976
13312.0,-0.0006289068260230124
14336.0,0.0016103044617921114
end
