version,3.0
numOfCh,1
type,point
parent_name,1000-cuts
ch_type,1_1
kcount,1
numberNandB,1
brightnessNandB,1
carpet pos,0
pc,0
Time (ms),CH1 Auto-Correlation
1.0,0.037638965994119644
2.0,0.0324636846780777
3.0,0.0280743595212698
4.0,0.024401593953371048
5.0,0.021367225795984268
6.0,0.018787067383527756
7.0,0.016554556787014008
8.0,0.0146039929240942
9.0,0.013029396533966064
10.0,0.011681562289595604
11.0,0.010426980443298817
12.0,0.009388286620378494
13.0,0.008614515885710716
14.0,0.00787329114973545
15.0,0.007235017139464617
16.0,0.006636983249336481
18.0,0.005626497324556112
20.0,0.004796722903847694
22.0,0.004238343331962824
24.0,0.0034972114954143763
26.0,0.0024924026802182198
28.0,0.0016445561777800322
30.0,0.001367960125207901
32.0,0.001018514740280807
36.0,0.00045741311623714864
40.0,0.0007360712625086308
44.0,0.0012297569774091244
48.0,0.0009020964498631656
52.0,0.0007937545306049287
56.0,0.0010054766898974776
60.0,0.000945514882914722
64.0,3.62497303285636e-05
72.0,7.135864871088415e-05
80.0,0.0005185534828342497
88.0,-0.0004995046183466911
96.0,-0.0013888359535485506
104.0,-0.0006329448660835624
112.0,-7.664853910682723e-05
120.0,-0.00020538148237392306
128.0,-0.00040508731035515666
144.0,-0.0006841639406047761
160.0,0.0005419225781224668
176.0,0.0008502852288074791
192.0,-0.00026674772379919887
208.0,-0.000635734701063484
224.0,-0.0004297487030271441
240.0,-0.0009232969605363905
256.0,-0.0010604998096823692
288.0,-0.0010650785407051444
320.0,-0.0008014549384824932
352.0,-5.856059942743741e-05
384.0,0.0003943136252928525
416.0,-0.0004269631172064692
448.0,0.00022611311578657478
480.0,0.0002248158270958811
512.0,0.00024587815278209746
576.0,0.000847014132887125
640.0,-0.001236668904311955
704.0,-0.0002224262134404853
768.0,0.000544251233804971
832.0,6.533438136102632e-05
896.0,-8.042499393923208e-05
960.0,0.0008510652114637196
1024.0,0.0005659967428073287
1152.0,-7.273429218912497e-05
1280.0,-0.0005392833845689893
1408.0,-0.0006102104089222848
1536.0,-0.00017159480194095522
1664.0,0.0002361320803174749
1792.0,0.00014484458370134234
1920.0,0.0003889056097250432
2048.0,0.00035912939347326756
2304.0,-0.0008683415362611413
2560.0,0.00027752286405302584
2816.0,-0.00039234303403645754
3072.0,0.00012853933731094003
3328.0,-0.0007336386479437351
3584.0,3.260400262661278e-05
3840.0,-0.0003973207494709641
4096.0,-2.3110196707420982e-05
4608.0,0.00010510990250622854
5120.0,7.554623152827844e-05
5632.0,-0.0001034169108606875
6144.0,-0.00020937866065651178
6656.0,3.853061207337305e-05
7168.0,0.00021647760877385736
7680.0,-1.0755044968391303e-05
8192.0,-0.0002051066403510049
9216.0,6.854073581052944e-05
10240.0,5.1304023145348765e-06
11264.0,0.0002906637964770198
12288.0,0.00032627605833113194
13312.0,-0.00015678377531003207
14336.0,-0.0006736163632012904
end
