version,3.0
numOfCh,1
type,point
parent_name,1000-cuts
ch_type,1_1
kcount,1
numberNandB,1
brightnessNandB,1
carpet pos,0
pc,0
Time (ms),CH1 Auto-Correlation
1.0,0.03904617577791214
2.0,0.03416634351015091
3.0,0.030080333352088928
4.0,0.02667471207678318
5.0,0.02380998246371746
6.0,0.02135211043059826
7.0,0.01919030211865902
8.0,0.017315911129117012
9.0,0.01558998879045248
10.0,0.013955488801002502
11.0,0.012508682906627655
12.0,0.011190873570740223
13.0,0.00996934063732624
14.0,0.008984793908894062
15.0,0.008073731325566769
16.0,0.007183446548879147
18.0,0.005907315760850906
20.0,0.004711713641881943
22.0,0.003798592137172818
24.0,0.0027958836872130632
26.0,0.0019942387007176876
28.0,0.0015910088550299406
30.0,0.0015057773562148213
32.0,0.0013070773566141725
36.0,0.0007304101600311697
40.0,0.0005414293264038861
44.0,0.0005794914322905242
48.0,0.0007116874912753701
52.0,0.0011632124660536647
56.0,0.0011927895247936249
60.0,0.0008340786444023252
64.0,0.0008492721244692802
72.0,0.00029968511080369353
80.0,-0.00028698850655928254
88.0,-0.0009172811987809837
96.0,-0.0007017113966867328
104.0,-0.0008430072339251637
112.0,-0.0007700220448896289
120.0,-0.0003187752445228398
128.0,5.593523746938445e-05
144.0,0.0004473024164326489
160.0,0.000603998894803226
176.0,0.0010639559477567673
192.0,-0.0003901750023942441
208.0,-0.0006618902552872896
224.0,-0.0007640827097930014
240.0,-0.001423542038537562
256.0,-0.0002368551940890029
288.0,0.0019433624111115932
320.0,0.0014163649175316095
352.0,0.0011273332638666034
384.0,0.00010688236216083169
416.0,8.124237865558825e-06
448.0,0.00017498747911304235
480.0,-0.0006239953800104558
512.0,-0.0001324035256402567
576.0,-0.0004289214557502419
640.0,0.0007808891823515296
704.0,0.0007686481112614274
768.0,-0.0003855548857245594
832.0,-0.0006152400746941566
896.0,0.0006005360628478229
960.0,0.0010601617395877838
1024.0,0.0014785767998546362
1152.0,-5.1904240535805e-05
1280.0,0.0008008631994016469
1408.0,2.2911357518751174e-05
1536.0,0.0004141888639423996
1664.0,0.0003699699300341308
1792.0,-0.0002535254170652479
1920.0,0.0007521604420617223
2048.0,0.00016869626415427774
2304.0,0.0007228594040498137
2560.0,8.236373105319217e-05
2816.0,-1.606994374014903e-05
3072.0,0.00021032453514635563
3328.0,6.052122625987977e-05
3584.0,0.00023156875977292657
3840.0,-0.00027950480580329895
4096.0,0.0003199951024726033
4608.0,4.1673756641102955e-05
5120.0,-0.0005244020721875131
5632.0,-0.00021956569980829954
6144.0,-0.0003668076533358544
6656.0,-0.0005486796726472676
7168.0,-0.0006120895850472152
7680.0,-0.0008836752385832369
8192.0,-0.0005641799652948976
9216.0,-0.00012572754349093884
10240.0,-0.00038604403380304575
11264.0,0.00019047597015742213
12288.0,-0.00045950591447763145
13312.0,2.435826900182292e-05
14336.0,0.0009811739437282085
end
