version,3.0
numOfCh,1
type,point
parent_name,1000-cuts
ch_type,1_1
kcount,1
numberNandB,1
brightnessNandB,1
carpet pos,0
pc,0
Time (ms),CH1 Auto-Correlation
1.0,0.0791611596941948
2.0,0.06809550523757935
3.0,0.058929428458213806
4.0,0.05123439431190491
5.0,0.04458722472190857
6.0,0.03912089392542839
7.0,0.03404008597135544
8.0,0.029780635610222816
9.0,0.026508094742894173
10.0,0.02353425696492195
11.0,0.021245039999485016
12.0,0.019008126109838486
13.0,0.017044510692358017
14.0,0.015461372211575508
15.0,0.014302385970950127
16.0,0.01343690138310194
18.0,0.011917843483388424
20.0,0.009984569624066353
22.0,0.008251337334513664
24.0,0.007218041457235813
26.0,0.006601800210773945
28.0,0.0057060387916862965
30.0,0.004730581305921078
32.0,0.0038852542638778687
36.0,0.002796853892505169
40.0,0.0013566537527367473
44.0,0.0008442515390925109
48.0,-0.0008219525334425271
52.0,-0.002113538794219494
56.0,-0.0014459096128121018
60.0,-0.0003044473996851593
64.0,0.0009656394831836224
72.0,0.0009148069657385349
80.0,0.0007555304910056293
88.0,0.0010916492901742458
96.0,0.0008598778513260186
104.0,-0.0013006736990064383
112.0,-0.002169095678254962
120.0,-0.002497035777196288
128.0,-0.0015884973108768463
144.0,-0.0016432375414296985
160.0,0.001513786963187158
176.0,0.00023108562163542956
192.0,-0.0012583486968651414
208.0,-0.002087712986394763
224.0,-0.0009298569639213383
240.0,-0.0003474283730611205
256.0,0.0004472078289836645
288.0,0.0012306588469073176
320.0,0.0015994897112250328
352.0,-0.0001873707224149257
384.0,-0.0002766263787634671
416.0,-0.0023532744962722063
448.0,-0.0011234342819079757
480.0,0.00066356360912323
512.0,-0.0005274557624943554
576.0,-0.0024571085814386606
640.0,-0.00034265106660313904
704.0,0.0005426809075288475
768.0,0.00011504892609082162
832.0,0.0005831047892570496
896.0,-0.00045812572352588177
960.0,0.0009037837153300643
1024.0,0.0015793301863595843
1152.0,-0.002228685887530446
1280.0,0.0005929223261773586
1408.0,0.0008931227494031191
1536.0,0.0007074868772178888
1664.0,0.001553267240524292
1792.0,-0.001132202916778624
1920.0,-0.0006775939837098122
2048.0,0.0013466428499668837
2304.0,-1.1277018529654015e-05
2560.0,-0.0005922085838392377
2816.0,-0.0006924516055732965
3072.0,-0.0001945911644725129
3328.0,-0.0008254770655184984
3584.0,0.0011391757288947701
3840.0,0.0001486638211645186
4096.0,-0.0012139530153945088
4608.0,-0.0008622208260931075
5120.0,0.00019485337543301284
5632.0,-0.00028090999694541097
6144.0,0.0003367029712535441
6656.0,-0.0006219064816832542
7168.0,0.0004757187271025032
7680.0,0.00043640827061608434
8192.0,-0.0002594848920125514
9216.0,-2.092764225380961e-05
10240.0,-0.0002469739119987935
11264.0,-0.0001751561212586239
12288.0,-0.0001865617377916351
13312.0,-8.25982860988006e-05
14336.0,-3.6737514164997265e-05
end
