version,3.0
numOfCh,1
type,point
parent_name,1000-cuts
ch_type,1_1
kcount,1
numberNandB,1
brightnessNandB,1
carpet pos,0
pc,0
Time (ms),CH1 Auto-Correlation
1.0,0.08195503801107407
2.0,0.07101444900035858
3.0,0.061612147837877274
4.0,0.05372307077050209
5.0,0.046996235847473145
6.0,0.04122919216752052
7.0,0.03636794537305832
8.0,0.03242520987987518
9.0,0.02907499670982361
10.0,0.026273932307958603
11.0,0.024011969566345215
12.0,0.021619807928800583
13.0,0.019330060109496117
14.0,0.01753692887723446
15.0,0.015741266310214996
16.0,0.01397129986435175
18.0,0.011100420728325844
20.0,0.009380224160850048
22.0,0.008467849344015121
24.0,0.007556073367595673
26.0,0.0053666699677705765
28.0,0.003101661568507552
30.0,0.0018732051830738783
32.0,0.0007067093392834067
36.0,0.00025336025282740593
40.0,0.00019156510825268924
44.0,0.00010791529348352924
48.0,-0.0006177331088110805
52.0,-0.0005039122188463807
56.0,-0.0004951134324073792
60.0,0.00016609192243777215
64.0,0.0011012746253982186
72.0,-4.999198063160293e-05
80.0,-0.0010154811898246408
88.0,-0.0009702112292870879
96.0,0.0006105548236519098
104.0,0.0010914432350546122
112.0,0.002745650941506028
120.0,0.0008378468919545412
128.0,-8.989600610220805e-05
144.0,0.001064501702785492
160.0,0.0019464560318738222
176.0,0.00475451722741127
192.0,0.0031525904778391123
208.0,0.0006493834080174565
224.0,0.0008457989897578955
240.0,0.00029630062635987997
256.0,0.0023308221716433764
288.0,0.000541246437933296
320.0,0.00038833945291116834
352.0,0.0028142048977315426
384.0,0.0018843876896426082
416.0,0.0004032455035485327
448.0,0.000799295143224299
480.0,-0.0005686050280928612
512.0,0.0005330247804522514
576.0,0.0023182497825473547
640.0,0.0005019152304157615
704.0,0.0021045843604952097
768.0,-0.0004669054760597646
832.0,-0.00012939250154886395
896.0,0.0011871824972331524
960.0,-0.0010388105874881148
1024.0,0.0003764053981285542
1152.0,0.001559091848321259
1280.0,-6.687662244075909e-05
1408.0,-0.000226781761739403
1536.0,-0.0012321773683652282
1664.0,-0.00029304283089004457
1792.0,-5.141768269822933e-05
1920.0,-0.0004537273198366165
2048.0,-0.001748093287460506
2304.0,-0.0007416097214445472
2560.0,-4.125992563785985e-05
2816.0,-0.0006913659162819386
3072.0,-0.0010608361335471272
3328.0,-0.000608053698670119
3584.0,0.001011241925880313
3840.0,-0.00031532152206636965
4096.0,-0.0012356817023828626
4608.0,0.0003413745143916458
5120.0,0.000667189306113869
5632.0,-0.0001442452339688316
6144.0,0.001207635854370892
6656.0,-0.000766783719882369
7168.0,-0.00025754811940714717
7680.0,-0.0010996138444170356
8192.0,-0.002255174797028303
9216.0,-0.000613928772509098
10240.0,0.0006483849138021469
11264.0,0.0008682787301950157
12288.0,-0.0007310161017812788
13312.0,-0.0006658968050032854
14336.0,0.00029592300415970385
end
