version,3.0
numOfCh,1
type,point
parent_name,1000-cuts
ch_type,1_1
kcount,1
numberNandB,1
brightnessNandB,1
carpet pos,0
pc,0
Time (ms),CH1 Auto-Correlation
1.0,0.03796781972050667
2.0,0.03281063586473465
3.0,0.028494738042354584
4.0,0.024658674374222755
5.0,0.021475566551089287
6.0,0.01892075315117836
7.0,0.01677144691348076
8.0,0.01505254115909338
9.0,0.013546152971684933
10.0,0.012286369688808918
11.0,0.011164520867168903
12.0,0.010153461247682571
13.0,0.0092452522367239
14.0,0.008363419212400913
15.0,0.007773547898977995
16.0,0.007221633102744818
18.0,0.005969878286123276
20.0,0.004606849513947964
22.0,0.003566653933376074
24.0,0.003066516714170575
26.0,0.002890455536544323
28.0,0.0028825299814343452
30.0,0.002462563803419471
32.0,0.0020151177886873484
36.0,0.0012644940288737416
40.0,0.0009596845484338701
44.0,0.0006368315662257373
48.0,-3.866276529151946e-05
52.0,-0.0002791627193801105
56.0,-0.00027436111122369766
60.0,-0.00020477875659707934
64.0,0.00043718458618968725
72.0,0.0007184703717939556
80.0,-2.1027924958616495e-05
88.0,0.0007626025471836329
96.0,0.0007439591572619975
104.0,3.6441538213694002e-06
112.0,5.69854564673733e-05
120.0,-0.00010618823580443859
128.0,-9.135158325079829e-05
144.0,0.0011107141617685556
160.0,0.0007503524539060891
176.0,0.0012025366304442286
192.0,0.0016135569894686341
208.0,0.00014104372530709952
224.0,-0.0019236505031585693
240.0,-0.001257433439604938
256.0,0.0003597103641368449
288.0,0.0013893115101382136
320.0,8.50744399940595e-05
352.0,-0.0003010293876286596
384.0,-0.0011955640511587262
416.0,-0.00020956361549906433
448.0,0.0002926289162132889
480.0,-5.133535523782484e-05
512.0,-0.0005528177716769278
576.0,-0.0005358174676075578
640.0,-0.0008254512213170528
704.0,0.0006723200785927474
768.0,-0.00014687598741147667
832.0,-0.0002102264843415469
896.0,0.0016408029478043318
960.0,0.00033281114883720875
1024.0,-0.000622928433585912
1152.0,2.4060225769062527e-05
1280.0,-1.290798627451295e-05
1408.0,-0.0006730523891746998
1536.0,-4.977858770871535e-05
1664.0,-8.323612564709038e-05
1792.0,-0.0006691606831736863
1920.0,0.00031162906088866293
2048.0,0.00037464420893229544
2304.0,-0.00019688025349751115
2560.0,-0.0006142655620351434
2816.0,0.0001273264642804861
3072.0,0.00039720316999591887
3328.0,-0.00014440798258874565
3584.0,-0.0001239737175637856
3840.0,0.0005947522004134953
4096.0,0.0006138834869489074
4608.0,-0.0005229492671787739
5120.0,-0.00034421251621097326
5632.0,-0.00025321810971945524
6144.0,-0.0006503036129288375
6656.0,-0.00016339706780854613
7168.0,0.0006047407514415681
7680.0,-0.00016880682960618287
8192.0,-7.557655862910906e-06
9216.0,-0.00017393183952663094
10240.0,0.000423554825829342
11264.0,0.00011281184561084956
12288.0,-0.00016424448403995484
13312.0,0.0003106845251750201
14336.0,-6.260263762669638e-05
end
