version,3.0
numOfCh,1
type,point
parent_name,1000-cuts
ch_type,1_1
kcount,1
numberNandB,1
brightnessNandB,1
carpet pos,0
pc,0
Time (ms),CH1 Auto-Correlation
1.0,0.07558756321668625
2.0,0.06466314196586609
3.0,0.05552784726023674
4.0,0.04815823212265968
5.0,0.04209325835108757
6.0,0.03670504689216614
7.0,0.031985681504011154
8.0,0.027828793972730637
9.0,0.024201959371566772
10.0,0.021377136930823326
11.0,0.019065555185079575
12.0,0.016752952709794044
13.0,0.014535944908857346
14.0,0.012899503111839294
15.0,0.01139119267463684
16.0,0.010054691694676876
18.0,0.009007563814520836
20.0,0.007753612007945776
22.0,0.0066453153267502785
24.0,0.00575760193169117
26.0,0.004809496458619833
28.0,0.004227056168019772
30.0,0.003232635324820876
32.0,0.0019514019368216395
36.0,2.7404203137848526e-05
40.0,8.678492304170504e-05
44.0,-0.0003873074892908335
48.0,-0.00018313647888135165
52.0,0.00020868980209343135
56.0,0.0010194897186011076
60.0,0.000410643668146804
64.0,-0.0007676513632759452
72.0,-0.0023701367899775505
80.0,-0.0019286238821223378
88.0,-0.002419067081063986
96.0,-0.0014356988249346614
104.0,-0.0002974432718474418
112.0,-0.0011326996609568596
120.0,-0.0026742026675492525
128.0,-0.0019502879586070776
144.0,-0.0004011515120510012
160.0,0.0007571307942271233
176.0,-0.00011133384396089241
192.0,-0.002235951367765665
208.0,-0.0024922131560742855
224.0,-0.000530268473085016
240.0,-0.001817269017919898
256.0,-0.0009248914429917932
288.0,0.0022851654794067144
320.0,0.002973566297441721
352.0,0.002730229403823614
384.0,0.0024043021257966757
416.0,-0.0019475455628708005
448.0,0.0012626855168491602
480.0,-0.0005171161610633135
512.0,-0.0007999403169378638
576.0,-2.6792051812662976e-06
640.0,0.001583556178957224
704.0,0.0013162244576960802
768.0,-3.2668947824276984e-05
832.0,0.0002266300725750625
896.0,-0.0009319562232121825
960.0,-0.00024978755391202867
1024.0,0.002287570619955659
1152.0,-0.0005940940463915467
1280.0,0.0007837243610993028
1408.0,-0.00038824861985631287
1536.0,-0.0002994980022776872
1664.0,-0.00011177769920323044
1792.0,0.00017442661919631064
1920.0,-0.0007339056464843452
2048.0,-0.0006652977899648249
2304.0,0.00017248604854103178
2560.0,-0.0007896737661212683
2816.0,0.0007825719658285379
3072.0,-0.0005065501318313181
3328.0,5.011221583117731e-05
3584.0,-0.0006733312620781362
3840.0,-0.00048058078391477466
4096.0,9.321280958829448e-05
4608.0,-0.0010962072992697358
5120.0,-9.135665459325537e-05
5632.0,-0.0005813951720483601
6144.0,-7.613078196300194e-05
6656.0,0.00025895825820043683
7168.0,9.336021321360022e-05
7680.0,0.0014166695764288306
8192.0,-0.0005101466667838395
9216.0,-6.640361243626103e-05
10240.0,0.00011750870908144861
11264.0,-0.00021619525796268135
12288.0,-0.0003726772265508771
13312.0,-0.0003686987329274416
14336.0,-0.0007013302529230714
end
