version,3.0
numOfCh,1
type,point
parent_name,1000-cuts
ch_type,1_1
kcount,1
numberNandB,1
brightnessNandB,1
carpet pos,0
pc,0
Time (ms),CH1 Auto-Correlation
1.0,0.03771032392978668
2.0,0.032437101006507874
3.0,0.028138060122728348
4.0,0.02458938956260681
5.0,0.021517064422369003
6.0,0.018973952159285545
7.0,0.016834544017910957
8.0,0.014893085695803165
9.0,0.013243235647678375
10.0,0.011783354915678501
11.0,0.010462813079357147
12.0,0.009227174334228039
13.0,0.00800527073442936
14.0,0.006986338645219803
15.0,0.0060689314268529415
16.0,0.005259315017610788
18.0,0.003920396324247122
20.0,0.002863437170162797
22.0,0.001927725039422512
24.0,0.0012041152222082019
26.0,0.0008258677553385496
28.0,0.00043257189099676907
30.0,0.00035952762118540704
32.0,0.0005446248105727136
36.0,0.0007691128994338214
40.0,0.0011301818303763866
44.0,0.0011150536593049765
48.0,0.0009787104791030288
52.0,0.0006349305040203035
56.0,0.0004235857632011175
60.0,0.00041602039709687233
64.0,0.0010159423109143972
72.0,0.001351481187157333
80.0,0.0016583007527515292
88.0,0.0018477002158761024
96.0,0.001652600709348917
104.0,0.0015100151067599654
112.0,0.0018035168759524822
120.0,0.0016423939960077405
128.0,0.00028233081684447825
144.0,-0.0001643215073272586
160.0,-0.00035852345172315836
176.0,0.0002100393030559644
192.0,0.00032217393163591623
208.0,0.001074871513992548
224.0,0.0004744503821711987
240.0,-0.00018821650883182883
256.0,-0.0010742716258391738
288.0,-0.0010956146288663149
320.0,-0.0007455848390236497
352.0,-0.00016769029025454074
384.0,-0.0007607935694977641
416.0,-0.000421391538111493
448.0,0.0007067625410854816
480.0,0.0008442292455583811
512.0,0.00047285534674301744
576.0,0.0002356267796130851
640.0,-0.00030104111647233367
704.0,2.9029792131041177e-05
768.0,-0.00029681166051886976
832.0,-0.0011676083086058497
896.0,-0.00014677208673674613
960.0,-3.6471185012487695e-05
1024.0,0.0008399042999371886
1152.0,-0.0004999972297810018
1280.0,0.00040766666643321514
1408.0,-0.00013978440256323665
1536.0,-0.00018541903409641236
1664.0,-0.0002636257850099355
1792.0,0.0003727854054886848
1920.0,-0.00044630837510339916
2048.0,-0.0003541697224136442
2304.0,0.00022975019237492234
2560.0,-0.00043159621418453753
2816.0,4.521805385593325e-05
3072.0,-1.6487052562297322e-05
3328.0,0.0005009652813896537
3584.0,-0.0005771945579908788
3840.0,-0.00019563896057661623
4096.0,-0.00035691712400875986
4608.0,0.00032607404864393175
5120.0,-0.000412343826610595
5632.0,-4.178085146122612e-05
6144.0,-0.00047228069161064923
6656.0,8.41779401525855e-05
7168.0,-0.00021038431441411376
7680.0,0.00035018232301808894
8192.0,-8.4126993897371e-05
9216.0,5.026612416259013e-05
10240.0,-6.835901876911521e-05
11264.0,-1.900728420878295e-05
12288.0,0.0002898854436352849
13312.0,-6.652006413787603e-05
14336.0,-0.0002389559376752004
end
