version,3.0
numOfCh,1
type,point
parent_name,1000-cuts
ch_type,1_1
kcount,1
numberNandB,1
brightnessNandB,1
carpet pos,0
pc,0
Time (ms),CH1 Auto-Correlation
1.0,0.03907336667180061
2.0,0.03382447734475136
3.0,0.029448628425598145
4.0,0.025681694969534874
5.0,0.022455843165516853
6.0,0.019558250904083252
7.0,0.017123162746429443
8.0,0.014964137226343155
9.0,0.013043737970292568
10.0,0.01131405495107174
11.0,0.009786990471184254
12.0,0.008344273082911968
13.0,0.007096520159393549
14.0,0.006085794884711504
15.0,0.005422682501375675
16.0,0.004738475661724806
18.0,0.0038093586917966604
20.0,0.0029560397379100323
22.0,0.0023782833013683558
24.0,0.0020161112770438194
26.0,0.002020694548264146
28.0,0.0021138445008546114
30.0,0.002151862485334277
32.0,0.0022456934675574303
36.0,0.0016306217294186354
40.0,0.0010988551657646894
44.0,0.0009840672137215734
48.0,0.0012420450802892447
52.0,0.0012187623651698232
56.0,0.0011142697185277939
60.0,0.0012703669490292668
64.0,0.0011868660803884268
72.0,0.0006803513970226049
80.0,8.931475167628378e-05
88.0,0.00027534938999451697
96.0,-0.00024731215671636164
104.0,-0.0003976489242631942
112.0,-0.00040109665133059025
120.0,-0.0001910042337840423
128.0,-3.159576954203658e-05
144.0,0.00033621303737163544
160.0,-0.0009918338619172573
176.0,-0.001894382992759347
192.0,-0.0018545649945735931
208.0,-0.001333691761828959
224.0,-0.001667410135269165
240.0,-0.000195436310605146
256.0,0.00021050460054539144
288.0,-0.00041570281609892845
320.0,-0.0004717383999377489
352.0,0.0003526093496475369
384.0,-0.0006319819949567318
416.0,-0.0009870153153315187
448.0,-0.000596323749050498
480.0,0.0013930462300777435
512.0,0.00038459242205135524
576.0,0.00027884988230653107
640.0,-0.0005386504344642162
704.0,-2.670160938578192e-05
768.0,-0.00026947548030875623
832.0,0.0006260898662731051
896.0,-0.0003759194805752486
960.0,-0.0021280935034155846
1024.0,-0.000781095412094146
1152.0,0.0007669963524676859
1280.0,7.682194700464606e-05
1408.0,0.0004672412178479135
1536.0,0.0002964224840980023
1664.0,-1.4338542797531773e-08
1792.0,-0.0007699800189584494
1920.0,0.0001893636945169419
2048.0,0.0001959232904482633
2304.0,0.000570377625990659
2560.0,0.0006164017249830067
2816.0,3.633491724031046e-05
3072.0,-0.0004321543965488672
3328.0,-0.0003214474709238857
3584.0,-0.0008846012642607093
3840.0,0.0006433040252886713
4096.0,0.00031146948458626866
4608.0,-0.0003339866525493562
5120.0,9.329333988716826e-05
5632.0,-6.549490353791043e-05
6144.0,-0.00038310291711241007
6656.0,0.0001890868879854679
7168.0,-0.00030955849797464907
7680.0,-4.7193570935633034e-05
8192.0,2.634760494402144e-05
9216.0,8.983885345514864e-05
10240.0,9.419592242920771e-05
11264.0,-2.5105766326305456e-05
12288.0,-2.7654192308546044e-05
13312.0,3.9332418964477256e-05
14336.0,-8.319182961713523e-05
end
