version,3.0
numOfCh,1
type,point
parent_name,1000-cuts
ch_type,1_1
kcount,1
numberNandB,1
brightnessNandB,1
carpet pos,0
pc,0
Time (ms),CH1 Auto-Correlation
1.0,0.03844885528087616
2.0,0.03328290209174156
3.0,0.029094504192471504
4.0,0.025674786418676376
5.0,0.022743338719010353
6.0,0.02006274275481701
7.0,0.01771681196987629
8.0,0.015596960671246052
9.0,0.013767442665994167
10.0,0.012191121466457844
11.0,0.010884840041399002
12.0,0.00982659962028265
13.0,0.008867813274264336
14.0,0.008126828819513321
15.0,0.007336380425840616
16.0,0.006571165751665831
18.0,0.005897341761738062
20.0,0.005503653082996607
22.0,0.005302284844219685
24.0,0.004873184021562338
26.0,0.00428388174623251
28.0,0.0038333963602781296
30.0,0.003245307132601738
32.0,0.002585527254268527
36.0,0.0017657347489148378
40.0,0.0013533907476812601
44.0,0.0012876988621428609
48.0,0.0014589406782761216
52.0,0.0015011191135272384
56.0,0.0012834351509809494
60.0,0.0007810693932697177
64.0,8.069125760812312e-05
72.0,-0.00019471334235277027
80.0,-0.0007014158181846142
88.0,-0.0017257212894037366
96.0,-0.0017922775587067008
104.0,-0.001543954131193459
112.0,-0.000973626330960542
120.0,-0.00029925841954536736
128.0,-4.7980072849895805e-05
144.0,0.0002292524732183665
160.0,0.0008028578013181686
176.0,0.002105293096974492
192.0,0.001674674334935844
208.0,0.0013197972439229488
224.0,-3.6119068681728095e-05
240.0,-0.0007227174937725067
256.0,-0.0007013134309090674
288.0,-0.0004065530374646187
320.0,0.00027748176944442093
352.0,0.0005271913250908256
384.0,0.00031677488004788756
416.0,-0.001324573764577508
448.0,0.00013370094529818743
480.0,3.434828977333382e-05
512.0,0.0006115526193752885
576.0,-0.00014600047143176198
640.0,0.0004465840756893158
704.0,0.00012178943870821968
768.0,-0.00038407836109399796
832.0,7.652379281353205e-05
896.0,-0.0005504221189767122
960.0,-0.00018890012870542705
1024.0,0.0006819739937782288
1152.0,1.6108728232211433e-05
1280.0,6.692399620078504e-05
1408.0,-0.00047229952178895473
1536.0,-0.0005681315087713301
1664.0,0.00019281025743111968
1792.0,-2.8402148473105626e-06
1920.0,2.0649655198212713e-05
2048.0,-0.0001270392822334543
2304.0,-0.0003205554385203868
2560.0,-0.0005935672670602798
2816.0,0.00038247890188358724
3072.0,-6.06047069595661e-05
3328.0,-2.795722866721917e-05
3584.0,0.0003992758574895561
3840.0,-0.00013102847151458263
4096.0,0.00041056127520278096
4608.0,3.3389602322131395e-05
5120.0,0.0002806081320159137
5632.0,-0.000189734942978248
6144.0,-0.0003842504520434886
6656.0,4.4783457269659266e-05
7168.0,0.0001446476817363873
7680.0,1.6598781371612858e-07
8192.0,-0.0001397264568367973
9216.0,0.00013196622603572905
10240.0,-0.00017701358592603356
11264.0,-0.00034988156403414905
12288.0,-7.129638106562197e-05
13312.0,0.0002938131510745734
14336.0,-0.0001347991928923875
end
