version,3.0
numOfCh,1
type,point
parent_name,1000-cuts
ch_type,1_1
kcount,1
numberNandB,1
brightnessNandB,1
carpet pos,0
pc,0
Time (ms),CH1 Auto-Correlation
1.0,0.07878120243549347
2.0,0.06898321956396103
3.0,0.06093822047114372
4.0,0.054266784340143204
5.0,0.04873891547322273
6.0,0.043831679970026016
7.0,0.03950914368033409
8.0,0.0357847698032856
9.0,0.032174251973629
10.0,0.029135173186659813
11.0,0.02667279541492462
12.0,0.024412885308265686
13.0,0.02235283888876438
14.0,0.020486801862716675
15.0,0.01863865926861763
16.0,0.01671537011861801
18.0,0.013389235362410545
20.0,0.011156975291669369
22.0,0.009343612007796764
24.0,0.007691430393606424
26.0,0.006236317567527294
28.0,0.005104076117277145
30.0,0.003836405463516712
32.0,0.0029811332933604717
36.0,0.0018317101057618856
40.0,0.0013189673190936446
44.0,0.001017399481497705
48.0,0.0001998297666432336
52.0,-0.0004472885630093515
56.0,-0.0005526583991013467
60.0,-0.00030113215325400233
64.0,-0.0003225149412173778
72.0,0.0006024084868840873
80.0,0.0007305786130018532
88.0,0.00022844443446956575
96.0,0.0008530944469384849
104.0,0.0021091075614094734
112.0,0.0019497041357681155
120.0,0.0019878526218235493
128.0,-0.00041006674291566014
144.0,-0.0012487785425037146
160.0,-0.0023610072676092386
176.0,-0.0008794456953182817
192.0,0.00023496910580433905
208.0,-0.0016796697163954377
224.0,-0.0013830626849085093
240.0,0.0005273527931421995
256.0,-0.0010136606870219111
288.0,0.0003648731217253953
320.0,0.0012589130783453584
352.0,0.0009886405896395445
384.0,-0.0009214670863002539
416.0,0.0018793471390381455
448.0,0.004144097678363323
480.0,0.0006688518915325403
512.0,-6.734712223988026e-05
576.0,-0.0016335612162947655
640.0,-0.0013923190999776125
704.0,-0.00018563540652394295
768.0,-0.00018726414418779314
832.0,0.0007833349518477917
896.0,0.0002650940732564777
960.0,0.0007165169226936996
1024.0,0.0013401684118434787
1152.0,8.810904546407983e-06
1280.0,-0.0018924197647720575
1408.0,-0.002165411598980427
1536.0,-0.00046818164992146194
1664.0,-0.0003308948944322765
1792.0,0.0002575201797299087
1920.0,-0.0006115282303653657
2048.0,-0.0007065097452141345
2304.0,-0.00032864819513633847
2560.0,-9.554363350616768e-05
2816.0,-0.0006228702841326594
3072.0,7.965857366798446e-05
3328.0,-5.1743019866989926e-05
3584.0,0.0014745766529813409
3840.0,-0.0011756637832149863
4096.0,-8.861359674483538e-05
4608.0,0.0005534134106710553
5120.0,0.000437570852227509
5632.0,-8.265599171863869e-05
6144.0,-0.00012941747263539582
6656.0,0.0009708114084787667
7168.0,-0.0005045544821768999
7680.0,-0.0020060227252542973
8192.0,6.079618469811976e-05
9216.0,-8.338179759448394e-05
10240.0,-2.5786908736336045e-05
11264.0,-0.00012007474288111553
12288.0,0.00025729212211444974
13312.0,-0.0005532227223739028
14336.0,-0.0006914787227287889
end
