version,3.0
numOfCh,1
type,point
parent_name,1000-cuts
ch_type,1_1
kcount,1
numberNandB,1
brightnessNandB,1
carpet pos,0
pc,0
Time (ms),CH1 Auto-Correlation
1.0,0.04172926023602486
2.0,0.03647531196475029
3.0,0.032012250274419785
4.0,0.02822631597518921
5.0,0.024955052882432938
6.0,0.02215561829507351
7.0,0.019581681117415428
8.0,0.017391366884112358
9.0,0.015456758439540863
10.0,0.013773085549473763
11.0,0.012301367707550526
12.0,0.011124660260975361
13.0,0.010095953941345215
14.0,0.009311556816101074
15.0,0.008490398526191711
16.0,0.007676552049815655
18.0,0.0063557494431734085
20.0,0.005318140145391226
22.0,0.004743334837257862
24.0,0.004425747320055962
26.0,0.004321145825088024
28.0,0.004058622755110264
30.0,0.003781764069572091
32.0,0.003511604154482484
36.0,0.0030945097096264362
40.0,0.0023823585361242294
44.0,0.0016139098443090916
48.0,0.0012655322207137942
52.0,0.0007460116175934672
56.0,0.0008521656272932887
60.0,0.0009389689075760543
64.0,0.0011989333434030414
72.0,0.0018162974156439304
80.0,0.0018758786609396338
88.0,0.0016800407320261002
96.0,0.00045099243288859725
104.0,-0.001413877820596099
112.0,-0.0019341446459293365
120.0,-0.001028279191814363
128.0,-0.0007979911752045155
144.0,-0.0004574956838041544
160.0,0.0008547293837182224
176.0,0.001122195622883737
192.0,-6.177312752697617e-05
208.0,0.00027243595104664564
224.0,-0.0005555196548812091
240.0,-0.00017349650443065912
256.0,0.0004258879052940756
288.0,-0.0002250667748739943
320.0,-0.0011162591399624944
352.0,-0.0006805802695453167
384.0,-0.0009445195901207626
416.0,-0.0005794977187179029
448.0,0.00039394752820953727
480.0,0.0002988455817103386
512.0,0.0005333018489181995
576.0,-0.00038157435483299196
640.0,-0.001012737862765789
704.0,-0.0005733479047194123
768.0,0.0004070783616043627
832.0,0.0007605585851706564
896.0,0.0008696133736521006
960.0,-0.0002529595803935081
1024.0,0.0005183331668376923
1152.0,0.0003482464817352593
1280.0,0.0006166917737573385
1408.0,-7.564607221866027e-05
1536.0,0.00043697867658920586
1664.0,-0.0005221649771556258
1792.0,-0.001257541705854237
1920.0,-0.0010483376681804657
2048.0,0.000659781857393682
2304.0,-0.0003277793002780527
2560.0,-0.0002898664679378271
2816.0,0.000610000395681709
3072.0,-0.0005784244858659804
3328.0,0.00012934398546349257
3584.0,0.0005622809985652566
3840.0,-0.0005246620276011527
4096.0,-0.00014059717068448663
4608.0,-0.00030685277306474745
5120.0,0.00013857973681297153
5632.0,0.00021355172793846577
6144.0,0.00030273679294623435
6656.0,0.0001353280240437016
7168.0,-0.00028514221776276827
7680.0,-9.604738443158567e-05
8192.0,-2.4396864318987355e-05
9216.0,0.0001256020477740094
10240.0,-0.0005998105043545365
11264.0,2.392454189248383e-05
12288.0,0.0001658332475926727
13312.0,-0.0006306270370259881
14336.0,-0.0003562096680980176
end
