version,3.0
numOfCh,1
type,point
parent_name,1000-cuts
ch_type,1_1
kcount,1
numberNandB,1
brightnessNandB,1
carpet pos,0
pc,0
Time (ms),CH1 Auto-Correlation
1.0,0.03874130919575691
2.0,0.03351292759180069
3.0,0.029062218964099884
4.0,0.025468023493885994
5.0,0.02218044549226761
6.0,0.019323909655213356
7.0,0.017056044191122055
8.0,0.015024960041046143
9.0,0.013325552456080914
10.0,0.011783406138420105
11.0,0.010441578924655914
12.0,0.009344841353595257
13.0,0.008416696451604366
14.0,0.007329364772886038
15.0,0.006450415588915348
16.0,0.005567267071455717
18.0,0.00409455643966794
20.0,0.0029714324045926332
22.0,0.0021532110404223204
24.0,0.0015671956352889538
26.0,0.001162632484920323
28.0,0.0007825968787074089
30.0,0.0006303007248789072
32.0,0.0004452438442967832
36.0,-7.089182327035815e-05
40.0,-0.00020890755695290864
44.0,0.00014278912567533553
48.0,0.00019930479174945503
52.0,0.0005355183384381235
56.0,0.001233182498253882
60.0,0.0018211653223261237
64.0,0.0017862501554191113
72.0,0.001557928859256208
80.0,0.0012532636756077409
88.0,0.0011279371101409197
96.0,0.0002971994981635362
104.0,0.0002131798246409744
112.0,0.00016327976481989026
120.0,0.0003744690911844373
128.0,-0.00022185924171935767
144.0,-0.0006378797697834671
160.0,8.13425867818296e-05
176.0,0.0018341928953304887
192.0,0.0015350630274042487
208.0,0.0005932773929089308
224.0,0.0009721277165226638
240.0,0.0009690172737464309
256.0,0.0014199528377503157
288.0,0.00012894156679976732
320.0,0.0009845858439803123
352.0,0.0005365689285099506
384.0,-3.864679092657752e-05
416.0,0.0008173903333954513
448.0,0.0010427506640553474
480.0,0.0002511367783881724
512.0,-0.0004980950616300106
576.0,0.00037981552304700017
640.0,-0.000168658429174684
704.0,0.00048104507732205093
768.0,0.00038019640487618744
832.0,-0.0012355202343314886
896.0,-0.0010978559730574489
960.0,-0.00019953481387346983
1024.0,-0.0006179559859447181
1152.0,4.805676871910691e-05
1280.0,-0.0011242906330153346
1408.0,-0.000139654177473858
1536.0,-0.0006513052503578365
1664.0,8.222567703342065e-05
1792.0,0.0008894817437976599
1920.0,-0.000296654412522912
2048.0,0.0002595166733954102
2304.0,0.00047371178516186774
2560.0,0.00025651577743701637
2816.0,0.00031990656862035394
3072.0,-0.00018347891455050558
3328.0,-0.0008159431163221598
3584.0,0.00019113084999844432
3840.0,0.00022288558830041438
4096.0,-0.0003619286580942571
4608.0,-0.00016643053095322102
5120.0,-0.0002910688635893166
5632.0,-7.543795800302178e-05
6144.0,8.565951429773122e-05
6656.0,-0.00022600937518291175
7168.0,-0.0001358356385026127
7680.0,-0.00039607303915545344
8192.0,-0.0001680635759839788
9216.0,-0.0001847259991336614
10240.0,-6.374296935973689e-05
11264.0,9.597883035894483e-05
12288.0,0.0002721932833082974
13312.0,0.0002126870967913419
14336.0,0.00014314329018816352
end
