version,3.0
numOfCh,1
type,point
parent_name,1000-cuts
ch_type,1_1
kcount,1
numberNandB,1
brightnessNandB,1
carpet pos,0
pc,0
Time (ms),CH1 Auto-Correlation
1.0,0.08158436417579651
2.0,0.07014511525630951
3.0,0.06059592589735985
4.0,0.052423544228076935
5.0,0.04557313024997711
6.0,0.039847880601882935
7.0,0.03497634828090668
8.0,0.031026609241962433
9.0,0.02731023170053959
10.0,0.024048898369073868
11.0,0.021046608686447144
12.0,0.018601343035697937
13.0,0.016335615888237953
14.0,0.014498518779873848
15.0,0.01297679077833891
16.0,0.011744930408895016
18.0,0.009991494938731194
20.0,0.00884943176060915
22.0,0.007819470018148422
24.0,0.0068536801263689995
26.0,0.005088191479444504
28.0,0.0037088070530444384
30.0,0.0027653477154672146
32.0,0.0022443702910095453
36.0,0.0012162375496700406
40.0,0.0011365306563675404
44.0,0.0024265130050480366
48.0,0.0030393970664590597
52.0,0.0034442846663296223
56.0,0.003462070133537054
60.0,0.0022705658338963985
64.0,0.0010794376721605659
72.0,0.0004266758041922003
80.0,0.0010689995251595974
88.0,0.0018541044555604458
96.0,0.0017843622481450438
104.0,0.003044710261747241
112.0,0.002054284093901515
120.0,0.00164699531160295
128.0,0.0012141696643084288
144.0,0.003339372342452407
160.0,0.0020427831914275885
176.0,0.000653959228657186
192.0,-0.00035212270449846983
208.0,-0.001059212489053607
224.0,-0.0011430319864302874
240.0,-0.00040232448372989893
256.0,0.0006452474044635892
288.0,-0.001680975896306336
320.0,-0.00036933209048584104
352.0,-0.0006598673644475639
384.0,0.0011781929060816765
416.0,0.0006954343407414854
448.0,0.0003225122345611453
480.0,-0.0011785735841840506
512.0,-0.000501619593705982
576.0,0.0004470873682294041
640.0,-0.0008958151447586715
704.0,-0.0010560727678239346
768.0,6.756796938134357e-05
832.0,-0.00039965822361409664
896.0,-0.0008874749764800072
960.0,-0.00027258999762125313
1024.0,0.0003240240039303899
1152.0,-0.0020583474542945623
1280.0,-1.9755359971895814e-05
1408.0,6.570699042640626e-05
1536.0,-0.0007015553419478238
1664.0,-8.035736391320825e-05
1792.0,0.0010354961268603802
1920.0,0.00041328283259645104
2048.0,-0.00030794748454354703
2304.0,0.0006486018537543714
2560.0,0.00016220760880969465
2816.0,-0.0008839821675792336
3072.0,-0.0014815591275691986
3328.0,-0.0014133139047771692
3584.0,0.00034634608891792595
3840.0,0.0008815501932986081
4096.0,0.0009652614244259894
4608.0,-5.804967076983303e-05
5120.0,-0.0006680637015961111
5632.0,-4.933175659971312e-05
6144.0,0.0006829486228525639
6656.0,-0.0009387396858073771
7168.0,-0.0006058727158233523
7680.0,-0.0006936824647709727
8192.0,0.0010866468073800206
9216.0,0.0007020349148660898
10240.0,0.0004640520492102951
11264.0,-0.0004932310548610985
12288.0,-0.0007686823373660445
13312.0,0.00011003368126694113
14336.0,-0.0015076582785695791
end
