version,3.0
numOfCh,1
type,point
parent_name,1000-cuts
ch_type,1_1
kcount,1
numberNandB,1
brightnessNandB,1
carpet pos,0
pc,0
Time (ms),CH1 Auto-Correlation
1.0,0.09012702852487564
2.0,0.07816280424594879
3.0,0.06810947507619858
4.0,0.059891071170568466
5.0,0.053186602890491486
6.0,0.047797199338674545
7.0,0.04289483651518822
8.0,0.03814181312918663
9.0,0.03425212576985359
10.0,0.03068283200263977
11.0,0.02754366584122181
12.0,0.025044064968824387
13.0,0.022702675312757492
14.0,0.02062768116593361
15.0,0.018762871623039246
16.0,0.01705297827720642
18.0,0.013384779915213585
20.0,0.011251569725573063
22.0,0.009147013537585735
24.0,0.007152030244469643
26.0,0.0055244737304747105
28.0,0.004443465266376734
30.0,0.003963092342019081
32.0,0.003685915609821677
36.0,0.003335942281410098
40.0,0.00281893671490252
44.0,0.0023357574827969074
48.0,0.0018333439948037267
52.0,-0.00027414184296503663
56.0,-0.001047154190018773
60.0,-0.0004995633498765528
64.0,0.0004006550880149007
72.0,0.0009125001379288733
80.0,0.0001436060993000865
88.0,0.002188306301832199
96.0,0.002185226185247302
104.0,0.00018894384265877306
112.0,-0.001562144374474883
120.0,-0.0018228840781375766
128.0,-0.0015160423936322331
144.0,0.00016590110317338258
160.0,0.0007773602264933288
176.0,0.0001914292952278629
192.0,0.0002964188752230257
208.0,0.0003834028902929276
224.0,-0.0002734435547608882
240.0,0.0007999503286555409
256.0,0.0020577057730406523
288.0,0.00034915076685138047
320.0,-0.000510796089656651
352.0,-0.0011898233788087964
384.0,-0.00043503966298885643
416.0,0.0016400825697928667
448.0,-0.0038454800378531218
480.0,-0.0030021273996680975
512.0,0.0016271513886749744
576.0,0.00086887989891693
640.0,0.0005905053694732487
704.0,0.0017655902775004506
768.0,-0.0010527238482609391
832.0,-0.0018840768607333302
896.0,-0.00125238043256104
960.0,-0.0009259308571927249
1024.0,-0.001057012239471078
1152.0,0.0005059369141235948
1280.0,0.0013112970627844334
1408.0,-0.0006964897038415074
1536.0,-0.0006287556607276201
1664.0,-0.0022878239396959543
1792.0,-5.3169846069067717e-05
1920.0,0.0005189513321965933
2048.0,-0.0007042487268336117
2304.0,-0.0008202219032682478
2560.0,0.0006631549913436174
2816.0,-0.0012954318663105369
3072.0,-0.0005182874156162143
3328.0,0.0012871756916865706
3584.0,0.00022692054335493594
3840.0,0.0005444820853881538
4096.0,0.00079859618563205
4608.0,0.0005195275880396366
5120.0,-0.0009291732567362487
5632.0,-0.000691523018758744
6144.0,0.00021637833560816944
6656.0,-0.0010886460077017546
7168.0,0.00021773754269815981
7680.0,0.0006545041687786579
8192.0,0.0004994769697077572
9216.0,-6.834329724370036e-06
10240.0,-0.0010235387599095702
11264.0,-0.0004247678443789482
12288.0,0.00016628685989417136
13312.0,0.0002719697367865592
14336.0,0.0008700827602297068
end
