version,3.0
numOfCh,1
type,point
parent_name,1000-cuts
ch_type,1_1
kcount,1
numberNandB,1
brightnessNandB,1
carpet pos,0
pc,0
Time (ms),CH1 Auto-Correlation
1.0,0.03779703378677368
2.0,0.032752301543951035
3.0,0.02877967432141304
4.0,0.02544810250401497
5.0,0.02266537770628929
6.0,0.020315775647759438
7.0,0.01821344904601574
8.0,0.016287822276353836
9.0,0.014559491537511349
10.0,0.013092555105686188
11.0,0.011715472675859928
12.0,0.010456657037138939
13.0,0.009315107017755508
14.0,0.00841723382472992
15.0,0.0076662576757371426
16.0,0.007099001202732325
18.0,0.006122829392552376
20.0,0.0055519649758934975
22.0,0.005115268286317587
24.0,0.004878410138189793
26.0,0.004451846703886986
28.0,0.004073786083608866
30.0,0.0036577931605279446
32.0,0.003221200779080391
36.0,0.002545970259234309
40.0,0.00227162498049438
44.0,0.0015432484215125442
48.0,0.0011139661073684692
52.0,0.0010670386254787445
56.0,0.0008897856459952891
60.0,0.0008911218028515577
64.0,0.0006087042856961489
72.0,0.0008955022203736007
80.0,0.0001319046423304826
88.0,-0.000623841246124357
96.0,-0.0002722559729591012
104.0,4.1591636545490474e-05
112.0,-0.00014994583034422249
120.0,-0.00014558581460732967
128.0,3.2459356589242816e-05
144.0,-0.000154826368088834
160.0,-0.0003931451356038451
176.0,-0.00014979905972722918
192.0,0.00034516036976128817
208.0,0.0001218234101543203
224.0,-0.0014480412937700748
240.0,-0.002631867304444313
256.0,-0.0024782149121165276
288.0,-0.0021359333768486977
320.0,-0.0009301439858973026
352.0,-0.0015935819828882813
384.0,-0.002028870163485408
416.0,0.0002678918244782835
448.0,0.0002507439930923283
480.0,-0.00015448065823875368
512.0,0.00021738960640504956
576.0,0.0005350657738745213
640.0,0.0004245499148964882
704.0,9.314734779763967e-05
768.0,-0.0005956675158813596
832.0,-0.001007157494314015
896.0,0.0011237261351197958
960.0,0.0009171448182314634
1024.0,0.00019587377028074116
1152.0,0.0006607862887904048
1280.0,-0.0006281721289269626
1408.0,-0.0016040380578488111
1536.0,0.0010470016859471798
1664.0,0.0012886854819953442
1792.0,-0.00015659196651540697
1920.0,-0.001527884742245078
2048.0,-0.0006572381244041026
2304.0,-1.3165803238734952e-06
2560.0,5.7746030506677926e-05
2816.0,-7.670306513318792e-05
3072.0,6.80084849591367e-05
3328.0,6.0173406382091343e-05
3584.0,-0.00014635929255746305
3840.0,8.829784928821027e-05
4096.0,-0.0004180191899649799
4608.0,0.0005645921919494867
5120.0,-0.00042873003985732794
5632.0,0.00013286781904753298
6144.0,4.553374310489744e-05
6656.0,-0.0004711865622084588
7168.0,0.00018606816593091935
7680.0,9.681003575678915e-05
8192.0,-0.00014050390745978802
9216.0,8.536890527466312e-05
10240.0,-2.3373695512418635e-05
11264.0,0.00019839275046251714
12288.0,6.554199899255764e-06
13312.0,-0.00022722847643308342
14336.0,-0.00013443715579342097
end
