version,3.0
numOfCh,1
type,point
parent_name,1000-cuts
ch_type,1_1
kcount,1
numberNandB,1
brightnessNandB,1
carpet pos,0
pc,0
Time (ms),CH1 Auto-Correlation
1.0,0.02488560415804386
2.0,0.021681835874915123
3.0,0.018914517015218735
4.0,0.016511786729097366
5.0,0.014397243037819862
6.0,0.012600609101355076
7.0,0.011157143861055374
8.0,0.009898098185658455
9.0,0.008849169127643108
10.0,0.00783384870737791
11.0,0.006946602836251259
12.0,0.006093035917729139
13.0,0.005257292650640011
14.0,0.004659772384911776
15.0,0.004190158564597368
16.0,0.0036061934661120176
18.0,0.002787540899589658
20.0,0.002190359402447939
22.0,0.0016368329524993896
24.0,0.0014251109678298235
26.0,0.001365482690744102
28.0,0.0012960152234882116
30.0,0.001350236008875072
32.0,0.0011603296734392643
36.0,0.0007847812375985086
40.0,0.0006172124412842095
44.0,0.0009016257245093584
48.0,0.0010369665687903762
52.0,0.0010481051867827773
56.0,0.0009939855663105845
60.0,0.0006422852748073637
64.0,0.00034831120865419507
72.0,-0.00015298285870812833
80.0,-0.0007191832410171628
88.0,-0.0004734824178740382
96.0,-2.5481826924078632e-06
104.0,-0.00023823269293643534
112.0,-0.0004591573087964207
120.0,-0.0002085650194203481
128.0,-3.2473401461174944e-06
144.0,0.00018624892982188612
160.0,-0.0004282791051082313
176.0,0.0005360033828765154
192.0,0.000928369932807982
208.0,-0.00011397354683140293
224.0,-0.00017305785149801522
240.0,2.5691533664939925e-05
256.0,-8.344270099769346e-06
288.0,-0.000639809004496783
320.0,3.9575621485710144e-05
352.0,0.0004700024437624961
384.0,0.0005738444160670042
416.0,0.0006492731627076864
448.0,0.0003036007401533425
480.0,-0.0005260675097815692
512.0,-0.0006670630536973476
576.0,-0.0006312628975138068
640.0,-0.000347206078004092
704.0,-0.00022177354549057782
768.0,0.0002583220193628222
832.0,0.00012771681940648705
896.0,-0.0002636851277202368
960.0,0.0004894162411801517
1024.0,0.00031845702324062586
1152.0,-2.9863281270081643e-06
1280.0,-0.0005021818797104061
1408.0,0.000220694302697666
1536.0,-0.0001770198723534122
1664.0,-0.0003425245813559741
1792.0,-6.581072375411168e-05
1920.0,-0.00018387161253485829
2048.0,0.0005795771721750498
2304.0,-3.775491495616734e-05
2560.0,8.096554665826261e-05
2816.0,-2.826347372320015e-05
3072.0,6.346213194774464e-05
3328.0,-1.655913729337044e-05
3584.0,0.00046968378592282534
3840.0,0.00015516426356043667
4096.0,-0.00029436085605993867
4608.0,-0.0001153817429440096
5120.0,-0.00013703719014301896
5632.0,-4.8013407649705186e-05
6144.0,0.00019044301006942987
6656.0,-0.00021023306180723011
7168.0,-8.543432340957224e-05
7680.0,-0.00036147786886431277
8192.0,-0.0001875578163890168
9216.0,0.0001805094361770898
10240.0,-0.00022918351169209927
11264.0,-3.0911942303646356e-05
12288.0,0.0002800744550768286
13312.0,-0.00020050816237926483
14336.0,0.0001842273777583614
end
