version,3.0
numOfCh,1
type,point
parent_name,1000-cuts
ch_type,1_1
kcount,1
numberNandB,1
brightnessNandB,1
carpet pos,0
pc,0
Time (ms),CH1 Auto-Correlation
1.0,0.02423083782196045
2.0,0.02094177156686783
3.0,0.018142094835639
4.0,0.015852952376008034
5.0,0.013890384696424007
6.0,0.012255745939910412
7.0,0.010814917273819447
8.0,0.009568188339471817
9.0,0.008528291247785091
10.0,0.007614509202539921
11.0,0.006819434929639101
12.0,0.006119207479059696
13.0,0.005477216560393572
14.0,0.004843058530241251
15.0,0.004366484470665455
16.0,0.004028310067951679
18.0,0.003482138505205512
20.0,0.0028748735785484314
22.0,0.0021673659794032574
24.0,0.0017673667753115296
26.0,0.0016563727986067533
28.0,0.0014981835847720504
30.0,0.001116807572543621
32.0,0.0007300315191969275
36.0,0.00043446235940791667
40.0,0.00021176629525143653
44.0,2.834434235410299e-05
48.0,-0.00013678531104233116
52.0,-0.00033112673554569483
56.0,-0.00033813860500231385
60.0,9.632547516957857e-06
64.0,9.904502803692594e-05
72.0,0.0005035531939938664
80.0,0.0010290384525433183
88.0,0.0010801797034218907
96.0,0.0007354507106356323
104.0,0.0011484231799840927
112.0,0.0007351153180934489
120.0,0.00029111720505170524
128.0,-0.00018496006669010967
144.0,4.0651531890034676e-05
160.0,0.00021574957645498216
176.0,0.0005809997674077749
192.0,-3.1705178116681054e-05
208.0,-0.0003583658253774047
224.0,-0.00026646192418411374
240.0,8.489481842843816e-05
256.0,-3.1503055652137846e-05
288.0,-0.00032012638985179365
320.0,0.00031527344253845513
352.0,-0.000665789470076561
384.0,-0.0001718755956972018
416.0,0.0002808967838063836
448.0,-0.0002969193155877292
480.0,-7.605420250911266e-05
512.0,0.0002705588995013386
576.0,-0.00027239162591286004
640.0,-2.0741326807183214e-05
704.0,0.0010968248825520277
768.0,0.0003497872385196388
832.0,0.00015986798098310828
896.0,-0.00021945619664620608
960.0,-5.301349301589653e-05
1024.0,0.00020562350982800126
1152.0,-0.00042337493505328894
1280.0,-0.000327153829857707
1408.0,2.1162804841878824e-05
1536.0,-9.105030767386779e-05
1664.0,-0.0003837334515992552
1792.0,-0.00019511577556841075
1920.0,0.0002110474742949009
2048.0,-9.460161527385935e-05
2304.0,-0.00023181206779554486
2560.0,-0.0004410877882037312
2816.0,1.1468164302641526e-05
3072.0,-0.00018303819524589926
3328.0,8.48208146635443e-05
3584.0,0.0004150759195908904
3840.0,0.00041874530143104494
4096.0,0.0002426297724014148
4608.0,6.4118958107428625e-06
5120.0,-0.000353465904481709
5632.0,-5.258652163320221e-05
6144.0,-0.00012776313815265894
6656.0,-3.2165484299184754e-05
7168.0,-0.00011918272502953187
7680.0,0.0004007032548543066
8192.0,4.526143675320782e-05
9216.0,-0.0002076684177154675
10240.0,-0.00017529695469420403
11264.0,0.00025026590446941555
12288.0,5.463639899971895e-05
13312.0,-0.00014893405023030937
14336.0,0.00016341546142939478
end
