version,3.0
numOfCh,1
type,point
parent_name,1000-cuts
ch_type,1_1
kcount,1
numberNandB,1
brightnessNandB,1
carpet pos,0
pc,0
Time (ms),CH1 Auto-Correlation
1.0,0.025544559583067894
2.0,0.022097596898674965
3.0,0.01921078749001026
4.0,0.01679403707385063
5.0,0.014744797721505165
6.0,0.01301853358745575
7.0,0.01155928336083889
8.0,0.010254360735416412
9.0,0.009122144430875778
10.0,0.008096922188997269
11.0,0.007185271009802818
12.0,0.006325664464384317
13.0,0.00555344857275486
14.0,0.004830818623304367
15.0,0.004200617782771587
16.0,0.0036355878692120314
18.0,0.0028289188630878925
20.0,0.0023828439880162477
22.0,0.0021065284963697195
24.0,0.0018725425470620394
26.0,0.001714275567792356
28.0,0.0015187353128567338
30.0,0.0013824141351506114
32.0,0.000998681876808405
36.0,0.00048562820302322507
40.0,0.00020799966296181083
44.0,-0.00018225563690066338
48.0,-0.0002732174762059003
52.0,-0.00023860570217948407
56.0,-0.0007930442807264626
60.0,-0.0010755844414234161
64.0,-0.0005777740734629333
72.0,-0.0002888103772420436
80.0,4.485224781092256e-05
88.0,3.446243135840632e-05
96.0,-0.00029525617719627917
104.0,-0.0006708374130539596
112.0,-0.0004974815528839827
120.0,-0.0003079392190556973
128.0,4.389597961562686e-05
144.0,-0.0007743446622043848
160.0,-0.0005776489269919693
176.0,-0.0012295183259993792
192.0,-0.0005139480927027762
208.0,-0.00011105438170488924
224.0,0.00035940855741500854
240.0,-0.0006696110940538347
256.0,-0.0010291463695466518
288.0,-0.0004733209207188338
320.0,-0.000399734650272876
352.0,0.00011496127990540117
384.0,1.9707853425643407e-05
416.0,0.00024784565903246403
448.0,0.00021103584731463343
480.0,-0.0006174571462906897
512.0,-0.0009592216229066253
576.0,0.0004372596158646047
640.0,5.600083386525512e-05
704.0,0.00017959739489015192
768.0,0.000613146461546421
832.0,0.00035712053067982197
896.0,0.00029650682699866593
960.0,-0.00031023845076560974
1024.0,-0.00045366608537733555
1152.0,3.6415807699086145e-05
1280.0,5.627546852338128e-05
1408.0,0.00041333644185215235
1536.0,-0.00042217347072437406
1664.0,-2.528587901906576e-05
1792.0,-1.1703463314916007e-05
1920.0,-6.196471076691523e-05
2048.0,0.0005276821902953088
2304.0,-0.0002370314468862489
2560.0,0.00012556635192595422
2816.0,-1.5137112313823309e-05
3072.0,-0.00048755118041299284
3328.0,0.00031469875830225646
3584.0,0.00017992562789004296
3840.0,-0.00022958444606047124
4096.0,-0.0002997499832417816
4608.0,4.2120464058825746e-05
5120.0,-0.0001298065180890262
5632.0,0.00012789022002834827
6144.0,-0.00017168272461276501
6656.0,2.2781012376071885e-05
7168.0,0.00013964482059236616
7680.0,-7.785944762872532e-05
8192.0,5.612929453491233e-05
9216.0,-3.584740261430852e-05
10240.0,0.00016342883463948965
11264.0,-0.00013033128925599158
12288.0,-0.00010579622176010162
13312.0,-9.99512558337301e-05
14336.0,-5.0869228289229795e-05
end
