version,3.0
numOfCh,1
type,point
parent_name,1000-cuts
ch_type,1_1
kcount,1
numberNandB,1
brightnessNandB,1
carpet pos,0
pc,0
Time (ms),CH1 Auto-Correlation
1.0,0.026371948421001434
2.0,0.022893549874424934
3.0,0.01996426284313202
4.0,0.017450930550694466
5.0,0.01531866192817688
6.0,0.01355747226625681
7.0,0.012032092548906803
8.0,0.010636809282004833
9.0,0.00938873179256916
10.0,0.008266848511993885
11.0,0.007240866310894489
12.0,0.0064069973304867744
13.0,0.005720763001590967
14.0,0.005047931801527739
15.0,0.004411039873957634
16.0,0.0038543944247066975
18.0,0.0030734536703675985
20.0,0.002318865153938532
22.0,0.0018221578793600202
24.0,0.001615718356333673
26.0,0.0017176488181576133
28.0,0.001597787719219923
30.0,0.0012342416448518634
32.0,0.0008525978773832321
36.0,0.0005438682856038213
40.0,0.00034301128471270204
44.0,-2.6328276362619363e-05
48.0,-0.00041908753337338567
52.0,-0.0005715767620131373
56.0,-0.0005656345747411251
60.0,-0.0006823688163422048
64.0,-0.0008349608979187906
72.0,-0.0005226562498137355
80.0,-0.000283735862467438
88.0,-0.0005333706503733993
96.0,-0.0005972706130705774
104.0,-0.0007807919755578041
112.0,-0.0005637641879729927
120.0,-0.0005403176182880998
128.0,-0.00046831087092868984
144.0,-0.0004855214210692793
160.0,0.0010381261818110943
176.0,0.0005164665635675192
192.0,0.0007076036999933422
208.0,0.0006771754124201834
224.0,-5.543760835280409e-06
240.0,-0.00010883491631830111
256.0,-4.902158252662048e-05
288.0,-0.0009169511613436043
320.0,-0.0013000541366636753
352.0,-0.0010156817734241486
384.0,-0.0007945143152028322
416.0,-0.00048302739742212
448.0,8.903361958800815e-06
480.0,-0.0006749966996721923
512.0,-0.00037859322037547827
576.0,2.8511787604657002e-05
640.0,0.0007063684170134366
704.0,0.000302241591271013
768.0,0.0003658680943772197
832.0,0.00031345090246759355
896.0,0.00022223121777642518
960.0,-0.00020800935453735292
1024.0,0.00031693134224042296
1152.0,0.00037657973007299006
1280.0,-0.0002166225021937862
1408.0,-0.000168648999533616
1536.0,2.6202978915534914e-05
1664.0,8.8488646724727e-05
1792.0,0.00031950316042639315
1920.0,0.00042057488462887704
2048.0,-0.0005881324177607894
2304.0,-7.337659917538986e-05
2560.0,-6.994383875280619e-05
2816.0,7.712026126682758e-05
3072.0,-0.00011047033331124112
3328.0,-0.00014814393944106996
3584.0,0.00015172384155448526
3840.0,-0.00020772374409716576
4096.0,-2.1728756109951064e-06
4608.0,-4.567347059492022e-05
5120.0,7.756084232823923e-05
5632.0,0.00023627928749192506
6144.0,-6.488987855846062e-05
6656.0,0.00011812949378509074
7168.0,-6.236354965949431e-05
7680.0,-6.402647704817355e-05
8192.0,-0.0001595524518052116
9216.0,-0.00018755749624688178
10240.0,-0.00011287987581454217
11264.0,1.7868305803858675e-05
12288.0,-2.236937143607065e-05
13312.0,-0.0002520758134778589
14336.0,-0.0002285625960212201
end
