version,3.0
numOfCh,1
type,point
parent_name,1000-cuts
ch_type,1_1
kcount,1
numberNandB,1
brightnessNandB,1
carpet pos,0
pc,0
Time (ms),CH1 Auto-Correlation
1.0,0.0930798351764679
2.0,0.08054152131080627
3.0,0.06997006386518478
4.0,0.06133254989981651
5.0,0.05415446683764458
6.0,0.04837067425251007
7.0,0.04301591217517853
8.0,0.03841286152601242
9.0,0.03452090919017792
10.0,0.030800215899944305
11.0,0.027180034667253494
12.0,0.0242900587618351
13.0,0.02180100791156292
14.0,0.0197354257106781
15.0,0.017775604501366615
16.0,0.01609690487384796
18.0,0.012869421392679214
20.0,0.01048232987523079
22.0,0.008465778082609177
24.0,0.00710337283089757
26.0,0.005785792134702206
28.0,0.00467819394543767
30.0,0.0028918583411723375
32.0,0.0011117075337097049
36.0,-0.0011432722676545382
40.0,-0.0014796674950048327
44.0,-0.0020403764210641384
48.0,-0.00031520164338871837
52.0,0.0004054568416904658
56.0,0.000825271534267813
60.0,0.0017725551733747125
64.0,0.0018885141471400857
72.0,-8.950040501076728e-05
80.0,-0.0012473890092223883
88.0,-0.0012297595385462046
96.0,0.00014599926362279803
104.0,0.0024841120466589928
112.0,0.0038570971228182316
120.0,0.004152806010097265
128.0,0.0029989383183419704
144.0,-0.0001161755426437594
160.0,-0.00037571199936792254
176.0,-0.003945879638195038
192.0,-0.0034237047657370567
208.0,-0.0018823565915226936
224.0,-0.0019590810406953096
240.0,0.000493606727104634
256.0,0.0036000830586999655
288.0,0.0023926550056785345
320.0,0.0010296289110556245
352.0,-0.001710719196125865
384.0,-5.4631502280244604e-05
416.0,-0.00150207185652107
448.0,0.0008305595838464797
480.0,-0.001206449349410832
512.0,-0.0006687121349386871
576.0,0.0006447936757467687
640.0,0.0005927890888415277
704.0,-0.00017400714568793774
768.0,0.0013956129550933838
832.0,0.001712488359771669
896.0,0.001828670152463019
960.0,-0.002797049703076482
1024.0,0.0038158439565449953
1152.0,0.0014133519725874066
1280.0,-0.0006107908557169139
1408.0,-0.001172417658381164
1536.0,-0.0017610128270462155
1664.0,0.0010016420856118202
1792.0,0.0018509175861254334
1920.0,0.00043620591168291867
2048.0,0.0003465513582341373
2304.0,0.0003503794432617724
2560.0,-0.0009627090184949338
2816.0,0.0006059625884518027
3072.0,-0.0007390996906906366
3328.0,-0.0010272208601236343
3584.0,-0.0016714584780856967
3840.0,0.0010255284141749144
4096.0,0.0007070606225170195
4608.0,-0.000987704494036734
5120.0,-9.593416325515136e-05
5632.0,4.68363577965647e-05
6144.0,-0.0009760728571563959
6656.0,0.00041514477925375104
7168.0,1.9839038941427134e-05
7680.0,-0.00011126614845125005
8192.0,-0.0001127137293224223
9216.0,0.0002637907746247947
10240.0,-0.0017093813512474298
11264.0,0.00022960339265409857
12288.0,-0.0007378825102932751
13312.0,0.0012520533055067062
14336.0,-0.0012001590803265572
end
