version,3.0
numOfCh,1
type,point
parent_name,1000-cuts
ch_type,1_1
kcount,1
numberNandB,1
brightnessNandB,1
carpet pos,0
pc,0
Time (ms),CH1 Auto-Correlation
1.0,0.08934183418750763
2.0,0.0780458003282547
3.0,0.06870343536138535
4.0,0.06049530208110809
5.0,0.053483325988054276
6.0,0.047539785504341125
7.0,0.04277103766798973
8.0,0.038640327751636505
9.0,0.03502941131591797
10.0,0.031523339450359344
11.0,0.028310289606451988
12.0,0.02570420317351818
13.0,0.023421846330165863
14.0,0.021619796752929688
15.0,0.019959798082709312
16.0,0.01831096038222313
18.0,0.015481236390769482
20.0,0.013474172912538052
22.0,0.011574377305805683
24.0,0.009819977916777134
26.0,0.007829425856471062
28.0,0.005940285511314869
30.0,0.0042551918886601925
32.0,0.0030420180410146713
36.0,0.0017025519628077745
40.0,0.00037569444975815713
44.0,-0.0008378775091841817
48.0,-0.0024751650635153055
52.0,-0.003301492426544428
56.0,-0.0034478148445487022
60.0,-0.0033220110926777124
64.0,-0.0034125586971640587
72.0,0.0004481766081880778
80.0,0.0027851362247020006
88.0,0.003145025810226798
96.0,0.002172461710870266
104.0,0.0023412315640598536
112.0,0.0034876789432018995
120.0,0.0021283740643411875
128.0,-0.0007574561750516295
144.0,-0.0013761890586465597
160.0,-0.002273562829941511
176.0,-0.0005796681507490575
192.0,-0.0013548600254580379
208.0,0.001283255172893405
224.0,-0.0007143985130824149
240.0,-0.003234527539461851
256.0,-0.0031657861545681953
288.0,-0.00043649892904795706
320.0,0.0006592775462195277
352.0,-0.0028536382596939802
384.0,-0.004654431249946356
416.0,-0.0014422982931137085
448.0,-0.0028035170398652554
480.0,-0.0034475764259696007
512.0,-0.0025625831913203
576.0,-0.0013943371595814824
640.0,-0.0002393251343164593
704.0,0.00021997241128701717
768.0,0.001698349486105144
832.0,0.002015606965869665
896.0,0.001500275218859315
960.0,-0.0007580647943541408
1024.0,-0.00031093397410586476
1152.0,0.00013919835328124464
1280.0,-0.002817378845065832
1408.0,-0.0008017643704079092
1536.0,0.001681994297541678
1664.0,0.003065655007958412
1792.0,0.0008913077763281763
1920.0,-0.0012829978950321674
2048.0,-0.0021077438723295927
2304.0,-0.0004668370238505304
2560.0,0.000638921104837209
2816.0,0.0006156310555525124
3072.0,-0.0006721226964145899
3328.0,0.0005993261584080756
3584.0,-0.000332115771016106
3840.0,0.00040426620398648083
4096.0,-0.0007134344195947051
4608.0,0.0005697437445633113
5120.0,-0.0007383648189716041
5632.0,0.0015072354581207037
6144.0,-0.0005682991468347609
6656.0,0.00013402535114437342
7168.0,-0.0011429321020841599
7680.0,0.000924888881854713
8192.0,-0.0008782297954894602
9216.0,-0.00042800523806363344
10240.0,0.000354695861460641
11264.0,-0.00017971298075281084
12288.0,-0.0008508090977557003
13312.0,2.3693704861216247e-05
14336.0,-0.00045699512702412903
end
