version,3.0
numOfCh,1
type,point
parent_name,1000-cuts
ch_type,1_1
kcount,1
numberNandB,1
brightnessNandB,1
carpet pos,0
pc,0
Time (ms),CH1 Auto-Correlation
1.0,0.04044591262936592
2.0,0.034902509301900864
3.0,0.03029068000614643
4.0,0.026493728160858154
5.0,0.02346935123205185
6.0,0.020484643056988716
7.0,0.01800399273633957
8.0,0.015839047729969025
9.0,0.013827318325638771
10.0,0.012044575065374374
11.0,0.010636333376169205
12.0,0.009361284784972668
13.0,0.00824950821697712
14.0,0.007174188736826181
15.0,0.006301199551671743
16.0,0.005577866919338703
18.0,0.0046883211471140385
20.0,0.003926462959498167
22.0,0.003226699074730277
24.0,0.0026179112028330564
26.0,0.0023300007451325655
28.0,0.002136360853910446
30.0,0.0014664351474493742
32.0,0.000789786980021745
36.0,-0.00014423832180909812
40.0,-0.000641137536149472
44.0,-0.0012252347078174353
48.0,-0.0024006387684494257
52.0,-0.0027289618737995625
56.0,-0.0017163176089525223
60.0,-0.0005413194303400815
64.0,2.445945756335277e-05
72.0,-0.0006145128281787038
80.0,-0.0016822414472699165
88.0,-0.0015961332246661186
96.0,-0.001178814098238945
104.0,-0.0003638124035205692
112.0,-0.0002242753835162148
120.0,-0.00010339338041376323
128.0,3.5231943229518947e-07
144.0,-0.0003046974597964436
160.0,0.0010998634388670325
176.0,0.001266110804863274
192.0,0.0004612660559359938
208.0,0.000516011263243854
224.0,0.001084960880689323
240.0,-0.00022968223493080586
256.0,-0.0014220302691683173
288.0,-0.00020148963085375726
320.0,-0.0002503956784494221
352.0,-0.0005677603767253458
384.0,-0.0004106280393898487
416.0,-0.0004260096466168761
448.0,-0.0007255247910507023
480.0,-0.00035992186167277396
512.0,-5.355870962375775e-05
576.0,5.392077946453355e-05
640.0,-0.00025366293266415596
704.0,-0.0014813384041190147
768.0,0.0004521284718066454
832.0,-0.000410125037888065
896.0,0.000450343795819208
960.0,0.0001385466894134879
1024.0,-0.0012229689164087176
1152.0,0.00018647951947059482
1280.0,-7.850587280699983e-05
1408.0,0.00015326388529501855
1536.0,0.00016220478573814034
1664.0,0.00027010298799723387
1792.0,-0.00043864332837983966
1920.0,-0.00015064487524796277
2048.0,0.0008219596929848194
2304.0,-4.674133379012346e-05
2560.0,-0.00034012843389064074
2816.0,-2.816612322931178e-05
3072.0,0.0005493235075846314
3328.0,-0.00037644122494384646
3584.0,0.000120548989798408
3840.0,6.80994417052716e-05
4096.0,-0.0009209972340613604
4608.0,0.00019076088210567832
5120.0,0.0005622822209261358
5632.0,-0.000618938822299242
6144.0,0.0002128553023794666
6656.0,0.0006160542834550142
7168.0,-0.0007092973683029413
7680.0,5.8944529882865027e-05
8192.0,0.0003081059257965535
9216.0,-0.0003544280771166086
10240.0,2.828967262757942e-05
11264.0,0.00025801273295655847
12288.0,-6.701043457724154e-05
13312.0,6.37646226095967e-05
14336.0,-2.443294033582788e-05
end
