version,3.0
numOfCh,1
type,point
parent_name,1000-cuts
ch_type,1_1
kcount,1
numberNandB,1
brightnessNandB,1
carpet pos,0
pc,0
Time (ms),CH1 Auto-Correlation
1.0,0.08036806434392929
2.0,0.06981676071882248
3.0,0.06128842383623123
4.0,0.05397631227970123
5.0,0.04794272407889366
6.0,0.04267711937427521
7.0,0.03835499659180641
8.0,0.03458748012781143
9.0,0.031129570677876472
10.0,0.027943633496761322
11.0,0.025185585021972656
12.0,0.022786766290664673
13.0,0.020625006407499313
14.0,0.01894446089863777
15.0,0.01717059127986431
16.0,0.015517286956310272
18.0,0.012709529139101505
20.0,0.010199985466897488
22.0,0.008496083319187164
24.0,0.007398553658276796
26.0,0.006108376197516918
28.0,0.005205029621720314
30.0,0.004048848524689674
32.0,0.0035095473285764456
36.0,0.003090901765972376
40.0,0.002420173492282629
44.0,0.0018620218615978956
48.0,0.0010767321800813079
52.0,0.0005934876389801502
56.0,-0.00044978404184803367
60.0,-0.0006910432130098343
64.0,-9.716300701256841e-05
72.0,0.0008703223429620266
80.0,0.0005275937728583813
88.0,-0.001064745127223432
96.0,-0.0016344267642125487
104.0,0.0007604516576975584
112.0,0.00020869083527941257
120.0,-0.0003393027000129223
128.0,-0.0012090737000107765
144.0,-0.001214206451550126
160.0,0.00044492867891676724
176.0,-0.0021445052698254585
192.0,-0.0036186964716762304
208.0,-0.003595418995246291
224.0,-0.0002851343888323754
240.0,0.0018439340637996793
256.0,0.0017024539411067963
288.0,-0.0003887900966219604
320.0,-0.00028537376783788204
352.0,0.001777705387212336
384.0,0.0016273414948955178
416.0,-0.0014351001009345055
448.0,0.00148884323425591
480.0,-0.0008455634233541787
512.0,-0.001536858850158751
576.0,-0.00014329447003547102
640.0,0.000579104817006737
704.0,-0.0003059000591747463
768.0,-0.0018038124544546008
832.0,-0.0002594153047539294
896.0,0.00032349457615055144
960.0,6.216380825208034e-06
1024.0,-0.0006924459594301879
1152.0,-0.0016771618975326419
1280.0,-0.0006560647743754089
1408.0,-0.0018038355046883225
1536.0,0.0009241629159078002
1664.0,0.0025730596389621496
1792.0,-0.0008181185112334788
1920.0,-2.045091059699189e-05
2048.0,0.0010624966816976666
2304.0,-0.0005586411571130157
2560.0,-0.00011219190491829067
2816.0,-0.0009516689460724592
3072.0,-0.0006242358358576894
3328.0,0.0008072176133282483
3584.0,-0.000602147018071264
3840.0,-7.790939707774669e-05
4096.0,-8.048908966884483e-06
4608.0,-0.0005769461859017611
5120.0,1.9834667909890413e-05
5632.0,-6.564574141521007e-05
6144.0,0.0006542066694237292
6656.0,-0.0005146680632606149
7168.0,-0.0003225858963560313
7680.0,0.0007093542371876538
8192.0,0.0009655554313212633
9216.0,-2.802555854941602e-06
10240.0,-0.0003666351258289069
11264.0,-0.0002387129352428019
12288.0,-4.044860179419629e-05
13312.0,0.00014785164967179298
14336.0,0.00019948012777604163
end
