version,3.0
numOfCh,1
type,point
parent_name,1000-cuts
ch_type,1_1
kcount,1
numberNandB,1
brightnessNandB,1
carpet pos,0
pc,0
Time (ms),CH1 Auto-Correlation
1.0,0.08085543662309647
2.0,0.0700075775384903
3.0,0.06111844629049301
4.0,0.05410636216402054
5.0,0.04812117666006088
6.0,0.042796891182661057
7.0,0.03840105980634689
8.0,0.034243423491716385
9.0,0.03036806918680668
10.0,0.026859275996685028
11.0,0.024051548913121223
12.0,0.0215439572930336
13.0,0.018945729359984398
14.0,0.01689283549785614
15.0,0.014964080415666103
16.0,0.013351112604141235
18.0,0.010239667259156704
20.0,0.00771209504455328
22.0,0.005632168613374233
24.0,0.004450405947864056
26.0,0.0031125203240662813
28.0,0.002322596265003085
30.0,0.0019074191804975271
32.0,0.0013228714233264327
36.0,0.0015454837121069431
40.0,0.0017106877639889717
44.0,0.001517479307949543
48.0,0.0009722870890982449
52.0,0.00015262767556123435
56.0,-0.0011468419106677175
60.0,-0.0017320426413789392
64.0,-0.002046950627118349
72.0,-0.00018695819017011672
80.0,0.0015778562519699335
88.0,0.000534424209035933
96.0,-0.0017201879527419806
104.0,-0.0013260084670037031
112.0,-0.00048318697372451425
120.0,0.0008065833244472742
128.0,0.0006564644281752408
144.0,-0.00017997428949456662
160.0,-0.0008709205430932343
176.0,-0.0012405191082507372
192.0,-0.0005813416210003197
208.0,-0.0009727095603011549
224.0,6.925386696821079e-05
240.0,0.00024419487453997135
256.0,0.0009745596908032894
288.0,0.0028710162732750177
320.0,0.0012645983370020986
352.0,6.6582731960807e-05
384.0,0.0011779016349464655
416.0,-0.0003963010385632515
448.0,-0.0008659085142426193
480.0,-0.0019706746097654104
512.0,-0.0014238329604268074
576.0,-0.0019708203617483377
640.0,-0.001966418931260705
704.0,0.0013806909555569291
768.0,0.00024082453455775976
832.0,0.0018806182779371738
896.0,-0.0018447815673425794
960.0,-0.0014174866955727339
1024.0,8.025256101973355e-05
1152.0,0.0001786536886356771
1280.0,0.0004312823584768921
1408.0,0.0014973889337852597
1536.0,0.0013914696173742414
1664.0,-0.0002123325684806332
1792.0,0.000273678480880335
1920.0,0.0005856769857928157
2048.0,0.0011260488536208868
2304.0,-0.0006487242062576115
2560.0,-0.001327679492533207
2816.0,0.0008537055109627545
3072.0,0.0005540177226066589
3328.0,0.0004163496778346598
3584.0,0.0008117377874441445
3840.0,-0.002003659028559923
4096.0,-0.0006237151101231575
4608.0,0.000661158817820251
5120.0,-8.42142544570379e-05
5632.0,0.00024781233514659107
6144.0,-0.00020462048996705562
6656.0,0.0006145479856058955
7168.0,-0.001532333786599338
7680.0,0.0001075354011845775
8192.0,-0.0004931822186335921
9216.0,-0.0008375896723009646
10240.0,-0.00036098394775763154
11264.0,-0.0004068662237841636
12288.0,-0.00025988565175794065
13312.0,-0.00019454593711998314
14336.0,0.00023845519172027707
end
