version,3.0
numOfCh,1
type,point
parent_name,1000-cuts
ch_type,1_1
kcount,1
numberNandB,1
brightnessNandB,1
carpet pos,0
pc,0
Time (ms),CH1 Auto-Correlation
1.0,0.0822807028889656
2.0,0.07058367878198624
3.0,0.060753315687179565
4.0,0.05247480422258377
5.0,0.04540272802114487
6.0,0.03935312479734421
7.0,0.03429332748055458
8.0,0.029812470078468323
9.0,0.02627871185541153
10.0,0.02344152331352234
11.0,0.021110842004418373
12.0,0.018985599279403687
13.0,0.017107229679822922
14.0,0.015607760287821293
15.0,0.014332038350403309
16.0,0.013066230341792107
18.0,0.011477239429950714
20.0,0.010000210255384445
22.0,0.008027532137930393
24.0,0.005868495907634497
26.0,0.004443211480975151
28.0,0.003414470935240388
30.0,0.0024677878245711327
32.0,0.002713211113587022
36.0,0.0032818359322845936
40.0,0.003264855593442917
44.0,0.002553508384153247
48.0,0.0018667589174583554
52.0,0.0004136073694098741
56.0,-0.0005727029056288302
60.0,-0.0012918945867568254
64.0,-0.0018767156871035695
72.0,-0.0021730230655521154
80.0,-0.004008850082755089
88.0,-0.0037406354676932096
96.0,-0.0014630458317697048
104.0,-5.834726835018955e-05
112.0,-0.0013663234421983361
120.0,-0.002460425952449441
128.0,-0.0024337333161383867
144.0,-0.00015300654922612011
160.0,-0.0013472767313942313
176.0,-8.317806350532919e-05
192.0,-0.0007444822113029659
208.0,-0.0014740482438355684
224.0,-0.0020963000133633614
240.0,-0.0018822236452251673
256.0,-0.0004987787106074393
288.0,0.001771201379597187
320.0,0.0018144077621400356
352.0,0.003997394815087318
384.0,0.00016054946172516793
416.0,-0.0008077316451817751
448.0,-0.00048638577573001385
480.0,-0.0014546571765094995
512.0,-0.0018129631644114852
576.0,8.811686711851507e-05
640.0,-0.0005265507497824728
704.0,-0.0006867780466564
768.0,-0.002025750232860446
832.0,-0.0004903310327790678
896.0,0.0003204825334250927
960.0,-0.0017465775599703193
1024.0,-0.0006627765251323581
1152.0,-0.00040807388722896576
1280.0,-0.0008323788642883301
1408.0,0.0006807402241975069
1536.0,-5.617019996861927e-05
1664.0,0.00010112278687302023
1792.0,0.0014625934418290854
1920.0,-0.0007364423363469541
2048.0,0.0006878638523630798
2304.0,4.894916492048651e-05
2560.0,0.00019015946600120515
2816.0,0.0006953992997296154
3072.0,-7.466445094905794e-05
3328.0,-0.0001816221629269421
3584.0,-0.0008358405320905149
3840.0,-1.1590421308937948e-05
4096.0,-0.0008138457778841257
4608.0,0.0003733625926543027
5120.0,0.0008923084824346006
5632.0,-0.0003530631656758487
6144.0,-0.0008884837152436376
6656.0,-0.0008795188623480499
7168.0,0.0008500455878674984
7680.0,0.0012031528167426586
8192.0,-0.0011403303360566497
9216.0,-0.00048534010420553386
10240.0,0.0007298593991436064
11264.0,-0.0006999418837949634
12288.0,0.0011817466001957655
13312.0,-0.0015447740443050861
14336.0,0.0012710478622466326
end
