version,3.0
numOfCh,1
type,point
parent_name,1000-cuts
ch_type,1_1
kcount,1
numberNandB,1
brightnessNandB,1
carpet pos,0
pc,0
Time (ms),CH1 Auto-Correlation
1.0,0.03820772469043732
2.0,0.0329887755215168
3.0,0.02849043905735016
4.0,0.02467760257422924
5.0,0.021549807861447334
6.0,0.01892678067088127
7.0,0.016739819198846817
8.0,0.014788998290896416
9.0,0.013112163171172142
10.0,0.011775474064052105
11.0,0.010424490086734295
12.0,0.009421849623322487
13.0,0.00845945905894041
14.0,0.007604667916893959
15.0,0.006911888252943754
16.0,0.006196219939738512
18.0,0.005171590950340033
20.0,0.004188690800219774
22.0,0.003272711532190442
24.0,0.0025441087782382965
26.0,0.002093028509989381
28.0,0.0017436164198443294
30.0,0.0014236804563552141
32.0,0.001016447669826448
36.0,0.00040813456871546805
40.0,-8.444984996458516e-05
44.0,0.00012081361637683585
48.0,-0.00011783345689764246
52.0,0.00011241354513913393
56.0,0.00016983970999717712
60.0,-8.066181180765852e-05
64.0,6.462641522375634e-06
72.0,0.00042250932892784476
80.0,-0.0002937113749794662
88.0,-0.0006920386222191155
96.0,-0.0013164897682145238
104.0,-0.0019510089186951518
112.0,-0.0018065059557557106
120.0,-0.0007389972452074289
128.0,0.00011585606262087822
144.0,-0.0005120601854287088
160.0,-0.0003521476755850017
176.0,-0.0006106140790507197
192.0,0.0001447813119739294
208.0,0.0006006074836477637
224.0,7.072921289363876e-05
240.0,0.0003312747576273978
256.0,0.0012120110914111137
288.0,-0.00029198770062066615
320.0,0.0004457452450878918
352.0,-0.0009106973302550614
384.0,0.0004366176435723901
416.0,0.0012781365076079965
448.0,-0.0002889728348236531
480.0,0.00020642754680011421
512.0,-0.0007526694098487496
576.0,-0.0004506674886215478
640.0,0.0009024108876474202
704.0,0.0003958360757678747
768.0,-0.0018361264374107122
832.0,-0.0007092226296663284
896.0,-0.0004902970977127552
960.0,-0.00012024612806271762
1024.0,-0.00015683598758187145
1152.0,0.00038982866681180894
1280.0,0.0008090485353022814
1408.0,-0.0009967937367036939
1536.0,0.0005068042664788663
1664.0,0.0002026383444899693
1792.0,-0.0005220997263677418
1920.0,9.87046878435649e-05
2048.0,-0.0006293727783486247
2304.0,-0.0002858292718883604
2560.0,0.0001570496242493391
2816.0,-0.0003370811464264989
3072.0,0.00029425814864225686
3328.0,-0.0003808126493822783
3584.0,0.0003742061962839216
3840.0,0.0002027684386121109
4096.0,0.00013368910003919154
4608.0,0.0003780074475798756
5120.0,2.1644980733981356e-05
5632.0,-0.00035572543856687844
6144.0,-0.00012912201054859906
6656.0,9.66207949204545e-07
7168.0,-0.00035837801988236606
7680.0,0.0001917011250043288
8192.0,7.784179615555331e-05
9216.0,0.0002820536610670388
10240.0,-0.0004998224321752787
11264.0,-1.0639860192895867e-05
12288.0,-0.00024196064623538405
13312.0,0.0003648775746114552
14336.0,0.00023966944718267769
end
