version,3.0
numOfCh,1
type,point
parent_name,1000-cuts
ch_type,1_1
kcount,1
numberNandB,1
brightnessNandB,1
carpet pos,0
pc,0
Time (ms),CH1 Auto-Correlation
1.0,0.08049878478050232
2.0,0.069768987596035
3.0,0.06012706086039543
4.0,0.05213344842195511
5.0,0.04503793641924858
6.0,0.03892416134476662
7.0,0.03376104682683945
8.0,0.029641931876540184
9.0,0.025999028235673904
10.0,0.02266949601471424
11.0,0.019651705399155617
12.0,0.016957994550466537
13.0,0.014788122847676277
14.0,0.013126417063176632
15.0,0.011779616586863995
16.0,0.010804522782564163
18.0,0.009388097561895847
20.0,0.008149017579853535
22.0,0.007232917472720146
24.0,0.006375759840011597
26.0,0.004771197680383921
28.0,0.0034850905649363995
30.0,0.0019922638311982155
32.0,0.001215467811562121
36.0,0.0015059926081448793
40.0,0.0024579933378845453
44.0,0.0017828427953645587
48.0,0.002738870680332184
52.0,0.0020339777693152428
56.0,0.0010903222719207406
60.0,0.0010532548185437918
64.0,0.0018516528652980924
72.0,0.0022370642982423306
80.0,0.0020192910451442003
88.0,0.0024656394962221384
96.0,0.0019033433636650443
104.0,0.002424640813842416
112.0,0.0023269527591764927
120.0,0.0022241505794227123
128.0,0.0008627116912975907
144.0,0.0012545250356197357
160.0,0.0007121711387299001
176.0,-8.88035210664384e-05
192.0,0.00020619019051082432
208.0,-0.0024816282093524933
224.0,-0.0014549603220075369
240.0,0.00012949478696100414
256.0,-0.0012568195816129446
288.0,0.0012073979014530778
320.0,-0.00020859469077549875
352.0,-0.0026348819956183434
384.0,0.000933041621465236
416.0,-0.000810751982498914
448.0,0.001541151199489832
480.0,-0.0004688787448685616
512.0,0.000183159951120615
576.0,-0.0011842994717881083
640.0,-8.553589395887684e-06
704.0,0.0008350134012289345
768.0,-0.00045687530655413866
832.0,-0.0026708755176514387
896.0,-0.002033547731116414
960.0,-0.001708119991235435
1024.0,-0.000723640841897577
1152.0,0.0005978363915346563
1280.0,0.0003103199414908886
1408.0,0.0015829975018277764
1536.0,5.9098925703438e-05
1664.0,-0.0007892682333476841
1792.0,-0.0005357887130230665
1920.0,-0.0009592631249688566
2048.0,-0.0005201561143621802
2304.0,9.851317008724436e-05
2560.0,0.0013218721142038703
2816.0,-0.0004526247794274241
3072.0,-0.00027091227821074426
3328.0,-0.001638446468859911
3584.0,-0.0007932469015941024
3840.0,-0.00013640742690768093
4096.0,0.00047443926450796425
4608.0,-0.00026812986470758915
5120.0,-0.00021330939489416778
5632.0,0.0002738300245255232
6144.0,5.1769991841865703e-05
6656.0,0.00020831538131460547
7168.0,0.0003570661065168679
7680.0,-8.316173625644296e-05
8192.0,-2.159760879294481e-05
9216.0,-0.0003748961607925594
10240.0,-0.000858027022331953
11264.0,0.00042099927668459713
12288.0,0.0008770852582529187
13312.0,0.0011467237491160631
14336.0,0.0001480128412367776
end
