version,3.0
numOfCh,1
type,point
parent_name,1000-cuts
ch_type,1_1
kcount,1
numberNandB,1
brightnessNandB,1
carpet pos,0
pc,0
Time (ms),CH1 Auto-Correlation
1.0,0.08471859246492386
2.0,0.07347500324249268
3.0,0.0640140101313591
4.0,0.0559801422059536
5.0,0.04903516545891762
6.0,0.043176427483558655
7.0,0.038310933858156204
8.0,0.033876143395900726
9.0,0.02991265244781971
10.0,0.026744049042463303
11.0,0.02390422485768795
12.0,0.021292470395565033
13.0,0.019400740042328835
14.0,0.01754060387611389
15.0,0.015895171090960503
16.0,0.014312570914626122
18.0,0.012112502939999104
20.0,0.01065355259925127
22.0,0.009095162153244019
24.0,0.007522411644458771
26.0,0.005884635727852583
28.0,0.004628752823919058
30.0,0.003464250825345516
32.0,0.002608043607324362
36.0,-0.0001703103189356625
40.0,-0.0013623510021716356
44.0,-0.0006778548704460263
48.0,-0.0003598493349272758
52.0,-0.00177072046790272
56.0,-0.002708537271246314
60.0,-0.0025098891928792
64.0,-0.0021963720209896564
72.0,-0.0013918183976784348
80.0,0.00011230186646571383
88.0,0.0010494778398424387
96.0,0.0021987201180309057
104.0,0.0025671946350485086
112.0,0.002008111448958516
120.0,-0.0007076739566400647
128.0,-0.001889712642878294
144.0,-0.0038053144235163927
160.0,-0.002043282613158226
176.0,0.0013472337741404772
192.0,0.003747246926650405
208.0,0.002446467522531748
224.0,0.001280250959098339
240.0,-0.0003941974136978388
256.0,-0.002305563073605299
288.0,0.0013380147283896804
320.0,-0.00018482274026609957
352.0,-0.0018087342614308
384.0,-0.0006440047291107476
416.0,-6.104619387770072e-08
448.0,0.00036666993401013315
480.0,-0.0011115121887996793
512.0,0.002865765243768692
576.0,-0.0013576195342466235
640.0,-0.000573245226405561
704.0,-0.0009150948608294129
768.0,-0.0003044046461582184
832.0,-0.0002906131849158555
896.0,0.0017266658833250403
960.0,-0.0008360415231436491
1024.0,-0.0002298166509717703
1152.0,0.00017444895638618618
1280.0,0.0006822619470767677
1408.0,-0.0015510490629822016
1536.0,-0.0011095937807112932
1664.0,-0.00036192467086948454
1792.0,-0.0010572795290499926
1920.0,-0.0018038592534139752
2048.0,-0.0004998107324354351
2304.0,-0.00012161547783762217
2560.0,0.00028469946119003
2816.0,-0.0008693328709341586
3072.0,-0.0007928850245662034
3328.0,0.0020737918093800545
3584.0,5.9828857047250494e-05
3840.0,0.0005742439534515142
4096.0,-0.0006639682687819004
4608.0,0.00089494843268767
5120.0,-0.0010839959140866995
5632.0,-0.0008979093399830163
6144.0,-0.0002831633610185236
6656.0,5.214680277276784e-05
7168.0,-2.988741653098259e-05
7680.0,-8.194003748940304e-05
8192.0,0.0008576559484936297
9216.0,-0.0007718156557530165
10240.0,-0.0006242958479560912
11264.0,0.0013059877092018723
12288.0,0.00034898132435046136
13312.0,-0.0012997585581615567
14336.0,0.0009651583968661726
end
