version,3.0
numOfCh,1
type,point
parent_name,1000-cuts
ch_type,1_1
kcount,1
numberNandB,1
brightnessNandB,1
carpet pos,0
pc,0
Time (ms),CH1 Auto-Correlation
1.0,0.03880121186375618
2.0,0.03345280885696411
3.0,0.02890848182141781
4.0,0.02514778822660446
5.0,0.022054076194763184
6.0,0.019315166398882866
7.0,0.01699192263185978
8.0,0.014927903190255165
9.0,0.013122659176588058
10.0,0.011400111019611359
11.0,0.010028713382780552
12.0,0.008731164038181305
13.0,0.007613116409629583
14.0,0.0066712419502437115
15.0,0.0057807061821222305
16.0,0.005095452535897493
18.0,0.004118586424738169
20.0,0.0032258580904453993
22.0,0.0025087357498705387
24.0,0.0022760601714253426
26.0,0.002082123188301921
28.0,0.0016796884592622519
30.0,0.0011665596393868327
32.0,0.0010450922418385744
36.0,0.0012424858286976814
40.0,0.0010213771602138877
44.0,0.0008875391213223338
48.0,0.0006680166115984321
52.0,8.876807987689972e-05
56.0,-0.00028063321951776743
60.0,-0.0010149894515052438
64.0,-0.0015565213980153203
72.0,-0.0011995944660156965
80.0,-6.911267701070756e-05
88.0,0.0006549625541083515
96.0,0.0003542480117175728
104.0,0.00016263284487649798
112.0,0.0002727842365857214
120.0,-0.0001639779075048864
128.0,-0.0005137511761859059
144.0,-0.00022895049187354743
160.0,0.0007782516768202186
176.0,0.0012403099099174142
192.0,-0.0005743129877373576
208.0,-0.0003293455811217427
224.0,-0.00046989641850814223
240.0,0.000273359939455986
256.0,0.0011608649510890245
288.0,-0.0012550974497571588
320.0,-7.46124133002013e-05
352.0,0.0016142636304721236
384.0,0.0004284644965082407
416.0,0.0006492796819657087
448.0,0.00020029493316542357
480.0,-0.0003462806635070592
512.0,0.0010631205514073372
576.0,0.00029939040541648865
640.0,-0.0006594646256417036
704.0,0.000626673805527389
768.0,0.0003772967611439526
832.0,-0.0001919411588460207
896.0,-0.00014320916670840234
960.0,-5.509942275239155e-05
1024.0,0.000775641412474215
1152.0,0.00023845070973038673
1280.0,-0.0001833997230278328
1408.0,-0.00016738475824240595
1536.0,6.264966941671446e-05
1664.0,0.000502105918712914
1792.0,0.000163402539328672
1920.0,0.000528680277056992
2048.0,0.0002212565450463444
2304.0,-6.923632463440299e-05
2560.0,9.414865417056717e-06
2816.0,-0.00033563817851245403
3072.0,-2.3797811081749387e-06
3328.0,-0.00031425844645127654
3584.0,0.0003157290047965944
3840.0,-0.00021043443121016026
4096.0,0.0002623868640512228
4608.0,-0.00024412824132014066
5120.0,-0.00022198943770490587
5632.0,-0.0001804792700568214
6144.0,-0.0001526971609564498
6656.0,-6.648070848314092e-05
7168.0,0.0002699297619983554
7680.0,0.0002923396532423794
8192.0,-0.0003410854551475495
9216.0,-0.0001888143306132406
10240.0,-6.585298706340836e-07
11264.0,-2.3423306629410945e-05
12288.0,-0.00035846722312271595
13312.0,-0.0003881645970977843
14336.0,-0.0003580734774004668
end
