version,3.0
numOfCh,1
type,point
parent_name,1000-cuts
ch_type,1_1
kcount,1
numberNandB,1
brightnessNandB,1
carpet pos,0
pc,0
Time (ms),CH1 Auto-Correlation
1.0,0.025324245914816856
2.0,0.021923484280705452
3.0,0.01916009746491909
4.0,0.01678953319787979
5.0,0.014825979247689247
6.0,0.013163627125322819
7.0,0.011607111431658268
8.0,0.010291474871337414
9.0,0.009152022190392017
10.0,0.00807939562946558
11.0,0.007259950507432222
12.0,0.006504456512629986
13.0,0.0057487147860229015
14.0,0.005155821330845356
15.0,0.0045431810431182384
16.0,0.003977903630584478
18.0,0.003024263307452202
20.0,0.0023622361477464437
22.0,0.0020338897593319416
24.0,0.0015356589574366808
26.0,0.0010668282629922032
28.0,0.0006352333584800363
30.0,0.0004890975542366505
32.0,0.0003820505808107555
36.0,-4.720846118289046e-05
40.0,-0.000504454190377146
44.0,-0.0004234841326251626
48.0,-5.2963987400289625e-05
52.0,3.958238085033372e-05
56.0,-0.0002487847814336419
60.0,-0.00012857922411058098
64.0,0.0002592473174445331
72.0,0.0003685650590341538
80.0,-0.0007748531061224639
88.0,-0.0001504038373241201
96.0,0.0008449055021628737
104.0,0.0007340465672314167
112.0,6.684939580736682e-05
120.0,-0.0004302759189158678
128.0,0.00011637553689070046
144.0,0.00021656681201420724
160.0,8.965512097347528e-05
176.0,-0.0005855606868863106
192.0,-0.0008610691875219345
208.0,-6.361427222145721e-05
224.0,0.0004208257596474141
240.0,0.0002462637785356492
256.0,4.035635356558487e-06
288.0,0.0006169723346829414
320.0,-0.00025271764025092125
352.0,-0.00011266306682955474
384.0,-0.0003674936597235501
416.0,0.00015776341024320573
448.0,-9.095028872252442e-06
480.0,0.00040018040454015136
512.0,0.0004014623409602791
576.0,0.000456588517408818
640.0,-7.512374577345327e-05
704.0,0.00014240208838600665
768.0,-0.00016352476086467505
832.0,-0.0005025775171816349
896.0,-0.00046822192962281406
960.0,3.038532486243639e-05
1024.0,-0.0006412438233383
1152.0,-0.000223583570914343
1280.0,0.0002470327017363161
1408.0,4.781813913723454e-05
1536.0,-0.0003255519550293684
1664.0,0.00031743309227749705
1792.0,-2.730943560891319e-05
1920.0,0.0005129234050400555
2048.0,0.00041693274397403
2304.0,-0.00018460159481037408
2560.0,0.00016853499982971698
2816.0,-0.00012570824765134603
3072.0,8.361268555745482e-05
3328.0,0.0001692082587396726
3584.0,-0.0005396484630182385
3840.0,2.3721329853287898e-05
4096.0,-0.000292470765998587
4608.0,-0.00014490382454823703
5120.0,4.523338793660514e-05
5632.0,0.00013038735778536648
6144.0,7.422306953230873e-05
6656.0,-0.0001445551897631958
7168.0,-0.00016579247312620282
7680.0,-0.00015903312305454165
8192.0,0.00031573791056871414
9216.0,-4.919841012451798e-05
10240.0,-0.0001297243870794773
11264.0,-5.675772990798578e-05
12288.0,-9.849137859418988e-05
13312.0,4.21301865571877e-06
14336.0,-8.999900455819443e-05
end
