version,3.0
numOfCh,1
type,point
parent_name,1000-cuts
ch_type,1_1
kcount,1
numberNandB,1
brightnessNandB,1
carpet pos,0
pc,0
Time (ms),CH1 Auto-Correlation
1.0,0.0829174667596817
2.0,0.07167776674032211
3.0,0.062154002487659454
4.0,0.05427958071231842
5.0,0.04748948663473129
6.0,0.04156351089477539
7.0,0.0366298072040081
8.0,0.03226199001073837
9.0,0.028580380603671074
10.0,0.025532623752951622
11.0,0.022779114544391632
12.0,0.020569315180182457
13.0,0.018456755205988884
14.0,0.01658591814339161
15.0,0.01495799794793129
16.0,0.013289069756865501
18.0,0.01023381669074297
20.0,0.007822310552001
22.0,0.0063021318055689335
24.0,0.005401696544140577
26.0,0.004449411761015654
28.0,0.0037637671921402216
30.0,0.00374699872918427
32.0,0.003832402639091015
36.0,0.0036613522097468376
40.0,0.0025781067088246346
44.0,0.0013936719624325633
48.0,3.262290920247324e-05
52.0,-0.0010216801892966032
56.0,-0.002551086712628603
60.0,-0.0024854689836502075
64.0,-0.0016410811804234982
72.0,-0.0009270658483728766
80.0,-0.00020342055358923972
88.0,0.0016268391627818346
96.0,0.001045428216457367
104.0,-0.00046261714305728674
112.0,-0.0012185623636469245
120.0,-0.0009494556579738855
128.0,0.00045521504944190383
144.0,0.0042745983228087425
160.0,0.00017028955335263163
176.0,-0.0031138609629124403
192.0,-0.002864322392269969
208.0,-0.0030372755136340857
224.0,-0.0014700761530548334
240.0,-0.00043264616397209466
256.0,-0.0017615718534216285
288.0,0.00020932113693561405
320.0,0.002764270640909672
352.0,-0.0032345738727599382
384.0,0.00022660552349407226
416.0,-0.0001354840351268649
448.0,-0.002167956903576851
480.0,0.0004341658786870539
512.0,0.0020085948053747416
576.0,-0.0005089174956083298
640.0,0.0010741824517026544
704.0,0.0015757809160277247
768.0,0.00034766626777127385
832.0,-0.0008061579428613186
896.0,-0.0023849988356232643
960.0,0.0002315658493898809
1024.0,-0.00048357603373005986
1152.0,-0.0009149339166469872
1280.0,0.0005087614990770817
1408.0,0.00030340548255480826
1536.0,-0.001261659897863865
1664.0,-0.001202129409648478
1792.0,-0.00017257648869417608
1920.0,-0.0003990788827650249
2048.0,0.0010453463764861226
2304.0,-0.0008438307559117675
2560.0,-0.0005278877215459943
2816.0,-0.0007342749740928411
3072.0,-9.977770241675898e-05
3328.0,0.0002502109273336828
3584.0,-0.001594643690623343
3840.0,0.0009282136452384293
4096.0,0.0011070179753005505
4608.0,0.0005449680029414594
5120.0,0.00030975573463365436
5632.0,-0.0009238726343028247
6144.0,0.00023614779638592154
6656.0,-7.68961472203955e-05
7168.0,0.0003703147522173822
7680.0,-0.00043582794023677707
8192.0,-0.0004580532549880445
9216.0,-0.0001945340627571568
10240.0,8.351440919796005e-05
11264.0,0.00047291669761762023
12288.0,-0.00022702581190969795
13312.0,-0.0007200150866992772
14336.0,0.0002984758757520467
end
