version,3.0
numOfCh,1
type,point
parent_name,1000-cuts
ch_type,1_1
kcount,1
numberNandB,1
brightnessNandB,1
carpet pos,0
pc,0
Time (ms),CH1 Auto-Correlation
1.0,0.076606884598732
2.0,0.06550197303295135
3.0,0.05634685978293419
4.0,0.048805661499500275
5.0,0.04259032756090164
6.0,0.03729966655373573
7.0,0.032941870391368866
8.0,0.02954482100903988
9.0,0.026754865422844887
10.0,0.02427525259554386
11.0,0.022041210904717445
12.0,0.020232783630490303
13.0,0.018474780023097992
14.0,0.016863537952303886
15.0,0.015689192339777946
16.0,0.01485581137239933
18.0,0.013822749257087708
20.0,0.012297932989895344
22.0,0.010466153733432293
24.0,0.008885117247700691
26.0,0.007469639182090759
28.0,0.006446890067309141
30.0,0.005860885139554739
32.0,0.0054378085769712925
36.0,0.005742810200899839
40.0,0.0044758617877960205
44.0,0.0037041243631392717
48.0,0.0034110909327864647
52.0,0.003843938233330846
56.0,0.004081530962139368
60.0,0.003727721283212304
64.0,0.0028498785104602575
72.0,0.001622730866074562
80.0,0.0003980050387326628
88.0,-0.0008695230935700238
96.0,-0.0006119314348325133
104.0,0.00021061864390503615
112.0,0.002399478107690811
120.0,0.002732509281486273
128.0,0.0029322782065719366
144.0,0.0035827611573040485
160.0,0.0016674230573698878
176.0,0.002173647517338395
192.0,0.00034600324579514563
208.0,-0.0025968211703002453
224.0,-0.00234830379486084
240.0,-0.0007135500200092793
256.0,0.001150046824477613
288.0,-0.0011769423726946115
320.0,-0.0007593411719426513
352.0,-0.001497773570008576
384.0,-0.002323208609595895
416.0,-0.0030839990358799696
448.0,-0.0028740817215293646
480.0,-0.0029366551898419857
512.0,-0.002220146358013153
576.0,-0.0003152998397126794
640.0,0.0014785558450967073
704.0,-0.000488525431137532
768.0,0.0020067926961928606
832.0,0.0006424956955015659
896.0,0.0026756792794913054
960.0,0.001894221524707973
1024.0,-0.0021290797740221024
1152.0,-0.0007407832890748978
1280.0,6.776166264899075e-05
1408.0,0.00022924807853996754
1536.0,0.0009108059457503259
1664.0,-0.0008991369977593422
1792.0,0.0023394266609102488
1920.0,0.0013042226200923324
2048.0,-1.0985897461068816e-05
2304.0,-0.00024092663079500198
2560.0,0.0006575182778760791
2816.0,7.841626938898116e-05
3072.0,-3.129686592728831e-05
3328.0,0.0008054831414483488
3584.0,-0.0007833322742953897
3840.0,-0.0005147646879777312
4096.0,0.0010656940285116434
4608.0,0.0010384408524259925
5120.0,-0.0006756368093192577
5632.0,-0.0007609509048052132
6144.0,-8.931442425819114e-05
6656.0,-0.000593240896705538
7168.0,7.576309872092679e-05
7680.0,8.013293700059876e-05
8192.0,-0.0015861443243920803
9216.0,7.636654481757432e-05
10240.0,-0.0010094826575368643
11264.0,-0.00018856120004784316
12288.0,0.00010454639414092526
13312.0,-8.984397572930902e-05
14336.0,-0.0019553680904209614
end
