version,3.0
numOfCh,1
type,point
parent_name,1000-cuts
ch_type,1_1
kcount,1
numberNandB,1
brightnessNandB,1
carpet pos,0
pc,0
Time (ms),CH1 Auto-Correlation
1.0,0.030030135065317154
2.0,0.026519782841205597
3.0,0.02349710464477539
4.0,0.02089563012123108
5.0,0.01871059648692608
6.0,0.016826942563056946
7.0,0.015246829017996788
8.0,0.013945570215582848
9.0,0.012787780724465847
10.0,0.011629821732640266
11.0,0.0105995312333107
12.0,0.009639403782784939
13.0,0.008808898739516735
14.0,0.008183679543435574
15.0,0.0076073152013123035
16.0,0.007045018021017313
18.0,0.005951614119112492
20.0,0.005068577826023102
22.0,0.004253733903169632
24.0,0.003703924361616373
26.0,0.003241399535909295
28.0,0.002692233771085739
30.0,0.0022220315877348185
32.0,0.0020413093734532595
36.0,0.001977979438379407
40.0,0.0018296519992873073
44.0,0.001321600517258048
48.0,0.0010312257800251245
52.0,0.00044524739496409893
56.0,-0.0002728447434492409
60.0,-0.0008146077743731439
64.0,-0.0008753840229474008
72.0,-0.00042302499059587717
80.0,-7.658015238121152e-05
88.0,-0.00032946531428024173
96.0,-0.0007733870879746974
104.0,-0.0002304321387782693
112.0,-0.00017895585915539414
120.0,-0.0012947209179401398
128.0,-0.0020755690056830645
144.0,-0.001446120790205896
160.0,-0.00021143291087355465
176.0,0.0008087512687779963
192.0,0.0013815867714583874
208.0,0.000642885803245008
224.0,0.00037887771031819284
240.0,0.0005305583472363651
256.0,0.0012510729720816016
288.0,0.0006910220254212618
320.0,0.00020970705372747034
352.0,-0.0003460247826296836
384.0,-0.00012926435738336295
416.0,0.0008297835593111813
448.0,0.0012964903144165874
480.0,0.000730962841771543
512.0,-0.00010501847282284871
576.0,0.0005055108922533691
640.0,-0.000333762465743348
704.0,0.0006313160411082208
768.0,-0.00023419197532348335
832.0,-0.0003464671899564564
896.0,-0.0007761120214127004
960.0,-5.233074989519082e-05
1024.0,0.00020218091958668083
1152.0,0.00015198193432297558
1280.0,7.350125088123605e-05
1408.0,-0.0002504610747564584
1536.0,0.000306671776343137
1664.0,0.00023539713583886623
1792.0,0.0007720509311184287
1920.0,-0.00011243236804148182
2048.0,-0.00012513624096754938
2304.0,-0.0005267986562103033
2560.0,-0.000530319637618959
2816.0,-0.0001974198967218399
3072.0,-0.00041571861947886646
3328.0,-2.1270152501529083e-05
3584.0,-0.0001710735959932208
3840.0,-0.00012941779277753085
4096.0,-0.0004151969333179295
4608.0,-0.00014249012747313827
5120.0,-0.00011665500642266124
5632.0,0.00010188792657572776
6144.0,0.00017572869546711445
6656.0,0.00029003614326938987
7168.0,0.0003568448591977358
7680.0,0.0003295124333817512
8192.0,0.00027686069370247424
9216.0,-0.00025661912513896823
10240.0,-0.0004348928923718631
11264.0,-0.00014480807294603437
12288.0,6.256734195630997e-05
13312.0,9.510185191174969e-05
14336.0,2.4068303901003674e-05
end
