version,3.0
numOfCh,1
type,point
parent_name,1000-cuts
ch_type,1_1
kcount,1
numberNandB,1
brightnessNandB,1
carpet pos,0
pc,0
Time (ms),CH1 Auto-Correlation
1.0,0.026336783543229103
2.0,0.0225667804479599
3.0,0.01954086683690548
4.0,0.01710415817797184
5.0,0.01495229359716177
6.0,0.013098331168293953
7.0,0.011440567672252655
8.0,0.009940789081156254
9.0,0.008529980666935444
10.0,0.007308523636311293
11.0,0.0062338062562048435
12.0,0.005412138998508453
13.0,0.004661612678319216
14.0,0.004052785690873861
15.0,0.003650560975074768
16.0,0.003334703156724572
18.0,0.0027262866497039795
20.0,0.00222588749602437
22.0,0.0019147677812725306
24.0,0.0017419528448954225
26.0,0.0016373366815969348
28.0,0.001285686856135726
30.0,0.0011433176696300507
32.0,0.0011003626277670264
36.0,0.0010616942308843136
40.0,0.0008677175501361489
44.0,0.0008995704120025039
48.0,0.0006386259919963777
52.0,0.000412372057326138
56.0,0.00026434866595081985
60.0,0.00020942311675753444
64.0,0.00021550923702307045
72.0,0.0007782617467455566
80.0,0.0012013423256576061
88.0,0.00026391938445158303
96.0,0.00024565961211919785
104.0,0.00032407132675871253
112.0,0.00037556394818238914
120.0,0.00028668975573964417
128.0,0.0004486192774493247
144.0,-0.00013368039799388498
160.0,1.2799132491636556e-06
176.0,4.818638626602478e-05
192.0,0.0004612093325704336
208.0,0.0016799859004095197
224.0,0.0008600542787462473
240.0,0.0004576432111207396
256.0,-8.676882862346247e-05
288.0,0.0004502404772210866
320.0,0.00012845371384173632
352.0,0.0005379075882956386
384.0,0.0005604095058515668
416.0,0.0006527880905196071
448.0,-0.00013366693747229874
480.0,-0.00020022594253532588
512.0,-0.001067876466549933
576.0,0.00011340843775542453
640.0,6.0461585235316306e-05
704.0,2.2566962798009627e-05
768.0,-0.00047931441804394126
832.0,-4.6712684707017615e-05
896.0,2.8135340471635573e-05
960.0,0.00019581532978918403
1024.0,0.00022513057047035545
1152.0,-0.0003979751782026142
1280.0,0.0004656080564018339
1408.0,-0.00015899960999377072
1536.0,0.00010690859198803082
1664.0,0.0002467140438966453
1792.0,-0.0003304486453998834
1920.0,-0.00028678690432570875
2048.0,0.00011695306602632627
2304.0,0.00041146858711726964
2560.0,-3.7105703086126596e-05
2816.0,-0.0002280490443808958
3072.0,6.70135923428461e-05
3328.0,-0.0004763751639984548
3584.0,-9.770254837349057e-05
3840.0,-0.00023616148973815143
4096.0,-0.00039682016358710825
4608.0,-5.9774443798232824e-05
5120.0,-0.00021510619262699038
5632.0,-0.00033231021370738745
6144.0,-5.6828870583558455e-05
6656.0,-0.00017236906569451094
7168.0,-0.00017283775378018618
7680.0,0.0002324917441001162
8192.0,-0.00018941906455438584
9216.0,-3.1520743505097926e-05
10240.0,0.00036789942532777786
11264.0,0.000334257201757282
12288.0,2.2915852241567336e-05
13312.0,-0.00029100640676915646
14336.0,-0.0006945919594727457
end
