version,3.0
numOfCh,1
type,point
parent_name,1000-cuts
ch_type,1_1
kcount,1
numberNandB,1
brightnessNandB,1
carpet pos,0
pc,0
Time (ms),CH1 Auto-Correlation
1.0,0.038137972354888916
2.0,0.03296035900712013
3.0,0.028532560914754868
4.0,0.024643803015351295
5.0,0.021251022815704346
6.0,0.018354332074522972
7.0,0.0159564521163702
8.0,0.013760820031166077
9.0,0.012060046195983887
10.0,0.010569686070084572
11.0,0.009253722615540028
12.0,0.008216572925448418
13.0,0.007249017711728811
14.0,0.006514941342175007
15.0,0.005687466822564602
16.0,0.004854849074035883
18.0,0.0036245612427592278
20.0,0.0026048633735626936
22.0,0.0018595465226098895
24.0,0.0012482076417654753
26.0,0.0009937540162354708
28.0,0.0005384438554756343
30.0,-5.6708871852606535e-05
32.0,-0.0002764217497315258
36.0,-0.0006849649362266064
40.0,-0.0014217700809240341
44.0,-0.0013506062095984817
48.0,-0.0011613405076786876
52.0,-0.0011540179839357734
56.0,-0.0007469613919965923
60.0,0.00024505326291546226
64.0,0.0005619861767627299
72.0,0.00037830686778761446
80.0,-0.00030635358416475356
88.0,-0.00018320210801903158
96.0,0.0009937604190781713
104.0,0.0008680116734467447
112.0,0.0005900337127968669
120.0,-0.00020438089268282056
128.0,-0.00016837539442349225
144.0,-0.000650432426482439
160.0,-0.0004361892642918974
176.0,-1.922702904266771e-05
192.0,-2.903968379541766e-05
208.0,0.00030795694328844547
224.0,0.000344757892889902
240.0,-0.00011491609620861709
256.0,-0.0013629061868414283
288.0,0.00035128078889101744
320.0,-0.0005123454611748457
352.0,-0.0011733899591490626
384.0,-0.0004532147431746125
416.0,-0.0010439303005114198
448.0,-0.0019851659890264273
480.0,-0.0010253466898575425
512.0,-0.00010997762001352385
576.0,-0.0002879154635593295
640.0,-9.1168301878497e-05
704.0,-0.00027232852880842984
768.0,0.00037846266059204936
832.0,0.001970367506146431
896.0,0.0006359996623359621
960.0,0.0004382045881357044
1024.0,-0.000254299578955397
1152.0,0.00031591838342137635
1280.0,-0.0006703130784444511
1408.0,0.0002031496405834332
1536.0,0.0002076251112157479
1664.0,-0.0005034456262364984
1792.0,0.0003782284038607031
1920.0,-0.0006050847587175667
2048.0,0.0009448157506994903
2304.0,0.00047078286297619343
2560.0,-0.0004023271903861314
2816.0,-0.0005089837359264493
3072.0,0.000765570905059576
3328.0,0.0001154834681074135
3584.0,-0.0002867217408493161
3840.0,-6.646849942626432e-05
4096.0,0.0004961883532814682
4608.0,-2.7943868190050125e-05
5120.0,-0.00011662716133287176
5632.0,-9.341935947304592e-05
6144.0,0.00032224072492681444
6656.0,-0.00040849894867278636
7168.0,-0.00011176055704709142
7680.0,-8.659512241138145e-05
8192.0,-0.00016957697516772896
9216.0,-0.00013601761020254344
10240.0,-0.00016829448577482253
11264.0,-0.00019695013179443777
12288.0,-0.00011366391845513135
13312.0,-7.133393228286877e-05
14336.0,3.394337181816809e-05
end
