version,3.0
numOfCh,1
type,point
parent_name,1000-cuts
ch_type,1_1
kcount,1
numberNandB,1
brightnessNandB,1
carpet pos,0
pc,0
Time (ms),CH1 Auto-Correlation
1.0,0.09432702511548996
2.0,0.08280840516090393
3.0,0.0728430300951004
4.0,0.06480695307254791
5.0,0.05766243860125542
6.0,0.05161844193935394
7.0,0.04628251865506172
8.0,0.04155971109867096
9.0,0.03713073581457138
10.0,0.0334424190223217
11.0,0.030119389295578003
12.0,0.027476955205202103
13.0,0.024891477078199387
14.0,0.022471923381090164
15.0,0.020207060500979424
16.0,0.018113387748599052
18.0,0.013560215011239052
20.0,0.009751033037900925
22.0,0.007159942761063576
24.0,0.005171195138245821
26.0,0.00407913513481617
28.0,0.0032769942190498114
30.0,0.0022522881627082825
32.0,0.0017200270667672157
36.0,0.001336267334409058
40.0,0.001018113107420504
44.0,0.001350673846900463
48.0,0.0010546151315793395
52.0,0.0008781641372479498
56.0,0.0015242904191836715
60.0,0.002902989275753498
64.0,0.003700695000588894
72.0,0.003529970534145832
80.0,0.002821272937580943
88.0,0.0023135035298764706
96.0,-0.0015439091948792338
104.0,-0.0012474189279600978
112.0,-0.0001188878741231747
120.0,-0.0010871350532397628
128.0,-4.5937315007904544e-05
144.0,0.0017580616986379027
160.0,-0.0012390052434056997
176.0,-0.003994927275925875
192.0,-0.0018072170205414295
208.0,-0.00263708783313632
224.0,-0.003892606822773814
240.0,-0.003598791779950261
256.0,-0.003661335911601782
288.0,-0.0008461957331746817
320.0,-0.001042693736962974
352.0,-1.324392269452801e-05
384.0,0.002055083867162466
416.0,0.0018766159191727638
448.0,0.0017125727608799934
480.0,-0.0009748290758579969
512.0,-0.0003395283129066229
576.0,-0.0006959856837056577
640.0,-0.00187266047578305
704.0,-0.00019752919615712017
768.0,0.00015550189709756523
832.0,-0.0009102888870984316
896.0,-0.0025674207136034966
960.0,0.001097045256756246
1024.0,-0.001350080012343824
1152.0,0.00040644488763064146
1280.0,-0.0010036571184173226
1408.0,0.001210206770338118
1536.0,-0.0010940327774733305
1664.0,0.0007374640554189682
1792.0,0.000448872335255146
1920.0,-0.0004393309645820409
2048.0,-0.0004172304179519415
2304.0,0.0005030129686929286
2560.0,0.0010208975290879607
2816.0,0.00035166938323527575
3072.0,0.0007556249620392919
3328.0,0.00021922611631453037
3584.0,-0.000989214750006795
3840.0,-0.0013100036885589361
4096.0,-0.0006117660086601973
4608.0,0.00047332930262200534
5120.0,-0.0003285120183136314
5632.0,-0.00021843887225259095
6144.0,-1.7118200048571452e-05
6656.0,-0.0005698679015040398
7168.0,0.0004827523953281343
7680.0,-0.0005631673848256469
8192.0,-8.83245884324424e-05
9216.0,-0.0007579374359920621
10240.0,0.0001756483397912234
11264.0,0.0002837094943970442
12288.0,-0.0005939627299085259
13312.0,0.0009437210974283516
14336.0,-4.063326196046546e-05
end
