version,3.0
numOfCh,1
type,point
parent_name,1000-cuts
ch_type,1_1
kcount,1
numberNandB,1
brightnessNandB,1
carpet pos,0
pc,0
Time (ms),CH1 Auto-Correlation
1.0,0.03808905929327011
2.0,0.03297991678118706
3.0,0.028638269752264023
4.0,0.025127269327640533
5.0,0.022097080945968628
6.0,0.01952511817216873
7.0,0.01738257147371769
8.0,0.015600164420902729
9.0,0.01406849455088377
10.0,0.012735763564705849
11.0,0.01165494043380022
12.0,0.010694211348891258
13.0,0.009737178683280945
14.0,0.00873879250138998
15.0,0.007859381847083569
16.0,0.007106269244104624
18.0,0.0059725516475737095
20.0,0.0053513916209340096
22.0,0.00502963038161397
24.0,0.0049329474568367004
26.0,0.004671692382544279
28.0,0.004400485195219517
30.0,0.003833877155557275
32.0,0.003352510742843151
36.0,0.0028439813759177923
40.0,0.0027290633879601955
44.0,0.002427689963951707
48.0,0.0021904688328504562
52.0,0.0018464435124769807
56.0,0.0018052728846669197
60.0,0.002022570464760065
64.0,0.0024616869632154703
72.0,0.0027739997021853924
80.0,0.0012384791625663638
88.0,-0.0003161703352816403
96.0,0.0009006768232211471
104.0,0.001587033155374229
112.0,0.0014269445091485977
120.0,0.0007396447472274303
128.0,0.001009959727525711
144.0,0.0005016514332965016
160.0,-0.00047726460616104305
176.0,0.0010116768535226583
192.0,0.0008333932491950691
208.0,0.0006269554723985493
224.0,0.0009897444397211075
240.0,0.0001676006941124797
256.0,-6.30750073469244e-05
288.0,-8.16157553344965e-05
320.0,0.0005511280032806098
352.0,0.0010395797435194254
384.0,0.0010709650814533234
416.0,0.0013423609780147672
448.0,0.001658426015637815
480.0,0.0004968546563759446
512.0,-0.0001854923029895872
576.0,-0.0003773944335989654
640.0,-0.00047769243246875703
704.0,0.0008252921397797763
768.0,-0.0003106215444859117
832.0,-0.0005659623420797288
896.0,0.0002983681915793568
960.0,-0.0008420079830102623
1024.0,0.00048297797911800444
1152.0,-0.0004546760465018451
1280.0,-0.0002863423724193126
1408.0,0.0008217499125748873
1536.0,0.00046425554319284856
1664.0,0.0004594181082211435
1792.0,0.0011172766098752618
1920.0,-0.00013582210522145033
2048.0,-0.0006324516143649817
2304.0,-0.0002616448327898979
2560.0,-0.0006223355885595083
2816.0,0.00043081791955046356
3072.0,0.00022709064069204032
3328.0,0.0008030327735468745
3584.0,-0.0007441692287102342
3840.0,-0.00010246378224110231
4096.0,-0.0006041061133146286
4608.0,0.0004641673876903951
5120.0,0.00020566111197695136
5632.0,-5.885473728994839e-05
6144.0,-0.00027196932933293283
6656.0,-0.0007151871104724705
7168.0,-0.0005989403580315411
7680.0,-0.00038845889503136277
8192.0,-0.0005840324447490275
9216.0,-1.2410512681526598e-05
10240.0,-0.00010261424176860601
11264.0,-0.0005496748490259051
12288.0,-3.9248472603503615e-05
13312.0,0.00026789773255586624
14336.0,3.34501382894814e-05
end
