version,3.0
numOfCh,1
type,point
parent_name,1000-cuts
ch_type,1_1
kcount,1
numberNandB,1
brightnessNandB,1
carpet pos,0
pc,0
Time (ms),CH1 Auto-Correlation
1.0,0.03973514586687088
2.0,0.03453538194298744
3.0,0.030292151495814323
4.0,0.026604074984788895
5.0,0.02355135604739189
6.0,0.020696917548775673
7.0,0.01817835308611393
8.0,0.015879785642027855
9.0,0.013783457688987255
10.0,0.012082071974873543
11.0,0.010757237672805786
12.0,0.009527985006570816
13.0,0.008257540874183178
14.0,0.0071930307894945145
15.0,0.006201477721333504
16.0,0.005524805281311274
18.0,0.004754997324198484
20.0,0.00425302516669035
22.0,0.004026584792882204
24.0,0.003914530389010906
26.0,0.003303922014310956
28.0,0.002792894374579191
30.0,0.0026634419336915016
32.0,0.002413337817415595
36.0,0.0014012178871780634
40.0,8.534357220923994e-06
44.0,-0.0010365635389462113
48.0,-0.0017226125346496701
52.0,-0.0013318682322278619
56.0,-0.0009608289692550898
60.0,-0.0009759592940099537
64.0,-0.0011842128587886691
72.0,-0.0010897198226302862
80.0,0.0002801415685098618
88.0,0.0004815187712665647
96.0,0.00022428776719607413
104.0,0.0001600474352017045
112.0,-0.0003023400786332786
120.0,-0.0005128644406795502
128.0,-0.0015978575684130192
144.0,-0.0007050359854474664
160.0,0.0006438331329263747
176.0,0.002177532995119691
192.0,0.00033806022838689387
208.0,0.0006386503810063004
224.0,0.0003701923124026507
240.0,0.0005259569734334946
256.0,0.0003317577939014882
288.0,-0.0003727970761246979
320.0,0.00044958930811844766
352.0,-0.0008003418915905058
384.0,-0.0005142294685356319
416.0,0.00048535465612076223
448.0,0.0009598901960998774
480.0,-0.00031226282590068877
512.0,-0.0012904023751616478
576.0,0.00017550982011016458
640.0,-0.0003565610386431217
704.0,-0.00040800648275762796
768.0,-0.001177082653157413
832.0,-0.0008775501628406346
896.0,3.7283207348082215e-05
960.0,-8.9275672507938e-05
1024.0,0.0014881952665746212
1152.0,-1.7814996681408957e-05
1280.0,0.0005039472016505897
1408.0,-0.00032003442174755037
1536.0,8.214822446461767e-05
1664.0,6.463708268711343e-05
1792.0,0.0005180223379284143
1920.0,-0.000252339435974136
2048.0,-0.00015474499377887696
2304.0,9.125845281232614e-06
2560.0,-0.00039764150278642774
2816.0,0.0001492227311246097
3072.0,8.473895286442712e-05
3328.0,0.00017063829000107944
3584.0,-0.00016244698781520128
3840.0,0.00011097026435891166
4096.0,-0.00030680804047733545
4608.0,6.739932723576203e-05
5120.0,0.00021360551181714982
5632.0,0.00015858317783568054
6144.0,0.0001272695662919432
6656.0,5.598561619990505e-05
7168.0,0.0003862747398670763
7680.0,-0.000814101891592145
8192.0,-0.0003901695308741182
9216.0,-0.00014657963765785098
10240.0,8.747321408009157e-05
11264.0,-7.530545553890988e-05
12288.0,-6.351550837280229e-05
13312.0,-0.0002973026130348444
14336.0,-0.0001916685578180477
end
