version,3.0
numOfCh,1
type,point
parent_name,1000-cuts
ch_type,1_1
kcount,1
numberNandB,1
brightnessNandB,1
carpet pos,0
pc,0
Time (ms),CH1 Auto-Correlation
1.0,0.03839018568396568
2.0,0.033670052886009216
3.0,0.02970087341964245
4.0,0.026334043592214584
5.0,0.02338534966111183
6.0,0.020792877301573753
7.0,0.018487177789211273
8.0,0.016516393050551414
9.0,0.014840495772659779
10.0,0.013362263329327106
11.0,0.011957610957324505
12.0,0.01081234309822321
13.0,0.009892499074339867
14.0,0.009030588902533054
15.0,0.008206095546483994
16.0,0.007502150256186724
18.0,0.006317730527371168
20.0,0.005088212434202433
22.0,0.004175375681370497
24.0,0.003540199948474765
26.0,0.002849097829312086
28.0,0.002103666542097926
30.0,0.001508139306679368
32.0,0.0009324736311100423
36.0,0.0005297659081406891
40.0,0.0005857037613168359
44.0,0.0007141593960113823
48.0,0.001154316239990294
52.0,0.001990110380575061
56.0,0.0025143446400761604
60.0,0.00221178843639791
64.0,0.0017323802458122373
72.0,0.000796288310084492
80.0,0.0006775588262826204
88.0,0.0008534080116078258
96.0,0.0005551219801418483
104.0,0.0009581983322277665
112.0,0.0008338714251294732
120.0,-1.0578926776361186e-05
128.0,-0.0010218786774203181
144.0,-0.0014955924125388265
160.0,-0.0012202172074466944
176.0,-0.001310141640715301
192.0,-0.0015070545487105846
208.0,-0.0009469872456975281
224.0,0.0002478881797287613
240.0,0.00042638040031306446
256.0,0.0004037689359392971
288.0,-0.00024705001851543784
320.0,0.00042168679647147655
352.0,-0.0009355396032333374
384.0,0.00010574523184914142
416.0,-0.0009206488612107933
448.0,0.00032123763230629265
480.0,0.0008996624383144081
512.0,0.0012925767805427313
576.0,-0.0008160021970979869
640.0,0.000356138072675094
704.0,-8.894831989891827e-05
768.0,-0.0004568364529404789
832.0,1.1020542842743453e-05
896.0,0.0008656899444758892
960.0,0.0004803157935384661
1024.0,0.0009072912507690489
1152.0,-0.0007876286399550736
1280.0,-0.0008201219025067985
1408.0,-1.4848832506686449e-05
1536.0,0.00038476719055324793
1664.0,-0.0008836357737891376
1792.0,0.00029059278313070536
1920.0,-0.000318943930324167
2048.0,0.00011464684939710423
2304.0,-0.00019302965665701777
2560.0,-0.0001063279269146733
2816.0,-0.0004172875778749585
3072.0,-2.6100356990355067e-05
3328.0,-0.0005781373474746943
3584.0,0.0005757774924859405
3840.0,-0.00028809794457629323
4096.0,0.00014576433750335127
4608.0,-0.0002678998280316591
5120.0,-1.0224967809335794e-05
5632.0,0.0004279518034309149
6144.0,0.00019238979439251125
6656.0,0.00020581255375873297
7168.0,0.00018244162492919713
7680.0,-0.000409428816055879
8192.0,-0.00022898238967172801
9216.0,-0.00022835731215309352
10240.0,0.0003227470151614398
11264.0,2.6733128834166564e-05
12288.0,0.00012456542754080147
13312.0,7.199391984613612e-05
14336.0,-2.575268445070833e-05
end
