version,3.0
numOfCh,1
type,point
parent_name,1000-cuts
ch_type,1_1
kcount,1
numberNandB,1
brightnessNandB,1
carpet pos,0
pc,0
Time (ms),CH1 Auto-Correlation
1.0,0.04123549908399582
2.0,0.035469844937324524
3.0,0.030604371801018715
4.0,0.026468709111213684
5.0,0.023110782727599144
6.0,0.020232489332556725
7.0,0.017666779458522797
8.0,0.015295466408133507
9.0,0.013344223611056805
10.0,0.011646466329693794
11.0,0.010206392966210842
12.0,0.009047581814229488
13.0,0.00784688163548708
14.0,0.0069231996312737465
15.0,0.006112091243267059
16.0,0.005440650042146444
18.0,0.004161087796092033
20.0,0.0030295937322080135
22.0,0.0022410093806684017
24.0,0.00131360930390656
26.0,0.00048361317021772265
28.0,-5.471714393934235e-05
30.0,-0.00033018062822520733
32.0,-0.0004530205042101443
36.0,7.402954361168668e-05
40.0,0.0008912136545404792
44.0,0.0013896053424105048
48.0,0.002148689003661275
52.0,0.002239236142486334
56.0,0.001744803856126964
60.0,0.0009807412279769778
64.0,0.0005935666849836707
72.0,0.0014043461997061968
80.0,0.0012415343662723899
88.0,0.0006530505488626659
96.0,-0.00037702350527979434
104.0,-0.0009573359857313335
112.0,-0.000836791645269841
120.0,-0.0005316035822033882
128.0,-0.0009190140990540385
144.0,-0.00047297996934503317
160.0,-0.0012965922942385077
176.0,-2.7194260837859474e-05
192.0,-0.00020101940026506782
208.0,-0.0008838477660901845
224.0,-0.0008765801321715117
240.0,-0.0019089269917458296
256.0,-0.0017765054944902658
288.0,-0.0006368122412823141
320.0,0.0003937009896617383
352.0,-3.9059810660546646e-05
384.0,0.0021245640236884356
416.0,0.0006794180371798575
448.0,0.0008269865647889674
480.0,0.0014515017392113805
512.0,0.0006944910273887217
576.0,-0.0009206185350194573
640.0,-0.0004701265424955636
704.0,0.0006255766493268311
768.0,0.0004111990856472403
832.0,-9.836410754360259e-05
896.0,-9.233207674697042e-05
960.0,-0.0009516626014374197
1024.0,-0.0009376415982842445
1152.0,0.0003501764440443367
1280.0,-9.200358181260526e-05
1408.0,0.0004102009115740657
1536.0,0.0003120063920505345
1664.0,-0.0008383172680623829
1792.0,0.00045756041072309017
1920.0,0.0010910277487710118
2048.0,-0.0010066002141684294
2304.0,0.00011239195009693503
2560.0,-0.00022859785531181842
2816.0,0.00011542433639988303
3072.0,-0.00014255696441978216
3328.0,-0.0005956711247563362
3584.0,0.000331611605361104
3840.0,-0.00040773182990960777
4096.0,0.00027571560349315405
4608.0,-0.00011778940097428858
5120.0,-0.0003417881962377578
5632.0,0.00012617827451322228
6144.0,0.00017102272249758244
6656.0,2.1968542569084093e-05
7168.0,0.0002766108373180032
7680.0,-9.731519821798429e-05
8192.0,0.00034044994390569627
9216.0,6.107274384703487e-05
10240.0,-0.00019116568728350103
11264.0,-0.00027608757955022156
12288.0,-0.00040103873470798135
13312.0,-3.011251692441874e-06
14336.0,-0.00024612233391962945
end
