version,3.0
numOfCh,1
type,point
parent_name,1000-cuts
ch_type,1_1
kcount,1
numberNandB,1
brightnessNandB,1
carpet pos,0
pc,0
Time (ms),CH1 Auto-Correlation
1.0,0.0796789824962616
2.0,0.06880006194114685
3.0,0.05957982689142227
4.0,0.05191069096326828
5.0,0.04539234936237335
6.0,0.03973032161593437
7.0,0.03475336357951164
8.0,0.030753226950764656
9.0,0.027094919234514236
10.0,0.02398603968322277
11.0,0.02122054249048233
12.0,0.018683454021811485
13.0,0.016827205196022987
14.0,0.01521546021103859
15.0,0.013747869059443474
16.0,0.012319126166403294
18.0,0.010227488353848457
20.0,0.008816074579954147
22.0,0.007837141864001751
24.0,0.007229616399854422
26.0,0.006722710095345974
28.0,0.0059814355336129665
30.0,0.005166110582649708
32.0,0.0047120279632508755
36.0,0.00438253628090024
40.0,0.004691296257078648
44.0,0.003265440696850419
48.0,0.0025060647167265415
52.0,0.0021802387200295925
56.0,0.0017497740918770432
60.0,0.0018989836098626256
64.0,0.002017827006056905
72.0,0.0025741360150277615
80.0,0.003345778677612543
88.0,0.002079456113278866
96.0,0.0005486478912644088
104.0,-0.0006703133112750947
112.0,-0.0006505594355985522
120.0,0.00010335021943319589
128.0,-0.0009969680104404688
144.0,0.00018302263924852014
160.0,-0.0013384782942011952
176.0,-0.0012803190620616078
192.0,-0.0021897093392908573
208.0,-0.0016467149835079908
224.0,-0.0019236333901062608
240.0,-0.0021786107681691647
256.0,-0.003443604102358222
288.0,-0.0028766407631337643
320.0,-0.0039394935593008995
352.0,-0.003624703036621213
384.0,-0.002000679261982441
416.0,0.001491675153374672
448.0,0.0023635230027139187
480.0,-0.0010426302906125784
512.0,-0.0009493326651863754
576.0,-3.477245263638906e-05
640.0,0.0016241702251136303
704.0,-7.168720912886783e-05
768.0,-0.0015232772566378117
832.0,-0.000772861298173666
896.0,0.0010329225333407521
960.0,0.0016197175718843937
1024.0,-2.4636712623760104e-05
1152.0,-0.0007537803030572832
1280.0,-0.0010290417121723294
1408.0,0.001220664125867188
1536.0,0.0008715427829883993
1664.0,-0.0005169817013666034
1792.0,-0.0016609564190730453
1920.0,0.0005543627194128931
2048.0,0.0012362247798591852
2304.0,-0.0008031148463487625
2560.0,0.0003441029111854732
2816.0,-0.00044064156827516854
3072.0,0.00042078900150954723
3328.0,-4.518445712164976e-05
3584.0,0.00026884055114351213
3840.0,-0.00041800353210419416
4096.0,0.0004961700178682804
4608.0,-0.00012731552124023438
5120.0,9.941748430719599e-05
5632.0,-0.0010051378048956394
6144.0,0.0002495561202522367
6656.0,-0.0006802869029343128
7168.0,-0.00013211775512900203
7680.0,-2.866217437258456e-05
8192.0,7.199122046586126e-05
9216.0,-0.00012535363202914596
10240.0,-0.0001946236880030483
11264.0,0.0004263978626113385
12288.0,0.00026854261523112655
13312.0,-8.668231203046162e-06
14336.0,-0.0009764716378413141
end
