version,3.0
numOfCh,1
type,point
parent_name,484af_0dot4-0dot01
ch_type,1_1
kcount,1
numberNandB,1
brightnessNandB,1
carpet pos,0
pc,0
Time (ms),CH1 Auto-Correlation
1.0,0.0368860587477684
2.0,0.03575659543275833
3.0,0.034717489033937454
4.0,0.0337398461997509
5.0,0.03278823569417
6.0,0.03186524659395218
7.0,0.03098290227353573
8.0,0.030140232294797897
9.0,0.029370127245783806
10.0,0.028613805770874023
11.0,0.0279031153768301
12.0,0.027227792888879776
13.0,0.026586243882775307
14.0,0.025937136262655258
15.0,0.025316612794995308
16.0,0.024724893271923065
18.0,0.023685336112976074
20.0,0.02271285653114319
22.0,0.021779382601380348
24.0,0.02092611975967884
26.0,0.02023049257695675
28.0,0.019567470997571945
30.0,0.01894567348062992
32.0,0.018371686339378357
36.0,0.017214270308613777
40.0,0.01616564393043518
44.0,0.015302223153412342
48.0,0.014580965042114258
52.0,0.014181802980601788
56.0,0.013810335658490658
60.0,0.013390041887760162
64.0,0.012892773374915123
72.0,0.01213095709681511
80.0,0.01110068615525961
88.0,0.009892535395920277
96.0,0.009236649610102177
104.0,0.008992896415293217
112.0,0.008530850522220135
120.0,0.008087358437478542
128.0,0.007757235784083605
144.0,0.006725667044520378
160.0,0.006340737454593182
176.0,0.006362005136907101
192.0,0.006646676920354366
208.0,0.007000417914241552
224.0,0.006826707627624273
240.0,0.006616964470595121
256.0,0.006968339905142784
288.0,0.006604868918657303
320.0,0.005931077525019646
352.0,0.005859363824129105
384.0,0.006944957654923201
416.0,0.006559776142239571
448.0,0.005373579449951649
480.0,0.0036330579314380884
512.0,0.0022607464343309402
576.0,0.0013907189713791013
640.0,0.0024739098735153675
704.0,0.0014078322565183043
768.0,-2.08906003535958e-05
832.0,0.00018526386702433228
896.0,0.00010722033039201051
960.0,0.0008198485593311489
1024.0,0.0019327995833009481
1152.0,-0.0014575369423255324
1280.0,-0.0027424045838415623
1408.0,-0.000426316459197551
1536.0,-0.0023415246978402138
1664.0,-0.0008348831906914711
1792.0,-3.923259282601066e-05
1920.0,-0.002684039529412985
2048.0,-0.0003718644438777119
2304.0,-0.0014449333539232612
2560.0,-0.0013981313677504659
2816.0,-0.0019485836382955313
3072.0,-0.002979075536131859
3328.0,-0.0013904909137636423
3584.0,0.0014159077545627952
3840.0,0.0029134019277989864
4096.0,0.002046927809715271
4608.0,-0.0007775868289172649
5120.0,-0.0009456175030209124
5632.0,0.0011466809082776308
6144.0,0.000571011914871633
6656.0,-0.0006936272257007658
7168.0,-0.002315480262041092
7680.0,-0.0027986790519207716
8192.0,-0.001970362151041627
end
