version,3.0
numOfCh,1
type,point
parent_name,484af_0dot4-0dot01
ch_type,1_1
kcount,1
numberNandB,1
brightnessNandB,1
carpet pos,0
pc,0
Time (ms),CH1 Auto-Correlation
1.0,0.12002275139093399
2.0,0.11876802891492844
3.0,0.11755706369876862
4.0,0.11636058986186981
5.0,0.11521252989768982
6.0,0.11411373317241669
7.0,0.11299706250429153
8.0,0.1119491383433342
9.0,0.11095193773508072
10.0,0.10999614745378494
11.0,0.10901644825935364
12.0,0.10796914994716644
13.0,0.10703738778829575
14.0,0.10614445805549622
15.0,0.10528738796710968
16.0,0.10442126542329788
18.0,0.10288482159376144
20.0,0.10146603733301163
22.0,0.10018151253461838
24.0,0.09905537217855453
26.0,0.09817112237215042
28.0,0.09745346009731293
30.0,0.09678591787815094
32.0,0.09605390578508377
36.0,0.0947132259607315
40.0,0.09342247247695923
44.0,0.0920458734035492
48.0,0.09079716354608536
52.0,0.08946702629327774
56.0,0.08827897906303406
60.0,0.08693409711122513
64.0,0.0858025774359703
72.0,0.08454712480306625
80.0,0.08327797800302505
88.0,0.08221624791622162
96.0,0.08134262263774872
104.0,0.08059782534837723
112.0,0.07972344011068344
120.0,0.07835894078016281
128.0,0.07704271376132965
144.0,0.07483574748039246
160.0,0.07338668406009674
176.0,0.07237465679645538
192.0,0.07093336433172226
208.0,0.07039139419794083
224.0,0.06992987543344498
240.0,0.06795632839202881
256.0,0.0663711354136467
288.0,0.06758396327495575
320.0,0.06980495899915695
352.0,0.06959901005029678
384.0,0.06897428631782532
416.0,0.06872565299272537
448.0,0.06689313799142838
480.0,0.06739427149295807
512.0,0.0684216096997261
576.0,0.0588301345705986
640.0,0.048552077263593674
704.0,0.044278401881456375
768.0,0.043236810714006424
832.0,0.042270477861166
896.0,0.04067480191588402
960.0,0.03604397550225258
1024.0,0.02958025597035885
1152.0,0.015285772271454334
1280.0,0.006369707640260458
1408.0,0.000945796724408865
1536.0,-0.0015354924835264683
1664.0,-0.008010688237845898
1792.0,-0.013960055075585842
1920.0,-0.011334400624036789
2048.0,-0.018148697912693024
2304.0,-0.01973460242152214
2560.0,-0.017535246908664703
2816.0,-0.02056915871798992
3072.0,-0.03054884821176529
3328.0,-0.038063544780015945
3584.0,-0.04957228899002075
3840.0,-0.05532047152519226
4096.0,-0.05855197459459305
4608.0,-0.04312991350889206
5120.0,-0.018909648060798645
5632.0,0.003859930904582143
6144.0,0.009341833181679249
6656.0,0.013914929702877998
7168.0,0.01237521506845951
7680.0,0.010712147690355778
8192.0,0.018293334171175957
end
