version,3.0
numOfCh,1
type,point
parent_name,484af_0dot4-0dot01
ch_type,1_1
kcount,1
numberNandB,1
brightnessNandB,1
carpet pos,0
pc,0
Time (ms),CH1 Auto-Correlation
1.0,0.4385995864868164
2.0,0.43628445267677307
3.0,0.4338577687740326
4.0,0.43130990862846375
5.0,0.4288948178291321
6.0,0.426527738571167
7.0,0.42390722036361694
8.0,0.4212705194950104
9.0,0.4186367690563202
10.0,0.4159271717071533
11.0,0.41327378153800964
12.0,0.4107478857040405
13.0,0.40812256932258606
14.0,0.40550538897514343
15.0,0.40302810072898865
16.0,0.40058985352516174
18.0,0.3956824541091919
20.0,0.39069461822509766
22.0,0.3860156834125519
24.0,0.38141629099845886
26.0,0.3767480254173279
28.0,0.3725794851779938
30.0,0.36825621128082275
32.0,0.3641456961631775
36.0,0.3565320670604706
40.0,0.3483698070049286
44.0,0.3403511047363281
48.0,0.3318881392478943
52.0,0.3235386908054352
56.0,0.31525278091430664
60.0,0.3065447211265564
64.0,0.298292875289917
72.0,0.28243210911750793
80.0,0.26715946197509766
88.0,0.25277838110923767
96.0,0.23900200426578522
104.0,0.2257525771856308
112.0,0.212324321269989
120.0,0.1993757039308548
128.0,0.18696948885917664
144.0,0.1621406376361847
160.0,0.13756480813026428
176.0,0.1219293624162674
192.0,0.11819922924041748
208.0,0.11325645446777344
224.0,0.10783106833696365
240.0,0.10411866009235382
256.0,0.10109485685825348
288.0,0.09469977766275406
320.0,0.08944317698478699
352.0,0.07970832288265228
384.0,0.06160368397831917
416.0,0.04032136872410774
448.0,0.021311724558472633
480.0,0.008243093267083168
512.0,-0.0022889538668096066
576.0,-0.011664520017802715
640.0,-0.01115118432790041
704.0,-0.010491346940398216
768.0,-0.011151457205414772
832.0,-0.023167340084910393
896.0,-0.03448658809065819
960.0,-0.04364367946982384
1024.0,-0.06027230992913246
1152.0,-0.05734848976135254
1280.0,-0.05854751914739609
1408.0,-0.05618029460310936
1536.0,-0.0602353997528553
1664.0,-0.04407533258199692
1792.0,-0.05879814177751541
1920.0,-0.05917308107018471
2048.0,-0.07315318286418915
2304.0,-0.0679432675242424
2560.0,0.11173544079065323
2816.0,0.16247713565826416
3072.0,0.03206079825758934
3328.0,0.021353617310523987
3584.0,-0.012773286551237106
3840.0,-0.04253445565700531
4096.0,-0.023375630378723145
end
