version,3.0
numOfCh,1
type,point
parent_name,484af_0dot4-0dot01
ch_type,1_1
kcount,1
numberNandB,1
brightnessNandB,1
carpet pos,0
pc,0
Time (ms),CH1 Auto-Correlation
1.0,0.03433486446738243
2.0,0.03326025232672691
3.0,0.03227091208100319
4.0,0.03134479373693466
5.0,0.030480844900012016
6.0,0.029655881226062775
7.0,0.028865866363048553
8.0,0.028119048103690147
9.0,0.027423134073615074
10.0,0.026766546070575714
11.0,0.02614830806851387
12.0,0.025563953444361687
13.0,0.02499156817793846
14.0,0.024421561509370804
15.0,0.0238900575786829
16.0,0.02338966354727745
18.0,0.02248258702456951
20.0,0.0216231532394886
22.0,0.020777814090251923
24.0,0.01989448070526123
26.0,0.019063172861933708
28.0,0.018347982317209244
30.0,0.017689837142825127
32.0,0.017082223668694496
36.0,0.01591125689446926
40.0,0.014851698651909828
44.0,0.013988628052175045
48.0,0.013279068283736706
52.0,0.012668447569012642
56.0,0.012268944643437862
60.0,0.012017866596579552
64.0,0.011774653568863869
72.0,0.011026901192963123
80.0,0.010182752273976803
88.0,0.009241593070328236
96.0,0.008616982959210873
104.0,0.008155223913490772
112.0,0.00796697661280632
120.0,0.008021433837711811
128.0,0.008106239140033722
144.0,0.007477873470634222
160.0,0.006856979336589575
176.0,0.006617284379899502
192.0,0.006739542819559574
208.0,0.006674280855804682
224.0,0.006142118480056524
240.0,0.005879273172467947
256.0,0.005921799223870039
288.0,0.005028903018683195
320.0,0.0040078056044876575
352.0,0.004516828805208206
384.0,0.0051935468800365925
416.0,0.004853121004998684
448.0,0.005412348546087742
480.0,0.005017372313886881
512.0,0.004719124641269445
576.0,0.004441800061613321
640.0,0.00282514956779778
704.0,0.0033326444681733847
768.0,0.0021414735820144415
832.0,0.002200039569288492
896.0,0.0013400586321949959
960.0,0.0007901944918558002
1024.0,-5.9338977735023946e-05
1152.0,0.0022155041806399822
1280.0,0.0038120211102068424
1408.0,0.0010938466293737292
1536.0,-0.00033917269320227206
1664.0,0.0023376531898975372
1792.0,0.0014724878128618002
1920.0,0.002130901673808694
2048.0,0.0005095076048746705
2304.0,0.00026300462195649743
2560.0,-0.0005155246471986175
2816.0,-0.00015351606998592615
3072.0,0.0018628209363669157
3328.0,0.001882805721834302
3584.0,0.0013778138672932982
3840.0,0.0014333510771393776
4096.0,-0.0008133184746839106
4608.0,-0.003247335087507963
5120.0,-0.0038585378788411617
5632.0,-0.0017681705066934228
6144.0,-0.0003609211416915059
6656.0,-0.003284759121015668
7168.0,-0.002719904761761427
7680.0,-0.0028219609521329403
8192.0,-0.006211621221154928
end
