version,3.0
numOfCh,1
type,point
parent_name,484af_0dot4-0dot01
ch_type,1_1
kcount,1
numberNandB,1
brightnessNandB,1
carpet pos,0
pc,0
Time (ms),CH1 Auto-Correlation
1.0,0.03265955671668053
2.0,0.03150658309459686
3.0,0.0304662324488163
4.0,0.029520824551582336
5.0,0.02862374112010002
6.0,0.02775019034743309
7.0,0.026950335130095482
8.0,0.026192350313067436
9.0,0.02548908069729805
10.0,0.02480742707848549
11.0,0.02414523996412754
12.0,0.023545080795884132
13.0,0.02294016070663929
14.0,0.022344553843140602
15.0,0.02176455222070217
16.0,0.021219579502940178
18.0,0.020259562879800797
20.0,0.01935793273150921
22.0,0.018583720549941063
24.0,0.01790970005095005
26.0,0.017335256561636925
28.0,0.016743849962949753
30.0,0.01619141176342964
32.0,0.01566958799958229
36.0,0.014945841394364834
40.0,0.014356406405568123
44.0,0.013821184635162354
48.0,0.013282832689583302
52.0,0.01280207559466362
56.0,0.012455245479941368
60.0,0.012183807790279388
64.0,0.012037329375743866
72.0,0.011352979578077793
80.0,0.010758375748991966
88.0,0.010268941521644592
96.0,0.009752348065376282
104.0,0.009029936045408249
112.0,0.008304494433104992
120.0,0.00793687254190445
128.0,0.0077088070102036
144.0,0.007207849062979221
160.0,0.006133811082690954
176.0,0.005026023834943771
192.0,0.005416191183030605
208.0,0.005593260750174522
224.0,0.004971060901880264
240.0,0.004199622664600611
256.0,0.003618299262598157
288.0,0.0018552056280896068
320.0,0.001021111966110766
352.0,0.0008903791895136237
384.0,-4.513414296525298e-06
416.0,0.00016666183364577591
448.0,0.0018129913369193673
480.0,0.0015388565370813012
512.0,0.0013934561284258962
576.0,0.00283337221480906
640.0,0.004142530262470245
704.0,0.004253873135894537
768.0,0.004847479518502951
832.0,0.004062165506184101
896.0,0.0009604382794350386
960.0,-0.0012546137440949678
1024.0,-0.002518092980608344
1152.0,0.000707330706063658
1280.0,0.002660218393430114
1408.0,0.0024697347544133663
1536.0,0.001445979462005198
1664.0,0.0011005527339875698
1792.0,-0.0005560421268455684
1920.0,-0.0007615135400556028
2048.0,-0.0007249650079756975
2304.0,-0.0007045099046081305
2560.0,0.0013277445686981082
2816.0,-0.005521947517991066
3072.0,-0.003614279441535473
3328.0,-0.0029816273599863052
3584.0,-0.007739507593214512
3840.0,-0.0034492225386202335
4096.0,-0.00452081672847271
4608.0,-0.0040772948414087296
5120.0,-0.0012260561343282461
5632.0,0.0021297598723322153
6144.0,-8.298586180899292e-05
6656.0,-0.0025784748140722513
7168.0,0.0030875662341713905
7680.0,0.010150027461349964
8192.0,0.010288494639098644
end
