version,3.0
numOfCh,1
type,point
parent_name,484af_0dot4-0dot01
ch_type,1_1
kcount,1
numberNandB,1
brightnessNandB,1
carpet pos,0
pc,0
Time (ms),CH1 Auto-Correlation
1.0,0.033328089863061905
2.0,0.03221439942717552
3.0,0.03119242750108242
4.0,0.030233506113290787
5.0,0.029353493824601173
6.0,0.028516970574855804
7.0,0.027723291888833046
8.0,0.02698376588523388
9.0,0.02627740055322647
10.0,0.025603819638490677
11.0,0.02498016506433487
12.0,0.024357136338949203
13.0,0.023778021335601807
14.0,0.023247338831424713
15.0,0.022744692862033844
16.0,0.022272268310189247
18.0,0.021390190348029137
20.0,0.02057601511478424
22.0,0.019818492233753204
24.0,0.019115837290883064
26.0,0.01848970353603363
28.0,0.017876962199807167
30.0,0.017236853018403053
32.0,0.016601819545030594
36.0,0.01544788759201765
40.0,0.014410408213734627
44.0,0.013407072983682156
48.0,0.012506311759352684
52.0,0.011828718706965446
56.0,0.011360901407897472
60.0,0.01104268804192543
64.0,0.010682397522032261
72.0,0.010367078706622124
80.0,0.009892841801047325
88.0,0.00987131055444479
96.0,0.009800855070352554
104.0,0.009547168388962746
112.0,0.009330148808658123
120.0,0.008972464129328728
128.0,0.008521188981831074
144.0,0.008004334755241871
160.0,0.007587221916764975
176.0,0.007484803441911936
192.0,0.0075749848037958145
208.0,0.007362955249845982
224.0,0.006901885848492384
240.0,0.006921521387994289
256.0,0.006883527152240276
288.0,0.006867809221148491
320.0,0.00679841497913003
352.0,0.006229497957974672
384.0,0.005591191351413727
416.0,0.005269849207252264
448.0,0.004660072736442089
480.0,0.003669574623927474
512.0,0.002807768527418375
576.0,0.0025263435672968626
640.0,0.0026015276089310646
704.0,0.0009802922140806913
768.0,0.0018261777004227042
832.0,0.0012197387404739857
896.0,-0.00014788183034397662
960.0,-4.09589811170008e-05
1024.0,0.00018909905338659883
1152.0,3.6395143979461864e-05
1280.0,0.0015560775063931942
1408.0,0.00034156691981479526
1536.0,-0.001353847561404109
1664.0,-0.002654006937518716
1792.0,-0.003727746894583106
1920.0,-0.0027583122719079256
2048.0,-0.003217981895431876
2304.0,-0.004552655853331089
2560.0,-0.0034309187904000282
2816.0,-0.003029603511095047
3072.0,-0.0006798703107051551
3328.0,0.002252596663311124
3584.0,0.0023030785378068686
3840.0,0.0030105155892670155
4096.0,0.0008205719059333205
4608.0,0.003538935910910368
5120.0,0.0009514432167634368
5632.0,-0.003911170177161694
6144.0,-0.003206131048500538
6656.0,-0.004655395168811083
7168.0,-0.0037235033232718706
7680.0,-0.0004167532897554338
8192.0,-0.0011070125037804246
end
