version,3.0
numOfCh,1
type,point
parent_name,484af_0dot4-0dot01
ch_type,1_1
kcount,1
numberNandB,1
brightnessNandB,1
carpet pos,0
pc,0
Time (ms),CH1 Auto-Correlation
1.0,0.044116564095020294
2.0,0.043037690222263336
3.0,0.04199870303273201
4.0,0.041022706776857376
5.0,0.04012448340654373
6.0,0.039255183190107346
7.0,0.038447581231594086
8.0,0.03769872337579727
9.0,0.03702223300933838
10.0,0.03640056028962135
11.0,0.03585366532206535
12.0,0.035298071801662445
13.0,0.034779347479343414
14.0,0.034310802817344666
15.0,0.03386901319026947
16.0,0.03341684490442276
18.0,0.032589688897132874
20.0,0.031779490411281586
22.0,0.030990678817033768
24.0,0.03026909939944744
26.0,0.029600081965327263
28.0,0.028932513669133186
30.0,0.028266949579119682
32.0,0.027600886300206184
36.0,0.02631642483174801
40.0,0.025106988847255707
44.0,0.0240932609885931
48.0,0.023122431710362434
52.0,0.02224641852080822
56.0,0.021428078413009644
60.0,0.020753970369696617
64.0,0.020184531807899475
72.0,0.019193898886442184
80.0,0.018034324049949646
88.0,0.016882404685020447
96.0,0.01599995046854019
104.0,0.015198586508631706
112.0,0.014163759537041187
120.0,0.013359828852117062
128.0,0.012721189297735691
144.0,0.012086810544133186
160.0,0.012251914478838444
176.0,0.01179259829223156
192.0,0.011275768280029297
208.0,0.01032027043402195
224.0,0.008925201371312141
240.0,0.0073997024446725845
256.0,0.006285408977419138
288.0,0.0053245979361236095
320.0,0.004634950775653124
352.0,0.004632856696844101
384.0,0.0055391425266861916
416.0,0.00490626972168684
448.0,0.004002816509455442
480.0,0.003846709383651614
512.0,0.003292414592579007
576.0,0.0023236488923430443
640.0,0.0008059012470766902
704.0,0.0008395568002015352
768.0,0.0023784718941897154
832.0,0.003155104350298643
896.0,0.002343063009902835
960.0,0.002264933194965124
1024.0,0.0008195149712264538
1152.0,-0.00010814515553647652
1280.0,-0.0012942583998665214
1408.0,-0.0043522631749510765
1536.0,-0.005322798155248165
1664.0,-0.00516463490203023
1792.0,-0.005749427247792482
1920.0,-0.0048928833566606045
2048.0,-0.004176425747573376
2304.0,-0.004093529656529427
2560.0,-0.0054535409435629845
2816.0,-0.004607467446476221
3072.0,0.0009074052213691175
3328.0,0.003380486974492669
3584.0,0.0038015812169760466
3840.0,0.0025226199068129063
4096.0,0.00669878488406539
4608.0,0.001142423483543098
5120.0,-0.0057856300845742226
5632.0,-0.008179672993719578
6144.0,-0.004549743607640266
6656.0,-0.0014982358552515507
7168.0,0.002116086892783642
7680.0,0.008282673545181751
8192.0,0.008352267555892467
end
