version,3.0
numOfCh,1
type,point
parent_name,484af_0dot4-0dot01
ch_type,1_1
kcount,1
numberNandB,1
brightnessNandB,1
carpet pos,0
pc,0
Time (ms),CH1 Auto-Correlation
1.0,0.032362259924411774
2.0,0.03116271086037159
3.0,0.03002660907804966
4.0,0.02894779108464718
5.0,0.027946850284934044
6.0,0.027019379660487175
7.0,0.0261066947132349
8.0,0.025259412825107574
9.0,0.024464450776576996
10.0,0.023728759959340096
11.0,0.023003404960036278
12.0,0.02236100472509861
13.0,0.02175869792699814
14.0,0.02123039960861206
15.0,0.020740896463394165
16.0,0.020282335579395294
18.0,0.019366176798939705
20.0,0.01852891966700554
22.0,0.01779204048216343
24.0,0.01711607724428177
26.0,0.01651628687977791
28.0,0.01596820540726185
30.0,0.015368937514722347
32.0,0.014743810519576073
36.0,0.013598264195024967
40.0,0.012600810267031193
44.0,0.011758602224290371
48.0,0.011043570004403591
52.0,0.010302120819687843
56.0,0.00969666987657547
60.0,0.009377134032547474
64.0,0.009203019551932812
72.0,0.008903242647647858
80.0,0.008604013361036777
88.0,0.008135422132909298
96.0,0.007742531597614288
104.0,0.00761782843619585
112.0,0.00725377444177866
120.0,0.006740589626133442
128.0,0.0065004862844944
144.0,0.00579433236271143
160.0,0.00515223853290081
176.0,0.004010914359241724
192.0,0.004416480660438538
208.0,0.0055760787799954414
224.0,0.005684494972229004
240.0,0.006184760015457869
256.0,0.005982701666653156
288.0,0.005655182991176844
320.0,0.004888391587883234
352.0,0.004362982697784901
384.0,0.001819305820390582
416.0,0.0017388779670000076
448.0,0.0023028862196952105
480.0,0.0021325440611690283
512.0,0.0016664669383317232
576.0,0.0011213243706151843
640.0,-0.0010862399358302355
704.0,0.0007981286616995931
768.0,0.0015322674298658967
832.0,0.0003772502241190523
896.0,-0.0007090586004778743
960.0,0.00030292963492684066
1024.0,0.0008898694068193436
1152.0,-0.00047580894897691905
1280.0,-0.000706444145180285
1408.0,-0.0020713775884360075
1536.0,-0.0018212809227406979
1664.0,-0.0035503178369253874
1792.0,-0.003380008041858673
1920.0,-0.0032406123355031013
2048.0,-0.001520322635769844
2304.0,-0.0035004636738449335
2560.0,-0.0016758715501055121
2816.0,-0.0004080951039213687
3072.0,-0.0006147163803689182
3328.0,0.0004134742193855345
3584.0,-0.0003020184813067317
3840.0,-0.0017278599552810192
4096.0,-0.0037459172308444977
4608.0,0.00038403767393901944
5120.0,-0.0005709584802389145
5632.0,-0.0021316809579730034
6144.0,-0.00010318613203708082
6656.0,0.0005658779409714043
7168.0,0.006231246050447226
7680.0,0.005280761979520321
8192.0,0.0034717500675469637
end
