version,3.0
numOfCh,1
type,point
parent_name,484af_0dot4-0dot01
ch_type,1_1
kcount,1
numberNandB,1
brightnessNandB,1
carpet pos,0
pc,0
Time (ms),CH1 Auto-Correlation
1.0,0.07629722356796265
2.0,0.07511807233095169
3.0,0.07397069036960602
4.0,0.07293606549501419
5.0,0.07195056229829788
6.0,0.07101064175367355
7.0,0.07011066377162933
8.0,0.06928855925798416
9.0,0.0684998631477356
10.0,0.06777775287628174
11.0,0.06703680753707886
12.0,0.06634864211082458
13.0,0.06569044291973114
14.0,0.06506269425153732
15.0,0.06447649747133255
16.0,0.0639321431517601
18.0,0.06296175718307495
20.0,0.06208033859729767
22.0,0.06128879636526108
24.0,0.0605153851211071
26.0,0.059800803661346436
28.0,0.059089917689561844
30.0,0.05838095024228096
32.0,0.05773187801241875
36.0,0.05646656081080437
40.0,0.05512911453843117
44.0,0.053803350776433945
48.0,0.052562516182661057
52.0,0.05131485313177109
56.0,0.050250906497240067
60.0,0.04920194670557976
64.0,0.04802471399307251
72.0,0.04617222398519516
80.0,0.044903527945280075
88.0,0.04415598139166832
96.0,0.043455980718135834
104.0,0.04285644367337227
112.0,0.042702458798885345
120.0,0.04218769818544388
128.0,0.04181057587265968
144.0,0.042255569249391556
160.0,0.04195959493517876
176.0,0.041946765035390854
192.0,0.04184241592884064
208.0,0.041512057185173035
224.0,0.04133070632815361
240.0,0.040902022272348404
256.0,0.04114363715052605
288.0,0.03819245845079422
320.0,0.0352395698428154
352.0,0.03439176455140114
384.0,0.03450128063559532
416.0,0.03413335978984833
448.0,0.03218665346503258
480.0,0.029145026579499245
512.0,0.028421880677342415
576.0,0.02732674404978752
640.0,0.023604147136211395
704.0,0.020048897713422775
768.0,0.015330422669649124
832.0,0.013275719247758389
896.0,0.011432555504143238
960.0,0.008661738596856594
1024.0,0.0029975706711411476
1152.0,-0.0008758502081036568
1280.0,-0.004522726871073246
1408.0,-0.0017783419461920857
1536.0,-0.003437980078160763
1664.0,-0.005057843402028084
1792.0,-0.0029323878698050976
1920.0,-0.003974521066993475
2048.0,-0.004263866692781448
2304.0,-0.004983094986528158
2560.0,-0.0051906658336520195
2816.0,-0.0037668277509510517
3072.0,-0.0027944939211010933
3328.0,0.00040399088175036013
3584.0,-0.0037094904109835625
3840.0,-0.0034480420872569084
4096.0,-0.006776765454560518
4608.0,-0.012824705801904202
5120.0,-0.012907386757433414
5632.0,-0.012147601693868637
6144.0,-0.006707240827381611
6656.0,-0.012049784883856773
7168.0,-0.019764112308621407
7680.0,-0.016014790162444115
8192.0,-0.003988826181739569
end
