version,3.0
numOfCh,1
type,point
parent_name,484af_0dot4-0dot01
ch_type,1_1
kcount,1
numberNandB,1
brightnessNandB,1
carpet pos,0
pc,0
Time (ms),CH1 Auto-Correlation
1.0,0.042881183326244354
2.0,0.0417453795671463
3.0,0.040659498423337936
4.0,0.039621565490961075
5.0,0.03865610063076019
6.0,0.037740789353847504
7.0,0.03689343109726906
8.0,0.03608115017414093
9.0,0.03532037511467934
10.0,0.03459300845861435
11.0,0.033903151750564575
12.0,0.03326450660824776
13.0,0.03263632208108902
14.0,0.032061733305454254
15.0,0.031500764191150665
16.0,0.03099691867828369
18.0,0.030140893533825874
20.0,0.029448464512825012
22.0,0.02882203832268715
24.0,0.028232388198375702
26.0,0.02760949730873108
28.0,0.027028866112232208
30.0,0.02646287903189659
32.0,0.025897668674588203
36.0,0.024687381461262703
40.0,0.02363179437816143
44.0,0.022698409855365753
48.0,0.021691108122467995
52.0,0.020639648661017418
56.0,0.01969972625374794
60.0,0.019007081165909767
64.0,0.01843613013625145
72.0,0.017505766823887825
80.0,0.01599523052573204
88.0,0.014456412754952908
96.0,0.012602646835148335
104.0,0.011259535327553749
112.0,0.010366348549723625
120.0,0.009470995515584946
128.0,0.008490880951285362
144.0,0.006516604218631983
160.0,0.004331990610808134
176.0,0.003033338813111186
192.0,0.002087302738800645
208.0,0.0017417949857190251
224.0,0.0015444161836057901
240.0,0.0014873984036967158
256.0,0.0020745934452861547
288.0,0.0024321123491972685
320.0,0.0023266240023076534
352.0,0.002380651654675603
384.0,0.0019336208933964372
416.0,0.001554369810037315
448.0,0.001512332004494965
480.0,0.002189756603911519
512.0,0.002497974084690213
576.0,0.003732180455699563
640.0,0.0017627374036237597
704.0,-0.0003934725245926529
768.0,-0.00030925896135158837
832.0,0.0013370701344683766
896.0,0.001728266361169517
960.0,0.0034721840638667345
1024.0,0.004017186351120472
1152.0,0.0005446344730444252
1280.0,0.0021764670964330435
1408.0,0.0017325724475085735
1536.0,0.0033279384952038527
1664.0,0.0007416146108880639
1792.0,-0.0020559190306812525
1920.0,-0.0036857235245406628
2048.0,-0.002609796356409788
2304.0,-0.0012456284603103995
2560.0,0.003476944053545594
2816.0,0.00018537604773882776
3072.0,0.0008620962034910917
3328.0,0.0015987149672582746
3584.0,-0.0005191187956370413
3840.0,0.0022122045047581196
4096.0,0.0026926815044134855
4608.0,-0.00010596962965792045
5120.0,0.00020351294369902462
5632.0,0.001975793158635497
6144.0,0.00035175433731637895
6656.0,0.0004659190308302641
7168.0,0.00016202886763494462
7680.0,-0.0014902735128998756
8192.0,-0.0012884449679404497
end
