version,3.0
numOfCh,1
type,point
parent_name,484af_0dot4-0dot01
ch_type,1_1
kcount,1
numberNandB,1
brightnessNandB,1
carpet pos,0
pc,0
Time (ms),CH1 Auto-Correlation
1.0,0.02962087281048298
2.0,0.028475431725382805
3.0,0.027420157566666603
4.0,0.02643650211393833
5.0,0.02552950568497181
6.0,0.024680273607373238
7.0,0.023880302906036377
8.0,0.02310032770037651
9.0,0.022362634539604187
10.0,0.021653130650520325
11.0,0.020986756309866905
12.0,0.020342467352747917
13.0,0.0197129063308239
14.0,0.0190594345331192
15.0,0.01845466159284115
16.0,0.017865661531686783
18.0,0.0168348029255867
20.0,0.01594751887023449
22.0,0.015130267478525639
24.0,0.01435498334467411
26.0,0.013663352467119694
28.0,0.013030605390667915
30.0,0.012500821612775326
32.0,0.012043156661093235
36.0,0.010960051789879799
40.0,0.009915133938193321
44.0,0.009062743745744228
48.0,0.008364513516426086
52.0,0.007780321873724461
56.0,0.007273918949067593
60.0,0.006689113564789295
64.0,0.006224437616765499
72.0,0.006133910268545151
80.0,0.005896184593439102
88.0,0.005575894843786955
96.0,0.005334699992090464
104.0,0.005037335213273764
112.0,0.004737908020615578
120.0,0.004470705054700375
128.0,0.0041328733786940575
144.0,0.003710836637765169
160.0,0.0039515383541584015
176.0,0.003882988588884473
192.0,0.0035478288773447275
208.0,0.0033220371697098017
224.0,0.002902241889387369
240.0,0.0023978755343705416
256.0,0.0015816895756870508
288.0,0.001053064945153892
320.0,0.0008189702057279646
352.0,-5.44928407180123e-05
384.0,-0.00015205310774035752
416.0,-0.002072826959192753
448.0,-0.002244351664558053
480.0,-0.0008421080419793725
512.0,0.00048202829202637076
576.0,0.0003494427364785224
640.0,-0.0002748355327639729
704.0,-0.000536851235665381
768.0,0.0001498359488323331
832.0,0.00043761602137237787
896.0,0.0006613025907427073
960.0,0.0025248215533792973
1024.0,0.0022442226763814688
1152.0,0.0009077254799194634
1280.0,-0.0015192236751317978
1408.0,-0.0028623328544199467
1536.0,-0.0019630114547908306
1664.0,-0.0010463978396728635
1792.0,-0.0007561238016933203
1920.0,-0.0007616018410772085
2048.0,-0.002483879216015339
2304.0,-0.0036948698107153177
2560.0,-0.0005127387121319771
2816.0,0.0016683979192748666
3072.0,0.0017343433573842049
3328.0,0.0001547289575682953
3584.0,0.0028689394239336252
3840.0,0.001112645142711699
4096.0,-0.0006929379305802286
4608.0,-0.00012786683510057628
5120.0,-0.0030497335828840733
5632.0,-0.00273250718601048
6144.0,0.0012512734392657876
6656.0,0.0009704691474325955
7168.0,0.0008809560677036643
7680.0,0.0008210586383938789
8192.0,-0.0008806911064311862
end
