version,3.0
numOfCh,1
type,point
parent_name,484af_0dot4-0dot01
ch_type,1_1
kcount,1
numberNandB,1
brightnessNandB,1
carpet pos,0
pc,0
Time (ms),CH1 Auto-Correlation
1.0,0.031346626579761505
2.0,0.03022889792919159
3.0,0.029172630980610847
4.0,0.02820473723113537
5.0,0.027284784242510796
6.0,0.02640063315629959
7.0,0.025573180988430977
8.0,0.024768032133579254
9.0,0.02399555779993534
10.0,0.02328009530901909
11.0,0.022593241184949875
12.0,0.021914398297667503
13.0,0.021285705268383026
14.0,0.02069944515824318
15.0,0.020140022039413452
16.0,0.01963675208389759
18.0,0.0187347624450922
20.0,0.017891593277454376
22.0,0.01712723821401596
24.0,0.01644008792936802
26.0,0.015821844339370728
28.0,0.015225335955619812
30.0,0.014627446420490742
32.0,0.014064384624361992
36.0,0.012973151169717312
40.0,0.012141935527324677
44.0,0.011588338762521744
48.0,0.01115034706890583
52.0,0.010752272792160511
56.0,0.010281951166689396
60.0,0.00970974750816822
64.0,0.009175517596304417
72.0,0.00851774774491787
80.0,0.008192663080990314
88.0,0.007476292550563812
96.0,0.006684157997369766
104.0,0.006359672639518976
112.0,0.005916949827224016
120.0,0.005491757299751043
128.0,0.005094209220260382
144.0,0.004045639652758837
160.0,0.0034895094577223063
176.0,0.002826820593327284
192.0,0.0027200907934457064
208.0,0.0025228490121662617
224.0,0.0028004623018205166
240.0,0.002360064536333084
256.0,0.0019838502630591393
288.0,0.002357552759349346
320.0,0.003629068611189723
352.0,0.003621575888246298
384.0,0.0018810058245435357
416.0,0.0008724756189621985
448.0,0.0009965584613382816
480.0,0.00028907202067784965
512.0,0.0012903977185487747
576.0,0.0019028033129870892
640.0,0.0019244180293753743
704.0,0.0016331997467204928
768.0,-0.00018217744946014136
832.0,-0.001588961691595614
896.0,-0.002117181196808815
960.0,-0.0013302512234076858
1024.0,-0.0014729751273989677
1152.0,-0.000797188316937536
1280.0,-0.0019043711945414543
1408.0,-0.0010091407457366586
1536.0,-0.0021708186250180006
1664.0,-0.0009836337994784117
1792.0,0.0017375722527503967
1920.0,-0.00013715871318709105
2048.0,0.0024268038105219603
2304.0,0.0012344070710241795
2560.0,0.00028059774194844067
2816.0,-0.0007353069959208369
3072.0,-0.0002363247622270137
3328.0,0.00031146372202783823
3584.0,0.000354991847416386
3840.0,4.953122333972715e-05
4096.0,-0.0007865774095989764
4608.0,-0.000636138254776597
5120.0,-0.0007958730566315353
5632.0,0.00017348691471852362
6144.0,-0.0013489528791978955
6656.0,-0.0017727003432810307
7168.0,-0.0012997881276533008
7680.0,0.002674276242032647
8192.0,0.0015974733978509903
end
