version,3.0
numOfCh,1
type,point
parent_name,484af_0dot4-0dot01
ch_type,1_1
kcount,1
numberNandB,1
brightnessNandB,1
carpet pos,0
pc,0
Time (ms),CH1 Auto-Correlation
1.0,0.03438190743327141
2.0,0.03316095471382141
3.0,0.032025713473558426
4.0,0.03097841888666153
5.0,0.02999379113316536
6.0,0.02906096540391445
7.0,0.028179984539747238
8.0,0.02733735926449299
9.0,0.026558011770248413
10.0,0.025837935507297516
11.0,0.0251571424305439
12.0,0.024505997076630592
13.0,0.023852845653891563
14.0,0.023238053545355797
15.0,0.022625049576163292
16.0,0.022048166021704674
18.0,0.02094222605228424
20.0,0.019976384937763214
22.0,0.01911352016031742
24.0,0.01830814965069294
26.0,0.017584124580025673
28.0,0.016983121633529663
30.0,0.016405316069722176
32.0,0.015887215733528137
36.0,0.015083345584571362
40.0,0.014359255321323872
44.0,0.013898154720664024
48.0,0.013440098613500595
52.0,0.012933455407619476
56.0,0.012441406957805157
60.0,0.011938019655644894
64.0,0.011545718647539616
72.0,0.01072933804243803
80.0,0.00985358003526926
88.0,0.008967158384621143
96.0,0.008253514766693115
104.0,0.007851301692426205
112.0,0.00761706056073308
120.0,0.007267534267157316
128.0,0.006818221881985664
144.0,0.0068336124531924725
160.0,0.0059393481351435184
176.0,0.005526477005332708
192.0,0.005015798378735781
208.0,0.005469650961458683
224.0,0.006498439237475395
240.0,0.006365809123963118
256.0,0.005959953647106886
288.0,0.005877172574400902
320.0,0.005363393109291792
352.0,0.005396885797381401
384.0,0.004982692189514637
416.0,0.0037826404441148043
448.0,0.004024178721010685
480.0,0.003836464835330844
512.0,0.003400366520509124
576.0,0.0028392940293997526
640.0,0.001744429231621325
704.0,0.0015760972164571285
768.0,0.002019618172198534
832.0,0.002148991683498025
896.0,0.0020511287730187178
960.0,0.0013968069106340408
1024.0,0.000785953423473984
1152.0,-0.0006884150207042694
1280.0,-0.001706315902993083
1408.0,-0.002825560513883829
1536.0,-0.002815868007019162
1664.0,-0.002223018556833267
1792.0,-0.0028529237024486065
1920.0,-0.003795425873249769
2048.0,-0.0028348607011139393
2304.0,-0.0015663175145164132
2560.0,-0.00237552123144269
2816.0,-0.00247319508343935
3072.0,0.0003187310940120369
3328.0,0.003049020189791918
3584.0,0.0010549408616498113
3840.0,0.0015508674550801516
4096.0,0.0032438847701996565
4608.0,0.001778125180862844
5120.0,-0.002770803403109312
5632.0,-0.005291277542710304
6144.0,-0.006796904373914003
6656.0,-0.0024209388066083193
7168.0,-7.478681800421327e-05
7680.0,0.002854578662663698
8192.0,-3.997882959083654e-05
end
