version,3.0
numOfCh,1
type,point
parent_name,484af_0dot4-0dot01
ch_type,1_1
kcount,1
numberNandB,1
brightnessNandB,1
carpet pos,0
pc,0
Time (ms),CH1 Auto-Correlation
1.0,0.03872380405664444
2.0,0.037585511803627014
3.0,0.03652873635292053
4.0,0.03552073612809181
5.0,0.03455234318971634
6.0,0.03362971544265747
7.0,0.03273678943514824
8.0,0.031889673322439194
9.0,0.03112075850367546
10.0,0.03040456771850586
11.0,0.02970280312001705
12.0,0.029043668881058693
13.0,0.028408272191882133
14.0,0.02777951955795288
15.0,0.027194103226065636
16.0,0.026588087901473045
18.0,0.025438359007239342
20.0,0.024305297061800957
22.0,0.023190679028630257
24.0,0.022134073078632355
26.0,0.02114650048315525
28.0,0.020275132730603218
30.0,0.019493160769343376
32.0,0.01875372789800167
36.0,0.017499277368187904
40.0,0.01637490838766098
44.0,0.015289463102817535
48.0,0.01431216299533844
52.0,0.013565928675234318
56.0,0.013115724548697472
60.0,0.012664103880524635
64.0,0.01222291775047779
72.0,0.011284321546554565
80.0,0.01008224580436945
88.0,0.009031005203723907
96.0,0.008382788859307766
104.0,0.008009477518498898
112.0,0.0076612732373178005
120.0,0.007457413710653782
128.0,0.00750833610072732
144.0,0.006819229573011398
160.0,0.0062200394459068775
176.0,0.0059987991116940975
192.0,0.0059225051663815975
208.0,0.0052100252360105515
224.0,0.004635191988199949
240.0,0.0036484161391854286
256.0,0.0025851528625935316
288.0,0.002119384938850999
320.0,0.002682493533939123
352.0,0.0019715302623808384
384.0,0.002489533508196473
416.0,0.0027512037195265293
448.0,0.002526058116927743
480.0,0.0017062287079170346
512.0,0.0020595116075128317
576.0,0.003058613510802388
640.0,0.0036147558130323887
704.0,0.002061942359432578
768.0,0.0015746309654787183
832.0,0.0013365758350118995
896.0,0.001236459705978632
960.0,-0.00021106626081746072
1024.0,0.0006698681972920895
1152.0,0.00375944166444242
1280.0,0.003517687786370516
1408.0,-0.0006848466000519693
1536.0,-0.0009052232489921153
1664.0,-0.0006344777066260576
1792.0,-0.003179702674970031
1920.0,-0.0029337634332478046
2048.0,-0.0010161451064050198
2304.0,-0.0018513503018766642
2560.0,-0.0016262995777651668
2816.0,-0.0016456436133012176
3072.0,-0.00031519116600975394
3328.0,-0.0007886859821155667
3584.0,-0.0011777683394029737
3840.0,-0.0006429777131415904
4096.0,-0.0013580182567238808
4608.0,-0.00027215119916945696
5120.0,0.0006213615997694433
5632.0,-0.0038763214834034443
6144.0,0.0029418515041470528
6656.0,-0.0017475469503551722
7168.0,0.0022549410350620747
7680.0,0.0008982325089164078
8192.0,-0.0016507863765582442
end
