version,3.0
numOfCh,1
type,point
parent_name,484af_0dot4-0dot01
ch_type,1_1
kcount,1
numberNandB,1
brightnessNandB,1
carpet pos,0
pc,0
Time (ms),CH1 Auto-Correlation
1.0,0.033202338963747025
2.0,0.032045505940914154
3.0,0.030972542241215706
4.0,0.029985841363668442
5.0,0.02907859906554222
6.0,0.02821166068315506
7.0,0.02739407867193222
8.0,0.026612980291247368
9.0,0.025865891948342323
10.0,0.025148142129182816
11.0,0.02447834610939026
12.0,0.023854708299040794
13.0,0.02323116548359394
14.0,0.022664567455649376
15.0,0.022126708179712296
16.0,0.02160927653312683
18.0,0.020636508241295815
20.0,0.019700240343809128
22.0,0.018860749900341034
24.0,0.01810171641409397
26.0,0.017342010512948036
28.0,0.01669236272573471
30.0,0.016001734882593155
32.0,0.01532518770545721
36.0,0.014069839380681515
40.0,0.01296798512339592
44.0,0.012050299905240536
48.0,0.01128999050706625
52.0,0.010544851422309875
56.0,0.009875640273094177
60.0,0.009209747426211834
64.0,0.008753236383199692
72.0,0.0077864197082817554
80.0,0.007104224991053343
88.0,0.006274820305407047
96.0,0.005875124596059322
104.0,0.005921651609241962
112.0,0.005642188247293234
120.0,0.005351845175027847
128.0,0.004985411185771227
144.0,0.003981664776802063
160.0,0.003188888542354107
176.0,0.0026255242992192507
192.0,0.0026024426333606243
208.0,0.003272512461990118
224.0,0.0037735814694315195
240.0,0.0032278746366500854
256.0,0.0022057227324694395
288.0,0.001404433511197567
320.0,0.0016968969721347094
352.0,0.0011775821913033724
384.0,0.0002840100205503404
416.0,0.00041537510696798563
448.0,0.0011495620710775256
480.0,0.0001403151691192761
512.0,-0.000958167074713856
576.0,-3.145347363897599e-05
640.0,0.0009891713270917535
704.0,0.0007158798398450017
768.0,-0.0013836793368682265
832.0,-0.0017338292673230171
896.0,-0.0021754195913672447
960.0,-0.0010549745056778193
1024.0,0.0012338320957496762
1152.0,-1.9167406207998283e-05
1280.0,0.0007657856331206858
1408.0,0.0013578858925029635
1536.0,0.0004898054176010191
1664.0,0.001157158985733986
1792.0,-0.00043722643749788404
1920.0,-0.0006574354483745992
2048.0,-0.0008952115313149989
2304.0,-0.00034863987821154296
2560.0,-0.0005153720849193633
2816.0,-0.0005198525032028556
3072.0,-0.0029823079239577055
3328.0,-0.0027583264745771885
3584.0,-7.31261825421825e-05
3840.0,-0.0005202292813919485
4096.0,-0.000721277145203203
4608.0,-0.0008472094777971506
5120.0,0.0024154908023774624
5632.0,-0.0019353530369699001
6144.0,0.0006184661760926247
6656.0,-0.001178915030322969
7168.0,-0.002808673307299614
7680.0,0.00012664396490436047
8192.0,-0.0010585124837234616
end
