version,3.0
numOfCh,1
type,point
parent_name,484af_0dot4-0dot01
ch_type,1_1
kcount,1
numberNandB,1
brightnessNandB,1
carpet pos,0
pc,0
Time (ms),CH1 Auto-Correlation
1.0,0.1468956023454666
2.0,0.14495888352394104
3.0,0.14293590188026428
4.0,0.1411135494709015
5.0,0.13939444720745087
6.0,0.1378784477710724
7.0,0.13629667460918427
8.0,0.13479319214820862
9.0,0.1334236115217209
10.0,0.13212618231773376
11.0,0.13099664449691772
12.0,0.12965674698352814
13.0,0.12830877304077148
14.0,0.12696582078933716
15.0,0.12558645009994507
16.0,0.12434971332550049
18.0,0.12082692980766296
20.0,0.1181853860616684
22.0,0.11584913730621338
24.0,0.113780677318573
26.0,0.11163513362407684
28.0,0.10947979986667633
30.0,0.10721791535615921
32.0,0.10506321489810944
36.0,0.09905526787042618
40.0,0.09491534531116486
44.0,0.0910286158323288
48.0,0.08744650334119797
52.0,0.08361179381608963
56.0,0.0799877792596817
60.0,0.07671260088682175
64.0,0.07341094315052032
72.0,0.06281304359436035
80.0,0.05498789995908737
88.0,0.04747780039906502
96.0,0.04043709859251976
104.0,0.032047778367996216
112.0,0.023455757647752762
120.0,0.02043764479458332
128.0,0.018438467755913734
144.0,0.014063283801078796
160.0,0.011660553514957428
176.0,0.009371165186166763
192.0,0.007343942299485207
208.0,0.005450018215924501
224.0,0.006332566495984793
240.0,0.006555338390171528
256.0,0.006079358514398336
288.0,0.004630411043763161
320.0,0.004783200565725565
352.0,0.003911975771188736
384.0,0.0028107278048992157
416.0,0.0007529545109719038
448.0,-0.0005372900632210076
480.0,0.00021074966934975237
512.0,-0.0011604904429987073
576.0,-0.0029151274356991053
640.0,-0.0010119704529643059
704.0,0.002941212384030223
768.0,0.001390907447785139
832.0,-0.0035050788428634405
896.0,-0.008050858043134212
960.0,-0.006010958459228277
1024.0,0.0020745766814798117
1152.0,0.002342666033655405
1280.0,-0.0023540451657027006
1408.0,0.005781455431133509
1536.0,0.002363801235333085
1664.0,0.0001700775756035
1792.0,0.007244876120239496
1920.0,-0.010675842873752117
2048.0,-0.006127466913312674
2304.0,-0.005184386856853962
2560.0,0.0033314235042780638
2816.0,-0.00020587790641002357
3072.0,-0.005511033348739147
3328.0,-0.006269421428442001
3584.0,-0.00475160451605916
3840.0,-0.0012493717949837446
4096.0,0.001369820791296661
4608.0,-0.005074687302112579
5120.0,0.0076120225712656975
5632.0,-0.0009724447154439986
6144.0,0.009954094886779785
6656.0,0.010072770528495312
7168.0,0.0014164068270474672
7680.0,0.0034833233803510666
8192.0,0.0066462610848248005
end
