version,3.0
numOfCh,1
type,point
parent_name,484af_0dot4-0dot01
ch_type,1_1
kcount,1
numberNandB,1
brightnessNandB,1
carpet pos,0
pc,0
Time (ms),CH1 Auto-Correlation
1.0,0.0321449413895607
2.0,0.030984828248620033
3.0,0.02987201325595379
4.0,0.028836196288466454
5.0,0.027875229716300964
6.0,0.02696509100496769
7.0,0.026110809296369553
8.0,0.02529822662472725
9.0,0.02453695610165596
10.0,0.023846352472901344
11.0,0.023183412849903107
12.0,0.02257462404668331
13.0,0.021999970078468323
14.0,0.021447105333209038
15.0,0.02092098258435726
16.0,0.020404744893312454
18.0,0.01943865790963173
20.0,0.018558353185653687
22.0,0.017681622877717018
24.0,0.016881830990314484
26.0,0.01623775251209736
28.0,0.015718156471848488
30.0,0.015283665619790554
32.0,0.014872763305902481
36.0,0.014138275757431984
40.0,0.013313475996255875
44.0,0.012372929602861404
48.0,0.011532359756529331
52.0,0.010748812928795815
56.0,0.010063854977488518
60.0,0.009457845240831375
64.0,0.00917117204517126
72.0,0.00814039260149002
80.0,0.007150437217205763
88.0,0.006465238053351641
96.0,0.0057037705555558205
104.0,0.005306260194629431
112.0,0.004875862039625645
120.0,0.004674961790442467
128.0,0.0045581962913274765
144.0,0.00452822633087635
160.0,0.0037907022051513195
176.0,0.0030644736252725124
192.0,0.002767164260149002
208.0,0.0023537545930594206
224.0,0.0024450647179037333
240.0,0.0017527274321764708
256.0,0.0012252904707565904
288.0,0.000688613043166697
320.0,0.00025056683807633817
352.0,0.0011636653216555715
384.0,0.0012589377583935857
416.0,0.0016597696812823415
448.0,0.002083695260807872
480.0,0.0020695629063993692
512.0,0.0015641262289136648
576.0,0.002319966908544302
640.0,0.0033062738366425037
704.0,0.0018828515894711018
768.0,0.0017661323072388768
832.0,0.0024507055059075356
896.0,0.0011415975168347359
960.0,0.0009523418266326189
1024.0,0.0010819144081324339
1152.0,0.0023597038816660643
1280.0,0.0009652535081841052
1408.0,0.003232166636735201
1536.0,0.001451918389648199
1664.0,0.001651253318414092
1792.0,0.0026789959520101547
1920.0,0.0012160863261669874
2048.0,0.0011544976150617003
2304.0,0.0011613176902756095
2560.0,0.001439042971469462
2816.0,-0.00015259970678016543
3072.0,0.0013315301621332765
3328.0,0.00031528473482467234
3584.0,-0.0003019689756911248
3840.0,0.0018481628503650427
4096.0,0.0013517705956473947
4608.0,-0.0008893636404536664
5120.0,-8.934373181546107e-05
5632.0,2.8620923330890946e-05
6144.0,-0.0015123848570510745
6656.0,-0.00027494042296893895
7168.0,-0.0008216840215027332
7680.0,-0.0006686655688099563
8192.0,-7.929019920993596e-05
end
