version,3.0
numOfCh,1
type,point
parent_name,714af_3dot0-1dot0
ch_type,1_1
kcount,1
numberNandB,1
brightnessNandB,1
carpet pos,0
pc,0
Time (ms),CH1 Auto-Correlation
1.0,0.01717391051352024
2.0,0.014178367331624031
3.0,0.012058749794960022
4.0,0.010481157340109348
5.0,0.00917021557688713
6.0,0.008271696977317333
7.0,0.007521584164351225
8.0,0.006774579640477896
9.0,0.0062049273401498795
10.0,0.00573387136682868
11.0,0.005343709606677294
12.0,0.004901507403701544
13.0,0.004675818607211113
14.0,0.004558754153549671
15.0,0.004258411470800638
16.0,0.003962589893490076
18.0,0.0034456481225788593
20.0,0.0029445351101458073
22.0,0.0026270109228789806
24.0,0.0023662797175347805
26.0,0.002058635698631406
28.0,0.0019963758531957865
30.0,0.0019878253806382418
32.0,0.0021663475781679153
36.0,0.002052864758297801
40.0,0.0018215890740975738
44.0,0.0016211072215810418
48.0,0.001393401762470603
52.0,0.0014952147612348199
56.0,0.0014884639531373978
60.0,0.0014473659684881568
64.0,0.0013551907613873482
72.0,0.0006960039609111845
80.0,0.0006467307102866471
88.0,0.0005218737642280757
96.0,0.0007994643528945744
104.0,0.000655996787827462
112.0,0.0006731643807142973
120.0,0.0006214545574039221
128.0,-0.00010840522008948028
144.0,-0.0003610698040574789
160.0,0.0004573480982799083
176.0,0.0004746614722535014
192.0,-5.800059443572536e-05
208.0,0.0002682251506485045
224.0,-0.00023408088600263
240.0,7.558878223790089e-06
256.0,-9.285128726332914e-06
288.0,0.00019818698638118804
320.0,0.000615358876530081
352.0,0.00020862571545876563
384.0,-4.734169851872139e-05
416.0,0.00016062134818639606
448.0,6.034120815456845e-05
480.0,-0.00013710981875192374
512.0,-0.00039239853504113853
576.0,3.0133583095448557e-06
640.0,-1.1356155482644681e-05
704.0,0.0002772104344330728
768.0,-0.0003546064253896475
832.0,-0.00010826103971339762
896.0,-0.00015522658941335976
960.0,9.282575774705037e-05
1024.0,0.00043862915481440723
1152.0,-0.00013946117542218417
1280.0,-0.00017084970022551715
1408.0,-5.0742262828862295e-05
1536.0,-0.00038213469088077545
1664.0,-0.00032829344854690135
1792.0,-7.780097803333774e-05
1920.0,-0.00034763780422508717
2048.0,-0.00030432126368395984
2304.0,8.925184374675155e-05
2560.0,-4.669719419325702e-05
2816.0,0.0003507800865918398
3072.0,0.00033408368472009897
3328.0,-9.071975364349782e-05
3584.0,0.00011975901725236326
3840.0,0.0001743363100104034
4096.0,0.00023344266810454428
4608.0,-0.0003617655602283776
5120.0,5.56278282601852e-05
5632.0,0.00018925682525150478
6144.0,3.970311809098348e-05
6656.0,0.00016454407887067646
7168.0,-0.00034383387537673116
7680.0,-0.0005803414387628436
8192.0,-4.034110679640435e-05
end
