version,3.0
numOfCh,1
type,point
parent_name,714af_3dot0-1dot0
ch_type,1_1
kcount,1
numberNandB,1
brightnessNandB,1
carpet pos,0
pc,0
Time (ms),CH1 Auto-Correlation
1.0,0.015412787906825542
2.0,0.012529638595879078
3.0,0.010474852286279202
4.0,0.008970620110630989
5.0,0.007839038036763668
6.0,0.006880620960146189
7.0,0.006194408051669598
8.0,0.005550039932131767
9.0,0.004968664608895779
10.0,0.004598667379468679
11.0,0.00445479154586792
12.0,0.004289278760552406
13.0,0.0040133134461939335
14.0,0.003818885423243046
15.0,0.0036982924211770296
16.0,0.0034334880765527487
18.0,0.003067783312872052
20.0,0.0026881343219429255
22.0,0.0023847047705203295
24.0,0.002212293678894639
26.0,0.0018758901860564947
28.0,0.0015520035522058606
30.0,0.001528174732811749
32.0,0.0015058843418955803
36.0,0.0013290517963469028
40.0,0.0010186003055423498
44.0,0.000989871914498508
48.0,0.0007827674853615463
52.0,0.0005806876579299569
56.0,0.00047388425446115434
60.0,0.0002673908311408013
64.0,0.0003088817175012082
72.0,0.00015299755614250898
80.0,9.702545503387228e-05
88.0,8.14948944025673e-05
96.0,0.00019135669572278857
104.0,0.00011260718747507781
112.0,6.875066173961386e-05
120.0,-5.535934542422183e-05
128.0,-0.0002687255619093776
144.0,-1.9139024516334757e-05
160.0,0.00017883260443340987
176.0,2.870470234483946e-05
192.0,-0.00010660077532520518
208.0,2.8984975870116614e-05
224.0,-0.0006019520224072039
240.0,-0.00044443082879297435
256.0,-0.0005802328232675791
288.0,-0.00012782243720721453
320.0,0.0006154889124445617
352.0,6.996182492002845e-05
384.0,-0.00013997394125908613
416.0,-0.0007791620446369052
448.0,-0.0009405604214407504
480.0,-0.0007312073721550405
512.0,-0.0006692800670862198
576.0,-0.0002156072441721335
640.0,0.00039029415347613394
704.0,0.00041990441968664527
768.0,0.00042294169543311
832.0,0.0003715275088325143
896.0,7.813233969500288e-05
960.0,0.0005806402768939734
1024.0,3.848698906949721e-05
1152.0,-0.0004034529556520283
1280.0,-0.0002338925696676597
1408.0,-0.00031869226950220764
1536.0,0.00034743649302981794
1664.0,-0.00012216626782901585
1792.0,-0.00035016032052226365
1920.0,-0.00024769737501628697
2048.0,-0.0003789137408602983
2304.0,4.9376278184354305e-05
2560.0,-0.000330530310748145
2816.0,-0.00016258723917417228
3072.0,0.00014570554776582867
3328.0,0.00013043737271800637
3584.0,-0.0002467468730174005
3840.0,0.00028588881832547486
4096.0,7.72922721807845e-05
4608.0,2.2347498088493012e-05
5120.0,-9.6932562883012e-05
5632.0,0.00030195561703294516
6144.0,2.5621070562920067e-06
6656.0,-0.00022676114167552441
7168.0,8.803450327832252e-05
7680.0,-0.00011334000009810552
8192.0,-0.0002099283883580938
end
