version,3.0
numOfCh,1
type,point
parent_name,714af_3dot0-1dot0
ch_type,1_1
kcount,1
numberNandB,1
brightnessNandB,1
carpet pos,0
pc,0
Time (ms),CH1 Auto-Correlation
1.0,0.016550930216908455
2.0,0.013564478605985641
3.0,0.011514591053128242
4.0,0.009904059581458569
5.0,0.008626959286630154
6.0,0.00766113493591547
7.0,0.006885041482746601
8.0,0.006351375486701727
9.0,0.005843286402523518
10.0,0.00532918144017458
11.0,0.004999947734177113
12.0,0.0046196444891393185
13.0,0.004367013927549124
14.0,0.004158622119575739
15.0,0.003919099923223257
16.0,0.003658880013972521
18.0,0.003393563674762845
20.0,0.003120536683127284
22.0,0.002904906403273344
24.0,0.0026937779039144516
26.0,0.0025769451167434454
28.0,0.002500551985576749
30.0,0.0023896698839962482
32.0,0.0020458311773836613
36.0,0.001761864754371345
40.0,0.0016958871856331825
44.0,0.0014976885868236423
48.0,0.0010720581049099565
52.0,0.0006700225058011711
56.0,0.0005625738413073123
60.0,0.0002579092397354543
64.0,0.0004939135396853089
72.0,0.00018160878971684724
80.0,0.00010302382725058123
88.0,0.00010080829815706238
96.0,0.00014048416051082313
104.0,0.00043786820606328547
112.0,0.0004428060492500663
120.0,0.0003511246177367866
128.0,0.00010815133282449096
144.0,0.0006593132275156677
160.0,0.0007988501456566155
176.0,0.0009435680694878101
192.0,0.0010370855452492833
208.0,0.0007185293943621218
224.0,0.0004427169042173773
240.0,-0.00032168577308766544
256.0,-0.0002730906708166003
288.0,-0.0003263918624725193
320.0,-0.00027544551994651556
352.0,-0.00011085228470619768
384.0,0.0006108815432526171
416.0,0.0004695874231401831
448.0,-0.00010013000428443775
480.0,0.0003141504421364516
512.0,0.0004509400750976056
576.0,0.0007686579483561218
640.0,0.00012167949171271175
704.0,-7.36318324925378e-05
768.0,-0.00022545599495060742
832.0,-0.000520954083185643
896.0,-0.0009041741141118109
960.0,-2.024863351834938e-05
1024.0,-0.00015811770572327077
1152.0,0.00013862960622645915
1280.0,0.0002381348458584398
1408.0,-0.0001156822036136873
1536.0,-3.0225108275772072e-05
1664.0,0.0002578534767962992
1792.0,-1.9382130631129257e-05
1920.0,4.466383688850328e-05
2048.0,0.00015978146984707564
2304.0,6.0805072280345485e-05
2560.0,4.133175480092177e-06
2816.0,-0.00011753714352380484
3072.0,-0.0004002028435934335
3328.0,-5.883194535272196e-05
3584.0,0.0002022635017056018
3840.0,-0.00014447989815380424
4096.0,0.0003294773050583899
4608.0,-0.0003832039365079254
5120.0,0.0002598592545837164
5632.0,0.0001672779762884602
6144.0,-0.0001400657056365162
6656.0,-7.986737182363868e-05
7168.0,0.0001698008709354326
7680.0,0.00018721030210144818
8192.0,-0.0004681173013523221
end
