version,3.0
numOfCh,1
type,point
parent_name,714af_3dot0-1dot0
ch_type,1_1
kcount,1
numberNandB,1
brightnessNandB,1
carpet pos,0
pc,0
Time (ms),CH1 Auto-Correlation
1.0,0.017240185290575027
2.0,0.01430463045835495
3.0,0.012204867787659168
4.0,0.010560156777501106
5.0,0.009178907610476017
6.0,0.008104894310235977
7.0,0.007323627360165119
8.0,0.006744264159351587
9.0,0.00629161112010479
10.0,0.005858455318957567
11.0,0.005483763292431831
12.0,0.0051636784337460995
13.0,0.004973239731043577
14.0,0.004672443959861994
15.0,0.004478431306779385
16.0,0.0043216850608587265
18.0,0.004127863794565201
20.0,0.0037989283446222544
22.0,0.0035225478932261467
24.0,0.0031363465823233128
26.0,0.002771516563370824
28.0,0.0024834731593728065
30.0,0.0023305020295083523
32.0,0.0021803490817546844
36.0,0.0017726323567330837
40.0,0.0016691003693267703
44.0,0.0015186724485829473
48.0,0.0011987349716946483
52.0,0.0009409990743733943
56.0,0.0013106589904055
60.0,0.0013001025654375553
64.0,0.0011274628341197968
72.0,0.0007566798012703657
80.0,0.0008304642979055643
88.0,0.0005165908951312304
96.0,7.211406045826152e-05
104.0,6.697083153994754e-05
112.0,0.00013473410217557102
120.0,0.0005064602592028677
128.0,0.00010778583236970007
144.0,0.00020924399723298848
160.0,-0.0002457031805533916
176.0,0.00025992628070525825
192.0,-6.094065247452818e-05
208.0,0.00023179128766059875
224.0,-6.164311344036832e-05
240.0,-0.00044584463466890156
256.0,-0.0006083623156882823
288.0,-0.00014728827227372676
320.0,-0.00013815452984999865
352.0,-0.00031753964140079916
384.0,0.00011258860467933118
416.0,0.00024347170256078243
448.0,0.00019120151409879327
480.0,0.0003049478109460324
512.0,-0.00042772103915922344
576.0,-0.0007250648341141641
640.0,-0.00030640719342045486
704.0,0.00016386386414524168
768.0,0.00026437509222887456
832.0,0.00045575949479825795
896.0,0.0005833361065015197
960.0,0.0001925107790157199
1024.0,-0.0001827635132940486
1152.0,0.00017873528122436255
1280.0,6.81980891386047e-05
1408.0,-0.0003910913656000048
1536.0,-0.0005130841745994985
1664.0,-0.00027787868748418987
1792.0,-0.0001566708815516904
1920.0,0.00031705465517006814
2048.0,0.0002826325362548232
2304.0,-0.00039000436663627625
2560.0,0.0001683553127804771
2816.0,0.00021181494230404496
3072.0,-0.0001564945705467835
3328.0,-0.00025112080038525164
3584.0,-0.00032072269823402166
3840.0,1.879962655948475e-05
4096.0,-0.0004255696549080312
4608.0,0.00021678594930563122
5120.0,-0.00017747291713021696
5632.0,0.00026200583670288324
6144.0,0.0004126961575821042
6656.0,-3.147006282233633e-05
7168.0,0.00010945799294859171
7680.0,-0.0006107708904892206
8192.0,-0.0002061663253698498
end
