version,3.0
numOfCh,1
type,point
parent_name,714af_3dot0-1dot0
ch_type,1_1
kcount,1
numberNandB,1
brightnessNandB,1
carpet pos,0
pc,0
Time (ms),CH1 Auto-Correlation
1.0,0.01651913858950138
2.0,0.01367674395442009
3.0,0.011638829484581947
4.0,0.01011640951037407
5.0,0.008981049992144108
6.0,0.007968307472765446
7.0,0.007048576604574919
8.0,0.006452137138694525
9.0,0.005766475573182106
10.0,0.0051947105675935745
11.0,0.004773532040417194
12.0,0.0044333674013614655
13.0,0.004159896168857813
14.0,0.003949818201363087
15.0,0.0036799598019570112
16.0,0.0035068222787231207
18.0,0.0032955314964056015
20.0,0.00307439430616796
22.0,0.0030096378177404404
24.0,0.002838059328496456
26.0,0.0027841771952807903
28.0,0.0025802880991250277
30.0,0.0022656857036054134
32.0,0.001980857690796256
36.0,0.001571302069351077
40.0,0.0011165643809363246
44.0,0.001051137805916369
48.0,0.0009051039232872427
52.0,0.0006761158583685756
56.0,0.0004389895184431225
60.0,0.0005691490950994194
64.0,0.0006041316082701087
72.0,0.0007988678989931941
80.0,0.0007043353980407119
88.0,0.0003366230521351099
96.0,0.00028868953813798726
104.0,-0.00011330006964271888
112.0,-0.0001291892258450389
120.0,-0.00015351013280451298
128.0,-0.00023217644775286317
144.0,-0.00029930294840596616
160.0,-0.0004374835407361388
176.0,-0.00019824948685709387
192.0,-0.00045756727922707796
208.0,-0.0005851405439898372
224.0,-0.00019357455312274396
240.0,-1.3866459994460456e-05
256.0,-1.584802521392703e-05
288.0,2.215833774243947e-05
320.0,0.0005620202864520252
352.0,-9.772201156010851e-05
384.0,-0.0002864433918148279
416.0,-0.0005348033155314624
448.0,-0.0003681257367134094
480.0,-0.000422346725827083
512.0,-8.745289233047515e-05
576.0,6.5841872128658e-05
640.0,1.946162956301123e-05
704.0,-0.00014669068332295865
768.0,-0.0007113696774467826
832.0,-0.00010281313006998971
896.0,0.0003563408099580556
960.0,5.652892650687136e-05
1024.0,0.00015109121159184724
1152.0,-0.00026575010269880295
1280.0,-0.0002943268045783043
1408.0,-0.00017782938084565103
1536.0,-2.0028563085361384e-05
1664.0,-0.0004547191201709211
1792.0,0.00020643076277337968
1920.0,0.00039300823118537664
2048.0,-0.0001402463676640764
2304.0,0.00010301342990715057
2560.0,-6.66431660647504e-05
2816.0,-8.337603503605351e-05
3072.0,-0.00015468908532056957
3328.0,-0.0002557164116296917
3584.0,9.75899602053687e-05
3840.0,0.0002909954055212438
4096.0,9.768245945451781e-05
4608.0,-9.762436093296856e-06
5120.0,0.00014575473323930055
5632.0,0.0002590254007373005
6144.0,-0.00019810946832876652
6656.0,-0.00023469077132176608
7168.0,7.715842116340355e-07
7680.0,0.00016536109615117311
8192.0,-9.612738358555362e-05
end
