version,3.0
numOfCh,1
type,point
parent_name,714af_3dot0-1dot0
ch_type,1_1
kcount,1
numberNandB,1
brightnessNandB,1
carpet pos,0
pc,0
Time (ms),CH1 Auto-Correlation
1.0,0.015901697799563408
2.0,0.012956758961081505
3.0,0.010916374623775482
4.0,0.009366296231746674
5.0,0.008173996582627296
6.0,0.007142107002437115
7.0,0.006302118767052889
8.0,0.005698106251657009
9.0,0.004975816234946251
10.0,0.004500158596783876
11.0,0.004064101725816727
12.0,0.0036942565347999334
13.0,0.0032746195793151855
14.0,0.0029282693285495043
15.0,0.002690592547878623
16.0,0.0025721373967826366
18.0,0.0022209591697901487
20.0,0.0020450176671147346
22.0,0.0019676864612847567
24.0,0.0019100557547062635
26.0,0.001802982878871262
28.0,0.0016392373945564032
30.0,0.0015080110169947147
32.0,0.0013211860787123442
36.0,0.0011935338843613863
40.0,0.0011895453790202737
44.0,0.0014469517627730966
48.0,0.0013796123676002026
52.0,0.0013739881105720997
56.0,0.0009228770504705608
60.0,0.000641161052044481
64.0,0.0002701583434827626
72.0,0.0005243420018814504
80.0,0.0006879539578221738
88.0,0.0004491012077778578
96.0,0.00033110874937847257
104.0,-1.40179681693553e-05
112.0,-0.00016358052380383015
120.0,-2.0489542293944396e-05
128.0,-0.00016344092728104442
144.0,4.540432200883515e-05
160.0,-7.35795620130375e-05
176.0,0.0003263056860305369
192.0,0.00034751053317449987
208.0,6.0900776588823646e-05
224.0,0.0002604185719974339
240.0,7.28749146219343e-05
256.0,0.00033580284798517823
288.0,0.0008732296410016716
320.0,0.0003407167096156627
352.0,6.170899723656476e-05
384.0,0.00021077632845845073
416.0,4.622542473953217e-05
448.0,0.00012782269914168864
480.0,1.7737689631758258e-05
512.0,0.0001977461506612599
576.0,0.0003160948399454355
640.0,0.0006577405729331076
704.0,0.00013498727639671415
768.0,0.0002586081682238728
832.0,1.787132532626856e-05
896.0,7.146710413508117e-05
960.0,0.0004067740810569376
1024.0,0.0005510038463398814
1152.0,0.00016193711780942976
1280.0,-0.000126940431073308
1408.0,8.286241791211069e-05
1536.0,-0.0002952593204099685
1664.0,0.0002084452280541882
1792.0,-1.4510332221107092e-05
1920.0,0.00019403434998821467
2048.0,0.00029153909417800605
2304.0,-0.00020055148343089968
2560.0,-0.0002026092552114278
2816.0,-0.00010166974243475124
3072.0,0.00010340840526623651
3328.0,-0.00045443864655680954
3584.0,-0.000264926056843251
3840.0,2.253653474326711e-05
4096.0,-0.0002001932152779773
4608.0,-0.00033867123420350254
5120.0,0.00010085209214594215
5632.0,8.895785140339285e-05
6144.0,0.0001313162938458845
6656.0,3.28986207023263e-05
7168.0,-6.332764314720407e-05
7680.0,-0.00028548025875352323
8192.0,-0.00012904414325021207
end
