version,3.0
numOfCh,1
type,point
parent_name,714af_3dot0-1dot0
ch_type,1_1
kcount,1
numberNandB,1
brightnessNandB,1
carpet pos,0
pc,0
Time (ms),CH1 Auto-Correlation
1.0,0.016389263793826103
2.0,0.013413844630122185
3.0,0.011304476298391819
4.0,0.009714651852846146
5.0,0.008526165969669819
6.0,0.007522497791796923
7.0,0.006778096780180931
8.0,0.006234543863683939
9.0,0.005699361674487591
10.0,0.005368079524487257
11.0,0.0050650364719331264
12.0,0.00478283129632473
13.0,0.004499371163547039
14.0,0.004255158361047506
15.0,0.004111120942980051
16.0,0.003963576164096594
18.0,0.003639600006863475
20.0,0.0032335498835891485
22.0,0.0029034484177827835
24.0,0.0025630928575992584
26.0,0.002274325117468834
28.0,0.0019113890593871474
30.0,0.0016941993962973356
32.0,0.0015329440357163548
36.0,0.0014320327900350094
40.0,0.0013369763037189841
44.0,0.001675051636993885
48.0,0.0018595077563077211
52.0,0.0016055472660809755
56.0,0.0012745388085022569
60.0,0.0011341894278302789
64.0,0.0008076297235675156
72.0,0.0007993195904418826
80.0,0.0006576143787242472
88.0,0.0005029200692661107
96.0,0.0006795835215598345
104.0,0.0008136312244459987
112.0,0.0007560563390143216
120.0,0.0005832273745909333
128.0,0.000609786540735513
144.0,1.2749120287480764e-05
160.0,-0.0002438380179228261
176.0,-0.00012889018398709595
192.0,-0.00011834392353193834
208.0,0.0001286823389818892
224.0,-0.00012425686873029917
240.0,-0.00021182962518651038
256.0,-0.0001951872109202668
288.0,-0.0006198837072588503
320.0,-0.00031016964931041
352.0,-0.0002575721009634435
384.0,7.264330633915961e-06
416.0,-0.0003393642546143383
448.0,-0.00018594275752548128
480.0,0.0002592198143247515
512.0,-0.00022421484754886478
576.0,-0.0002517747925594449
640.0,0.0006712241447530687
704.0,0.0005496054072864354
768.0,-3.518228550092317e-05
832.0,-0.000358433899236843
896.0,-0.0006164725054986775
960.0,-0.0004023179062642157
1024.0,-0.0004951462033204734
1152.0,-0.00025184257538057864
1280.0,0.000172953907167539
1408.0,0.0004918522317893803
1536.0,-0.00013729142665397376
1664.0,-3.902914158970816e-06
1792.0,0.0001600098767085001
1920.0,-3.550626934156753e-05
2048.0,-6.650759314652532e-05
2304.0,3.714728154591285e-05
2560.0,0.00028263957938179374
2816.0,-0.00044938380597159266
3072.0,5.308465551934205e-05
3328.0,-0.00031954384758137167
3584.0,-2.755521927610971e-05
3840.0,0.00017889452283270657
4096.0,3.1394318966704304e-07
4608.0,-0.00027532706735655665
5120.0,0.00021822626877110451
5632.0,6.284917617449537e-05
6144.0,-0.00016757307457737625
6656.0,0.0001316630223300308
7168.0,0.00019880117906723171
7680.0,-0.00014447631838265806
8192.0,-0.0002612355165183544
end
