version,3.0
numOfCh,1
type,point
parent_name,714af_3dot0-1dot0
ch_type,1_1
kcount,1
numberNandB,1
brightnessNandB,1
carpet pos,0
pc,0
Time (ms),CH1 Auto-Correlation
1.0,0.015780948102474213
2.0,0.012905826792120934
3.0,0.01087936945259571
4.0,0.009270821698009968
5.0,0.008024689741432667
6.0,0.007072516717016697
7.0,0.006278184708207846
8.0,0.00566701078787446
9.0,0.005151308141648769
10.0,0.004790958482772112
11.0,0.0043426440097391605
12.0,0.003991886042058468
13.0,0.00364003237336874
14.0,0.0033450783230364323
15.0,0.0030939565040171146
16.0,0.0028488829266279936
18.0,0.0022904679644852877
20.0,0.0019680000841617584
22.0,0.0017565442249178886
24.0,0.0016271359054371715
26.0,0.0015278372447937727
28.0,0.00137351977173239
30.0,0.0012950379168614745
32.0,0.0011969358893111348
36.0,0.000992251792922616
40.0,0.0008073663339018822
44.0,0.00041148802847601473
48.0,0.0003524803905747831
52.0,0.00017522048437967896
56.0,9.918459545588121e-05
60.0,8.464795973850414e-05
64.0,0.0001940885413205251
72.0,0.00028114335145801306
80.0,0.0003997944004368037
88.0,0.00015861472638789564
96.0,-5.813739699078724e-05
104.0,-9.352581400889903e-05
112.0,-0.00017142121214419603
120.0,-9.670686995377764e-05
128.0,-8.93355900188908e-05
144.0,-3.279931843280792e-05
160.0,0.0001840605546021834
176.0,0.00032147730235010386
192.0,0.000634527939837426
208.0,0.0007524032262153924
224.0,0.0005036466754972935
240.0,0.0006892725359648466
256.0,0.00023679889272898436
288.0,-0.0004517946799751371
320.0,-0.0003350514452904463
352.0,8.683077612658963e-05
384.0,0.00019117159536108375
416.0,0.00021276118059176952
448.0,0.00030072496156208217
480.0,0.00026326518855057657
512.0,-6.483539436885621e-06
576.0,0.000391575536923483
640.0,0.0003395809617359191
704.0,0.00015548845112789422
768.0,-0.00018495562835596502
832.0,-0.00010430724796606228
896.0,0.0001517419732408598
960.0,-0.00016696506645530462
1024.0,2.57967858487973e-05
1152.0,0.00019415243878029287
1280.0,-8.753551810514182e-05
1408.0,-0.0003044764744117856
1536.0,-0.00036593235563486814
1664.0,-0.00036367238499224186
1792.0,-9.830412454903126e-05
1920.0,-0.00022898214228916913
2048.0,-4.9448230129200965e-05
2304.0,1.964127477549482e-05
2560.0,0.0001494513126090169
2816.0,-2.8494687285274267e-05
3072.0,0.0002080458652926609
3328.0,0.00010668171307770535
3584.0,-5.521504135685973e-05
3840.0,-0.00012115079152863473
4096.0,-0.0003838776610791683
4608.0,-6.644456152571365e-05
5120.0,6.954254058655351e-05
5632.0,0.00016534069436602294
6144.0,0.00017748202662914991
6656.0,-0.00010678471880964935
7168.0,-0.00026550967595539987
7680.0,-0.0002751236315816641
8192.0,9.902584679366555e-06
end
