version,3.0
numOfCh,1
type,point
parent_name,714af_3dot0-1dot0
ch_type,1_1
kcount,1
numberNandB,1
brightnessNandB,1
carpet pos,0
pc,0
Time (ms),CH1 Auto-Correlation
1.0,0.015572454780340195
2.0,0.012554015032947063
3.0,0.010431052185595036
4.0,0.008955513127148151
5.0,0.007820066064596176
6.0,0.006844001356512308
7.0,0.005975469946861267
8.0,0.005327769089490175
9.0,0.004921984858810902
10.0,0.004614456091076136
11.0,0.004300371743738651
12.0,0.003984016366302967
13.0,0.0037492297124117613
14.0,0.0036701757926493883
15.0,0.003449537791311741
16.0,0.00334779336117208
18.0,0.0029998330865055323
20.0,0.0027186046354472637
22.0,0.0024057733826339245
24.0,0.002164647448807955
26.0,0.0020245595369488
28.0,0.001968781230971217
30.0,0.0018051514634862542
32.0,0.0015745608834549785
36.0,0.0014521648408845067
40.0,0.0010962352389469743
44.0,0.001060259179212153
48.0,0.0006589405238628387
52.0,0.0004752350796479732
56.0,0.0005725114024244249
60.0,0.00048113809316419065
64.0,0.0005203919718042016
72.0,0.0001412838464602828
80.0,0.00016577950736973435
88.0,0.00035813546855933964
96.0,0.0006916044512763619
104.0,0.00044184166472405195
112.0,0.0003248079738114029
120.0,0.00023244913609232754
128.0,3.65307969332207e-05
144.0,-0.00010189106251345947
160.0,0.00023893073375802487
176.0,0.0003531871479935944
192.0,0.000262098154053092
208.0,0.0006471248343586922
224.0,0.00038551550824195147
240.0,0.00040871428791433573
256.0,0.00036180467577651143
288.0,4.5292599679669365e-05
320.0,-0.00027031413628719747
352.0,-0.00020244208280928433
384.0,0.00022286616149358451
416.0,0.0001521826779935509
448.0,0.00024478405248373747
480.0,0.00032936144270934165
512.0,-0.00014855226618237793
576.0,-0.0001733157696435228
640.0,-0.0003701568639371544
704.0,-0.00015796121442690492
768.0,-3.203743108315393e-05
832.0,-0.0002462377888150513
896.0,-4.3227864807704464e-05
960.0,-0.00040929706301540136
1024.0,-0.0005026785074733198
1152.0,-0.0006669306894764304
1280.0,-0.0005466884467750788
1408.0,-0.0003391621867194772
1536.0,4.65764278487768e-05
1664.0,0.00013496479368768632
1792.0,0.00017454753105994314
1920.0,2.457599748595385e-06
2048.0,-8.395282202400267e-05
2304.0,0.00041517848148941994
2560.0,0.0002404651022516191
2816.0,-9.022399171954021e-05
3072.0,-8.816827175905928e-05
3328.0,-0.0004031355492770672
3584.0,-0.0006994281429797411
3840.0,0.0002341922518098727
4096.0,0.00014452295727096498
4608.0,0.0004074688476976007
5120.0,-0.00018965383060276508
5632.0,4.219781476422213e-05
6144.0,0.0002824800612870604
6656.0,-0.00024280355137307197
7168.0,-0.00011370292486390099
7680.0,0.0002828045398928225
8192.0,-0.00017133592336904258
end
