version,3.0
numOfCh,1
type,point
parent_name,714af_3dot0-1dot0
ch_type,1_1
kcount,1
numberNandB,1
brightnessNandB,1
carpet pos,0
pc,0
Time (ms),CH1 Auto-Correlation
1.0,0.01610954850912094
2.0,0.013065450824797153
3.0,0.011075317859649658
4.0,0.009581582620739937
5.0,0.008486079052090645
6.0,0.00745008559897542
7.0,0.006714201997965574
8.0,0.006228226236999035
9.0,0.005742975044995546
10.0,0.005203509237617254
11.0,0.004698158707469702
12.0,0.004281362518668175
13.0,0.004027002491056919
14.0,0.0037325765006244183
15.0,0.003480237443000078
16.0,0.0031619456131011248
18.0,0.0028991890139877796
20.0,0.002664973260834813
22.0,0.0025682810228317976
24.0,0.0026458173524588346
26.0,0.0026526832953095436
28.0,0.002537964843213558
30.0,0.0022564767859876156
32.0,0.002022041007876396
36.0,0.0016121144872158766
40.0,0.0016546737169846892
44.0,0.0015917132841423154
48.0,0.0014359733322635293
52.0,0.0015964320627972484
56.0,0.0012890213401988149
60.0,0.0008479747921228409
64.0,0.0005288418033160269
72.0,0.000539771281182766
80.0,0.0005586848710663617
88.0,0.0002577554259914905
96.0,2.0747211237903684e-05
104.0,0.00036591870593838394
112.0,0.0002731245767790824
120.0,0.0004035471356473863
128.0,0.0006872941157780588
144.0,-4.806555079994723e-05
160.0,-0.0003549251414369792
176.0,-0.00031636658241041005
192.0,-0.00036923401057720184
208.0,-0.0003594816953409463
224.0,-0.00043139647459611297
240.0,-0.0004052629810757935
256.0,-7.627985178260133e-05
288.0,0.0001457136677345261
320.0,-0.0001672428916208446
352.0,-0.0002214395353803411
384.0,1.8439828636473976e-05
416.0,-0.0004052152798976749
448.0,-0.0003427696938160807
480.0,-0.000383521692128852
512.0,9.81014090939425e-06
576.0,0.00015574219287373126
640.0,0.0003709993907250464
704.0,-0.00010978632053593174
768.0,3.363215728313662e-05
832.0,0.0003240080550312996
896.0,-0.00019840280583593994
960.0,-0.0005359233473427594
1024.0,-0.00011164513853145763
1152.0,-0.00013034514267928898
1280.0,-0.00021682659280486405
1408.0,0.00019662063277792186
1536.0,0.0002489012840669602
1664.0,4.22864941356238e-05
1792.0,-6.853710510767996e-05
1920.0,-0.00015639737830497324
2048.0,0.00019845837960019708
2304.0,-3.088078665314242e-05
2560.0,-0.00043925252975896
2816.0,-2.256293191749137e-05
3072.0,6.269900040933862e-05
3328.0,-0.00015159626491367817
3584.0,6.348683382384479e-05
3840.0,-0.00016769581998232752
4096.0,-0.00020333901920821518
4608.0,0.00014649363583885133
5120.0,4.988617365597747e-05
5632.0,0.0001001444979920052
6144.0,0.0002425121347187087
6656.0,8.860882371664047e-05
7168.0,-0.0003161774075124413
7680.0,-0.00018075204570777714
8192.0,4.77182911708951e-05
end
