version,3.0
numOfCh,1
type,point
parent_name,714af_3dot0-1dot0
ch_type,1_1
kcount,1
numberNandB,1
brightnessNandB,1
carpet pos,0
pc,0
Time (ms),CH1 Auto-Correlation
1.0,0.015898875892162323
2.0,0.012821788899600506
3.0,0.010673792101442814
4.0,0.009197907522320747
5.0,0.008072840049862862
6.0,0.007196560502052307
7.0,0.006488185375928879
8.0,0.005761922337114811
9.0,0.005202141124755144
10.0,0.004739465657621622
11.0,0.004371706862002611
12.0,0.004111527930945158
13.0,0.003866348182782531
14.0,0.0036627287045121193
15.0,0.0034888593945652246
16.0,0.0032336264848709106
18.0,0.0026970477774739265
20.0,0.0021568217780441046
22.0,0.0018780695972964168
24.0,0.0017197326524183154
26.0,0.0016103022499009967
28.0,0.001496514305472374
30.0,0.0012767198495566845
32.0,0.0010196833172813058
36.0,0.0008191377273760736
40.0,0.0006056679412722588
44.0,0.0008139278506860137
48.0,0.0008402049425058067
52.0,0.0005287757376208901
56.0,0.00021561399626079947
60.0,0.00010611692414386198
64.0,3.09906063193921e-05
72.0,-9.276553100789897e-06
80.0,-0.00028471878613345325
88.0,2.9781152989016846e-05
96.0,0.00038606312591582537
104.0,0.00043444058974273503
112.0,0.0003466657653916627
120.0,2.202797077188734e-05
128.0,-0.0001515913609182462
144.0,-9.977186709875241e-05
160.0,-8.523574797436595e-05
176.0,9.020784636959434e-05
192.0,2.588641655165702e-05
208.0,1.7900922102853656e-05
224.0,0.0001692961814114824
240.0,-0.0001261382276425138
256.0,-0.0004163858247920871
288.0,-0.0005306102684698999
320.0,-0.0004753932007588446
352.0,0.00018570896645542234
384.0,0.0002922523417510092
416.0,-2.7474357921164483e-05
448.0,-3.2616731914458796e-05
480.0,0.00023436418268829584
512.0,0.00010708721674745902
576.0,-3.929205922759138e-05
640.0,9.212167788064107e-05
704.0,-0.0001246169995283708
768.0,-0.00024801125982776284
832.0,-5.577455158345401e-05
896.0,0.00017316425510216504
960.0,-3.3444292057538405e-05
1024.0,-0.00023306411458179355
1152.0,9.013063390739262e-05
1280.0,-0.00035518285585567355
1408.0,4.7076158807612956e-05
1536.0,0.00012731629249174148
1664.0,-0.0002701376797631383
1792.0,0.0001248091139132157
1920.0,0.00023299494932871312
2048.0,0.0002075642260024324
2304.0,-2.7598029191722162e-05
2560.0,0.00015826297749299556
2816.0,-2.7013053113478236e-05
3072.0,-0.00012062919267918915
3328.0,-0.0003764753637369722
3584.0,1.821348450903315e-05
3840.0,0.00016534185851924121
4096.0,-0.000172016880242154
4608.0,-0.00022893381537869573
5120.0,-9.923847392201424e-05
5632.0,0.00023489445447921753
6144.0,9.758044325280935e-05
6656.0,-0.00021315697813406587
7168.0,-9.074414992937818e-05
7680.0,0.00043651400483213365
8192.0,0.00017762367497198284
end
