version,3.0
numOfCh,1
type,point
parent_name,714af_3dot0-1dot0
ch_type,1_1
kcount,1
numberNandB,1
brightnessNandB,1
carpet pos,0
pc,0
Time (ms),CH1 Auto-Correlation
1.0,0.017723623663187027
2.0,0.01478144247084856
3.0,0.012583828531205654
4.0,0.010988160967826843
5.0,0.009600439108908176
6.0,0.008523017168045044
7.0,0.007594384253025055
8.0,0.006961024831980467
9.0,0.006447638850659132
10.0,0.00592434499412775
11.0,0.005607803352177143
12.0,0.005403453949838877
13.0,0.005095850210636854
14.0,0.004842027556151152
15.0,0.00455838767811656
16.0,0.004340838175266981
18.0,0.004092255607247353
20.0,0.0037027529906481504
22.0,0.003381413174793124
24.0,0.003362708492204547
26.0,0.003387290984392166
28.0,0.0032213618978857994
30.0,0.002895626937970519
32.0,0.0026139544788748026
36.0,0.002515092259272933
40.0,0.002206326462328434
44.0,0.00178506167139858
48.0,0.0016195953357964754
52.0,0.001632250496186316
56.0,0.001546307816170156
60.0,0.0012102286564186215
64.0,0.0009319293894805014
72.0,0.0003598000621423125
80.0,0.0007447554962709546
88.0,0.0013175836065784097
96.0,0.0012952868128195405
104.0,0.001038469490595162
112.0,0.000677684904076159
120.0,0.0006197748589329422
128.0,0.00022600695956498384
144.0,-0.00019447595695964992
160.0,-0.0007052753353491426
176.0,4.5261414925334975e-05
192.0,5.7125398598145694e-05
208.0,0.00018571363762021065
224.0,0.00040005333721637726
240.0,-0.00014960262342356145
256.0,-0.0010208504972979426
288.0,-0.0007485460955649614
320.0,-0.0002613529795780778
352.0,-0.00031989559647627175
384.0,-0.00039550699875690043
416.0,7.527359412051737e-05
448.0,-8.862813410814852e-05
480.0,0.0002276894374517724
512.0,0.000656851741950959
576.0,0.00023498317750636488
640.0,3.623811062425375e-05
704.0,-0.0004963494138792157
768.0,-0.0009110381943173707
832.0,-0.0003696739731822163
896.0,-3.756907972274348e-05
960.0,-0.00030633824644610286
1024.0,0.00017708021914586425
1152.0,0.00031840844894759357
1280.0,-0.00037990498822182417
1408.0,-7.446042582159862e-05
1536.0,4.824117786483839e-05
1664.0,0.0002499116526450962
1792.0,-0.00019852936384268105
1920.0,-0.00021714701142627746
2048.0,-0.00013197741645853966
2304.0,-0.00024266658874694258
2560.0,-0.00024791868054307997
2816.0,0.00019009847892448306
3072.0,-5.741305722040124e-05
3328.0,0.000279390427749604
3584.0,-0.000676333496812731
3840.0,0.0005172093515284359
4096.0,-0.0005096287932246923
4608.0,0.00011573138908715919
5120.0,-0.00010442736675031483
5632.0,-0.00010853463754756376
6144.0,-7.323500904021785e-05
6656.0,0.00010841742914635688
7168.0,0.00010866723459912464
7680.0,-1.601492658664938e-05
8192.0,-0.00022554787574335933
end
