version,3.0
numOfCh,1
type,point
parent_name,714af_3dot0-1dot0
ch_type,1_1
kcount,1
numberNandB,1
brightnessNandB,1
carpet pos,0
pc,0
Time (ms),CH1 Auto-Correlation
1.0,0.015713607892394066
2.0,0.012688662856817245
3.0,0.010554984211921692
4.0,0.008944191038608551
5.0,0.007666419725865126
6.0,0.006714965682476759
7.0,0.005978334695100784
8.0,0.005345121491700411
9.0,0.004985017701983452
10.0,0.004660097416490316
11.0,0.004297854378819466
12.0,0.0039599984884262085
13.0,0.0036970246583223343
14.0,0.0034924757201224566
15.0,0.00333198020234704
16.0,0.003015505149960518
18.0,0.0027419482357800007
20.0,0.0024978278670459986
22.0,0.0023486691061407328
24.0,0.002331808442249894
26.0,0.0022823226172477007
28.0,0.0021737858187407255
30.0,0.0020065787248313427
32.0,0.0019690876360982656
36.0,0.00171901925932616
40.0,0.0015808092430233955
44.0,0.0014509782195091248
48.0,0.001370985759422183
52.0,0.0013987473212182522
56.0,0.0010951814474537969
60.0,0.0009613618021830916
64.0,0.000833307858556509
72.0,0.0009786825394257903
80.0,0.0006830511847510934
88.0,0.00021763615950476378
96.0,-0.0004282115842215717
104.0,-0.00039180315798148513
112.0,9.620444325264543e-05
120.0,0.00019828285439871252
128.0,-8.679327584104612e-05
144.0,-6.207558908499777e-05
160.0,0.00023679387231823057
176.0,-0.0005444686394184828
192.0,-7.475171150872484e-05
208.0,-0.00027029699413105845
224.0,-0.0004971935413777828
240.0,-0.0001225396990776062
256.0,4.14256464864593e-05
288.0,-0.00037519389297813177
320.0,-0.0005717898602597415
352.0,-0.0006673202733509243
384.0,-0.0005735519807785749
416.0,-0.00045344699174165726
448.0,0.0001481484214309603
480.0,0.00033096905099228024
512.0,8.300622721435502e-05
576.0,5.6379984016530216e-05
640.0,-2.012130426010117e-05
704.0,0.00022269038890954107
768.0,8.765920210862532e-05
832.0,-0.00014017635839991271
896.0,-0.0001775176206137985
960.0,-7.445909432135522e-05
1024.0,0.00016423483612015843
1152.0,-7.162153906392632e-06
1280.0,0.00016274758672807366
1408.0,0.00010468540858710185
1536.0,-0.00037738870014436543
1664.0,0.00011211904347874224
1792.0,0.0003286196442786604
1920.0,0.00029409260605461895
2048.0,-0.00025157947675324976
2304.0,-0.00017378227494191378
2560.0,-0.00016450912517029792
2816.0,-2.8511347409221344e-05
3072.0,0.00016761109873186797
3328.0,-5.234871423454024e-06
3584.0,-4.126552084926516e-05
3840.0,0.0002013358025578782
4096.0,-0.0003014031972270459
4608.0,0.00010724642197601497
5120.0,4.681584323407151e-05
5632.0,0.00010672736971173435
6144.0,9.71168337855488e-05
6656.0,-0.000176765417563729
7168.0,0.00013213847705628723
7680.0,-3.388969707884826e-05
8192.0,-2.534605846449267e-05
end
