version,3.0
numOfCh,1
type,point
parent_name,714af_3dot0-1dot0
ch_type,1_1
kcount,1
numberNandB,1
brightnessNandB,1
carpet pos,0
pc,0
Time (ms),CH1 Auto-Correlation
1.0,0.016322528943419456
2.0,0.013280422426760197
3.0,0.01114053837954998
4.0,0.00952448882162571
5.0,0.008314227685332298
6.0,0.007351824082434177
7.0,0.006560312118381262
8.0,0.006058115512132645
9.0,0.005626377649605274
10.0,0.005398836452513933
11.0,0.005213787779211998
12.0,0.004909713752567768
13.0,0.004737451206892729
14.0,0.004534589126706123
15.0,0.004293087404221296
16.0,0.003906610421836376
18.0,0.003419829998165369
20.0,0.0030764464754611254
22.0,0.002642157021909952
24.0,0.0023227138444781303
26.0,0.0018763741245493293
28.0,0.0015489908400923014
30.0,0.0014122637221589684
32.0,0.0013373710680752993
36.0,0.0011421176604926586
40.0,0.001213589683175087
44.0,0.0010062902001664042
48.0,0.0009353325585834682
52.0,0.0005373505409806967
56.0,0.0006317856023088098
60.0,0.0007435132283717394
64.0,0.0007399135502055287
72.0,0.0007007871172390878
80.0,0.0008215756388381124
88.0,0.0009545240900479257
96.0,0.001086662756279111
104.0,0.0007492320728488266
112.0,0.0005848595756106079
120.0,0.0004737659764941782
128.0,0.000390260829590261
144.0,0.0006601398345082998
160.0,0.0009944686898961663
176.0,0.0007582116522826254
192.0,0.0005506304441951215
208.0,0.00020734120334964246
224.0,-9.944511839421466e-05
240.0,0.00016302389849442989
256.0,0.0001555617491248995
288.0,0.00042843728442676365
320.0,0.000613173411693424
352.0,0.00014655556879006326
384.0,6.488206417998299e-05
416.0,0.00013843252963852137
448.0,-8.99243532330729e-05
480.0,-0.0001503939274698496
512.0,0.00010574606858426705
576.0,0.0005020397366024554
640.0,-0.0002425793354632333
704.0,-0.0006994712166488171
768.0,-0.0002501712297089398
832.0,-0.00016889844846446067
896.0,-0.00020138065156061202
960.0,-0.0001226322929142043
1024.0,-5.70463998883497e-05
1152.0,0.00014065504365134984
1280.0,-0.00013928572298027575
1408.0,6.526767538161948e-05
1536.0,-0.00017136817041318864
1664.0,-0.00025955840828828514
1792.0,-0.0006188014522194862
1920.0,-0.0002875523059628904
2048.0,-0.0003987000964116305
2304.0,-0.0003498150035738945
2560.0,-0.00017573052900843322
2816.0,0.00026996995438821614
3072.0,-9.372648491989821e-05
3328.0,-3.8684691389789805e-05
3584.0,8.764243830228224e-05
3840.0,0.0006271024467423558
4096.0,0.0006093931733630598
4608.0,-2.0254414266673848e-05
5120.0,-0.00021580871543847024
5632.0,-4.3628850107779726e-05
6144.0,-0.00028675267822109163
6656.0,0.00012667299597524107
7168.0,0.00026567376335151494
7680.0,6.1026992625556886e-05
8192.0,0.0004496403271332383
end
