version,3.0
numOfCh,1
type,point
parent_name,714af_3dot0-1dot0
ch_type,1_1
kcount,1
numberNandB,1
brightnessNandB,1
carpet pos,0
pc,0
Time (ms),CH1 Auto-Correlation
1.0,0.016725417226552963
2.0,0.013730118982493877
3.0,0.011562958359718323
4.0,0.010167224332690239
5.0,0.009050052613019943
6.0,0.008140405640006065
7.0,0.007394774351269007
8.0,0.0067262486554682255
9.0,0.006157703697681427
10.0,0.005602811463177204
11.0,0.005233692470937967
12.0,0.004920722916722298
13.0,0.004675877746194601
14.0,0.004503888543695211
15.0,0.004273676313459873
16.0,0.004074981436133385
18.0,0.003592441789805889
20.0,0.0029936295468360186
22.0,0.0025472792331129313
24.0,0.002273563528433442
26.0,0.0021470007486641407
28.0,0.0020483543630689383
30.0,0.001928158337250352
32.0,0.0017193465027958155
36.0,0.0014691849937662482
40.0,0.0013496188912540674
44.0,0.0009027897613123059
48.0,0.0007384290220215917
52.0,0.0005144323222339153
56.0,0.0003182661603204906
60.0,0.00038750399835407734
64.0,0.00023019846412353218
72.0,0.0004007559036836028
80.0,0.0006258689681999385
88.0,0.000327590067172423
96.0,-8.904636342776939e-05
104.0,-0.0002092042996082455
112.0,-0.000301433727145195
120.0,-0.00037840145523659885
128.0,-0.0004945559776388109
144.0,-0.0002544815943110734
160.0,0.00019185701967217028
176.0,-3.603476216085255e-05
192.0,9.044306352734566e-05
208.0,-4.511064616963267e-05
224.0,-0.00040477397851645947
240.0,-0.00027312213205732405
256.0,-0.0003523309715092182
288.0,7.862249913159758e-05
320.0,-0.0003649674472399056
352.0,-2.5046248993021436e-05
384.0,-6.403241968655493e-06
416.0,-0.0005471815238706768
448.0,0.00038437446346506476
480.0,-5.304915248416364e-06
512.0,-0.0003471856180112809
576.0,-0.00037793160299770534
640.0,-9.658033377490938e-05
704.0,-0.00026717319269664586
768.0,0.00021782312251161784
832.0,0.0002977062249556184
896.0,-0.00021086861670482904
960.0,0.0006305844290181994
1024.0,-0.00023776227317284793
1152.0,-0.00048530162894167006
1280.0,-0.0002598848950583488
1408.0,0.0001546406274428591
1536.0,-2.3343069187831134e-05
1664.0,0.00018572682165540755
1792.0,8.48982290335698e-06
1920.0,1.6973216361293453e-06
2048.0,0.00010358457075199112
2304.0,9.64817008934915e-05
2560.0,-0.00017809798009693623
2816.0,-5.8598547184374183e-05
3072.0,8.398330101044849e-05
3328.0,6.75894261803478e-05
3584.0,0.00014484803250525147
3840.0,-7.696160901105031e-05
4096.0,-0.0001393239654134959
4608.0,-0.00021390146866906434
5120.0,-9.36394790187478e-05
5632.0,8.487620652886108e-05
6144.0,0.00021349846792872995
6656.0,-0.00014039322559256107
7168.0,-0.00019161532691214234
7680.0,0.00022418204753194004
8192.0,-0.00021569692762568593
end
