version,3.0
numOfCh,1
type,point
parent_name,714af_3dot0-1dot0
ch_type,1_1
kcount,1
numberNandB,1
brightnessNandB,1
carpet pos,0
pc,0
Time (ms),CH1 Auto-Correlation
1.0,0.017054101452231407
2.0,0.014064114540815353
3.0,0.012002017349004745
4.0,0.010389633476734161
5.0,0.009156998246908188
6.0,0.008168477565050125
7.0,0.007371591869741678
8.0,0.006947649177163839
9.0,0.00657267402857542
10.0,0.0060709561221301556
11.0,0.005640759132802486
12.0,0.005229644943028688
13.0,0.004850735887885094
14.0,0.004580297041684389
15.0,0.00424594059586525
16.0,0.003929236903786659
18.0,0.0034574733581393957
20.0,0.00318358582444489
22.0,0.0030235101003199816
24.0,0.0027269443962723017
26.0,0.002667807973921299
28.0,0.0024677515029907227
30.0,0.0023930359166115522
32.0,0.002210149774327874
36.0,0.0018690678989514709
40.0,0.0016741355648264289
44.0,0.0016366220079362392
48.0,0.0015721103409305215
52.0,0.0014341892674565315
56.0,0.0013114243047311902
60.0,0.0010255404049530625
64.0,0.0007800892926752567
72.0,0.001039006863720715
80.0,0.0007365456549450755
88.0,0.0007075468311086297
96.0,0.0010248982580378652
104.0,0.0009797182865440845
112.0,0.0006942733889445662
120.0,0.0006281509413383901
128.0,0.0003308467858005315
144.0,0.00028371158987283707
160.0,0.00013656014925800264
176.0,-0.00023350089031737298
192.0,-0.00017487723380327225
208.0,-0.0001717912673484534
224.0,2.4989876692416146e-05
240.0,0.0002830748271662742
256.0,0.0007278492557816207
288.0,0.00028660724638029933
320.0,-2.3564138246001676e-05
352.0,0.0005939563270658255
384.0,0.0004218189278617501
416.0,-2.8581791411852464e-05
448.0,5.887687439098954e-05
480.0,3.4274678455403773e-06
512.0,0.00011744784569600597
576.0,4.978883680450963e-06
640.0,0.00019323560991324484
704.0,-1.75453396877856e-06
768.0,0.00011317326425341889
832.0,0.0001369841193081811
896.0,0.00020311832486186177
960.0,0.0001373784034512937
1024.0,4.100452861166559e-05
1152.0,-0.00051096425158903
1280.0,-0.0002829752629622817
1408.0,-0.00010739958088379353
1536.0,-0.00018671166617423296
1664.0,-0.00030136993154883385
1792.0,-0.00031312674400396645
1920.0,-0.0006763398414477706
2048.0,-0.0003217421763110906
2304.0,0.0002708346291910857
2560.0,0.00017955667863134295
2816.0,0.00016889831749722362
3072.0,0.0001444323279429227
3328.0,9.399426926393062e-05
3584.0,-0.00033926809555850923
3840.0,-0.0002648707595653832
4096.0,0.00016287302423734218
4608.0,-0.0004512752639129758
5120.0,3.533382187015377e-05
5632.0,0.00015316117787733674
6144.0,-0.00024709399440325797
6656.0,1.4979039406171069e-05
7168.0,-7.40025207051076e-05
7680.0,0.00019576532940845937
8192.0,0.0008616965496912599
end
