version,3.0
numOfCh,1
type,point
parent_name,714af_3dot0-1dot0
ch_type,1_1
kcount,1
numberNandB,1
brightnessNandB,1
carpet pos,0
pc,0
Time (ms),CH1 Auto-Correlation
1.0,0.016896501183509827
2.0,0.013862138614058495
3.0,0.011606740765273571
4.0,0.01004168763756752
5.0,0.008810714818537235
6.0,0.00785332452505827
7.0,0.007050642743706703
8.0,0.006320478860288858
9.0,0.005899794399738312
10.0,0.005490839947015047
11.0,0.005139639135450125
12.0,0.004874613601714373
13.0,0.00459324661642313
14.0,0.0043065971694886684
15.0,0.003973684273660183
16.0,0.003804624080657959
18.0,0.003660050453618169
20.0,0.003517185105010867
22.0,0.0033185607753694057
24.0,0.003066743491217494
26.0,0.0028110751882195473
28.0,0.0025062712375074625
30.0,0.002509127836674452
32.0,0.002367839915677905
36.0,0.0019315358949825168
40.0,0.001813228940591216
44.0,0.0017778434557840228
48.0,0.0017593782395124435
52.0,0.0016689038602635264
56.0,0.0014505346771329641
60.0,0.0009677425841800869
64.0,0.0008302904898300767
72.0,0.0006647451082244515
80.0,0.0008570716017857194
88.0,0.00114436075091362
96.0,0.0010268286569043994
104.0,0.0007781271706335247
112.0,0.0006791027844883502
120.0,0.0004706959589384496
128.0,0.0005899243406020105
144.0,0.00032384059159085155
160.0,0.00024489767383784056
176.0,-1.0555086191743612e-05
192.0,-0.00023326936934608966
208.0,-0.0003006563929375261
224.0,0.00011118567636003718
240.0,0.00022300941054709256
256.0,0.0004167498555034399
288.0,5.370035796659067e-05
320.0,-8.441301179118454e-05
352.0,7.931283471407369e-05
384.0,-4.988139698980376e-05
416.0,0.00012915211846120656
448.0,-0.00012286966375540942
480.0,-0.0002641402534209192
512.0,-0.0003836766700260341
576.0,-0.0003901202871929854
640.0,3.3991129839705536e-06
704.0,-0.00035202931030653417
768.0,8.042348781600595e-05
832.0,-0.00040779757546260953
896.0,-0.0005494587239809334
960.0,-0.0005329047562554479
1024.0,-0.0008787706028670073
1152.0,-0.0003830510249827057
1280.0,-7.671461207792163e-05
1408.0,-0.00023005573893897235
1536.0,0.00018395643564872444
1664.0,5.6300777941942215e-05
1792.0,7.511723197239917e-06
1920.0,0.00021181420015636832
2048.0,-0.00012207863619551063
2304.0,0.00015355738287325948
2560.0,-0.00012169269029982388
2816.0,-0.00017921737162396312
3072.0,8.014746708795428e-05
3328.0,-0.0004812812549062073
3584.0,0.00034426330239512026
3840.0,0.0004381818580441177
4096.0,-6.518873124150559e-05
4608.0,-0.0002389343862887472
5120.0,-0.0002445632708258927
5632.0,0.00021235492022242397
6144.0,4.311457450967282e-05
6656.0,5.858316217199899e-05
7168.0,-0.0001959119108505547
7680.0,0.0001723962923279032
8192.0,9.574650903232396e-05
end
