version,3.0
numOfCh,1
type,point
parent_name,714af_3dot0-1dot0
ch_type,1_1
kcount,1
numberNandB,1
brightnessNandB,1
carpet pos,0
pc,0
Time (ms),CH1 Auto-Correlation
1.0,0.017256086692214012
2.0,0.014223052188754082
3.0,0.012045602314174175
4.0,0.010409737005829811
5.0,0.0091636274009943
6.0,0.008136749267578125
7.0,0.0073758577927947044
8.0,0.006769562140107155
9.0,0.006195574998855591
10.0,0.005733824800699949
11.0,0.005298381671309471
12.0,0.004971831105649471
13.0,0.004605995956808329
14.0,0.00422029010951519
15.0,0.003946908283978701
16.0,0.003716104431077838
18.0,0.0032583405263721943
20.0,0.0029753767885267735
22.0,0.0027656634338200092
24.0,0.0025852546095848083
26.0,0.0024974013213068247
28.0,0.0023293630219995975
30.0,0.0023635118268430233
32.0,0.0023572025820612907
36.0,0.0022064826916903257
40.0,0.0019210915779694915
44.0,0.0020834452006965876
48.0,0.0020626208279281855
52.0,0.0022068298421800137
56.0,0.0023849804420024157
60.0,0.0020138402469456196
64.0,0.0018411908531561494
72.0,0.0012161610648036003
80.0,0.000682893383782357
88.0,0.0006936229765415192
96.0,0.0005977461696602404
104.0,0.0004210769257042557
112.0,0.00035840689088217914
120.0,0.0007679926929995418
128.0,0.0012040437432006001
144.0,0.0009140337351709604
160.0,0.0008486006991006434
176.0,0.00087649782653898
192.0,0.0006355937221087515
208.0,0.0006266030250117183
224.0,0.0004969568690285087
240.0,0.00025447082589380443
256.0,0.000547367671970278
288.0,0.0008225248893722892
320.0,0.0002512927749194205
352.0,0.00011158522102050483
384.0,0.00015054729010444134
416.0,0.0005520231206901371
448.0,0.0005411600577645004
480.0,0.0005646236822940409
512.0,0.00010753121023299173
576.0,0.00010624585411278531
640.0,-0.00024891080101951957
704.0,0.00018311545136384666
768.0,0.00023353581491392106
832.0,9.124818461714312e-05
896.0,0.00033546119811944664
960.0,0.0001929813006427139
1024.0,-0.00028182219830341637
1152.0,-0.00023594842059537768
1280.0,-0.0005145312170498073
1408.0,-0.0007218948449008167
1536.0,-0.0002019718085648492
1664.0,-0.00034068795503117144
1792.0,-0.00043190678115934134
1920.0,-0.0004292030353099108
2048.0,-0.0006522657931782305
2304.0,-0.0006232034647837281
2560.0,-0.0003190385759808123
2816.0,-0.00022311553766485304
3072.0,-0.00018505379557609558
3328.0,-7.202046253951266e-05
3584.0,0.00023487523139920086
3840.0,0.0003758891252800822
4096.0,0.0003751540498342365
4608.0,0.00020228189532645047
5120.0,0.00037190120201557875
5632.0,-1.9709328626049682e-05
6144.0,-0.0006608598632737994
6656.0,-0.0004966795677319169
7168.0,-0.00038980363751761615
7680.0,0.0004576633218675852
8192.0,0.00044044741662219167
end
