version,3.0
numOfCh,1
type,point
parent_name,714af_3dot0-1dot0
ch_type,1_1
kcount,1
numberNandB,1
brightnessNandB,1
carpet pos,0
pc,0
Time (ms),CH1 Auto-Correlation
1.0,0.016055118292570114
2.0,0.013147273100912571
3.0,0.01105707511305809
4.0,0.009620564989745617
5.0,0.00857407134026289
6.0,0.007842594757676125
7.0,0.0072307647205889225
8.0,0.006752933841198683
9.0,0.006226181052625179
10.0,0.0057592191733419895
11.0,0.005360892042517662
12.0,0.004968042019754648
13.0,0.004721286240965128
14.0,0.004396527074277401
15.0,0.0041245995089411736
16.0,0.003896706970408559
18.0,0.003517676144838333
20.0,0.003157032886520028
22.0,0.002878145780414343
24.0,0.0026200320571660995
26.0,0.002458037342876196
28.0,0.0022319413255900145
30.0,0.0020787923131138086
32.0,0.0019426029175519943
36.0,0.0018363894196227193
40.0,0.0023038529325276613
44.0,0.0023157699033617973
48.0,0.0021879649721086025
52.0,0.0021852885838598013
56.0,0.0019561408553272486
60.0,0.0017103282734751701
64.0,0.0013685552403330803
72.0,0.0013045476516708732
80.0,0.0014847306301817298
88.0,0.0015192782739177346
96.0,0.001241978956386447
104.0,0.001132496865466237
112.0,0.0009730885503813624
120.0,0.0010509236017242074
128.0,0.000989603460766375
144.0,0.0005627992213703692
160.0,0.00025124140665866435
176.0,-2.1028097762609832e-05
192.0,-5.679722744389437e-05
208.0,0.0001192655909107998
224.0,-0.00012763935956172645
240.0,0.0006067901267670095
256.0,0.0009765521972440183
288.0,0.0004358884471002966
320.0,-3.5657598346006125e-05
352.0,0.00015468579658772796
384.0,-5.888612940907478e-05
416.0,-0.00041478549246676266
448.0,-0.0006066101486794651
480.0,-0.0004490175051614642
512.0,-8.170174260158092e-05
576.0,-0.00030667742248624563
640.0,2.9570956030511297e-05
704.0,-0.000186559118446894
768.0,0.00040738636744208634
832.0,0.0003956496366299689
896.0,0.00018657241889741272
960.0,-0.0006516813300549984
1024.0,-0.0008324895752593875
1152.0,-0.0007166294381022453
1280.0,-0.0009482968598604202
1408.0,0.00032576650846749544
1536.0,0.0004747380153276026
1664.0,0.0005371210281737149
1792.0,-1.5708961655036546e-05
1920.0,-0.00037997844628989697
2048.0,-0.0006825810414738953
2304.0,3.828979970421642e-05
2560.0,-0.00023851337027736008
2816.0,-0.0006948540103621781
3072.0,-0.0002236250729765743
3328.0,3.431187360547483e-05
3584.0,-3.9131464291131124e-05
3840.0,0.000322052335832268
4096.0,0.0005091631319373846
4608.0,-0.00021648571419063956
5120.0,-0.00016614595369901508
5632.0,0.0005029402091167867
6144.0,0.0002768848789855838
6656.0,-0.0002991582441609353
7168.0,-0.00028895429568365216
7680.0,1.3476044841809198e-05
8192.0,-8.343080116901547e-05
end
