version,3.0
numOfCh,1
type,point
parent_name,714af_3dot0-1dot0
ch_type,1_1
kcount,1
numberNandB,1
brightnessNandB,1
carpet pos,0
pc,0
Time (ms),CH1 Auto-Correlation
1.0,0.016557853668928146
2.0,0.013591804541647434
3.0,0.01153817679733038
4.0,0.010003148578107357
5.0,0.008916078135371208
6.0,0.0079591553658247
7.0,0.007151304744184017
8.0,0.0064281802624464035
9.0,0.005878918804228306
10.0,0.0053624906577169895
11.0,0.004919145721942186
12.0,0.004620591178536415
13.0,0.004360008519142866
14.0,0.0040504406206309795
15.0,0.003776404308155179
16.0,0.003567296778783202
18.0,0.00319410371594131
20.0,0.0029251649975776672
22.0,0.002603890374302864
24.0,0.0022997655905783176
26.0,0.002065918641164899
28.0,0.0019392558606341481
30.0,0.0018759967060759664
32.0,0.0018098668660968542
36.0,0.0017108272295445204
40.0,0.0012244501849636436
44.0,0.0010836138390004635
48.0,0.0008469565655104816
52.0,0.0006097057485021651
56.0,0.0007711573853157461
60.0,0.0008389533031731844
64.0,0.0009070615051314235
72.0,0.0005906956503167748
80.0,0.0003071559767704457
88.0,0.00037530146073549986
96.0,0.0006514502456411719
104.0,0.0006692479364573956
112.0,0.0009018089040182531
120.0,0.00031228733132593334
128.0,3.252505121054128e-05
144.0,0.00016016745939850807
160.0,2.2596967028221115e-05
176.0,8.423433610005304e-05
192.0,-7.593576447106898e-05
208.0,3.969169483752921e-05
224.0,-6.6527354647405446e-06
240.0,-9.989378304453567e-05
256.0,0.000256794854067266
288.0,0.00042493233922868967
320.0,0.0004809610254596919
352.0,0.0006030884105712175
384.0,0.00047441714559681714
416.0,-5.520903505384922e-05
448.0,1.6440731997136027e-05
480.0,-0.00011541269486770034
512.0,-5.891291948501021e-05
576.0,0.00043302521225996315
640.0,0.00034619568032212555
704.0,0.00010525216202950105
768.0,-0.0004631311458069831
832.0,0.0002755355671979487
896.0,0.00017131322238128632
960.0,0.0004059265193063766
1024.0,-5.2691902965307236e-05
1152.0,-4.041461943415925e-05
1280.0,0.00017819339700508863
1408.0,0.00041341871838085353
1536.0,0.0004678584518842399
1664.0,0.0003865254111588001
1792.0,-0.00012110586976632476
1920.0,0.0001304668840020895
2048.0,4.1541421524016187e-05
2304.0,0.00040491754771210253
2560.0,-6.949175713089062e-06
2816.0,-5.04254421684891e-05
3072.0,0.0001284952595597133
3328.0,-0.0004673500661738217
3584.0,-7.275743701029569e-05
3840.0,5.909503670409322e-05
4096.0,-9.100700117414817e-05
4608.0,-0.00031526852399110794
5120.0,-0.00031749511254020035
5632.0,-0.0004090532020200044
6144.0,-0.00026052442262880504
6656.0,-8.208848157664761e-05
7168.0,-0.00026753998827189207
7680.0,-0.0003851036017294973
8192.0,-8.077406528173015e-05
end
