version,3.0
numOfCh,1
type,point
parent_name,714af_3dot0-1dot0
ch_type,1_1
kcount,1
numberNandB,1
brightnessNandB,1
carpet pos,0
pc,0
Time (ms),CH1 Auto-Correlation
1.0,0.016681885346770287
2.0,0.013756554573774338
3.0,0.011608071625232697
4.0,0.010105897672474384
5.0,0.008966850116848946
6.0,0.007991737686097622
7.0,0.007226936053484678
8.0,0.006490163039416075
9.0,0.005992439109832048
10.0,0.00554238585755229
11.0,0.005166662856936455
12.0,0.004787696059793234
13.0,0.004501095041632652
14.0,0.004200252704322338
15.0,0.003987948875874281
16.0,0.0037602828815579414
18.0,0.003497933968901634
20.0,0.003082015784457326
22.0,0.002698118332773447
24.0,0.0024486312177032232
26.0,0.0023659339640289545
28.0,0.002263606060296297
30.0,0.002190823433920741
32.0,0.0020773482974618673
36.0,0.002106261672452092
40.0,0.0020436423365026712
44.0,0.0017471618484705687
48.0,0.00169547984842211
52.0,0.0016677851090207696
56.0,0.0017694259295240045
60.0,0.0016153166070580482
64.0,0.0013593964977189898
72.0,0.0010004816576838493
80.0,0.0006893179379403591
88.0,0.0009046554914675653
96.0,0.0009447744814679027
104.0,0.0007557501085102558
112.0,0.0006104196654632688
120.0,0.00022613591863773763
128.0,0.0002678220334928483
144.0,0.0001223226572619751
160.0,0.00038100971141830087
176.0,-0.00019069420523010194
192.0,-0.0003639819042291492
208.0,-0.00038448721170425415
224.0,-0.00035014262539334595
240.0,-0.00035487086279317737
256.0,-0.0009123905329033732
288.0,2.3005864932201803e-05
320.0,-0.00013809933443553746
352.0,-0.0001390717807225883
384.0,0.00041366860386915505
416.0,-0.00021187984384596348
448.0,0.0001586313301231712
480.0,0.00040750388870947063
512.0,0.000248749740421772
576.0,0.00039064642623998225
640.0,-0.00010783664038171992
704.0,-0.0006155513692647219
768.0,-0.0005271831760182977
832.0,-0.00025492420536465943
896.0,-0.000111934139567893
960.0,0.00036425524740479887
1024.0,0.00019871184485964477
1152.0,-0.00028717261739075184
1280.0,-0.0006095292628742754
1408.0,8.391709707211703e-05
1536.0,8.036705548875034e-05
1664.0,-0.00014545925660058856
1792.0,-8.96909405128099e-05
1920.0,0.00016805542691145092
2048.0,-0.00012587549281306565
2304.0,-0.0002871120523195714
2560.0,-0.00010848446254385635
2816.0,-0.0007254786905832589
3072.0,0.0001742207823554054
3328.0,-0.00011966095917159691
3584.0,0.0003642200608737767
3840.0,6.895894330227748e-05
4096.0,0.00023705567582510412
4608.0,-5.155847247806378e-05
5120.0,-7.118636858649552e-05
5632.0,-2.0439147192519158e-05
6144.0,0.0001163636552519165
6656.0,-0.00022796480334363878
7168.0,-7.824652129784226e-05
7680.0,0.00011362846998963505
8192.0,0.00048612619866617024
end
