version,3.0
numOfCh,1
type,point
parent_name,714af_3dot0-1dot0
ch_type,1_1
kcount,1
numberNandB,1
brightnessNandB,1
carpet pos,0
pc,0
Time (ms),CH1 Auto-Correlation
1.0,0.017775876447558403
2.0,0.014733602292835712
3.0,0.012529696337878704
4.0,0.010803917422890663
5.0,0.009471526369452477
6.0,0.008496544323861599
7.0,0.0076025077141821384
8.0,0.006845999974757433
9.0,0.00615156814455986
10.0,0.0055209859274327755
11.0,0.005039487034082413
12.0,0.00458894670009613
13.0,0.004158472176641226
14.0,0.0038344336207956076
15.0,0.0035816028248518705
16.0,0.0034105342347174883
18.0,0.003050795290619135
20.0,0.002936408156529069
22.0,0.0028455008286982775
24.0,0.0027352620381861925
26.0,0.0027560775633901358
28.0,0.00280557363294065
30.0,0.002732534660026431
32.0,0.0025283251889050007
36.0,0.002022269181907177
40.0,0.0015850318595767021
44.0,0.001443682238459587
48.0,0.0013110855361446738
52.0,0.0010514002060517669
56.0,0.0008135919342748821
60.0,0.0010212892666459084
64.0,0.0011543042492121458
72.0,0.00097894377540797
80.0,0.0007248079054988921
88.0,0.0010235884692519903
96.0,0.001027145772241056
104.0,0.0005652661202475429
112.0,0.0005192795069888234
120.0,6.614322046516463e-05
128.0,0.00016439291357528418
144.0,-0.00023970422626007348
160.0,-0.00036266405368223786
176.0,-0.0003023429890163243
192.0,-0.0005212007090449333
208.0,-0.001173018361441791
224.0,-0.0005248092929832637
240.0,-0.0005035430658608675
256.0,-0.000658113625831902
288.0,-0.0006861725123599172
320.0,-0.00039305866812355816
352.0,0.00018594888388179243
384.0,0.0005368381971493363
416.0,0.0002696214069146663
448.0,-0.0004311651864554733
480.0,-0.00038234374369494617
512.0,-7.534774340456352e-05
576.0,-0.00022141990484669805
640.0,-0.0002405269624432549
704.0,-0.0005265821819193661
768.0,-0.0004467107355594635
832.0,-4.914828605251387e-05
896.0,0.0004133751499466598
960.0,0.00015919299039524049
1024.0,0.00035348758683539927
1152.0,7.241668936330825e-05
1280.0,0.0005779057973995805
1408.0,0.0003383725415915251
1536.0,-0.0001572250184835866
1664.0,-0.0003861060831695795
1792.0,-0.0006162615027278662
1920.0,-0.0002927298191934824
2048.0,2.7723825041903183e-05
2304.0,-0.00019924211665056646
2560.0,2.1424271835712716e-05
2816.0,0.0002138517884304747
3072.0,-0.00035492630559019744
3328.0,-6.449361535487697e-05
3584.0,-0.00022188987350091338
3840.0,3.982441921834834e-05
4096.0,0.00031497428426519036
4608.0,-0.000186454170034267
5120.0,0.00017387009575031698
5632.0,-5.726639210479334e-05
6144.0,1.0062190995085984e-05
6656.0,0.00031269804458133876
7168.0,-4.949950016452931e-05
7680.0,-0.00021849156473763287
8192.0,7.58228125050664e-05
end
