version,3.0
numOfCh,1
type,point
parent_name,714af_3dot0-1dot0
ch_type,1_1
kcount,1
numberNandB,1
brightnessNandB,1
carpet pos,0
pc,0
Time (ms),CH1 Auto-Correlation
1.0,0.01631866954267025
2.0,0.013305768370628357
3.0,0.011245238594710827
4.0,0.00970735214650631
5.0,0.008563353680074215
6.0,0.007635333575308323
7.0,0.006940364837646484
8.0,0.00639007892459631
9.0,0.0058341906405985355
10.0,0.005391451995819807
11.0,0.005022726953029633
12.0,0.004636955913156271
13.0,0.004421562422066927
14.0,0.00429288437590003
15.0,0.0040979827754199505
16.0,0.0037895236164331436
18.0,0.00358975981362164
20.0,0.003068437334150076
22.0,0.0027292463928461075
24.0,0.0025857205037027597
26.0,0.002486388897523284
28.0,0.0023206714540719986
30.0,0.00226953299716115
32.0,0.002146958140656352
36.0,0.001838283846154809
40.0,0.0014826377155259252
44.0,0.0013594984775409102
48.0,0.0014345597010105848
52.0,0.0012906964402645826
56.0,0.0011411646846681833
60.0,0.0014629476936534047
64.0,0.0014471629401668906
72.0,0.0009194868034683168
80.0,0.000710296502802521
88.0,0.00056555459741503
96.0,0.0007987502031028271
104.0,0.0004173946799710393
112.0,5.941479321336374e-05
120.0,-0.0001872113934950903
128.0,-0.0003469337534625083
144.0,-0.00038970174500718713
160.0,-0.00040159132913686335
176.0,-0.00010673659562598914
192.0,6.185956590343267e-05
208.0,-0.0002583792374935001
224.0,0.0001948674616869539
240.0,2.704613871173933e-05
256.0,-0.00010239980474580079
288.0,-0.00020028262224514037
320.0,-0.00014477439981419593
352.0,-0.0002952206996269524
384.0,-0.0005012161564081907
416.0,-0.001032778644002974
448.0,-0.0011377779301255941
480.0,-0.0008022162946872413
512.0,-0.0001670842757448554
576.0,0.0004703772719949484
640.0,0.0001394625724060461
704.0,9.298822260461748e-05
768.0,0.0002500401169527322
832.0,0.000155219022417441
896.0,0.00033219685428775847
960.0,0.0002405333361821249
1024.0,-0.00023563769354950637
1152.0,0.0003324897843413055
1280.0,-0.0005445436108857393
1408.0,-0.0004078261263202876
1536.0,-0.0005017868825234473
1664.0,7.505675603169948e-05
1792.0,-0.000101346020528581
1920.0,-0.00026038146461360157
2048.0,-0.00012350654287729412
2304.0,-0.0002809661964420229
2560.0,0.00031849255901761353
2816.0,-9.626371320337057e-05
3072.0,-0.00016055969172157347
3328.0,0.00019310547213535756
3584.0,8.788691775407642e-05
3840.0,-0.000166649158927612
4096.0,-7.846926018828526e-05
4608.0,1.7276586731895804e-05
5120.0,0.00023415859322994947
5632.0,-0.0002548699267208576
6144.0,6.543873314512894e-05
6656.0,1.4076522347750142e-05
7168.0,6.455560651374981e-05
7680.0,0.00039904454024508595
8192.0,-0.0006733824848197401
end
