version,3.0
numOfCh,1
type,point
parent_name,714af_3dot0-1dot0
ch_type,1_1
kcount,1
numberNandB,1
brightnessNandB,1
carpet pos,0
pc,0
Time (ms),CH1 Auto-Correlation
1.0,0.016170134767889977
2.0,0.013223160989582539
3.0,0.01109400112181902
4.0,0.009507562965154648
5.0,0.00837107002735138
6.0,0.007416361011564732
7.0,0.006598660256713629
8.0,0.0060199243016541
9.0,0.005547447130084038
10.0,0.005093862768262625
11.0,0.004829735029488802
12.0,0.0043717483058571815
13.0,0.004060249775648117
14.0,0.00371442548930645
15.0,0.0033490683417767286
16.0,0.002872875425964594
18.0,0.002417775336652994
20.0,0.002034698612987995
22.0,0.0017894563497975469
24.0,0.001885519246570766
26.0,0.0018327406141906977
28.0,0.0017174417153000832
30.0,0.0017798139015212655
32.0,0.0018363704439252615
36.0,0.0016766575863584876
40.0,0.0017785205272957683
44.0,0.0016790971858426929
48.0,0.0014706795336678624
52.0,0.0011847810819745064
56.0,0.0013148337602615356
60.0,0.0012995346914976835
64.0,0.0011583674931898713
72.0,0.001208059024065733
80.0,0.001012389431707561
88.0,0.0006754110800102353
96.0,0.00010957488848362118
104.0,0.0005282654310576618
112.0,0.0006496769492514431
120.0,0.0005450979224406183
128.0,0.0005189795629121363
144.0,0.00015546783106401563
160.0,0.0002051855844911188
176.0,-0.0001367726072203368
192.0,-0.00013720529386773705
208.0,-0.0003259772784076631
224.0,-0.0008022490073926747
240.0,-0.00048731706920079887
256.0,-0.0005741419736295938
288.0,-0.00033347023418173194
320.0,-0.0004691231297329068
352.0,4.128192813368514e-05
384.0,0.00015542191977147013
416.0,0.0001375865685986355
448.0,-0.0002134883834514767
480.0,0.0002466773730702698
512.0,0.0003069697122555226
576.0,0.0005170982331037521
640.0,0.00033622479531913996
704.0,-7.615561480633914e-05
768.0,-0.0005686008953489363
832.0,-0.00030216065351851285
896.0,-0.00028627339634113014
960.0,-0.0001410862896591425
1024.0,-2.7236566893407144e-05
1152.0,9.60794113780139e-06
1280.0,-2.266533556394279e-05
1408.0,0.0002443976409267634
1536.0,-0.00011106976307928562
1664.0,-0.0005706845549866557
1792.0,0.0002861811371985823
1920.0,0.00038339386810548604
2048.0,-0.000254326150752604
2304.0,-0.00017451049643568695
2560.0,0.0002637204306665808
2816.0,-0.00020082354603800923
3072.0,0.00013524478708859533
3328.0,-0.00014291660045273602
3584.0,3.39444559358526e-05
3840.0,0.00026227321359328926
4096.0,-0.0004642934072762728
4608.0,1.8118951629730873e-05
5120.0,2.526936077629216e-05
5632.0,-7.87493700045161e-05
6144.0,-8.102877472992986e-05
6656.0,-5.0811999244615436e-05
7168.0,-4.083918975084089e-05
7680.0,-1.5335554053308442e-05
8192.0,-3.704466507770121e-05
end
