version,3.0
numOfCh,1
type,point
parent_name,714af_3dot0-1dot0
ch_type,1_1
kcount,1
numberNandB,1
brightnessNandB,1
carpet pos,0
pc,0
Time (ms),CH1 Auto-Correlation
1.0,0.01588163711130619
2.0,0.012918083928525448
3.0,0.010768423788249493
4.0,0.009103436954319477
5.0,0.007898340001702309
6.0,0.006897909566760063
7.0,0.006063392385840416
8.0,0.005297297611832619
9.0,0.004584407899528742
10.0,0.0040709394961595535
11.0,0.003613563720136881
12.0,0.0033032093197107315
13.0,0.0030205801595002413
14.0,0.0028701506089419127
15.0,0.0026838425546884537
16.0,0.002443470060825348
18.0,0.00209851679392159
20.0,0.0020294259302318096
22.0,0.0018191870767623186
24.0,0.001710236887447536
26.0,0.0015806092415004969
28.0,0.001580497482791543
30.0,0.0016494195442646742
32.0,0.0015820781700313091
36.0,0.0013999348739162087
40.0,0.0015046235639601946
44.0,0.0013695339439436793
48.0,0.00102044059894979
52.0,0.0008889021701179445
56.0,0.0010576623026281595
60.0,0.0014601474395021796
64.0,0.001402109395712614
72.0,0.0006237344932742417
80.0,0.00033164635533466935
88.0,0.00029592993087135255
96.0,0.00015614180301781744
104.0,6.515852874144912e-05
112.0,0.00014455278869718313
120.0,-3.628449121606536e-05
128.0,-1.2703991160378791e-05
144.0,0.0003240422229282558
160.0,0.0005746856913901865
176.0,0.00022526990505866706
192.0,0.0002423139667371288
208.0,1.5243748748616781e-05
224.0,-7.675770757487044e-05
240.0,-0.00032495491905137897
256.0,-0.00037955542211420834
288.0,-0.0005751631688326597
320.0,-0.0004040152707602829
352.0,-0.00045180736924521625
384.0,4.4048440031474456e-05
416.0,-0.00026055684429593384
448.0,-0.00014045841817278415
480.0,-0.00022525354870595038
512.0,-0.0003240211808588356
576.0,0.00041280733421444893
640.0,0.0002245077776024118
704.0,0.00020063533156644553
768.0,0.0003143667127005756
832.0,-6.082206891733222e-05
896.0,-0.0002220288588432595
960.0,8.07829201221466e-05
1024.0,-0.00018273424939252436
1152.0,-0.00014735039439983666
1280.0,9.254160249838606e-05
1408.0,0.00022093714505899698
1536.0,-0.00016804560436867177
1664.0,0.0001128045842051506
1792.0,-0.0001321191230090335
1920.0,-0.0001955216721398756
2048.0,-0.00046046299394220114
2304.0,-1.016861915559275e-05
2560.0,0.00013139793009031564
2816.0,-0.0005133126396685839
3072.0,-0.00025947863468900323
3328.0,8.165325562004e-05
3584.0,0.0004466689133550972
3840.0,0.000131779263028875
4096.0,-0.00017376149480696768
4608.0,-0.00013788619253318757
5120.0,1.307415914197918e-05
5632.0,-2.190997292927932e-05
6144.0,-9.270862938137725e-05
6656.0,-0.00013877359742764384
7168.0,0.00038417160976678133
7680.0,-0.0001265817554667592
8192.0,-9.245966066373512e-05
end
