version,3.0
numOfCh,1
type,point
parent_name,714af_3dot0-1dot0
ch_type,1_1
kcount,1
numberNandB,1
brightnessNandB,1
carpet pos,0
pc,0
Time (ms),CH1 Auto-Correlation
1.0,0.016005054116249084
2.0,0.013032502494752407
3.0,0.010931572876870632
4.0,0.009242920204997063
5.0,0.00803085882216692
6.0,0.007100297138094902
7.0,0.006296671461313963
8.0,0.005675730761140585
9.0,0.005197893362492323
10.0,0.004779931157827377
11.0,0.004572165198624134
12.0,0.004350434988737106
13.0,0.004093977622687817
14.0,0.003850450273603201
15.0,0.0036488850601017475
16.0,0.0034493154380470514
18.0,0.003001648001372814
20.0,0.0027551117818802595
22.0,0.002502094954252243
24.0,0.002180827548727393
26.0,0.0018216311000287533
28.0,0.0017687742365524173
30.0,0.0015851844800636172
32.0,0.0012462640879675746
36.0,0.0011159167625010014
40.0,0.0010741186561062932
44.0,0.000969657558016479
48.0,0.0008915547514334321
52.0,0.0006637405604124069
56.0,0.0006917170248925686
60.0,0.0006292995531111956
64.0,0.0005569595377892256
72.0,0.0008468036539852619
80.0,0.0007133635226637125
88.0,0.0001439728366676718
96.0,-8.08790500741452e-05
104.0,-1.4347931028169114e-05
112.0,0.0002767845871858299
120.0,0.0002723678480833769
128.0,-2.9670007279491983e-05
144.0,-0.0002126541658071801
160.0,-0.00016206462169066072
176.0,-0.00015518820146098733
192.0,-0.00015858365804888308
208.0,-0.0005590065266005695
224.0,-0.00033435571822337806
240.0,4.090920265298337e-05
256.0,1.5853049262659624e-05
288.0,-0.00017881552048493177
320.0,0.0001658663823036477
352.0,0.00028686155565083027
384.0,9.14183328859508e-05
416.0,-9.504226909484714e-05
448.0,-0.00025531018036417663
480.0,-0.0005381586961448193
512.0,-0.0007843250059522688
576.0,-0.00018456517136655748
640.0,0.00044600130058825016
704.0,8.547704055672511e-05
768.0,-0.0002933706855401397
832.0,5.781179424957372e-05
896.0,0.00024613059940747917
960.0,8.383052772842348e-05
1024.0,2.962963844765909e-05
1152.0,-0.0002123165177181363
1280.0,0.000761249684728682
1408.0,0.00013283922453410923
1536.0,-0.00010201840632362291
1664.0,0.0001026453246595338
1792.0,-0.000215407126233913
1920.0,0.0002739894262049347
2048.0,-5.2888131904182956e-05
2304.0,0.00036371004534885287
2560.0,-4.99789348396007e-05
2816.0,0.00010992580791935325
3072.0,-0.00016658424283377826
3328.0,-0.00046476334682665765
3584.0,0.0002855397469829768
3840.0,0.00017568610201124102
4096.0,-0.00023359424085356295
4608.0,-0.00014043234114069492
5120.0,0.00023740084725432098
5632.0,-0.00040506714140065014
6144.0,8.89774746610783e-05
6656.0,0.000156467329361476
7168.0,8.947488095145673e-05
7680.0,0.00011032064503524452
8192.0,-0.00015132909175008535
end
