version,3.0
numOfCh,1
type,point
parent_name,714af_3dot0-1dot0
ch_type,1_1
kcount,1
numberNandB,1
brightnessNandB,1
carpet pos,0
pc,0
Time (ms),CH1 Auto-Correlation
1.0,0.015863746404647827
2.0,0.012839295901358128
3.0,0.010699951089918613
4.0,0.009194746613502502
5.0,0.008035584352910519
6.0,0.007132760714739561
7.0,0.006312316749244928
8.0,0.005599427502602339
9.0,0.005060052499175072
10.0,0.004596339538693428
11.0,0.004238338675349951
12.0,0.003866315819323063
13.0,0.003643624484539032
14.0,0.003411788260564208
15.0,0.0032985666766762733
16.0,0.00333004305139184
18.0,0.003067516954615712
20.0,0.0028191537130624056
22.0,0.0025243021082133055
24.0,0.0022522644139826298
26.0,0.0018854379886761308
28.0,0.0017671172972768545
30.0,0.001790972426533699
32.0,0.0016809075605124235
36.0,0.0013002277119085193
40.0,0.0011246390640735626
44.0,0.0010496428003534675
48.0,0.0008761861245147884
52.0,0.00041730786324478686
56.0,0.0004953613970428705
60.0,0.00034907099325209856
64.0,0.000244405324338004
72.0,0.00015151311527006328
80.0,0.00019402141333557665
88.0,-0.00035641121212393045
96.0,-0.00023609609343111515
104.0,-0.00014286738587543368
112.0,0.0002241154434159398
120.0,0.00037546653766185045
128.0,0.00030730667640455067
144.0,0.00020166576723568141
160.0,0.0004206434532534331
176.0,0.00018318025104235858
192.0,-9.81856937869452e-05
208.0,-7.253024523379281e-05
224.0,-0.00031571221188642085
240.0,6.26579494564794e-05
256.0,-6.842174479970708e-05
288.0,-4.0862236346583813e-05
320.0,0.0007012214045971632
352.0,0.0004250957281328738
384.0,0.00012359945685602725
416.0,3.837216354440898e-05
448.0,0.00021679801284335554
480.0,0.00023436725314240903
512.0,2.5262314011342824e-05
576.0,-2.7957774364040233e-05
640.0,0.00042351114097982645
704.0,0.00040141723002307117
768.0,0.0002750523271970451
832.0,-0.00022302145953290164
896.0,0.0002734434383455664
960.0,0.0004411994304973632
1024.0,-0.00014317972818389535
1152.0,8.2085192843806e-05
1280.0,-2.316784048161935e-05
1408.0,2.1822736016474664e-05
1536.0,-0.0004379423044156283
1664.0,-0.0001985121489269659
1792.0,0.0001262485602637753
1920.0,0.00011372508743079379
2048.0,-0.0002410598681308329
2304.0,-9.018523996928707e-05
2560.0,-3.345810910104774e-05
2816.0,0.00011006791464751586
3072.0,-0.00020525211584754288
3328.0,1.8252098016091622e-05
3584.0,7.189431016740855e-06
3840.0,-2.8754639060935006e-06
4096.0,-0.00012437468103598803
4608.0,-0.0003269473381806165
5120.0,-0.00010163882689084858
5632.0,-5.9358619182603434e-05
6144.0,-6.383894651662558e-05
6656.0,-6.428599590435624e-06
7168.0,-0.0002619105507619679
7680.0,-0.0003715953789651394
8192.0,-0.00011429179721744731
end
