version,3.0
numOfCh,1
type,point
parent_name,ff67b_0dot6-0dot1
ch_type,1_1
kcount,1
numberNandB,1
brightnessNandB,1
carpet pos,0
pc,0
Time (ms),CH1 Auto-Correlation
1.0,0.02444552816450596
2.0,0.02327694371342659
3.0,0.02218637987971306
4.0,0.021203679963946342
5.0,0.020297138020396233
6.0,0.019459929317235947
7.0,0.01866111531853676
8.0,0.017952321097254753
9.0,0.017292005941271782
10.0,0.01667989045381546
11.0,0.016110464930534363
12.0,0.015568220056593418
13.0,0.015060310252010822
14.0,0.014537487179040909
15.0,0.01398997288197279
16.0,0.013540340587496758
18.0,0.012791039422154427
20.0,0.012107706628739834
22.0,0.011522999964654446
24.0,0.011004354804754257
26.0,0.01047003734856844
28.0,0.009965206496417522
30.0,0.009573306888341904
32.0,0.009258381091058254
36.0,0.008683615364134312
40.0,0.008153884671628475
44.0,0.007588652428239584
48.0,0.0071014962159097195
52.0,0.006594534032046795
56.0,0.0062236301600933075
60.0,0.0059307292103767395
64.0,0.005648489110171795
72.0,0.004761067684739828
80.0,0.004182016011327505
88.0,0.004065595101565123
96.0,0.004086694214493036
104.0,0.003928300458937883
112.0,0.003726435825228691
120.0,0.0032271987292915583
128.0,0.003086644457653165
144.0,0.003082506125792861
160.0,0.002767210127785802
176.0,0.002614520490169525
192.0,0.002663629362359643
208.0,0.003396928310394287
224.0,0.003518328769132495
240.0,0.0028684327844530344
256.0,0.002429576590657234
288.0,0.0019541119690984488
320.0,0.0008654191624373198
352.0,-0.0005142913432791829
384.0,-0.000859432911965996
416.0,-0.0003410348144825548
448.0,-0.00035756698343902826
480.0,-0.0007331770029850304
512.0,-0.0015699353534728289
576.0,-0.0029102463740855455
640.0,-0.0015667780535295606
704.0,-0.001801341655664146
768.0,-0.00217367522418499
832.0,-0.0014115822268649936
896.0,0.000296548823826015
960.0,0.0004882158827967942
1024.0,-0.00010737803677329794
1152.0,-0.000569104915484786
1280.0,-0.0009311861358582973
1408.0,-0.0005513975047506392
1536.0,-0.00021536520216614008
1664.0,-0.001050871447660029
1792.0,-0.0008995081298053265
1920.0,-0.0008440153324045241
2048.0,0.00027825217694044113
2304.0,0.0011115213856101036
2560.0,0.0006777645903639495
2816.0,-0.0012050868244841695
3072.0,-0.001380263827741146
3328.0,-0.00034618325298652053
3584.0,0.000581468571908772
3840.0,0.00044744188198819757
4096.0,0.0007392425904981792
4608.0,-0.0006337501690723002
5120.0,-0.0008370201103389263
5632.0,0.00036406086292117834
6144.0,0.0007986461860127747
6656.0,0.0005323914811015129
7168.0,-0.0011279077734798193
7680.0,0.00032407589606009424
8192.0,0.0010478568729013205
end
