version,3.0
numOfCh,1
type,point
parent_name,ff67b_0dot6-0dot1
ch_type,1_1
kcount,1
numberNandB,1
brightnessNandB,1
carpet pos,0
pc,0
Time (ms),CH1 Auto-Correlation
1.0,0.021432096138596535
2.0,0.02028544805943966
3.0,0.01923072338104248
4.0,0.018306542187929153
5.0,0.017505517229437828
6.0,0.01679926924407482
7.0,0.016139909625053406
8.0,0.015493595041334629
9.0,0.014862060546875
10.0,0.014237775467336178
11.0,0.013670535758137703
12.0,0.01312249805778265
13.0,0.012572147883474827
14.0,0.012082620523869991
15.0,0.01164870522916317
16.0,0.011271396651864052
18.0,0.010581391863524914
20.0,0.009995989501476288
22.0,0.009485211223363876
24.0,0.009024199098348618
26.0,0.008569552563130856
28.0,0.008052360266447067
30.0,0.007532913237810135
32.0,0.007142223883420229
36.0,0.0065095857717096806
40.0,0.006033224053680897
44.0,0.005607496481388807
48.0,0.005326763726770878
52.0,0.005057775415480137
56.0,0.004915178287774324
60.0,0.004695596639066935
64.0,0.004468296654522419
72.0,0.003827424254268408
80.0,0.0030929988715797663
88.0,0.002327479189261794
96.0,0.0019242443377152085
104.0,0.0015503837494179606
112.0,0.0011125277960672975
120.0,0.0012047311756759882
128.0,0.0013691730564460158
144.0,0.0014213505201041698
160.0,0.0014366509858518839
176.0,0.001254402450285852
192.0,0.0012004210148006678
208.0,0.0011334264418110251
224.0,0.0010923021472990513
240.0,0.0010918073821812868
256.0,0.0009476793929934502
288.0,0.0006449415814131498
320.0,-2.7595579012995586e-05
352.0,-0.0004735178663395345
384.0,-0.0005412339814938605
416.0,-0.0007873537251725793
448.0,-0.0004557714273687452
480.0,9.585096267983317e-05
512.0,0.00024142222537193447
576.0,-0.0008707551751285791
640.0,-0.0014291579136624932
704.0,-0.0020699775777757168
768.0,-0.001491144997999072
832.0,-0.001318909926339984
896.0,-0.001023394986987114
960.0,-0.0009263410465791821
1024.0,-0.0003096479340456426
1152.0,0.0009461990557610989
1280.0,-5.858520307810977e-05
1408.0,-0.0011763253714889288
1536.0,-0.001009793602861464
1664.0,0.0005216694553382695
1792.0,0.000292824930511415
1920.0,8.078508835751563e-05
2048.0,0.00035072906757704914
2304.0,0.0013043909566476941
2560.0,-0.0006657018675468862
2816.0,-0.00128095131367445
3072.0,-0.0007817482692189515
3328.0,-0.00028541040956042707
3584.0,-0.0015227851690724492
3840.0,-0.0007794338162057102
4096.0,0.0002595309051685035
4608.0,0.0007349290535785258
5120.0,-0.0009677665657363832
5632.0,0.00039835815550759435
6144.0,7.736324187135324e-05
6656.0,0.00034527722164057195
7168.0,0.0003312529588583857
7680.0,-2.1435833332361653e-05
8192.0,-0.0002832616737578064
end
