version,3.0
numOfCh,1
type,point
parent_name,ff67b_0dot6-0dot1
ch_type,1_1
kcount,1
numberNandB,1
brightnessNandB,1
carpet pos,0
pc,0
Time (ms),CH1 Auto-Correlation
1.0,0.02020745724439621
2.0,0.01905798725783825
3.0,0.018031690269708633
4.0,0.01712285354733467
5.0,0.016314726322889328
6.0,0.015570051968097687
7.0,0.014890497550368309
8.0,0.01430689450353384
9.0,0.013746430166065693
10.0,0.01323612779378891
11.0,0.012793033383786678
12.0,0.012363437563180923
13.0,0.011937002651393414
14.0,0.011522937566041946
15.0,0.011121125891804695
16.0,0.010735227726399899
18.0,0.010120694525539875
20.0,0.009574907831847668
22.0,0.009101475588977337
24.0,0.008753814734518528
26.0,0.008432187139987946
28.0,0.008058362640440464
30.0,0.007696798536926508
32.0,0.007390849757939577
36.0,0.006740768440067768
40.0,0.006142367608845234
44.0,0.005676174070686102
48.0,0.0052507249638438225
52.0,0.004874975420534611
56.0,0.00456202682107687
60.0,0.004213712178170681
64.0,0.003914635628461838
72.0,0.0031882706098258495
80.0,0.002690952504053712
88.0,0.0023099323734641075
96.0,0.0018386435694992542
104.0,0.0013306108303368092
112.0,0.001086416537873447
120.0,0.0009483570465818048
128.0,0.0008875395287759602
144.0,0.0005207305657677352
160.0,0.0003055115812458098
176.0,-0.0002452860935591161
192.0,-0.0002536702959332615
208.0,0.0001437527098460123
224.0,-0.00015834896476007998
240.0,-0.0008012924226932228
256.0,-0.0014188968343660235
288.0,-0.0019673591013997793
320.0,-0.0026886288542300463
352.0,-0.002156865317374468
384.0,-0.0012922591995447874
416.0,-0.00029641276341862977
448.0,0.00040342254214920104
480.0,0.0006521918112412095
512.0,0.0005630903178825974
576.0,0.0009406691533513367
640.0,0.0017481790855526924
704.0,0.0010876099113374949
768.0,-0.0004983129329048097
832.0,-0.0018981026951223612
896.0,-0.0010220031253993511
960.0,-0.0007675532251596451
1024.0,-0.0002972876827698201
1152.0,0.001075021456927061
1280.0,0.00026788722607307136
1408.0,-0.0006407715263776481
1536.0,-0.0015266725094988942
1664.0,-9.927926294039935e-05
1792.0,0.0006333868368528783
1920.0,0.00038685230538249016
2048.0,-7.510198338422924e-05
2304.0,-0.0003455076948739588
2560.0,0.0007692345534451306
2816.0,0.0008953011129051447
3072.0,-6.760862743249163e-05
3328.0,0.0010424557840451598
3584.0,-0.0012752803741022944
3840.0,-0.00023373548174276948
4096.0,-0.00032716282294131815
4608.0,-0.00016284524463117123
5120.0,-4.602309491019696e-05
5632.0,0.0006349713657982647
6144.0,-0.00017452675092499703
6656.0,2.7332542231306434e-05
7168.0,0.0002585503098089248
7680.0,-0.00035294407280161977
8192.0,-0.000334552867570892
end
