version,3.0
numOfCh,1
type,point
parent_name,ff67b_0dot6-0dot1
ch_type,1_1
kcount,1
numberNandB,1
brightnessNandB,1
carpet pos,0
pc,0
Time (ms),CH1 Auto-Correlation
1.0,0.025438562035560608
2.0,0.024250080808997154
3.0,0.023153718560934067
4.0,0.022136425599455833
5.0,0.021211836487054825
6.0,0.020393667742609978
7.0,0.019635699689388275
8.0,0.018956970423460007
9.0,0.01831401139497757
10.0,0.017706556245684624
11.0,0.017128832638263702
12.0,0.016578130424022675
13.0,0.01606433093547821
14.0,0.015608388930559158
15.0,0.015179581008851528
16.0,0.014778914861381054
18.0,0.013974742963910103
20.0,0.013266246765851974
22.0,0.012684086337685585
24.0,0.012126113288104534
26.0,0.011559193022549152
28.0,0.011079120449721813
30.0,0.010654722340404987
32.0,0.010305153205990791
36.0,0.009594723582267761
40.0,0.00876671727746725
44.0,0.008154364302754402
48.0,0.007884718477725983
52.0,0.007674692198634148
56.0,0.007423726376146078
60.0,0.007100290153175592
64.0,0.0068535697646439075
72.0,0.006375614553689957
80.0,0.005593874026089907
88.0,0.005255035124719143
96.0,0.005134196951985359
104.0,0.005141648929566145
112.0,0.005099571775645018
120.0,0.004811867140233517
128.0,0.00421347189694643
144.0,0.003217085963115096
160.0,0.0027159475721418858
176.0,0.0025325275491923094
192.0,0.0019931283313781023
208.0,0.0019494307925924659
224.0,0.002095067873597145
240.0,0.0021293123718351126
256.0,0.0022009110543876886
288.0,0.0012661621440201998
320.0,-0.0004556732892524451
352.0,-0.001473907963372767
384.0,-0.0011935430811718106
416.0,-0.00040969636756926775
448.0,-0.0006410129717551172
480.0,-0.0006609238917008042
512.0,-0.0014792472356930375
576.0,-0.0025573750026524067
640.0,-0.0016851965337991714
704.0,-0.00045661875628866255
768.0,-0.00037205126136541367
832.0,-0.0008178966236300766
896.0,-0.001108393189497292
960.0,-0.001716436119750142
1024.0,-0.0017160703428089619
1152.0,-0.0006178113399073482
1280.0,0.00026960784452967346
1408.0,0.0021137550938874483
1536.0,0.0025442875921726227
1664.0,0.0026490124873816967
1792.0,0.00013461541675496846
1920.0,-0.0007064842502586544
2048.0,-0.0018083034083247185
2304.0,-0.0017030347371473908
2560.0,0.0009729102603159845
2816.0,0.0008119398262351751
3072.0,0.0006031591910868883
3328.0,0.00010821971227414906
3584.0,-0.0006977907032705843
3840.0,-0.000318431033520028
4096.0,0.0017711356049403548
4608.0,-0.0021192063577473164
5120.0,0.00012426450848579407
5632.0,0.0011997908586636186
6144.0,-0.002512347884476185
6656.0,0.0012181771453469992
7168.0,0.0009386411984451115
7680.0,0.00037937567685730755
8192.0,-0.00038048342685215175
end
