version,3.0
numOfCh,1
type,point
parent_name,ff67b_0dot6-0dot1
ch_type,1_1
kcount,1
numberNandB,1
brightnessNandB,1
carpet pos,0
pc,0
Time (ms),CH1 Auto-Correlation
1.0,0.021317297592759132
2.0,0.020155688747763634
3.0,0.019105326384305954
4.0,0.018146777525544167
5.0,0.017307572066783905
6.0,0.016516735777258873
7.0,0.01578417979180813
8.0,0.01509016565978527
9.0,0.014423390850424767
10.0,0.013798417523503304
11.0,0.013234870508313179
12.0,0.012716441415250301
13.0,0.012233221903443336
14.0,0.011790832504630089
15.0,0.01136790495365858
16.0,0.010965035296976566
18.0,0.010274089872837067
20.0,0.009688938036561012
22.0,0.009171215817332268
24.0,0.008668340742588043
26.0,0.008145279251039028
28.0,0.007686322089284658
30.0,0.007243839092552662
32.0,0.006795333698391914
36.0,0.006181555800139904
40.0,0.00564142782241106
44.0,0.005138874053955078
48.0,0.00463457964360714
52.0,0.0041248430497944355
56.0,0.003806602442637086
60.0,0.003529880428686738
64.0,0.00327385519631207
72.0,0.0028148521669209003
80.0,0.0027392294723540545
88.0,0.0028018103912472725
96.0,0.0026142452843487263
104.0,0.0021391697227954865
112.0,0.001772055751644075
120.0,0.0016825872007757425
128.0,0.0015547923976555467
144.0,0.0010375706478953362
160.0,0.0007814261480234563
176.0,0.0004227655299473554
192.0,0.00012471235822886229
208.0,4.285641625756398e-05
224.0,0.00020207570923957974
240.0,0.0007812834810465574
256.0,0.0011933164205402136
288.0,0.0012265067780390382
320.0,0.000592739786952734
352.0,0.0012621948262676597
384.0,0.001223355415277183
416.0,-3.2377112802350894e-05
448.0,-0.0008399747312068939
480.0,-0.0014842600794509053
512.0,-0.0016179463127627969
576.0,-0.0003549679240677506
640.0,0.0007835786673240364
704.0,4.351618918008171e-05
768.0,-0.0006550390971824527
832.0,-0.0008229885715991259
896.0,-0.0005942905554547906
960.0,-0.0003547723463270813
1024.0,1.8560345779405907e-05
1152.0,-0.0010479886550456285
1280.0,-6.026451592333615e-05
1408.0,-0.001219241414219141
1536.0,-0.0007565727573819458
1664.0,-0.001061888411641121
1792.0,-0.0007024025544524193
1920.0,0.00038776660221628845
2048.0,0.0010050663258880377
2304.0,0.0005949421902187169
2560.0,-0.00024950579972937703
2816.0,-7.045634265523404e-05
3072.0,-0.000541851157322526
3328.0,-0.0005543222068808973
3584.0,4.443616489879787e-05
3840.0,-0.00029183615697547793
4096.0,-0.0005409327568486333
4608.0,-0.0007285356987267733
5120.0,-0.00044919413630850613
5632.0,0.00030827918089926243
6144.0,0.0006798974354751408
6656.0,-0.000977422809228301
7168.0,0.00037210239679552615
7680.0,0.0006224306998774409
8192.0,0.0009870652575045824
end
