version,3.0
numOfCh,1
type,point
parent_name,ff67b_0dot6-0dot1
ch_type,1_1
kcount,1
numberNandB,1
brightnessNandB,1
carpet pos,0
pc,0
Time (ms),CH1 Auto-Correlation
1.0,0.02152133546769619
2.0,0.02040017768740654
3.0,0.019411912187933922
4.0,0.018487602472305298
5.0,0.017649073153734207
6.0,0.01690238155424595
7.0,0.0162044670432806
8.0,0.01551815401762724
9.0,0.01487769465893507
10.0,0.014295421540737152
11.0,0.013764189556241035
12.0,0.013295888900756836
13.0,0.012827291153371334
14.0,0.012419250793755054
15.0,0.01198525819927454
16.0,0.011553925462067127
18.0,0.010800587944686413
20.0,0.01007416658103466
22.0,0.00943778082728386
24.0,0.008874769322574139
26.0,0.008407853543758392
28.0,0.00803131703287363
30.0,0.007692534942179918
32.0,0.007406838238239288
36.0,0.006760961841791868
40.0,0.006147284060716629
44.0,0.005761326290667057
48.0,0.005523038096725941
52.0,0.005191008560359478
56.0,0.004730751272290945
60.0,0.0044195582158863544
64.0,0.003995335195213556
72.0,0.003213552525267005
80.0,0.0027611360419541597
88.0,0.002367817098274827
96.0,0.0019422188634052873
104.0,0.0017306472873315215
112.0,0.0016236089868471026
120.0,0.0014077959349378943
128.0,0.0013003649655729532
144.0,0.0010855048894882202
160.0,0.0010061534121632576
176.0,0.0009157500462606549
192.0,0.0006786728627048433
208.0,0.0008521069539710879
224.0,0.0011056915391236544
240.0,0.0017601362196728587
256.0,0.00191438477486372
288.0,0.0004457203613128513
320.0,0.00029360665939748287
352.0,0.0006647372501902282
384.0,0.0011395299807190895
416.0,0.0004891911521553993
448.0,-0.0007862356142140925
480.0,-0.0008640335290692747
512.0,-0.00044681402505375445
576.0,-0.0009695853805169463
640.0,0.00021648926485795528
704.0,0.0006450478103943169
768.0,0.0012346104485914111
832.0,0.0004837319429498166
896.0,0.0015707827406004071
960.0,0.001300975913181901
1024.0,0.0010304634924978018
1152.0,0.00030726302065886557
1280.0,-0.0010344013571739197
1408.0,-0.00048727926332503557
1536.0,-0.0007068696431815624
1664.0,-0.0003547451051417738
1792.0,-0.0005572659429162741
1920.0,-0.0006054743425920606
2048.0,-0.0007327725761570036
2304.0,-0.0008865233976393938
2560.0,-0.0006578886532224715
2816.0,-0.00023310555843636394
3072.0,-0.00031216503703035414
3328.0,0.0008687517256475985
3584.0,-0.0007378222071565688
3840.0,0.00042060777195729315
4096.0,0.0008320579654537141
4608.0,-0.00031958677573129535
5120.0,0.0011006754357367754
5632.0,-0.00046341336565092206
6144.0,-0.00013088915147818625
6656.0,-0.002113704802468419
7168.0,-0.0003824073646683246
7680.0,-8.647292270325124e-05
8192.0,0.00127980241086334
end
