version,3.0
numOfCh,1
type,point
parent_name,ff67b_0dot6-0dot1
ch_type,1_1
kcount,1
numberNandB,1
brightnessNandB,1
carpet pos,0
pc,0
Time (ms),CH1 Auto-Correlation
1.0,0.022241268306970596
2.0,0.02112184651196003
3.0,0.020095258951187134
4.0,0.019178049638867378
5.0,0.018312381580471992
6.0,0.017513275146484375
7.0,0.016760503873229027
8.0,0.01608263887465
9.0,0.015453720465302467
10.0,0.014894465915858746
11.0,0.01435302384197712
12.0,0.013863444328308105
13.0,0.013379020616412163
14.0,0.012918549589812756
15.0,0.012449154630303383
16.0,0.012014339677989483
18.0,0.01125027984380722
20.0,0.010574872605502605
22.0,0.00997068453580141
24.0,0.009445025585591793
26.0,0.008974771946668625
28.0,0.008542319759726524
30.0,0.0081630265340209
32.0,0.007796041201800108
36.0,0.007060564123094082
40.0,0.0064398059621453285
44.0,0.006021635606884956
48.0,0.005780744832009077
52.0,0.005446321330964565
56.0,0.0050315591506659985
60.0,0.004609754774719477
64.0,0.004241081885993481
72.0,0.003699815133586526
80.0,0.0031847928185015917
88.0,0.0027299276553094387
96.0,0.002281444612890482
104.0,0.0016567293787375093
112.0,0.0012864544987678528
120.0,0.0008671655086800456
128.0,0.0007262300932779908
144.0,0.0011443882249295712
160.0,0.0012050599325448275
176.0,0.0012967876391485333
192.0,0.0006171017303131521
208.0,0.0006627656402997673
224.0,0.00039634856511838734
240.0,0.00019637049990706146
256.0,0.0004202557902317494
288.0,0.0008498570532537997
320.0,0.0006923190667293966
352.0,0.0011303522624075413
384.0,-4.918671493214788e-06
416.0,-0.00023146840976551175
448.0,-6.795300578232855e-05
480.0,0.00012896204134449363
512.0,0.0008248643716797233
576.0,0.0008099221158772707
640.0,0.000642852159217
704.0,0.00033283946686424315
768.0,-0.0002483639109414071
832.0,0.0015632787253707647
896.0,0.0011669453233480453
960.0,0.0003656792687252164
1024.0,-0.0002243735798401758
1152.0,-0.0004560980014503002
1280.0,-0.0006798449321649969
1408.0,-0.00047642900608479977
1536.0,4.477297989069484e-05
1664.0,0.00035118727828375995
1792.0,0.0010986796114593744
1920.0,3.5962206311523914e-05
2048.0,-0.001438759034499526
2304.0,0.00015450106002390385
2560.0,-0.00030630151741206646
2816.0,-0.000976970186457038
3072.0,-8.497997623635456e-05
3328.0,8.444301056442782e-05
3584.0,0.00038668367778882384
3840.0,-0.0001911916770040989
4096.0,-4.508530764724128e-05
4608.0,-1.1541097592271399e-05
5120.0,-0.00020647686324082315
5632.0,-0.00019277626415714622
6144.0,-5.65708578506019e-05
6656.0,0.00029100049869157374
7168.0,-0.000602882297243923
7680.0,-0.0018365643918514252
8192.0,-0.00032146944431588054
end
