version,3.0
numOfCh,1
type,point
parent_name,ff67b_0dot6-0dot1
ch_type,1_1
kcount,1
numberNandB,1
brightnessNandB,1
carpet pos,0
pc,0
Time (ms),CH1 Auto-Correlation
1.0,0.025527913123369217
2.0,0.024325823411345482
3.0,0.02325734682381153
4.0,0.022255562245845795
5.0,0.02136262133717537
6.0,0.02056078426539898
7.0,0.019827978685498238
8.0,0.01913071796298027
9.0,0.018466506153345108
10.0,0.017893385142087936
11.0,0.017348017543554306
12.0,0.016844792291522026
13.0,0.016378264874219894
14.0,0.01592956855893135
15.0,0.0155046246945858
16.0,0.015096361748874187
18.0,0.014389291405677795
20.0,0.013719317503273487
22.0,0.013062533922493458
24.0,0.012415817007422447
26.0,0.011889182031154633
28.0,0.011482666246592999
30.0,0.011096845380961895
32.0,0.010809732601046562
36.0,0.010321340523660183
40.0,0.009714310988783836
44.0,0.009111427702009678
48.0,0.008547521196305752
52.0,0.008005807176232338
56.0,0.007631057407706976
60.0,0.007155852857977152
64.0,0.006811891682446003
72.0,0.0062301079742610455
80.0,0.00573931448161602
88.0,0.005233415402472019
96.0,0.004932529293000698
104.0,0.004986211657524109
112.0,0.005291505716741085
120.0,0.005330055020749569
128.0,0.005243164021521807
144.0,0.004793956410139799
160.0,0.004082717467099428
176.0,0.0032717189751565456
192.0,0.00257234089076519
208.0,0.0025298192631453276
224.0,0.0019525939133018255
240.0,0.0022298754192888737
256.0,0.002585164038464427
288.0,0.0021745581179857254
320.0,0.0019746797624975443
352.0,0.0017025736160576344
384.0,0.0017997128888964653
416.0,0.0018453397788107395
448.0,0.0012376002268865705
480.0,0.0018207269022241235
512.0,0.0018200634513050318
576.0,0.0014942932175472379
640.0,0.0005935464869253337
704.0,0.0014924079878255725
768.0,-0.0004889997071586549
832.0,-0.0015357964439317584
896.0,-0.001497511169873178
960.0,-0.0013131926534697413
1024.0,-0.0021017873659729958
1152.0,-0.0009801766136661172
1280.0,0.0007580413366667926
1408.0,0.0005469301249831915
1536.0,0.00024959331494756043
1664.0,0.0010140584781765938
1792.0,0.0009173857397399843
1920.0,0.0022079111076891422
2048.0,0.0010135085321962833
2304.0,-0.002111542271450162
2560.0,-0.0018214627634733915
2816.0,-0.0022176129277795553
3072.0,-0.002125808736309409
3328.0,0.0007033101283013821
3584.0,0.001249559922143817
3840.0,0.00019618406076915562
4096.0,6.2518915910914075e-06
4608.0,-0.001157055259682238
5120.0,-0.0016665019793435931
5632.0,0.00154205528087914
6144.0,0.0018964605405926704
6656.0,0.0009612134308554232
7168.0,-0.0007420419715344906
7680.0,-0.0022729833144694567
8192.0,-0.002088540932163596
end
