version,3.0
numOfCh,1
type,point
parent_name,ff67b_0dot6-0dot1
ch_type,1_1
kcount,1
numberNandB,1
brightnessNandB,1
carpet pos,0
pc,0
Time (ms),CH1 Auto-Correlation
1.0,0.023856960237026215
2.0,0.022679608315229416
3.0,0.021599315106868744
4.0,0.020597536116838455
5.0,0.01969149522483349
6.0,0.01884814351797104
7.0,0.018069865182042122
8.0,0.017347851768136024
9.0,0.01666693389415741
10.0,0.01608511619269848
11.0,0.015515499748289585
12.0,0.015019235201179981
13.0,0.014555996283888817
14.0,0.014054755680263042
15.0,0.01359561737626791
16.0,0.013157755136489868
18.0,0.0123011264950037
20.0,0.011501609347760677
22.0,0.010727467015385628
24.0,0.010014594532549381
26.0,0.009328504092991352
28.0,0.008642061613500118
30.0,0.007960299029946327
32.0,0.007324348669499159
36.0,0.00622419873252511
40.0,0.00533930491656065
44.0,0.004525833763182163
48.0,0.003815555013716221
52.0,0.0033865778241306543
56.0,0.0029952372424304485
60.0,0.0026772802229970694
64.0,0.0024193129502236843
72.0,0.0018902478041127324
80.0,0.0014369379496201873
88.0,0.0015658874763175845
96.0,0.0015025935135781765
104.0,0.0011526379967108369
112.0,0.0009517267462797463
120.0,0.0006364695727825165
128.0,0.0006762893171980977
144.0,0.0010521092917770147
160.0,0.0007379208691418171
176.0,0.00048720103222876787
192.0,0.0011685959761962295
208.0,0.0020423533860594034
224.0,0.0025938909966498613
240.0,0.002451166044920683
256.0,0.0015377633972093463
288.0,0.0012945747002959251
320.0,0.0010064130183309317
352.0,0.0008482510456815362
384.0,0.0008823717944324017
416.0,8.401409286307171e-05
448.0,-0.0004922951920889318
480.0,-0.0006269612349569798
512.0,4.529858415480703e-05
576.0,0.0003100012254435569
640.0,0.001104944502003491
704.0,0.0018667688127607107
768.0,0.0008294623694382608
832.0,-7.5274051596352365e-06
896.0,0.00047954104957170784
960.0,0.0009164494695141912
1024.0,0.0010098180500790477
1152.0,0.0007471162243746221
1280.0,-0.0003918381407856941
1408.0,0.001687335898168385
1536.0,-0.0002069455513264984
1664.0,-0.00021927960915490985
1792.0,0.00043348746839910746
1920.0,6.223682430572808e-05
2048.0,0.0009020065772347152
2304.0,-3.345928416820243e-05
2560.0,0.000945615756791085
2816.0,-0.0010889404220506549
3072.0,-0.0015838525723665953
3328.0,0.0008577471598982811
3584.0,0.0005070701008662581
3840.0,-0.00030857528327032924
4096.0,-0.000837252417113632
4608.0,0.000498682726174593
5120.0,-0.000864331261254847
5632.0,-0.0006245138356462121
6144.0,-0.0016074278391897678
6656.0,-0.001553453505039215
7168.0,-7.826755609130487e-05
7680.0,0.001101893838495016
8192.0,-0.0006306545692496002
end
