version,3.0
numOfCh,1
type,point
parent_name,ff67b_0dot6-0dot1
ch_type,1_1
kcount,1
numberNandB,1
brightnessNandB,1
carpet pos,0
pc,0
Time (ms),CH1 Auto-Correlation
1.0,0.021032465621829033
2.0,0.01982036791741848
3.0,0.018713941797614098
4.0,0.017717842012643814
5.0,0.016800547018647194
6.0,0.01594247668981552
7.0,0.01513958815485239
8.0,0.014437166042625904
9.0,0.013794816099107265
10.0,0.013218204490840435
11.0,0.012673839926719666
12.0,0.012194083072245121
13.0,0.011765563860535622
14.0,0.011342084966599941
15.0,0.010914160870015621
16.0,0.01052901241928339
18.0,0.009838595986366272
20.0,0.009190774522721767
22.0,0.00855325348675251
24.0,0.007948501966893673
26.0,0.007353696506470442
28.0,0.006797394715249538
30.0,0.006384120788425207
32.0,0.006077419500797987
36.0,0.005618504248559475
40.0,0.0052069444209337234
44.0,0.004616543650627136
48.0,0.004054594784975052
52.0,0.003854975802823901
56.0,0.003613038919866085
60.0,0.0032488189171999693
64.0,0.0029231111984699965
72.0,0.0025398614816367626
80.0,0.002259316621348262
88.0,0.0020483173429965973
96.0,0.001921644899994135
104.0,0.0018988861702382565
112.0,0.002085553715005517
120.0,0.0021585719659924507
128.0,0.0019710534252226353
144.0,0.0018825145671144128
160.0,0.001501161023043096
176.0,0.0012519608717411757
192.0,0.0010235807858407497
208.0,0.0014901936519891024
224.0,0.0015571611002087593
240.0,0.0019037474412471056
256.0,0.0009891801746562123
288.0,0.0006231063744053245
320.0,0.000327704765368253
352.0,0.0007948809070512652
384.0,-0.0005660320748575032
416.0,-0.0008443358819931746
448.0,-0.00032778055174276233
480.0,-0.0004168195591773838
512.0,-0.0006787641323171556
576.0,-0.00105251744389534
640.0,-0.0011956862872466445
704.0,-0.0020168109331279993
768.0,-0.0011357043404132128
832.0,-0.000533252430614084
896.0,-0.00012280284136068076
960.0,-0.00012904811592306942
1024.0,0.0007679451373405755
1152.0,0.00039940050919540226
1280.0,9.019503340823576e-05
1408.0,0.00018701181397773325
1536.0,0.0010981331579387188
1664.0,-0.0002184289915021509
1792.0,0.000411007582442835
1920.0,-0.00022974541934672743
2048.0,-0.0009470488294027746
2304.0,-0.0005875895731151104
2560.0,-0.001427923678420484
2816.0,-0.0006914471741765738
3072.0,-0.0011759107001125813
3328.0,-0.0006812693318352103
3584.0,-1.117453575716354e-05
3840.0,-0.00029407223337329924
4096.0,-0.0006177157047204673
4608.0,-0.00043919638847000897
5120.0,0.0008632830576971173
5632.0,0.000362040736945346
6144.0,-2.8468970413086936e-05
6656.0,0.0022902400232851505
7168.0,-0.00037008259096182883
7680.0,-0.00022043751960154623
8192.0,0.00033741784864105284
end
