version,3.0
numOfCh,1
type,point
parent_name,ff67b_0dot6-0dot1
ch_type,1_1
kcount,1
numberNandB,1
brightnessNandB,1
carpet pos,0
pc,0
Time (ms),CH1 Auto-Correlation
1.0,0.02035931870341301
2.0,0.019143765792250633
3.0,0.01808345690369606
4.0,0.017166806384921074
5.0,0.01633307710289955
6.0,0.015621748752892017
7.0,0.014913654886186123
8.0,0.014242710545659065
9.0,0.013681245967745781
10.0,0.013130341656506062
11.0,0.012598115019500256
12.0,0.012085138820111752
13.0,0.01161254197359085
14.0,0.011175792664289474
15.0,0.010800995863974094
16.0,0.010459301993250847
18.0,0.009724867530167103
20.0,0.00900745764374733
22.0,0.00835194531828165
24.0,0.007801836356520653
26.0,0.007239481434226036
28.0,0.006723493337631226
30.0,0.0061960369348526
32.0,0.005730245262384415
36.0,0.0050337850116193295
40.0,0.004630198236554861
44.0,0.004441847559064627
48.0,0.004223876632750034
52.0,0.0038601048290729523
56.0,0.0035131436306983232
60.0,0.003238969249650836
64.0,0.0029078321531414986
72.0,0.002352984854951501
80.0,0.0015508856158703566
88.0,0.000774000771343708
96.0,0.0006740691605955362
104.0,0.0006323230336420238
112.0,0.0007108543650247157
120.0,0.0008203147444874048
128.0,0.0006661007064394653
144.0,0.0005219379090704024
160.0,0.0008110113558359444
176.0,0.0014219136210158467
192.0,0.0010447357781231403
208.0,0.0005455733044072986
224.0,0.0004949276917614043
240.0,0.0005012888577766716
256.0,0.00014125907910056412
288.0,7.997555076144636e-05
320.0,0.0006220920477062464
352.0,0.0009178932523354888
384.0,0.0009724833653308451
416.0,0.0004144740814808756
448.0,0.00033968425123021007
480.0,0.0001225364685524255
512.0,-0.001015671994537115
576.0,-0.0017604901222512126
640.0,-0.0007863029022701085
704.0,-0.0015054994728416204
768.0,-0.00020754587603732944
832.0,0.000297864229651168
896.0,-0.0003810774360317737
960.0,0.001125735929235816
1024.0,0.0006888903444632888
1152.0,0.0001652591017773375
1280.0,0.0006151002016849816
1408.0,-0.00045555061660706997
1536.0,-0.0015336937503889203
1664.0,-0.0009327951702289283
1792.0,-0.0009540501632727683
1920.0,0.00041943698306567967
2048.0,-0.000643234234303236
2304.0,0.0001426633243681863
2560.0,0.0008369376300834119
2816.0,0.00030695280293002725
3072.0,0.0005583633319474757
3328.0,4.690392597694881e-05
3584.0,-0.0008373607415705919
3840.0,-0.0003625007811933756
4096.0,-0.0002778465277515352
4608.0,-0.0002785376273095608
5120.0,-4.4465956307249144e-05
5632.0,0.001678538741543889
6144.0,-0.0010688278125599027
6656.0,0.00011800448555732146
7168.0,-0.0024697906337678432
7680.0,-0.00014341941277962178
8192.0,-0.0015239898348227143
end
