version,3.0
numOfCh,1
type,point
parent_name,ff67b_0dot6-0dot1
ch_type,1_1
kcount,1
numberNandB,1
brightnessNandB,1
carpet pos,0
pc,0
Time (ms),CH1 Auto-Correlation
1.0,0.025273146107792854
2.0,0.024129122495651245
3.0,0.023104730993509293
4.0,0.022171689197421074
5.0,0.0213134977966547
6.0,0.02050589956343174
7.0,0.019762083888053894
8.0,0.019121257588267326
9.0,0.018528442829847336
10.0,0.017963575199246407
11.0,0.0174188744276762
12.0,0.01688714325428009
13.0,0.016406245529651642
14.0,0.015944592654705048
15.0,0.01549994945526123
16.0,0.015102595090866089
18.0,0.014335216023027897
20.0,0.013594421558082104
22.0,0.012906074523925781
24.0,0.012304818257689476
26.0,0.011734063737094402
28.0,0.011193457059562206
30.0,0.010751210153102875
32.0,0.010332814417779446
36.0,0.009655273519456387
40.0,0.008985888212919235
44.0,0.008374154567718506
48.0,0.007802602834999561
52.0,0.007242216262966394
56.0,0.006693028844892979
60.0,0.006205358076840639
64.0,0.005780277773737907
72.0,0.005055502522736788
80.0,0.004543186631053686
88.0,0.004037073813378811
96.0,0.003605277743190527
104.0,0.003334564622491598
112.0,0.002957961754873395
120.0,0.0023977782111614943
128.0,0.0018503433093428612
144.0,0.0012207149993628263
160.0,0.0008200673037208617
176.0,0.000450392923085019
192.0,0.00012491414963733405
208.0,-0.0006426695617847145
224.0,-0.0009554286953061819
240.0,-0.0012942652683705091
256.0,-0.0011431279126554728
288.0,-0.0004858300380874425
320.0,-0.0008659607847221196
352.0,-0.0006201228243298829
384.0,-0.0002446559665258974
416.0,0.00019254235667176545
448.0,1.3132181265973486e-05
480.0,0.0008671007235534489
512.0,4.142492252867669e-05
576.0,-0.0013883329229429364
640.0,-0.0016052172286435962
704.0,-0.0017255512066185474
768.0,-0.001029881415888667
832.0,-0.000688853848259896
896.0,2.4009019398363307e-05
960.0,0.0002041594561887905
1024.0,-0.0004486277757678181
1152.0,-0.0020913402549922466
1280.0,-4.9885056796483696e-06
1408.0,0.0006885247421450913
1536.0,-0.0017634534742683172
1664.0,-0.0017584722954779863
1792.0,0.0017515035578981042
1920.0,0.001345782889984548
2048.0,-0.0002839675289578736
2304.0,-8.879230153979734e-05
2560.0,-0.00037964206421747804
2816.0,0.0005977610126137733
3072.0,0.0008303152862936258
3328.0,-0.0005669541424140334
3584.0,-0.0009726604330353439
3840.0,1.4365528841153719e-05
4096.0,0.0012538201408460736
4608.0,-0.0003168781113345176
5120.0,0.000552498793695122
5632.0,-0.0008877640357241035
6144.0,-0.00025424594059586525
6656.0,0.0006083848420530558
7168.0,0.00010091047442983836
7680.0,0.0005025818245485425
8192.0,0.0006241427036002278
end
