version,3.0
numOfCh,1
type,point
parent_name,ff67b_0dot6-0dot1
ch_type,1_1
kcount,1
numberNandB,1
brightnessNandB,1
carpet pos,0
pc,0
Time (ms),CH1 Auto-Correlation
1.0,0.023586703464388847
2.0,0.022433480247855186
3.0,0.021401401609182358
4.0,0.020451068878173828
5.0,0.019551046192646027
6.0,0.01874399743974209
7.0,0.0179881788790226
8.0,0.017313793301582336
9.0,0.016657184809446335
10.0,0.016017362475395203
11.0,0.015380105935037136
12.0,0.014790665358304977
13.0,0.014254509471356869
14.0,0.0137486532330513
15.0,0.013315667398273945
16.0,0.012912456877529621
18.0,0.012145854532718658
20.0,0.01139592844992876
22.0,0.01069638691842556
24.0,0.009995185770094395
26.0,0.009351538494229317
28.0,0.008784439414739609
30.0,0.008309680037200451
32.0,0.00794408842921257
36.0,0.007196010090410709
40.0,0.00651921471580863
44.0,0.005991502199321985
48.0,0.005447004921734333
52.0,0.004886097740381956
56.0,0.004362573381513357
60.0,0.0039081391878426075
64.0,0.0035822743084281683
72.0,0.0028046993538737297
80.0,0.0020603397861123085
88.0,0.001649187644943595
96.0,0.0014657857827842236
104.0,0.0013383791083469987
112.0,0.001235678675584495
120.0,0.0007710347417742014
128.0,0.00021443840523716062
144.0,-0.0005998729029670358
160.0,-0.0008051470504142344
176.0,-0.00045132619561627507
192.0,-0.000325456028804183
208.0,-0.00013320829020813107
224.0,0.000212022103369236
240.0,0.001279714866541326
256.0,0.0017035724595189095
288.0,0.0014527910389006138
320.0,0.0004544505791272968
352.0,-0.0007878729375079274
384.0,-0.0022416962310671806
416.0,-0.002334891352802515
448.0,-0.0018146246438845992
480.0,-0.00027492697699926794
512.0,0.0015390819171443582
576.0,0.0010656878584995866
640.0,0.0004935742472298443
704.0,-0.0001247010804945603
768.0,0.0018047377234324813
832.0,0.002252577105537057
896.0,0.001993813319131732
960.0,0.0002826038107741624
1024.0,0.00033743371022865176
1152.0,-0.00031790832872502506
1280.0,-0.0014810460852459073
1408.0,0.0009069616789929569
1536.0,0.0011707498924806714
1664.0,0.0004819968016818166
1792.0,-0.0005820447113364935
1920.0,-0.0007847672677598894
2048.0,-0.0018571544205769897
2304.0,-0.0005305481026880443
2560.0,-0.0003257229982409626
2816.0,-0.0017617265693843365
3072.0,-0.0008717740420252085
3328.0,-0.0003565196238923818
3584.0,-0.0013357425341382623
3840.0,-0.0001325912307947874
4096.0,0.0007932588923722506
4608.0,6.732677866239101e-05
5120.0,0.0005660108290612698
5632.0,0.0013672267086803913
6144.0,0.00024017853138502687
6656.0,0.00038213765947148204
7168.0,-0.000390677188988775
7680.0,-0.0011697009904310107
8192.0,-0.000595168094150722
end
