version,3.0
numOfCh,1
type,point
parent_name,ff67b_0dot6-0dot1
ch_type,1_1
kcount,1
numberNandB,1
brightnessNandB,1
carpet pos,0
pc,0
Time (ms),CH1 Auto-Correlation
1.0,0.02452634833753109
2.0,0.023334601894021034
3.0,0.0222731102257967
4.0,0.021277770400047302
5.0,0.02038412168622017
6.0,0.019584013149142265
7.0,0.01879376918077469
8.0,0.01808660849928856
9.0,0.017451882362365723
10.0,0.016848042607307434
11.0,0.016308726742863655
12.0,0.015756389126181602
13.0,0.015275856480002403
14.0,0.014849001541733742
15.0,0.014447526074945927
16.0,0.01408668514341116
18.0,0.013300762511789799
20.0,0.012626174837350845
22.0,0.011997688561677933
24.0,0.011354189366102219
26.0,0.010748939588665962
28.0,0.010206973180174828
30.0,0.009690588340163231
32.0,0.009230275638401508
36.0,0.008481837809085846
40.0,0.007946636527776718
44.0,0.0074367099441587925
48.0,0.006987923290580511
52.0,0.006583688780665398
56.0,0.006288313306868076
60.0,0.006045974791049957
64.0,0.005897955037653446
72.0,0.005786266177892685
80.0,0.005864107050001621
88.0,0.005694998893886805
96.0,0.005529535934329033
104.0,0.005423867143690586
112.0,0.0049867467023432255
120.0,0.004317842423915863
128.0,0.0038501708768308163
144.0,0.0038297390565276146
160.0,0.003981022164225578
176.0,0.004524878691881895
192.0,0.0038912256713956594
208.0,0.00223638117313385
224.0,0.0010834765853360295
240.0,0.0010928289266303182
256.0,0.0009277249919250607
288.0,0.0004068569396622479
320.0,0.0002521353599149734
352.0,0.0010386793874204159
384.0,0.0002482513664290309
416.0,-0.0012153900461271405
448.0,-0.0008965753368102014
480.0,-0.0010619326494634151
512.0,-0.0004488442209549248
576.0,-6.309018499450758e-05
640.0,-0.0007545638363808393
704.0,-0.0002837797801475972
768.0,0.0004432862042449415
832.0,0.0017503596609458327
896.0,0.001490551745519042
960.0,0.002312812954187393
1024.0,0.00274349725805223
1152.0,-0.0012539346935227513
1280.0,-0.0023187093902379274
1408.0,-0.0017528125317767262
1536.0,-0.0023017290513962507
1664.0,-0.0011672985274344683
1792.0,0.00043424192699603736
1920.0,0.0003897878050338477
2048.0,0.000214985033380799
2304.0,0.0004884092486463487
2560.0,-0.0006799928960390389
2816.0,0.0008503408171236515
3072.0,0.002552265767008066
3328.0,-0.00044498249189928174
3584.0,-0.00170428107958287
3840.0,-1.922246337926481e-05
4096.0,0.000762075767852366
4608.0,-0.002608224516734481
5120.0,-0.0006886891787871718
5632.0,0.0008845195407047868
6144.0,0.0008358357008546591
6656.0,-0.0012009103083983064
7168.0,-0.0009971803519874811
7680.0,-0.00016595599299762398
8192.0,0.00045641078031621873
end
