version,3.0
numOfCh,1
type,point
parent_name,ff67b_0dot6-0dot1
ch_type,1_1
kcount,1
numberNandB,1
brightnessNandB,1
carpet pos,0
pc,0
Time (ms),CH1 Auto-Correlation
1.0,0.026162024587392807
2.0,0.02485021948814392
3.0,0.02366485446691513
4.0,0.022572828456759453
5.0,0.021598009392619133
6.0,0.02068273536860943
7.0,0.019876863807439804
8.0,0.019129713997244835
9.0,0.01842239685356617
10.0,0.01776759698987007
11.0,0.01716569997370243
12.0,0.016597943380475044
13.0,0.01608756184577942
14.0,0.015646716579794884
15.0,0.015279539860785007
16.0,0.014882514253258705
18.0,0.014200294390320778
20.0,0.013571460731327534
22.0,0.012874292209744453
24.0,0.012212241068482399
26.0,0.011565887369215488
28.0,0.01091842446476221
30.0,0.01026620902121067
32.0,0.0096628088504076
36.0,0.008741938509047031
40.0,0.00821488257497549
44.0,0.007771398406475782
48.0,0.00756670068949461
52.0,0.007432872895151377
56.0,0.00736130541190505
60.0,0.007235622964799404
64.0,0.007093753665685654
72.0,0.0066237663850188255
80.0,0.0059184543788433075
88.0,0.004991046153008938
96.0,0.004567550960928202
104.0,0.004218693822622299
112.0,0.004018432926386595
120.0,0.003946520853787661
128.0,0.0036288516130298376
144.0,0.002854131394997239
160.0,0.001615680055692792
176.0,0.0012613842263817787
192.0,0.00207158294506371
208.0,0.002152435714378953
224.0,0.0009391814237460494
240.0,0.000440157949924469
256.0,0.0009332406334578991
288.0,0.0019640084356069565
320.0,0.002183615230023861
352.0,0.0018037481931969523
384.0,0.0012680953368544579
416.0,0.0003308093873783946
448.0,-0.0004755565896630287
480.0,-0.0005969345802441239
512.0,-0.001041051815263927
576.0,4.226103192195296e-05
640.0,-6.849654164398089e-05
704.0,0.00014266744256019592
768.0,0.0003482725005596876
832.0,6.546822260133922e-05
896.0,-0.0005019093514420092
960.0,-0.00024165720969904214
1024.0,5.469485040521249e-05
1152.0,5.90697381994687e-05
1280.0,-0.0006901052547618747
1408.0,0.00022103665105532855
1536.0,-0.0007744260365143418
1664.0,-0.0025143600068986416
1792.0,-0.001891725929453969
1920.0,-0.0025905787479132414
2048.0,-0.0018586834194138646
2304.0,0.0003794196527451277
2560.0,0.0003334855136927217
2816.0,0.0005372156156226993
3072.0,-0.0013590258313342929
3328.0,-0.0010829773964360356
3584.0,5.027729457651731e-06
3840.0,0.0012535948771983385
4096.0,0.0009067439823411405
4608.0,-0.0006140599143691361
5120.0,0.0008253706037066877
5632.0,-0.0005549524212256074
6144.0,0.000905809283722192
6656.0,0.0010748484637588263
7168.0,0.0017349885310977697
7680.0,-6.005044997436926e-05
8192.0,-0.0010881958296522498
end
