version,3.0
numOfCh,1
type,point
parent_name,ff67b_0dot6-0dot1
ch_type,1_1
kcount,1
numberNandB,1
brightnessNandB,1
carpet pos,0
pc,0
Time (ms),CH1 Auto-Correlation
1.0,0.02224305085837841
2.0,0.02110406570136547
3.0,0.020091794431209564
4.0,0.019155535846948624
5.0,0.01827739179134369
6.0,0.017466815188527107
7.0,0.0167329553514719
8.0,0.016054002568125725
9.0,0.015429163351655006
10.0,0.014856436289846897
11.0,0.01432781107723713
12.0,0.013821957632899284
13.0,0.013348856009542942
14.0,0.012929534539580345
15.0,0.012529044412076473
16.0,0.012166750617325306
18.0,0.011471807025372982
20.0,0.010833724401891232
22.0,0.010278308764100075
24.0,0.009833624586462975
26.0,0.009428481571376324
28.0,0.0089921485632658
30.0,0.008610764518380165
32.0,0.00829700380563736
36.0,0.007723591756075621
40.0,0.007246902212500572
44.0,0.0068757315166294575
48.0,0.006597911007702351
52.0,0.006273073144257069
56.0,0.005826519802212715
60.0,0.005436223931610584
64.0,0.0050683217123150826
72.0,0.0044061108492314816
80.0,0.0037421085871756077
88.0,0.0031319449190050364
96.0,0.0026946512516587973
104.0,0.0026638759300112724
112.0,0.002536422573029995
120.0,0.0023743133060634136
128.0,0.0019200165988877416
144.0,0.001139964908361435
160.0,0.0007993730250746012
176.0,0.0005645357887260616
192.0,0.00047735730186104774
208.0,0.00029483583057299256
224.0,0.00033973826793953776
240.0,0.000569273135624826
256.0,0.0005487586022354662
288.0,-0.00015647108375560492
320.0,0.00011913268099306151
352.0,0.0003584166697692126
384.0,0.00021554013073910028
416.0,0.0004015123122371733
448.0,0.0009549023816362023
480.0,0.0012556451838463545
512.0,0.0008072401396930218
576.0,0.00031123156077228487
640.0,-0.00020248953660484403
704.0,4.203734715702012e-05
768.0,-0.0008205028134398162
832.0,6.487640348495916e-05
896.0,0.0007641565171070397
960.0,0.00024304130056407303
1024.0,0.0002511571510694921
1152.0,0.0014793823938816786
1280.0,0.0010678644757717848
1408.0,-7.965748227434233e-05
1536.0,-0.0016574565088376403
1664.0,-0.0010293651139363647
1792.0,-0.0017109861364588141
1920.0,-0.001980891916900873
2048.0,-0.0004931928124278784
2304.0,0.00018840769189409912
2560.0,0.0005118631524965167
2816.0,-0.0018177904421463609
3072.0,-0.0013583769323304296
3328.0,0.00017311230476479977
3584.0,0.00023254282132256776
3840.0,-0.0009053761605173349
4096.0,-0.0011211913079023361
4608.0,0.00010591217869659886
5120.0,-0.00023258334840647876
5632.0,0.0009046950144693255
6144.0,0.00048015036736615
6656.0,0.0009032396483235061
7168.0,-0.0004405996296554804
7680.0,3.542864942573942e-05
8192.0,0.00021963186736684293
end
