version,3.0
numOfCh,1
type,point
parent_name,ff67b_0dot6-0dot1
ch_type,1_1
kcount,1
numberNandB,1
brightnessNandB,1
carpet pos,0
pc,0
Time (ms),CH1 Auto-Correlation
1.0,0.023171141743659973
2.0,0.021967465057969093
3.0,0.02089807763695717
4.0,0.019956301897764206
5.0,0.01906835287809372
6.0,0.01824825070798397
7.0,0.017515528947114944
8.0,0.01684795320034027
9.0,0.016211017966270447
10.0,0.01561373844742775
11.0,0.015034856274724007
12.0,0.01450976263731718
13.0,0.013988720253109932
14.0,0.013512016274034977
15.0,0.013062993995845318
16.0,0.01263538096100092
18.0,0.011769570410251617
20.0,0.011030690744519234
22.0,0.010395292192697525
24.0,0.00984044000506401
26.0,0.009346439503133297
28.0,0.008915782906115055
30.0,0.008571483194828033
32.0,0.008299549110233784
36.0,0.007875146344304085
40.0,0.007359531242400408
44.0,0.0068904934450984
48.0,0.006365541834384203
52.0,0.00595452357083559
56.0,0.005466125905513763
60.0,0.004881450440734625
64.0,0.004342793021351099
72.0,0.003644130425527692
80.0,0.00312223844230175
88.0,0.0030118864960968494
96.0,0.0029015722684562206
104.0,0.0026459319051355124
112.0,0.0027654373552650213
120.0,0.0028761120047420263
128.0,0.0027704054955393076
144.0,0.0021706619299948215
160.0,0.0016366541385650635
176.0,0.0009134290739893913
192.0,0.0009866629261523485
208.0,0.0003652867453638464
224.0,-0.00013715040404349566
240.0,-0.0005131294019520283
256.0,-0.0009915282716974616
288.0,-0.001802203245460987
320.0,-0.0013951956061646342
352.0,-0.0007007744279690087
384.0,-0.0013160505332052708
416.0,-0.0020137683022767305
448.0,-0.001599424402229488
480.0,-0.0002628320944495499
512.0,-0.00040271072066389024
576.0,0.00016883600619621575
640.0,5.289163891575299e-05
704.0,-4.002079731435515e-05
768.0,0.001038585091009736
832.0,0.0007874590810388327
896.0,-0.0003210438881069422
960.0,0.00022839743178337812
1024.0,0.0008480159449391067
1152.0,-0.0004024843801744282
1280.0,-0.0012711136369034648
1408.0,-0.002925390610471368
1536.0,0.00026284129125997424
1664.0,0.0010083733359351754
1792.0,-0.0005954321241006255
1920.0,-0.001639341120608151
2048.0,-0.0008010369492694736
2304.0,4.02330479118973e-05
2560.0,0.0008676001452840865
2816.0,-0.00039265950908884406
3072.0,-0.0008115345262922347
3328.0,0.0002181992313126102
3584.0,-0.0004111920716241002
3840.0,0.0004613473720382899
4096.0,-0.0001954649342224002
4608.0,-1.2020577742077876e-05
5120.0,-0.0009767527226358652
5632.0,-0.00013398211740422994
6144.0,0.0007150270394049585
6656.0,0.0004924418171867728
7168.0,0.0006735358037985861
7680.0,-0.00018234027083963156
8192.0,0.000613734417129308
end
