version,3.0
numOfCh,1
type,point
parent_name,ff67b_0dot6-0dot1
ch_type,1_1
kcount,1
numberNandB,1
brightnessNandB,1
carpet pos,0
pc,0
Time (ms),CH1 Auto-Correlation
1.0,0.02285093627870083
2.0,0.021644581109285355
3.0,0.020537490025162697
4.0,0.01951223611831665
5.0,0.018541455268859863
6.0,0.017678650096058846
7.0,0.016856059432029724
8.0,0.016104858368635178
9.0,0.015421396121382713
10.0,0.014794236980378628
11.0,0.014193026348948479
12.0,0.013581754639744759
13.0,0.01299881748855114
14.0,0.012419327162206173
15.0,0.011885398998856544
16.0,0.01136838924139738
18.0,0.010440231300890446
20.0,0.009676700457930565
22.0,0.009034701623022556
24.0,0.00852454174309969
26.0,0.008039578795433044
28.0,0.007534998469054699
30.0,0.0070524029433727264
32.0,0.006569780874997377
36.0,0.005854202434420586
40.0,0.005245224107056856
44.0,0.004771263338625431
48.0,0.004397787619382143
52.0,0.0041912514716386795
56.0,0.004109052009880543
60.0,0.004153011366724968
64.0,0.004112089052796364
72.0,0.0038796740118414164
80.0,0.0036826443392783403
88.0,0.0033760988153517246
96.0,0.0028208494186401367
104.0,0.0027755957562476397
112.0,0.002951365429908037
120.0,0.003072224324569106
128.0,0.002928872825577855
144.0,0.0016078331973403692
160.0,0.000755113607738167
176.0,0.0004678892146330327
192.0,0.0007553665200248361
208.0,0.0007632902706973255
224.0,0.000256611529039219
240.0,-2.484851938788779e-05
256.0,0.0004974615876562893
288.0,0.0008231656393036246
320.0,0.0024259097408503294
352.0,0.0020326513331383467
384.0,0.0018382839625701308
416.0,0.0013318517012521625
448.0,0.00030016814707778394
480.0,-0.0003304010897409171
512.0,0.00017645202751737088
576.0,0.001559753087349236
640.0,0.001560675329528749
704.0,0.00226647243835032
768.0,0.0017046454595401883
832.0,0.0012614513980224729
896.0,0.0011837766505777836
960.0,0.0012337781954556704
1024.0,0.00028807041235268116
1152.0,-0.0006876542465761304
1280.0,0.0004938137717545033
1408.0,0.0014894652413204312
1536.0,0.001354893553070724
1664.0,0.001335629727691412
1792.0,0.001025416306219995
1920.0,0.0009528061491437256
2048.0,0.001172441290691495
2304.0,0.0013112325686961412
2560.0,0.0012790514156222343
2816.0,-0.000746408652048558
3072.0,0.0004371178220026195
3328.0,-0.0003335755318403244
3584.0,-0.0008816314511932433
3840.0,-0.00027725051040761173
4096.0,0.0002424940757919103
4608.0,0.0008975969976745546
5120.0,0.0005730278207920492
5632.0,-0.0011964174918830395
6144.0,-0.0007184385322034359
6656.0,0.00040889671072363853
7168.0,-0.0007007935200817883
7680.0,-0.0008237393340095878
8192.0,-0.00236259656958282
end
