version,3.0
numOfCh,1
type,point
parent_name,ff67b_0dot6-0dot1
ch_type,1_1
kcount,1
numberNandB,1
brightnessNandB,1
carpet pos,0
pc,0
Time (ms),CH1 Auto-Correlation
1.0,0.020103702321648598
2.0,0.018947390839457512
3.0,0.017889071255922318
4.0,0.01690397597849369
5.0,0.01599639654159546
6.0,0.015165993943810463
7.0,0.014412224292755127
8.0,0.013752822764217854
9.0,0.013130567036569118
10.0,0.012540892697870731
11.0,0.012008221819996834
12.0,0.01149032637476921
13.0,0.010982532985508442
14.0,0.010518853552639484
15.0,0.010098673403263092
16.0,0.009728983975946903
18.0,0.009025883860886097
20.0,0.008361712098121643
22.0,0.0077432068064808846
24.0,0.00718482444062829
26.0,0.006748075131326914
28.0,0.006399058736860752
30.0,0.006135687697678804
32.0,0.005917226430028677
36.0,0.005380183923989534
40.0,0.004842954687774181
44.0,0.0044385832734405994
48.0,0.004135884344577789
52.0,0.0038359288591891527
56.0,0.0034999996423721313
60.0,0.003313328605145216
64.0,0.003217943711206317
72.0,0.00297490949742496
80.0,0.002704047132283449
88.0,0.002391100162640214
96.0,0.0018488812493160367
104.0,0.0012446821201592684
112.0,0.0010250476188957691
120.0,0.0014276732690632343
128.0,0.0017575997626408935
144.0,0.001582129392772913
160.0,0.0012075572740286589
176.0,0.0011582860024645925
192.0,0.0005495348013937473
208.0,-2.3099188183550723e-05
224.0,7.619746611453593e-05
240.0,0.00017066400323528796
256.0,0.0003979913017246872
288.0,0.0007068449631333351
320.0,0.0006868052878417075
352.0,0.0002448598388582468
384.0,0.0004965418484061956
416.0,0.0002402249665465206
448.0,0.0004057281475979835
480.0,0.000823107548058033
512.0,0.0008048315066844225
576.0,0.0014588098274543881
640.0,0.0009399201371707022
704.0,0.00012597977183759212
768.0,0.00021463620942085981
832.0,0.0005857599899172783
896.0,0.0008045905851759017
960.0,-0.000433807639637962
1024.0,-0.0005257405573502183
1152.0,-0.00018282109522260725
1280.0,0.0007814700365997851
1408.0,0.0009263658430427313
1536.0,0.0010101107181981206
1664.0,0.0017223124159500003
1792.0,6.804817530792207e-05
1920.0,0.0001230951602337882
2048.0,-0.0001781544415280223
2304.0,0.0003039434377569705
2560.0,-0.0003337625239510089
2816.0,-0.00031675357604399323
3072.0,9.31799368117936e-05
3328.0,-0.0006863755988888443
3584.0,-0.0004394287243485451
3840.0,-0.00017908737936522812
4096.0,-0.00047309190267696977
4608.0,0.00015520861779805273
5120.0,0.0011868851725012064
5632.0,0.00014984008157625794
6144.0,-0.0007304927567020059
6656.0,2.8417087378329597e-05
7168.0,-7.429089600918815e-05
7680.0,-0.0015533039113506675
8192.0,-0.0012320869136601686
end
