version,3.0
numOfCh,1
type,point
parent_name,ff67b_0dot6-0dot1
ch_type,1_1
kcount,1
numberNandB,1
brightnessNandB,1
carpet pos,0
pc,0
Time (ms),CH1 Auto-Correlation
1.0,0.02440568618476391
2.0,0.023207567632198334
3.0,0.022176137194037437
4.0,0.021255550906062126
5.0,0.020424650982022285
6.0,0.019673798233270645
7.0,0.018953869119286537
8.0,0.01833365298807621
9.0,0.01771516166627407
10.0,0.017140546813607216
11.0,0.016597842797636986
12.0,0.016067419201135635
13.0,0.01554172858595848
14.0,0.015047568827867508
15.0,0.014573406428098679
16.0,0.01414944976568222
18.0,0.01337256096303463
20.0,0.012671925127506256
22.0,0.01204556692391634
24.0,0.011531919240951538
26.0,0.011066409759223461
28.0,0.010568509809672832
30.0,0.010117817670106888
32.0,0.00980992242693901
36.0,0.009435778483748436
40.0,0.009034963324666023
44.0,0.00865261908620596
48.0,0.008372891694307327
52.0,0.00790513027459383
56.0,0.00735819386318326
60.0,0.0069682784378528595
64.0,0.006587038282305002
72.0,0.005818159319460392
80.0,0.005074609536677599
88.0,0.004780254792422056
96.0,0.004542450420558453
104.0,0.003999221604317427
112.0,0.003367326920852065
120.0,0.002691912464797497
128.0,0.0022297711111605167
144.0,0.0018509074579924345
160.0,0.0017284575151279569
176.0,0.001416209270246327
192.0,0.0009601773926988244
208.0,-4.364939741208218e-05
224.0,-0.00047378393355757
240.0,-0.0005014581838622689
256.0,-0.00013731030048802495
288.0,0.0005298260948620737
320.0,0.0011362447403371334
352.0,0.0018504938343539834
384.0,0.0011175947729498148
416.0,0.00015577061276417226
448.0,5.222828986006789e-05
480.0,-0.0011963401921093464
512.0,-0.0025200711097568274
576.0,-0.0013234743382781744
640.0,-0.0005196186830289662
704.0,-0.0004547601565718651
768.0,-0.000658405595459044
832.0,-0.00040887322393245995
896.0,-0.00027269774000160396
960.0,-0.0002723872603382915
1024.0,-0.0004960105870850384
1152.0,-0.0005784578388556838
1280.0,0.003029999788850546
1408.0,0.00029373017605394125
1536.0,-0.0006558923050761223
1664.0,0.0017583757871761918
1792.0,-0.000375593634089455
1920.0,-0.0012154070427641273
2048.0,0.0012736557982861996
2304.0,0.0020920124370604753
2560.0,0.0004727275809273124
2816.0,-0.0019071572460234165
3072.0,-0.001035061082802713
3328.0,-0.0006714744376949966
3584.0,0.0007706535398028791
3840.0,0.0005092548090033233
4096.0,-0.0005540209822356701
4608.0,-0.00026268220972269773
5120.0,-0.0007439290639013052
5632.0,0.0005021215765736997
6144.0,-0.0008999573183245957
6656.0,0.00045053011854179204
7168.0,-0.0014155874960124493
7680.0,0.0013531714212149382
8192.0,-0.0005117318360134959
end
