version,3.0
numOfCh,1
type,point
parent_name,ff67b_0dot2-0dot1
ch_type,1_1
kcount,1
numberNandB,1
brightnessNandB,1
carpet pos,0
pc,0
Time (ms),CH1 Auto-Correlation
1.0,0.06029834970831871
2.0,0.05886365845799446
3.0,0.05747563764452934
4.0,0.0561591312289238
5.0,0.05488055571913719
6.0,0.053649742156267166
7.0,0.052463967353105545
8.0,0.051334574818611145
9.0,0.05023787170648575
10.0,0.049205731600522995
11.0,0.048221148550510406
12.0,0.04726947471499443
13.0,0.046361275017261505
14.0,0.04550755023956299
15.0,0.04464414343237877
16.0,0.04380809888243675
18.0,0.04221291467547417
20.0,0.04067834094166756
22.0,0.03920929878950119
24.0,0.03781400993466377
26.0,0.03646395355463028
28.0,0.03520555421710014
30.0,0.034011464565992355
32.0,0.032894741743803024
36.0,0.030834652483463287
40.0,0.028989382088184357
44.0,0.027534086257219315
48.0,0.026445554569363594
52.0,0.02559233456850052
56.0,0.02454768680036068
60.0,0.02344498038291931
64.0,0.022422844544053078
72.0,0.02079543098807335
80.0,0.019495926797389984
88.0,0.01819336786866188
96.0,0.01722935400903225
104.0,0.016189655289053917
112.0,0.015245981514453888
120.0,0.014486989006400108
128.0,0.013918615877628326
144.0,0.010910345241427422
160.0,0.008295056410133839
176.0,0.007069997023791075
192.0,0.007068740203976631
208.0,0.006049849558621645
224.0,0.0064937034621834755
240.0,0.007032044231891632
256.0,0.006775196176022291
288.0,0.006018748506903648
320.0,0.0048523275181651115
352.0,0.0018703951500356197
384.0,-0.001358774839900434
416.0,-0.004194914363324642
448.0,-0.00636262958869338
480.0,-0.006511040031909943
512.0,-0.00798149686306715
576.0,-0.008418761193752289
640.0,-0.003945717588067055
704.0,-0.000253962236456573
768.0,0.0033937294501811266
832.0,0.002156921662390232
896.0,-0.00023163466539699584
960.0,-0.00030564723419956863
1024.0,0.0022246253211051226
1152.0,0.0018713122699409723
1280.0,-6.174363807076588e-05
1408.0,0.0010191405890509486
1536.0,0.00524594821035862
1664.0,0.0005414613988250494
1792.0,0.001932731713168323
1920.0,0.004287702031433582
2048.0,0.0037175938487052917
2304.0,-0.002850190969184041
2560.0,-0.003051596228033304
2816.0,0.0013402346521615982
3072.0,0.0006818030378781259
3328.0,-0.0061950115486979485
3584.0,-0.006258669309318066
3840.0,0.0003324073913972825
4096.0,0.004206756595522165
4608.0,-0.004152995999902487
5120.0,-0.002561091212555766
5632.0,0.0008517450769431889
6144.0,-0.0018955235136672854
6656.0,-0.005212622229009867
7168.0,0.0044626169838011265
7680.0,-0.004284612834453583
8192.0,0.0006040301523171365
end
