version,3.0
numOfCh,1
type,point
parent_name,ff67b_0dot2-0dot1
ch_type,1_1
kcount,1
numberNandB,1
brightnessNandB,1
carpet pos,0
pc,0
Time (ms),CH1 Auto-Correlation
1.0,0.060066137462854385
2.0,0.05867924913764
3.0,0.05734758451581001
4.0,0.05607292056083679
5.0,0.05490570515394211
6.0,0.05380050837993622
7.0,0.0527576319873333
8.0,0.05179908871650696
9.0,0.050814930349588394
10.0,0.049881331622600555
11.0,0.04901313781738281
12.0,0.04817628860473633
13.0,0.047329723834991455
14.0,0.04651574045419693
15.0,0.045755039900541306
16.0,0.0450560487806797
18.0,0.043704163283109665
20.0,0.04238954558968544
22.0,0.04116297513246536
24.0,0.03999007120728493
26.0,0.038904208689928055
28.0,0.03782575950026512
30.0,0.03675149008631706
32.0,0.03566161170601845
36.0,0.033507946878671646
40.0,0.03168861195445061
44.0,0.030263010412454605
48.0,0.029025504365563393
52.0,0.02784155309200287
56.0,0.02672666311264038
60.0,0.025652604177594185
64.0,0.024739637970924377
72.0,0.023072384297847748
80.0,0.021722959354519844
88.0,0.020185688510537148
96.0,0.018813859671354294
104.0,0.01739078387618065
112.0,0.015773773193359375
120.0,0.014285990968346596
128.0,0.012795987538993359
144.0,0.01130938995629549
160.0,0.01023151632398367
176.0,0.008673158474266529
192.0,0.007134235929697752
208.0,0.00586974760517478
224.0,0.0058622220531105995
240.0,0.007567066233605146
256.0,0.009013667702674866
288.0,0.010083962231874466
320.0,0.010583329014480114
352.0,0.009440818801522255
384.0,0.00860861036926508
416.0,0.00925329327583313
448.0,0.009066220372915268
480.0,0.008169312961399555
512.0,0.0064303139224648476
576.0,0.005054624751210213
640.0,0.0055593159049749374
704.0,0.009368800558149815
768.0,0.01352914422750473
832.0,0.010566417127847672
896.0,0.0060339877381920815
960.0,-0.002594932448118925
1024.0,-0.0037209924776107073
1152.0,0.0012572052655741572
1280.0,4.198370152153075e-05
1408.0,-0.002724098740145564
1536.0,-0.00014090175682213157
1664.0,-0.0009669771534390748
1792.0,-0.0033421432599425316
1920.0,0.0015648939879611135
2048.0,0.001248336979188025
2304.0,-2.674587994988542e-05
2560.0,0.003352582221850753
2816.0,-0.0007212665514089167
3072.0,-0.0033729909919202328
3328.0,0.00036383268889039755
3584.0,-0.0029482292011380196
3840.0,-0.0026171233039349318
4096.0,-0.005812466610223055
4608.0,-0.005671014077961445
5120.0,-0.005660622380673885
5632.0,-0.006664506625384092
6144.0,0.00032557419035583735
6656.0,-7.738346903352067e-05
7168.0,-0.0035629381891340017
7680.0,0.001114525250159204
8192.0,0.0024717324413359165
end
