version,3.0
numOfCh,1
type,point
parent_name,ff67b_0dot2-0dot1
ch_type,1_1
kcount,1
numberNandB,1
brightnessNandB,1
carpet pos,0
pc,0
Time (ms),CH1 Auto-Correlation
1.0,0.06055909022688866
2.0,0.059425391256809235
3.0,0.058365389704704285
4.0,0.05733976885676384
5.0,0.05636889487504959
6.0,0.05542350560426712
7.0,0.05450976639986038
8.0,0.05363401398062706
9.0,0.052804674953222275
10.0,0.05201872065663338
11.0,0.05124681442975998
12.0,0.050474703311920166
13.0,0.04973665624856949
14.0,0.04903999716043472
15.0,0.048391133546829224
16.0,0.04776255786418915
18.0,0.04655355215072632
20.0,0.045420777052640915
22.0,0.04440942406654358
24.0,0.04345327988266945
26.0,0.042562540620565414
28.0,0.04168887063860893
30.0,0.040899645537137985
32.0,0.04013967886567116
36.0,0.03864194080233574
40.0,0.03723202273249626
44.0,0.03594392538070679
48.0,0.034760404378175735
52.0,0.03367582708597183
56.0,0.03263792023062706
60.0,0.031717389822006226
64.0,0.030816415324807167
72.0,0.029110988602042198
80.0,0.02758656069636345
88.0,0.026328813284635544
96.0,0.02513594925403595
104.0,0.023939164355397224
112.0,0.022429209202528
120.0,0.02094947174191475
128.0,0.01988575980067253
144.0,0.018141839653253555
160.0,0.016515269875526428
176.0,0.016084209084510803
192.0,0.015732334926724434
208.0,0.014299705624580383
224.0,0.012730013579130173
240.0,0.011917770840227604
256.0,0.011968434788286686
288.0,0.010902637615799904
320.0,0.009660659357905388
352.0,0.010495641268789768
384.0,0.011463657952845097
416.0,0.01012712623924017
448.0,0.010577410459518433
480.0,0.011645866557955742
512.0,0.010857271030545235
576.0,0.007536647841334343
640.0,0.008226520381867886
704.0,0.009763160720467567
768.0,0.009696424007415771
832.0,0.00853367242962122
896.0,0.0065418691374361515
960.0,0.0033540085423737764
1024.0,-0.00020974826475139707
1152.0,-0.0016019555041566491
1280.0,-0.0010330603690817952
1408.0,0.0005303042707964778
1536.0,0.001322931726463139
1664.0,-0.00030627514934167266
1792.0,-0.004204567056149244
1920.0,-0.0041093830950558186
2048.0,-0.006634753197431564
2304.0,-0.002420544158667326
2560.0,-0.002160359639674425
2816.0,0.00011457869550213218
3072.0,-0.0018011706415563822
3328.0,0.0003913028340321034
3584.0,-0.00559799512848258
3840.0,-0.005436778999865055
4096.0,-0.0007462137145921588
4608.0,-0.0042528570629656315
5120.0,-0.001451353426091373
5632.0,0.0009877170668914914
6144.0,0.009003070183098316
6656.0,0.007638958282768726
7168.0,0.003307897364720702
7680.0,-0.004341950640082359
8192.0,-0.00811395887285471
end
