version,3.0
numOfCh,1
type,point
parent_name,ff67b_0dot2-0dot1
ch_type,1_1
kcount,1
numberNandB,1
brightnessNandB,1
carpet pos,0
pc,0
Time (ms),CH1 Auto-Correlation
1.0,0.0661853700876236
2.0,0.06481954455375671
3.0,0.06349169462919235
4.0,0.06223377212882042
5.0,0.06104735657572746
6.0,0.05990211293101311
7.0,0.05882949382066727
8.0,0.057832829654216766
9.0,0.056854426860809326
10.0,0.05584589019417763
11.0,0.05489243194460869
12.0,0.05393683910369873
13.0,0.05304611474275589
14.0,0.05218793824315071
15.0,0.05136056989431381
16.0,0.050579119473695755
18.0,0.04900958389043808
20.0,0.047503914684057236
22.0,0.04616010561585426
24.0,0.044943809509277344
26.0,0.04379037395119667
28.0,0.04274860396981239
30.0,0.041699979454278946
32.0,0.04075094312429428
36.0,0.038962334394454956
40.0,0.037339191883802414
44.0,0.03589882329106331
48.0,0.034640178084373474
52.0,0.033667124807834625
56.0,0.03258278965950012
60.0,0.03132180497050285
64.0,0.0301302932202816
72.0,0.028167350217700005
80.0,0.026084216311573982
88.0,0.023613587021827698
96.0,0.021333148702979088
104.0,0.019457099959254265
112.0,0.018010618165135384
120.0,0.01714373752474785
128.0,0.016380835324525833
144.0,0.016538523137569427
160.0,0.017018647864460945
176.0,0.016720788553357124
192.0,0.01657819375395775
208.0,0.01565038226544857
224.0,0.01398745458573103
240.0,0.013696171343326569
256.0,0.013402897864580154
288.0,0.011610403656959534
320.0,0.01072837132960558
352.0,0.00939374789595604
384.0,0.008058634586632252
416.0,0.007277172990143299
448.0,0.006335569079965353
480.0,0.006273301783949137
512.0,0.0050928909331560135
576.0,0.004874709062278271
640.0,0.00462272297590971
704.0,0.0028178386855870485
768.0,0.003180495463311672
832.0,0.001411454170010984
896.0,-0.0013201356632634997
960.0,0.003791417693719268
1024.0,0.004342988133430481
1152.0,0.0032802801579236984
1280.0,-0.0009004593593999743
1408.0,-0.0051584625616669655
1536.0,-0.006725205574184656
1664.0,-0.005237182602286339
1792.0,-0.002160164061933756
1920.0,-0.0015463422751054168
2048.0,0.0005617446731775999
2304.0,2.631486040627351e-06
2560.0,-0.0027692194562405348
2816.0,0.003427854971960187
3072.0,-0.0011973667424172163
3328.0,-0.010038130916655064
3584.0,-0.008292824029922485
3840.0,-0.005405815318226814
4096.0,-0.005361572373658419
4608.0,-0.007210246752947569
5120.0,-0.004831600934267044
5632.0,0.004280907567590475
6144.0,-0.0005089548649266362
6656.0,0.004029208794236183
7168.0,-0.0023175266105681658
7680.0,0.0013679988915100694
8192.0,0.002011102857068181
end
