version,3.0
numOfCh,1
type,point
parent_name,ff67b_0dot2-0dot1
ch_type,1_1
kcount,1
numberNandB,1
brightnessNandB,1
carpet pos,0
pc,0
Time (ms),CH1 Auto-Correlation
1.0,0.08033809810876846
2.0,0.07909921556711197
3.0,0.07794147729873657
4.0,0.07683877646923065
5.0,0.07577770203351974
6.0,0.07474774867296219
7.0,0.07377039641141891
8.0,0.07285623252391815
9.0,0.07196827977895737
10.0,0.0710749551653862
11.0,0.07023325562477112
12.0,0.06940692663192749
13.0,0.06858307868242264
14.0,0.06775966286659241
15.0,0.06698557734489441
16.0,0.06626029312610626
18.0,0.06489241123199463
20.0,0.06359408050775528
22.0,0.06233934313058853
24.0,0.06118783727288246
26.0,0.06019684299826622
28.0,0.05927913635969162
30.0,0.0583643801510334
32.0,0.05743079259991646
36.0,0.055614717304706573
40.0,0.05391308292746544
44.0,0.05248330533504486
48.0,0.051136452704668045
52.0,0.049729593098163605
56.0,0.0482155904173851
60.0,0.04686374217271805
64.0,0.0456295982003212
72.0,0.04315667971968651
80.0,0.041213322430849075
88.0,0.040046148002147675
96.0,0.03894668072462082
104.0,0.03778804466128349
112.0,0.036505021154880524
120.0,0.03531178832054138
128.0,0.034272681921720505
144.0,0.032583799213171005
160.0,0.030138328671455383
176.0,0.028227800503373146
192.0,0.02709559164941311
208.0,0.02656676061451435
224.0,0.025883391499519348
240.0,0.024338506162166595
256.0,0.023965289816260338
288.0,0.023176295682787895
320.0,0.02172522246837616
352.0,0.01845281384885311
384.0,0.017099343240261078
416.0,0.01927618496119976
448.0,0.02113507315516472
480.0,0.023583082482218742
512.0,0.02323407679796219
576.0,0.020591139793395996
640.0,0.01945284940302372
704.0,0.018763570114970207
768.0,0.017356330528855324
832.0,0.015346651896834373
896.0,0.01267636101692915
960.0,0.009751738980412483
1024.0,0.00859383400529623
1152.0,0.010709629394114017
1280.0,0.014407363720238209
1408.0,0.01497148722410202
1536.0,0.012943830341100693
1664.0,0.011111288331449032
1792.0,0.01185386348515749
1920.0,0.014294227585196495
2048.0,0.01329588983207941
2304.0,0.006822387222200632
2560.0,0.002441919408738613
2816.0,-0.0001942556700669229
3072.0,-0.0033322623930871487
3328.0,-0.004067064728587866
3584.0,-0.0050875479355454445
3840.0,-0.005910910200327635
4096.0,-0.008547329343855381
4608.0,-0.01418905146420002
5120.0,-0.017542636021971703
5632.0,-0.013058450073003769
6144.0,-0.013932324014604092
6656.0,-0.015255885198712349
7168.0,-0.01348333340138197
7680.0,-0.0032867335248738527
8192.0,0.00028251242474652827
end
