version,3.0
numOfCh,1
type,point
parent_name,ff67b_0dot2-0dot1
ch_type,1_1
kcount,1
numberNandB,1
brightnessNandB,1
carpet pos,0
pc,0
Time (ms),CH1 Auto-Correlation
1.0,0.13865384459495544
2.0,0.1309136301279068
3.0,0.1231267899274826
4.0,0.1157364472746849
5.0,0.10893256962299347
6.0,0.1027309000492096
7.0,0.09591799974441528
8.0,0.0885419249534607
9.0,0.08084428310394287
10.0,0.07306723296642303
11.0,0.06542270630598068
12.0,0.05929216742515564
13.0,0.05790705233812332
14.0,0.05666060000658035
15.0,0.05547703802585602
16.0,0.05431554466485977
18.0,0.05206368863582611
20.0,0.05073094740509987
22.0,0.049358174204826355
24.0,0.04806194454431534
26.0,0.046792421489953995
28.0,0.045420750975608826
30.0,0.04433292895555496
32.0,0.04343463107943535
36.0,0.04160827770829201
40.0,0.03985283151268959
44.0,0.03788260370492935
48.0,0.03577372804284096
52.0,0.033305998891592026
56.0,0.031244512647390366
60.0,0.029268022626638412
64.0,0.027896519750356674
72.0,0.026914022862911224
80.0,0.025101453065872192
88.0,0.021985316649079323
96.0,0.020114237442612648
104.0,0.020021170377731323
112.0,0.019447535276412964
120.0,0.019015878438949585
128.0,0.01713091880083084
144.0,0.014291999861598015
160.0,0.014306968078017235
176.0,0.01316081639379263
192.0,0.012055995874106884
208.0,0.00936880148947239
224.0,0.0069410610012710094
240.0,0.002995841670781374
256.0,0.0009191024582833052
288.0,0.001073551713488996
320.0,-0.0002959591511171311
352.0,-0.0026246586348861456
384.0,-0.004715047311037779
416.0,-0.004105174448341131
448.0,-0.0029826839454472065
480.0,-0.0011018470395356417
512.0,-0.0007428772514685988
576.0,-0.0014205529587343335
640.0,0.0017209117067977786
704.0,0.0023943567648530006
768.0,0.0017442830139771104
832.0,-0.0028769494965672493
896.0,0.00010205679427599534
960.0,-0.0010697687976062298
1024.0,-0.0015169037505984306
1152.0,0.0014645458431914449
1280.0,-0.0016759292921051383
1408.0,-0.003256435738876462
1536.0,0.0012333515333011746
1664.0,0.005638581234961748
1792.0,-0.001618644455447793
1920.0,0.003080968977883458
2048.0,0.0023488153237849474
2304.0,-0.0008845836273394525
2560.0,-0.008577967062592506
2816.0,0.004289538133889437
3072.0,0.008336525410413742
3328.0,0.0008191310917027295
3584.0,-0.006887008436024189
3840.0,-0.004232744220644236
4096.0,-0.004646396730095148
4608.0,-0.0007977999630384147
5120.0,0.002449914813041687
5632.0,-0.0007439925684593618
6144.0,-0.0009040707373060286
6656.0,4.342343163443729e-05
7168.0,0.0026803191285580397
7680.0,0.0018726829439401627
8192.0,0.0058785369619727135
end
