version,3.0
numOfCh,1
type,point
parent_name,ff67b_0dot2-0dot1
ch_type,1_1
kcount,1
numberNandB,1
brightnessNandB,1
carpet pos,0
pc,0
Time (ms),CH1 Auto-Correlation
1.0,0.07069842517375946
2.0,0.0689513087272644
3.0,0.06740406900644302
4.0,0.06601335108280182
5.0,0.06469638645648956
6.0,0.06338036805391312
7.0,0.0621604286134243
8.0,0.06094397231936455
9.0,0.05976267531514168
10.0,0.058616526424884796
11.0,0.057522088289260864
12.0,0.056478433310985565
13.0,0.05551749840378761
14.0,0.05457593500614166
15.0,0.05375611037015915
16.0,0.0529506653547287
18.0,0.05129725858569145
20.0,0.0495527982711792
22.0,0.04803215339779854
24.0,0.04658897966146469
26.0,0.04519297182559967
28.0,0.043898873031139374
30.0,0.04262576997280121
32.0,0.04145748168230057
36.0,0.039237529039382935
40.0,0.0372445322573185
44.0,0.03550790995359421
48.0,0.03386421129107475
52.0,0.03217366337776184
56.0,0.030450841411948204
60.0,0.028729351237416267
64.0,0.027100833132863045
72.0,0.023913541808724403
80.0,0.02091231755912304
88.0,0.017848912626504898
96.0,0.015194741077721119
104.0,0.01315887738019228
112.0,0.011946978978812695
120.0,0.010731528513133526
128.0,0.009260102175176144
144.0,0.005853533279150724
160.0,0.0030677199829369783
176.0,0.0023584282025694847
192.0,0.001980236265808344
208.0,0.003216513665392995
224.0,0.004733823239803314
240.0,0.005864806938916445
256.0,0.006656042765825987
288.0,0.005887332372367382
320.0,0.004394695162773132
352.0,0.002965404186397791
384.0,0.0036459388211369514
416.0,0.004337129648774862
448.0,0.004556319676339626
480.0,0.009198752231895924
512.0,0.010988605208694935
576.0,0.008819915354251862
640.0,0.0072359079495072365
704.0,-0.001004386111162603
768.0,-0.005620839074254036
832.0,-0.006831112317740917
896.0,-0.0061396267265081406
960.0,-0.004398173186928034
1024.0,-0.0029504720587283373
1152.0,-0.003256428288295865
1280.0,-0.005095922853797674
1408.0,-0.009096287190914154
1536.0,-0.00843991432338953
1664.0,-0.007751903031021357
1792.0,-0.008647342212498188
1920.0,-0.013788048177957535
2048.0,-0.006369695998728275
2304.0,-0.004107355140149593
2560.0,0.0020409419666975737
2816.0,0.003168467665091157
3072.0,0.005830352660268545
3328.0,0.0036645163781940937
3584.0,0.0019036612939089537
3840.0,0.002448208397254348
4096.0,-0.002569102216511965
4608.0,-0.0035866135731339455
5120.0,-0.0036932004150003195
5632.0,0.0017500296235084534
6144.0,0.00495684240013361
6656.0,0.004015870857983828
7168.0,0.00043204534449614584
7680.0,-0.008464468643069267
8192.0,3.404526796657592e-05
end
