version,3.0
numOfCh,1
type,point
parent_name,ff67b_0dot2-0dot1
ch_type,1_1
kcount,1
numberNandB,1
brightnessNandB,1
carpet pos,0
pc,0
Time (ms),CH1 Auto-Correlation
1.0,0.10646446794271469
2.0,0.1038203313946724
3.0,0.10128472745418549
4.0,0.098957359790802
5.0,0.09644274413585663
6.0,0.0938924103975296
7.0,0.09138170629739761
8.0,0.08871878683567047
9.0,0.08593323826789856
10.0,0.08305681496858597
11.0,0.08038590103387833
12.0,0.07786157727241516
13.0,0.07548300176858902
14.0,0.07324612140655518
15.0,0.071160688996315
16.0,0.06928456574678421
18.0,0.06378433108329773
20.0,0.06215662136673927
22.0,0.06078590825200081
24.0,0.05941931530833244
26.0,0.05822454392910004
28.0,0.057163238525390625
30.0,0.056118618696928024
32.0,0.05509165674448013
36.0,0.05336783453822136
40.0,0.05158775672316551
44.0,0.04964291676878929
48.0,0.04769686982035637
52.0,0.046090781688690186
56.0,0.0448932908475399
60.0,0.04378048703074455
64.0,0.04275968670845032
72.0,0.04094480350613594
80.0,0.0390775166451931
88.0,0.03771466389298439
96.0,0.036418817937374115
104.0,0.03481151908636093
112.0,0.03362160176038742
120.0,0.033035214990377426
128.0,0.03220788761973381
144.0,0.03085176832973957
160.0,0.029298502951860428
176.0,0.028157906606793404
192.0,0.02779230661690235
208.0,0.027285555377602577
224.0,0.02635888382792473
240.0,0.02529442310333252
256.0,0.024994872510433197
288.0,0.024129759520292282
320.0,0.02386890910565853
352.0,0.02257889322936535
384.0,0.02057238295674324
416.0,0.02054411545395851
448.0,0.01923973113298416
480.0,0.016311977058649063
512.0,0.01279313862323761
576.0,0.006598744075745344
640.0,0.005425971932709217
704.0,0.007906490005552769
768.0,0.007252205163240433
832.0,0.00705377571284771
896.0,0.004688488785177469
960.0,0.0025260429829359055
1024.0,0.004742935765534639
1152.0,0.007142964750528336
1280.0,0.002462205942720175
1408.0,0.0023493869230151176
1536.0,0.00846842210739851
1664.0,0.008618492633104324
1792.0,0.010181872174143791
1920.0,0.017863400280475616
2048.0,0.012828712351620197
2304.0,0.0021683620288968086
2560.0,8.02079593995586e-05
2816.0,0.006604943890124559
3072.0,0.008682276122272015
3328.0,0.0002867746807169169
3584.0,-0.002357581164687872
3840.0,0.005834269803017378
4096.0,0.004939455538988113
4608.0,-0.006195200607180595
5120.0,-0.0072167678736150265
5632.0,-0.01991911232471466
6144.0,-0.012299736961722374
6656.0,-0.01764526218175888
7168.0,-0.01654427871108055
7680.0,-0.01933726668357849
8192.0,-0.0066530960611999035
end
