version,3.0
numOfCh,1
type,point
parent_name,ff67b_0dot2-0dot1
ch_type,1_1
kcount,1
numberNandB,1
brightnessNandB,1
carpet pos,0
pc,0
Time (ms),CH1 Auto-Correlation
1.0,0.07389723509550095
2.0,0.07269273698329926
3.0,0.07153671979904175
4.0,0.0704149380326271
5.0,0.06930538266897202
6.0,0.06821853667497635
7.0,0.06713830679655075
8.0,0.0660952478647232
9.0,0.06510242819786072
10.0,0.06414566934108734
11.0,0.0632331520318985
12.0,0.06235400214791298
13.0,0.06148272380232811
14.0,0.060645364224910736
15.0,0.05984048917889595
16.0,0.05906644091010094
18.0,0.05756618082523346
20.0,0.05615071579813957
22.0,0.05479123815894127
24.0,0.05350165441632271
26.0,0.05231519788503647
28.0,0.051314592361450195
30.0,0.05041341856122017
32.0,0.049501366913318634
36.0,0.047812070697546005
40.0,0.04639364033937454
44.0,0.04522700235247612
48.0,0.04407744109630585
52.0,0.042838308960199356
56.0,0.041603218764066696
60.0,0.040531303733587265
64.0,0.03960786387324333
72.0,0.037358518689870834
80.0,0.03519703447818756
88.0,0.03342040255665779
96.0,0.03242075443267822
104.0,0.03180668130517006
112.0,0.03123948909342289
120.0,0.030803196132183075
128.0,0.030305931344628334
144.0,0.029127513989806175
160.0,0.02819926105439663
176.0,0.026314638555049896
192.0,0.024297025054693222
208.0,0.023044155910611153
224.0,0.021838974207639694
240.0,0.019792726263403893
256.0,0.01816532574594021
288.0,0.016457445919513702
320.0,0.01378710102289915
352.0,0.01249200850725174
384.0,0.012052497826516628
416.0,0.012896114028990269
448.0,0.013326424174010754
480.0,0.01336741540580988
512.0,0.014230910688638687
576.0,0.01152019388973713
640.0,0.00837640929967165
704.0,0.005193860270082951
768.0,0.0015352368354797363
832.0,0.0011259085731580853
896.0,0.003126452909782529
960.0,0.0038874922320246696
1024.0,0.0032656225375831127
1152.0,0.001096320222131908
1280.0,-0.0029292700346559286
1408.0,-0.0072194053791463375
1536.0,-0.006022040266543627
1664.0,-0.0037400340661406517
1792.0,-0.005703258328139782
1920.0,-0.0084310257807374
2048.0,-0.009042588993906975
2304.0,-0.010231037624180317
2560.0,-0.012017291970551014
2816.0,-0.009271484799683094
3072.0,-0.0075955563224852085
3328.0,-0.003036174224689603
3584.0,-0.004698895383626223
3840.0,-0.0047680968418717384
4096.0,-0.0022509731352329254
4608.0,0.0030918156262487173
5120.0,0.005569023080170155
5632.0,0.008386349305510521
6144.0,-0.0028124493546783924
6656.0,-0.0005506363231688738
7168.0,-0.009221228770911694
7680.0,0.0024753864854574203
8192.0,-0.004879754036664963
end
