version,3.0
numOfCh,1
type,point
parent_name,ff67b_0dot2-0dot1
ch_type,1_1
kcount,1
numberNandB,1
brightnessNandB,1
carpet pos,0
pc,0
Time (ms),CH1 Auto-Correlation
1.0,0.06118514761328697
2.0,0.059799570590257645
3.0,0.05840799957513809
4.0,0.05707798898220062
5.0,0.05579373240470886
6.0,0.054564472287893295
7.0,0.05343099683523178
8.0,0.05232430249452591
9.0,0.05130255967378616
10.0,0.05032692477107048
11.0,0.049422502517700195
12.0,0.04859287664294243
13.0,0.047830771654844284
14.0,0.047117605805397034
15.0,0.046416860073804855
16.0,0.04572989419102669
18.0,0.04444125294685364
20.0,0.04323427379131317
22.0,0.04210225120186806
24.0,0.0410347506403923
26.0,0.0400586873292923
28.0,0.039149027317762375
30.0,0.03832782804965973
32.0,0.03752845153212547
36.0,0.0358688160777092
40.0,0.034276220947504044
44.0,0.0327095091342926
48.0,0.031192824244499207
52.0,0.02962534874677658
56.0,0.0280828345566988
60.0,0.02656695432960987
64.0,0.025143975391983986
72.0,0.022922879084944725
80.0,0.021343229338526726
88.0,0.020308842882514
96.0,0.01974523440003395
104.0,0.018907936289906502
112.0,0.017511701211333275
120.0,0.016510581597685814
128.0,0.016121992841362953
144.0,0.01627739518880844
160.0,0.01606440730392933
176.0,0.016026781871914864
192.0,0.016501404345035553
208.0,0.01695164106786251
224.0,0.01642618700861931
240.0,0.014982964843511581
256.0,0.01375594176352024
288.0,0.010288527235388756
320.0,0.007363735232502222
352.0,0.006205352488905191
384.0,0.008002457208931446
416.0,0.010716731660068035
448.0,0.012191136367619038
480.0,0.010833919048309326
512.0,0.006853233091533184
576.0,0.007058992516249418
640.0,0.0041587031446397305
704.0,0.0008153220405802131
768.0,-0.0026062605902552605
832.0,-0.00286640296690166
896.0,-0.0039506228640675545
960.0,-0.006136088166385889
1024.0,-0.007190927863121033
1152.0,-0.009825137443840504
1280.0,-0.0029246655758470297
1408.0,-0.005687971133738756
1536.0,-0.0034001111052930355
1664.0,-0.0018453559605404735
1792.0,0.004207027610391378
1920.0,0.005006118677556515
2048.0,0.010690565221011639
2304.0,0.008932230062782764
2560.0,0.0008287414675578475
2816.0,-0.0052431910298764706
3072.0,-0.010182156227529049
3328.0,-0.014796577394008636
3584.0,-0.015435583889484406
3840.0,-0.01058986783027649
4096.0,-0.0040553268045187
4608.0,-0.0030918687116354704
5120.0,-0.004127028863877058
5632.0,-0.005450227297842503
6144.0,0.0042505282908678055
6656.0,0.009675179608166218
7168.0,0.008645415306091309
7680.0,0.0018427231116220355
8192.0,0.005583489779382944
end
