version,3.0
numOfCh,1
type,point
parent_name,ff67b_0dot2-0dot1
ch_type,1_1
kcount,1
numberNandB,1
brightnessNandB,1
carpet pos,0
pc,0
Time (ms),CH1 Auto-Correlation
1.0,0.0631481409072876
2.0,0.06186141073703766
3.0,0.060598619282245636
4.0,0.05939995124936104
5.0,0.05825388804078102
6.0,0.057169172912836075
7.0,0.05611015483736992
8.0,0.05509031191468239
9.0,0.0541025809943676
10.0,0.05320087820291519
11.0,0.052340131253004074
12.0,0.05150055140256882
13.0,0.050676699727773666
14.0,0.04987937957048416
15.0,0.049089111387729645
16.0,0.04833056032657623
18.0,0.046826645731925964
20.0,0.04548404738306999
22.0,0.044241566210985184
24.0,0.043072108179330826
26.0,0.04190140962600708
28.0,0.04075118154287338
30.0,0.039650510996580124
32.0,0.03868779167532921
36.0,0.0369110107421875
40.0,0.03527674823999405
44.0,0.03375035524368286
48.0,0.03212989494204521
52.0,0.03086940012872219
56.0,0.02996676042675972
60.0,0.028948653489351273
64.0,0.028078662231564522
72.0,0.026073317974805832
80.0,0.024145763367414474
88.0,0.022559288889169693
96.0,0.021294446662068367
104.0,0.02000480517745018
112.0,0.01933121494948864
120.0,0.018818017095327377
128.0,0.018406227231025696
144.0,0.017956610769033432
160.0,0.016340574249625206
176.0,0.013925284147262573
192.0,0.012651807628571987
208.0,0.011810162104666233
224.0,0.012065823189914227
240.0,0.013065881095826626
256.0,0.013162647373974323
288.0,0.012764683924615383
320.0,0.011578151024878025
352.0,0.008222103118896484
384.0,0.0063524129800498486
416.0,0.006336898077279329
448.0,0.003990442957729101
480.0,0.0037092003040015697
512.0,0.0034955590963363647
576.0,0.003901009913533926
640.0,0.0012350103352218866
704.0,0.0008027344010770321
768.0,-3.7869293009862304e-05
832.0,-0.001818250399082899
896.0,-0.0016762684099376202
960.0,-0.004659709520637989
1024.0,-0.0055058300495147705
1152.0,-0.003238685429096222
1280.0,0.0011188372736796737
1408.0,0.001736965263262391
1536.0,-0.0009588820394128561
1664.0,-0.0052477228455245495
1792.0,-0.006817128509283066
1920.0,-0.006765272468328476
2048.0,-0.005059512797743082
2304.0,-0.0026097125373780727
2560.0,0.0021414156071841717
2816.0,0.005169590935111046
3072.0,0.005803920794278383
3328.0,0.005736232735216618
3584.0,0.0016229546163231134
3840.0,-0.0009656597394496202
4096.0,-0.0019352799281477928
4608.0,0.003613267559558153
5120.0,-0.005890594329684973
5632.0,0.0002661279868334532
6144.0,0.0040352013893425465
6656.0,-0.007772567216306925
7168.0,-0.00934383925050497
7680.0,-0.0031473012641072273
8192.0,-0.0005659609450958669
end
