version,3.0
numOfCh,1
type,point
parent_name,ff67b_0dot2-0dot1
ch_type,1_1
kcount,1
numberNandB,1
brightnessNandB,1
carpet pos,0
pc,0
Time (ms),CH1 Auto-Correlation
1.0,0.09464249014854431
2.0,0.09307560324668884
3.0,0.09167249500751495
4.0,0.0903855413198471
5.0,0.08927580714225769
6.0,0.08816669136285782
7.0,0.0870356559753418
8.0,0.08600973337888718
9.0,0.08513741940259933
10.0,0.08425643295049667
11.0,0.08317790925502777
12.0,0.08199038356542587
13.0,0.08096996694803238
14.0,0.08009018748998642
15.0,0.07911519706249237
16.0,0.07817880809307098
18.0,0.07623756676912308
20.0,0.07481086999177933
22.0,0.07339709997177124
24.0,0.07206510752439499
26.0,0.07081771641969681
28.0,0.0696798637509346
30.0,0.06867434829473495
32.0,0.06772864609956741
36.0,0.06554395705461502
40.0,0.06345860660076141
44.0,0.06133529171347618
48.0,0.059156809002161026
52.0,0.0571921207010746
56.0,0.05581513047218323
60.0,0.054868534207344055
64.0,0.05443442985415459
72.0,0.053784649819135666
80.0,0.052542924880981445
88.0,0.05078227072954178
96.0,0.048862431198358536
104.0,0.047334831207990646
112.0,0.046100225299596786
120.0,0.04443501681089401
128.0,0.04260852560400963
144.0,0.04081130772829056
160.0,0.03890034183859825
176.0,0.03751005604863167
192.0,0.03637968748807907
208.0,0.034664515405893326
224.0,0.0315261147916317
240.0,0.029317477717995644
256.0,0.028559288010001183
288.0,0.02973365969955921
320.0,0.030425820499658585
352.0,0.029920853674411774
384.0,0.02767731063067913
416.0,0.027014797553420067
448.0,0.028937339782714844
480.0,0.03032519668340683
512.0,0.030816826969385147
576.0,0.03424476459622383
640.0,0.03252425044775009
704.0,0.02512207441031933
768.0,0.021868698298931122
832.0,0.020356226712465286
896.0,0.019885193556547165
960.0,0.022136516869068146
1024.0,0.02461511641740799
1152.0,0.027619270607829094
1280.0,0.02583468332886696
1408.0,0.02451448328793049
1536.0,0.02512367255985737
1664.0,0.02323925495147705
1792.0,0.02066761814057827
1920.0,0.018781369552016258
2048.0,0.01709948107600212
2304.0,0.012835641391575336
2560.0,0.014914409257471561
2816.0,0.005035557318478823
3072.0,0.00872921384871006
3328.0,-0.0001908747508423403
3584.0,-0.003006290877237916
3840.0,-0.014221466146409512
4096.0,-0.008907589130103588
4608.0,-0.014490519650280476
5120.0,-0.024667996913194656
5632.0,-0.023179398849606514
6144.0,-0.020612524822354317
6656.0,-0.021729564294219017
7168.0,-0.01743611879646778
7680.0,-0.012673428282141685
8192.0,-0.02061835117638111
end
