version,3.0
numOfCh,1
type,point
parent_name,ff67b_0dot2-0dot1
ch_type,1_1
kcount,1
numberNandB,1
brightnessNandB,1
carpet pos,0
pc,0
Time (ms),CH1 Auto-Correlation
1.0,0.07352957874536514
2.0,0.07224584370851517
3.0,0.07104723155498505
4.0,0.06987608969211578
5.0,0.06874864548444748
6.0,0.06760968267917633
7.0,0.06654005497694016
8.0,0.06542883068323135
9.0,0.06436782330274582
10.0,0.06340659409761429
11.0,0.06249222531914711
12.0,0.06163458898663521
13.0,0.06081560254096985
14.0,0.060021284967660904
15.0,0.05926215276122093
16.0,0.058541152626276016
18.0,0.05712993070483208
20.0,0.055724963545799255
22.0,0.054341062903404236
24.0,0.053004175424575806
26.0,0.05173085629940033
28.0,0.05047871917486191
30.0,0.0491718091070652
32.0,0.04797790199518204
36.0,0.0455692782998085
40.0,0.043289344757795334
44.0,0.041254304349422455
48.0,0.039506569504737854
52.0,0.03804711624979973
56.0,0.03673059865832329
60.0,0.03547287359833717
64.0,0.03423408418893814
72.0,0.03199372813105583
80.0,0.030657948926091194
88.0,0.029859604313969612
96.0,0.029638413339853287
104.0,0.02953767217695713
112.0,0.02911662869155407
120.0,0.028651924803853035
128.0,0.027663834393024445
144.0,0.02609235607087612
160.0,0.02487635798752308
176.0,0.02311493270099163
192.0,0.021383589133620262
208.0,0.019848298281431198
224.0,0.018352795392274857
240.0,0.01645563170313835
256.0,0.014935817569494247
288.0,0.014008351601660252
320.0,0.013127514161169529
352.0,0.010343559086322784
384.0,0.008515999652445316
416.0,0.007970539852976799
448.0,0.006390558555722237
480.0,0.004737389739602804
512.0,0.0035379305481910706
576.0,0.00035965931601822376
640.0,0.0011188541539013386
704.0,0.0006650335271842778
768.0,-0.002369350753724575
832.0,-0.005821414291858673
896.0,-0.007556245196610689
960.0,-0.007553549017757177
1024.0,-0.007695459760725498
1152.0,-0.009185566566884518
1280.0,-0.012748872861266136
1408.0,-0.013608496636152267
1536.0,-0.012482565827667713
1664.0,-0.011569829657673836
1792.0,-0.010992019437253475
1920.0,-0.009052724577486515
2048.0,-0.0037834346294403076
2304.0,0.0032454603351652622
2560.0,0.012780935503542423
2816.0,0.007741487585008144
3072.0,-0.0015102957841008902
3328.0,-0.005533804185688496
3584.0,-0.0008696724544279277
3840.0,0.0011629037326201797
4096.0,0.002564128255471587
4608.0,0.003529184265062213
5120.0,0.006882313173264265
5632.0,-0.010678046382963657
6144.0,-0.01564858667552471
6656.0,-0.008223502896726131
7168.0,0.0008262491319328547
7680.0,0.011480194516479969
8192.0,0.001232911366969347
end
