version,3.0
numOfCh,1
type,point
parent_name,ff67b_0dot2-0dot1
ch_type,1_1
kcount,1
numberNandB,1
brightnessNandB,1
carpet pos,0
pc,0
Time (ms),CH1 Auto-Correlation
1.0,0.06986479461193085
2.0,0.06863445043563843
3.0,0.06744071841239929
4.0,0.06633265316486359
5.0,0.06529596447944641
6.0,0.06429218500852585
7.0,0.0633169561624527
8.0,0.06238509714603424
9.0,0.06150835007429123
10.0,0.0606621652841568
11.0,0.05983734130859375
12.0,0.05902008339762688
13.0,0.0582476444542408
14.0,0.057497795671224594
15.0,0.056826524436473846
16.0,0.05618808791041374
18.0,0.05497356131672859
20.0,0.053806766867637634
22.0,0.05265536531805992
24.0,0.051518749445676804
26.0,0.05043603107333183
28.0,0.04938831180334091
30.0,0.04825109243392944
32.0,0.047051072120666504
36.0,0.044882211834192276
40.0,0.04309471324086189
44.0,0.041636355221271515
48.0,0.040248192846775055
52.0,0.03876567631959915
56.0,0.03724200278520584
60.0,0.035835377871990204
64.0,0.03459572792053223
72.0,0.03247123956680298
80.0,0.030636005103588104
88.0,0.028900206089019775
96.0,0.02670438028872013
104.0,0.0246640183031559
112.0,0.02338353730738163
120.0,0.022517569363117218
128.0,0.021239813417196274
144.0,0.018115036189556122
160.0,0.015365599654614925
176.0,0.013558289036154747
192.0,0.011725377291440964
208.0,0.010579490102827549
224.0,0.010239445604383945
240.0,0.010032927617430687
256.0,0.009596877731382847
288.0,0.009496072307229042
320.0,0.009071781300008297
352.0,0.008507826365530491
384.0,0.009356921538710594
416.0,0.008657536469399929
448.0,0.006576951127499342
480.0,0.0049653067253530025
512.0,0.0037562716752290726
576.0,0.002193325199186802
640.0,0.0005697600427083671
704.0,0.002496208529919386
768.0,0.0022056635934859514
832.0,0.0005728359683416784
896.0,0.0007898463518358767
960.0,0.0020589251071214676
1024.0,0.0011867558350786567
1152.0,0.00048407012945972383
1280.0,0.0033253501169383526
1408.0,-0.002624794142320752
1536.0,-0.005654898006469011
1664.0,-0.004729172680526972
1792.0,-0.004183735698461533
1920.0,-0.0020465669222176075
2048.0,0.004225882701575756
2304.0,-0.0002701107005123049
2560.0,-0.005007126834243536
2816.0,-0.009304657578468323
3072.0,-0.005272362846881151
3328.0,-0.0027356832288205624
3584.0,-0.007399241905659437
3840.0,-0.004931241739541292
4096.0,-0.0003079852613154799
4608.0,0.002229121048003435
5120.0,0.0022277331445366144
5632.0,0.0023230533115565777
6144.0,0.007340902462601662
6656.0,0.0061826761811971664
7168.0,-0.003238348290324211
7680.0,-0.00848590862005949
8192.0,-0.004006748087704182
end
