version,3.0
numOfCh,1
type,point
parent_name,ff67b_0dot2-0dot1
ch_type,1_1
kcount,1
numberNandB,1
brightnessNandB,1
carpet pos,0
pc,0
Time (ms),CH1 Auto-Correlation
1.0,0.07653570175170898
2.0,0.07490307837724686
3.0,0.0733647421002388
4.0,0.07195169478654861
5.0,0.07061044126749039
6.0,0.06936465203762054
7.0,0.06811574101448059
8.0,0.06687594205141068
9.0,0.06575219333171844
10.0,0.06468626111745834
11.0,0.06361047178506851
12.0,0.06258047372102737
13.0,0.06161794438958168
14.0,0.060655053704977036
15.0,0.05970732122659683
16.0,0.05871956795454025
18.0,0.05692291259765625
20.0,0.05521273985505104
22.0,0.053468991070985794
24.0,0.051798947155475616
26.0,0.050282225012779236
28.0,0.048692408949136734
30.0,0.04714467376470566
32.0,0.04580743983387947
36.0,0.04335418716073036
40.0,0.041277628391981125
44.0,0.039405882358551025
48.0,0.03780083358287811
52.0,0.036330875009298325
56.0,0.03483184427022934
60.0,0.033596061170101166
64.0,0.032740410417318344
72.0,0.03144622594118118
80.0,0.02995387837290764
88.0,0.028624556958675385
96.0,0.027969717979431152
104.0,0.026402056217193604
112.0,0.024990642443299294
120.0,0.024198273196816444
128.0,0.024207396432757378
144.0,0.024725710973143578
160.0,0.02523188292980194
176.0,0.023986689746379852
192.0,0.022601328790187836
208.0,0.020242759957909584
224.0,0.017941482365131378
240.0,0.016585256904363632
256.0,0.016047585755586624
288.0,0.015828246250748634
320.0,0.014150163158774376
352.0,0.012422221712768078
384.0,0.012012922205030918
416.0,0.0120363999158144
448.0,0.01421501487493515
480.0,0.01300776656717062
512.0,0.009752638638019562
576.0,0.0061371480114758015
640.0,0.004428324289619923
704.0,6.35338801657781e-06
768.0,0.0009056582930497825
832.0,0.0023417845368385315
896.0,0.001820229459553957
960.0,0.002545153722167015
1024.0,0.0008413488394580781
1152.0,0.0009176250314339995
1280.0,0.003848569467663765
1408.0,0.003468954237177968
1536.0,0.005942357238382101
1664.0,0.005872211419045925
1792.0,0.004651606548577547
1920.0,0.002865701913833618
2048.0,0.005413501523435116
2304.0,-0.0012518323492258787
2560.0,-0.0019127061823382974
2816.0,-0.004167555365711451
3072.0,-0.003618301125243306
3328.0,-0.009823286905884743
3584.0,-0.012837580405175686
3840.0,-0.012061739340424538
4096.0,-0.001718792598694563
4608.0,-0.0022902656346559525
5120.0,-0.005434970837086439
5632.0,-0.009086963720619678
6144.0,-0.020744280889630318
6656.0,-0.008119612000882626
7168.0,-0.0007092226878739893
7680.0,-0.007978073321282864
8192.0,0.00016122759552672505
end
