version,3.0
numOfCh,1
type,point
parent_name,ff67b_0dot2-0dot1
ch_type,1_1
kcount,1
numberNandB,1
brightnessNandB,1
carpet pos,0
pc,0
Time (ms),CH1 Auto-Correlation
1.0,0.06783147156238556
2.0,0.06663814932107925
3.0,0.06548550724983215
4.0,0.06437687575817108
5.0,0.06334491074085236
6.0,0.06235972419381142
7.0,0.061416734009981155
8.0,0.060506366193294525
9.0,0.059580620378255844
10.0,0.058637283742427826
11.0,0.057730782777071
12.0,0.05685772746801376
13.0,0.056018028408288956
14.0,0.055198367685079575
15.0,0.05439935624599457
16.0,0.05364133045077324
18.0,0.05217103660106659
20.0,0.05070383474230766
22.0,0.0492979995906353
24.0,0.04794769361615181
26.0,0.046636901795864105
28.0,0.04534251615405083
30.0,0.044108811765909195
32.0,0.04293952137231827
36.0,0.04084168002009392
40.0,0.03894840180873871
44.0,0.03711370378732681
48.0,0.035513170063495636
52.0,0.03399847075343132
56.0,0.03270677477121353
60.0,0.03156862035393715
64.0,0.030519815161824226
72.0,0.02842506766319275
80.0,0.02656485140323639
88.0,0.024847092106938362
96.0,0.022710269317030907
104.0,0.020475715398788452
112.0,0.01871873438358307
120.0,0.01744895614683628
128.0,0.015916500240564346
144.0,0.013396387919783592
160.0,0.011448166333138943
176.0,0.01023795735090971
192.0,0.009053656831383705
208.0,0.007918975315988064
224.0,0.0077981483191251755
240.0,0.008516212925314903
256.0,0.009366604499518871
288.0,0.01113322377204895
320.0,0.012704471126198769
352.0,0.01318153366446495
384.0,0.012534881010651588
416.0,0.012039773166179657
448.0,0.00839751586318016
480.0,0.004673445131629705
512.0,0.002233855426311493
576.0,-0.0021270576398819685
640.0,-0.003961019217967987
704.0,-0.004155317321419716
768.0,-0.0022933846339583397
832.0,0.0022523615043610334
896.0,-0.00021620449842885137
960.0,-0.0039021209813654423
1024.0,-0.005716771353036165
1152.0,-0.004570353776216507
1280.0,-0.0024527334608137608
1408.0,-0.007601187098771334
1536.0,-0.007659160066395998
1664.0,-0.002765307202935219
1792.0,-0.0003441867884248495
1920.0,-0.0021041755098849535
2048.0,-0.0036239810287952423
2304.0,-0.0007776801940053701
2560.0,-0.0005845349514856935
2816.0,-0.004471131134778261
3072.0,0.002347441390156746
3328.0,-0.004853370133787394
3584.0,-0.00025528171681798995
3840.0,0.0012167815584689379
4096.0,0.00123823550529778
4608.0,0.007763224188238382
5120.0,0.0040514422580599785
5632.0,0.0004079124191775918
6144.0,-0.001224037609063089
6656.0,-0.006636245176196098
7168.0,-0.006761819589883089
7680.0,-0.0070291562005877495
8192.0,-0.0014173595700412989
end
