version,3.0
numOfCh,1
type,point
parent_name,ff67b_0dot2-0dot1
ch_type,1_1
kcount,1
numberNandB,1
brightnessNandB,1
carpet pos,0
pc,0
Time (ms),CH1 Auto-Correlation
1.0,0.06309769302606583
2.0,0.06174929812550545
3.0,0.06052471324801445
4.0,0.05939527601003647
5.0,0.05831526592373848
6.0,0.05728340148925781
7.0,0.05629444867372513
8.0,0.055324144661426544
9.0,0.05441679805517197
10.0,0.05353470891714096
11.0,0.052667148411273956
12.0,0.05183637514710426
13.0,0.05103788152337074
14.0,0.05023926496505737
15.0,0.0494680255651474
16.0,0.04868891090154648
18.0,0.04723720997571945
20.0,0.04593895748257637
22.0,0.044605232775211334
24.0,0.04335540160536766
26.0,0.042149510234594345
28.0,0.040985941886901855
30.0,0.03989984840154648
32.0,0.038848794996738434
36.0,0.03682568296790123
40.0,0.034978464245796204
44.0,0.03342914581298828
48.0,0.031990524381399155
52.0,0.030513519421219826
56.0,0.029184751212596893
60.0,0.0279234629124403
64.0,0.02684067375957966
72.0,0.025361821055412292
80.0,0.02410910464823246
88.0,0.022807244211435318
96.0,0.020943671464920044
104.0,0.019385267049074173
112.0,0.018452545627951622
120.0,0.01751251518726349
128.0,0.016776246950030327
144.0,0.015499741770327091
160.0,0.01365303248167038
176.0,0.011438070796430111
192.0,0.00900926161557436
208.0,0.006947916001081467
224.0,0.005462237633764744
240.0,0.004639452323317528
256.0,0.0035478132776916027
288.0,0.0028376311529427767
320.0,0.0017962572164833546
352.0,0.0008595689432695508
384.0,0.003530098358169198
416.0,0.004998642485588789
448.0,0.005074333865195513
480.0,0.003904441837221384
512.0,0.003453208366408944
576.0,0.001838913420215249
640.0,0.0005875558126717806
704.0,0.002483902731910348
768.0,0.0027088860515505075
832.0,0.0009111543768085539
896.0,-0.004498909693211317
960.0,-0.007368483580648899
1024.0,-0.008398547768592834
1152.0,-0.006295322440564632
1280.0,0.00031291923369280994
1408.0,-0.002796758897602558
1536.0,-0.00019378162687644362
1664.0,0.0023172327782958746
1792.0,-0.0024367813020944595
1920.0,-0.00407597329467535
2048.0,-0.0016167493304237723
2304.0,-0.009919402189552784
2560.0,-0.010279640555381775
2816.0,-0.009195446036756039
3072.0,-0.002039521699771285
3328.0,0.003005867125466466
3584.0,0.003499280894175172
3840.0,0.003019872820004821
4096.0,-0.003382195020094514
4608.0,0.009342416189610958
5120.0,0.006882511544972658
5632.0,3.2980178730213083e-06
6144.0,-0.0021408337634056807
6656.0,-0.004079185426235199
7168.0,-0.0041269902139902115
7680.0,-0.008738380856812
8192.0,-0.005031997337937355
end
