version,3.0
numOfCh,1
type,point
parent_name,ff67b_0dot2-0dot1
ch_type,1_1
kcount,1
numberNandB,1
brightnessNandB,1
carpet pos,0
pc,0
Time (ms),CH1 Auto-Correlation
1.0,0.05764954909682274
2.0,0.05649356171488762
3.0,0.05538597330451012
4.0,0.05431288108229637
5.0,0.053268663585186005
6.0,0.05228942632675171
7.0,0.051338810473680496
8.0,0.05042466148734093
9.0,0.04956958442926407
10.0,0.04875335842370987
11.0,0.04796748608350754
12.0,0.047181058675050735
13.0,0.046444471925497055
14.0,0.045737773180007935
15.0,0.04503600671887398
16.0,0.044377077370882034
18.0,0.043111007660627365
20.0,0.041837338358163834
22.0,0.04061206057667732
24.0,0.03947899863123894
26.0,0.0384286530315876
28.0,0.0374554842710495
30.0,0.03649596869945526
32.0,0.035585980862379074
36.0,0.033941369503736496
40.0,0.03243652358651161
44.0,0.030910104513168335
48.0,0.029489632695913315
52.0,0.028301216661930084
56.0,0.027257263660430908
60.0,0.026076018810272217
64.0,0.025004971772432327
72.0,0.02329835295677185
80.0,0.021886687725782394
88.0,0.020600352436304092
96.0,0.019330136477947235
104.0,0.018178941681981087
112.0,0.017145592719316483
120.0,0.01613687165081501
128.0,0.015069165267050266
144.0,0.013010554015636444
160.0,0.01113812904804945
176.0,0.010170522145926952
192.0,0.010038521140813828
208.0,0.010806110687553883
224.0,0.01071842573583126
240.0,0.010090806521475315
256.0,0.008987829089164734
288.0,0.006991337984800339
320.0,0.00955968163907528
352.0,0.012713326141238213
384.0,0.01321483589708805
416.0,0.011537515558302402
448.0,0.008471038192510605
480.0,0.005161509849131107
512.0,0.0034539434127509594
576.0,0.0032715322449803352
640.0,0.0010634360369294882
704.0,0.0003980773326475173
768.0,0.0037872176617383957
832.0,0.002789091784507036
896.0,-0.00190444674808532
960.0,-0.004374976735562086
1024.0,-0.0029769516550004482
1152.0,-0.000646282744128257
1280.0,0.0021015615202486515
1408.0,-0.0027905558235943317
1536.0,-0.004665966611355543
1664.0,-0.003429129021242261
1792.0,-0.004044109024107456
1920.0,-0.0018049567006528378
2048.0,0.0008558478439226747
2304.0,0.003185042878612876
2560.0,0.004649044014513493
2816.0,0.0034598044585436583
3072.0,0.001314748078584671
3328.0,0.0006501352181658149
3584.0,-0.0022370764054358006
3840.0,-0.00021554215345531702
4096.0,0.0007033153669908643
4608.0,0.0051606278866529465
5120.0,0.0032717499416321516
5632.0,-0.0008296666201204062
6144.0,-0.006473149172961712
6656.0,-0.011375566944479942
7168.0,-0.005097194109112024
7680.0,-0.0003723955014720559
8192.0,0.0019242800772190094
end
