version,3.0
numOfCh,1
type,point
parent_name,ff67b_0dot2-0dot1
ch_type,1_1
kcount,1
numberNandB,1
brightnessNandB,1
carpet pos,0
pc,0
Time (ms),CH1 Auto-Correlation
1.0,0.13106229901313782
2.0,0.12433480471372604
3.0,0.11826014518737793
4.0,0.11242765188217163
5.0,0.10647682845592499
6.0,0.10017019510269165
7.0,0.09416384994983673
8.0,0.08801683783531189
9.0,0.08259225636720657
10.0,0.07684727013111115
11.0,0.07188861072063446
12.0,0.0672178715467453
13.0,0.062149032950401306
14.0,0.05630126968026161
15.0,0.050996556878089905
16.0,0.05005843564867973
18.0,0.04843657463788986
20.0,0.04681490734219551
22.0,0.045328326523303986
24.0,0.04401446133852005
26.0,0.04291383922100067
28.0,0.041921935975551605
30.0,0.04093639552593231
32.0,0.040030624717473984
36.0,0.03855886310338974
40.0,0.037251804023981094
44.0,0.03579693287611008
48.0,0.03439091518521309
52.0,0.033661600202322006
56.0,0.03319312259554863
60.0,0.033199768513441086
64.0,0.03322196379303932
72.0,0.03205408900976181
80.0,0.030298348516225815
88.0,0.029322059825062752
96.0,0.027571778744459152
104.0,0.025096917524933815
112.0,0.022795336320996284
120.0,0.022520828992128372
128.0,0.02370867133140564
144.0,0.024519622325897217
160.0,0.022470904514193535
176.0,0.01968085952103138
192.0,0.017259610816836357
208.0,0.014936602674424648
224.0,0.013215355575084686
240.0,0.015484093688428402
256.0,0.01448940858244896
288.0,0.012047423049807549
320.0,0.009703333489596844
352.0,0.006395536940544844
384.0,0.004704230930656195
416.0,0.0006548259989358485
448.0,-0.0003648223646450788
480.0,0.0012979073217138648
512.0,-0.0028885998763144016
576.0,-0.007884862832725048
640.0,-0.007509464863687754
704.0,-0.006429270375519991
768.0,-0.005152381956577301
832.0,-0.007304289843887091
896.0,-0.005273581016808748
960.0,-0.0033909701742231846
1024.0,-0.001980947330594063
1152.0,0.00021016325626987964
1280.0,0.002434877445921302
1408.0,0.006447596941143274
1536.0,0.004353922791779041
1664.0,0.0050615654326975346
1792.0,0.001111819059588015
1920.0,0.002218988724052906
2048.0,-0.00013920319906901568
2304.0,0.0012053821701556444
2560.0,-0.005555492825806141
2816.0,-0.0009249476133845747
3072.0,0.005326843820512295
3328.0,0.003771072719246149
3584.0,-0.00022934288426768035
3840.0,-0.006399777717888355
4096.0,-0.0078110783360898495
4608.0,0.009559949859976768
5120.0,-0.0005637712310999632
5632.0,-0.01394941657781601
6144.0,0.00914739165455103
6656.0,0.0036351599264889956
7168.0,-0.011483268812298775
7680.0,-0.005810945760458708
8192.0,0.007066085934638977
end
