version,3.0
numOfCh,1
type,point
parent_name,ff67b_0dot2-0dot1
ch_type,1_1
kcount,1
numberNandB,1
brightnessNandB,1
carpet pos,0
pc,0
Time (ms),CH1 Auto-Correlation
1.0,0.07612232118844986
2.0,0.07488201558589935
3.0,0.07369617372751236
4.0,0.07253076136112213
5.0,0.07147819548845291
6.0,0.07043150067329407
7.0,0.06944014132022858
8.0,0.06851843744516373
9.0,0.0676371157169342
10.0,0.06679626554250717
11.0,0.06594749540090561
12.0,0.06514133512973785
13.0,0.06435511261224747
14.0,0.06359804421663284
15.0,0.0628737360239029
16.0,0.06215255707502365
18.0,0.060834500938653946
20.0,0.05957479774951935
22.0,0.05842889845371246
24.0,0.05736083537340164
26.0,0.056259144097566605
28.0,0.05515751242637634
30.0,0.054092735052108765
32.0,0.05303260311484337
36.0,0.050989001989364624
40.0,0.04914359748363495
44.0,0.04768889769911766
48.0,0.04652077332139015
52.0,0.0454021617770195
56.0,0.04437617212533951
60.0,0.04351145774126053
64.0,0.04277798905968666
72.0,0.040840309113264084
80.0,0.038882266730070114
88.0,0.036833085119724274
96.0,0.03553584963083267
104.0,0.034625694155693054
112.0,0.033883024007081985
120.0,0.033054351806640625
128.0,0.03227495774626732
144.0,0.030515756458044052
160.0,0.02806742675602436
176.0,0.026679638773202896
192.0,0.02517150528728962
208.0,0.02340284362435341
224.0,0.02100912667810917
240.0,0.018556756898760796
256.0,0.016956685110926628
288.0,0.015731435269117355
320.0,0.015238918364048004
352.0,0.015879856422543526
384.0,0.016451718285679817
416.0,0.01718028448522091
448.0,0.017400916665792465
480.0,0.017120420932769775
512.0,0.01784573309123516
576.0,0.020214112475514412
640.0,0.01732633262872696
704.0,0.014924421906471252
768.0,0.015705877915024757
832.0,0.01676882430911064
896.0,0.015999244526028633
960.0,0.018767988309264183
1024.0,0.019725853577256203
1152.0,0.013089224696159363
1280.0,0.010944193229079247
1408.0,0.012301673181355
1536.0,0.011279314756393433
1664.0,0.009113799780607224
1792.0,0.01533098891377449
1920.0,0.023065824061632156
2048.0,0.02070862241089344
2304.0,0.008142925798892975
2560.0,0.008885500021278858
2816.0,0.007445118390023708
3072.0,0.000960464240051806
3328.0,-0.006514042615890503
3584.0,-0.009836355224251747
3840.0,-0.004307548515498638
4096.0,-0.0024036078248173
4608.0,-0.009732047095894814
5120.0,-0.007109560072422028
5632.0,-0.014559587463736534
6144.0,-0.01815117709338665
6656.0,-0.01464869175106287
7168.0,-0.012949459254741669
7680.0,-0.014787145890295506
8192.0,-0.020256849005818367
end
