version,3.0
numOfCh,1
type,point
parent_name,ff67b_0dot2-0dot1
ch_type,1_1
kcount,1
numberNandB,1
brightnessNandB,1
carpet pos,0
pc,0
Time (ms),CH1 Auto-Correlation
1.0,0.06382308900356293
2.0,0.062385670840740204
3.0,0.06105839088559151
4.0,0.05977049097418785
5.0,0.058522723615169525
6.0,0.05734441056847572
7.0,0.056276340037584305
8.0,0.05519358813762665
9.0,0.05416495352983475
10.0,0.05316450446844101
11.0,0.052158720791339874
12.0,0.051135074347257614
13.0,0.050149496644735336
14.0,0.049230437725782394
15.0,0.04829392582178116
16.0,0.047336600720882416
18.0,0.04565277323126793
20.0,0.0442073754966259
22.0,0.042917776852846146
24.0,0.04175736755132675
26.0,0.0406222864985466
28.0,0.03957163542509079
30.0,0.038640186190605164
32.0,0.037679556757211685
36.0,0.035791005939245224
40.0,0.03391053527593613
44.0,0.03238488361239433
48.0,0.031229188665747643
52.0,0.030215313658118248
56.0,0.02923228219151497
60.0,0.028215108439326286
64.0,0.027184410020709038
72.0,0.025149445980787277
80.0,0.02387663908302784
88.0,0.023392582312226295
96.0,0.02276686765253544
104.0,0.021390918642282486
112.0,0.019867101684212685
120.0,0.01901218108832836
128.0,0.01856944151222706
144.0,0.017583629116415977
160.0,0.01623493805527687
176.0,0.015436159446835518
192.0,0.014644005335867405
208.0,0.014385960064828396
224.0,0.014167963527143002
240.0,0.014466646127402782
256.0,0.014542385004460812
288.0,0.013501711189746857
320.0,0.010352715849876404
352.0,0.007586960215121508
384.0,0.005837519187480211
416.0,0.00627997936680913
448.0,0.007474228739738464
480.0,0.006211350206285715
512.0,0.005720832850784063
576.0,0.005256447941064835
640.0,0.005081158597022295
704.0,0.0041838278993964195
768.0,0.003492718795314431
832.0,0.004739965777844191
896.0,0.007838601246476173
960.0,0.006799747236073017
1024.0,0.00472225621342659
1152.0,0.010628042742609978
1280.0,0.011105853132903576
1408.0,0.013214629143476486
1536.0,0.009640023112297058
1664.0,0.0046458011493086815
1792.0,0.0034796101972460747
1920.0,0.0017722565680742264
2048.0,-0.001700563938356936
2304.0,0.0003010191721841693
2560.0,0.0020471166353672743
2816.0,0.0023352173157036304
3072.0,-0.0037027986254543066
3328.0,-0.008083033375442028
3584.0,-0.010533133521676064
3840.0,-0.005782743915915489
4096.0,-0.007722505368292332
4608.0,-0.013908295892179012
5120.0,-0.008847412653267384
5632.0,-0.0059678335674107075
6144.0,-0.0076711466535925865
6656.0,-0.007075138855725527
7168.0,-0.0035939845256507397
7680.0,0.0004535298212431371
8192.0,0.003994395025074482
end
