version,3.0
numOfCh,1
type,point
parent_name,ff67b_0dot2-0dot1
ch_type,1_1
kcount,1
numberNandB,1
brightnessNandB,1
carpet pos,0
pc,0
Time (ms),CH1 Auto-Correlation
1.0,0.055309753865003586
2.0,0.05410444736480713
3.0,0.052914947271347046
4.0,0.05178289860486984
5.0,0.050720371305942535
6.0,0.04969075694680214
7.0,0.04871523380279541
8.0,0.04777093604207039
9.0,0.04682101309299469
10.0,0.045890770852565765
11.0,0.04496540129184723
12.0,0.04407075047492981
13.0,0.04322928935289383
14.0,0.04242703691124916
15.0,0.04166047275066376
16.0,0.04090309888124466
18.0,0.03944939374923706
20.0,0.038022592663764954
22.0,0.03666131943464279
24.0,0.035365030169487
26.0,0.034168463200330734
28.0,0.033050909638404846
30.0,0.03197220712900162
32.0,0.030950192362070084
36.0,0.02899327129125595
40.0,0.02735440991818905
44.0,0.02603503130376339
48.0,0.024751795455813408
52.0,0.023548001423478127
56.0,0.02227795496582985
60.0,0.021067043766379356
64.0,0.019904864951968193
72.0,0.017751220613718033
80.0,0.015766749158501625
88.0,0.01432803925126791
96.0,0.013254979625344276
104.0,0.011962688528001308
112.0,0.01043546199798584
120.0,0.0087634501978755
128.0,0.007394375745207071
144.0,0.006599910091608763
160.0,0.006802956108003855
176.0,0.007239650469273329
192.0,0.006868462078273296
208.0,0.006230087485164404
224.0,0.005709521006792784
240.0,0.005487220361828804
256.0,0.005902643781155348
288.0,0.007828802801668644
320.0,0.007895790971815586
352.0,0.0065549761056900024
384.0,0.0045266347005963326
416.0,0.004072803072631359
448.0,0.0029548383317887783
480.0,0.0016630665631964803
512.0,0.001641310635022819
576.0,0.0022809181828051805
640.0,0.0041665202006697655
704.0,0.004134660586714745
768.0,0.0016323915915563703
832.0,0.003095370251685381
896.0,0.003271104535087943
960.0,0.0026574486400932074
1024.0,0.003761555766686797
1152.0,0.00026356594753451645
1280.0,0.0008707503438927233
1408.0,-0.00010602232214296237
1536.0,0.0015961385797709227
1664.0,0.003926003351807594
1792.0,0.0002578404382802546
1920.0,0.00100906437728554
2048.0,-0.0017959701362997293
2304.0,-0.0006121003534644842
2560.0,0.0008162969606928527
2816.0,0.0007384037598967552
3072.0,-0.0021784480195492506
3328.0,-0.0037639725487679243
3584.0,-0.0016160380328074098
3840.0,-0.005133994854986668
4096.0,-0.0036379550583660603
4608.0,-0.0008043008856475353
5120.0,-0.0013761883601546288
5632.0,-0.003561788471415639
6144.0,-0.005037505179643631
6656.0,-0.005093830171972513
7168.0,-0.003070985898375511
7680.0,-0.00248101819306612
8192.0,0.00027033669175580144
end
