version,3.0
numOfCh,1
type,point
parent_name,ff67b_0dot2-0dot1
ch_type,1_1
kcount,1
numberNandB,1
brightnessNandB,1
carpet pos,0
pc,0
Time (ms),CH1 Auto-Correlation
1.0,0.06929215788841248
2.0,0.06798876076936722
3.0,0.06674051284790039
4.0,0.06553887575864792
5.0,0.06436905264854431
6.0,0.0632675439119339
7.0,0.06216157600283623
8.0,0.06108729541301727
9.0,0.060050446540117264
10.0,0.059057414531707764
11.0,0.058100081980228424
12.0,0.05715232715010643
13.0,0.05622311681509018
14.0,0.05526888370513916
15.0,0.05433641001582146
16.0,0.05340512841939926
18.0,0.05166640505194664
20.0,0.04997015371918678
22.0,0.04829858988523483
24.0,0.04674963280558586
26.0,0.045340172946453094
28.0,0.043974678963422775
30.0,0.04255831241607666
32.0,0.041206490248441696
36.0,0.038656312972307205
40.0,0.036293674260377884
44.0,0.034144457429647446
48.0,0.03237631916999817
52.0,0.03085426427423954
56.0,0.029537739232182503
60.0,0.028415000066161156
64.0,0.027444854378700256
72.0,0.025968659669160843
80.0,0.02481011115014553
88.0,0.023707598447799683
96.0,0.02266572043299675
104.0,0.021588221192359924
112.0,0.020618466660380363
120.0,0.01940571703016758
128.0,0.018580732867121696
144.0,0.017440907657146454
160.0,0.01711585372686386
176.0,0.017273832112550735
192.0,0.016269797459244728
208.0,0.014285862445831299
224.0,0.01230744831264019
240.0,0.010745171457529068
256.0,0.008961030282080173
288.0,0.006247101817280054
320.0,0.004078109748661518
352.0,0.005206294823437929
384.0,0.003138975240290165
416.0,-0.0002779639617074281
448.0,0.0008333885343745351
480.0,0.0007102418458089232
512.0,0.0024788181763142347
576.0,0.00663584703579545
640.0,0.0017383287195116282
704.0,-0.0022634360939264297
768.0,0.0016360076842829585
832.0,0.0013294173404574394
896.0,-0.0012071093078702688
960.0,0.00020890356972813606
1024.0,0.002057306934148073
1152.0,0.005561839323490858
1280.0,0.007957110181450844
1408.0,0.006461252458393574
1536.0,-0.0005667167715728283
1664.0,-0.0014104878064244986
1792.0,0.0023239003494381905
1920.0,0.0031145508401095867
2048.0,-0.0026185347232967615
2304.0,-0.0046518840827047825
2560.0,-0.0020000063814222813
2816.0,-0.009303438477218151
3072.0,-0.005781005602329969
3328.0,-0.004505378659814596
3584.0,-0.0012709100265055895
3840.0,-0.004124937579035759
4096.0,-0.008566201664507389
4608.0,-0.0007150660385377705
5120.0,-0.002226748503744602
5632.0,0.002368416404351592
6144.0,0.0002752874279394746
6656.0,0.0018131522228941321
7168.0,-0.0011717071756720543
7680.0,-0.004361468832939863
8192.0,-0.0006988351815380156
end
