version,3.0
numOfCh,1
type,point
parent_name,ff67b_0dot2-0dot1
ch_type,1_1
kcount,1
numberNandB,1
brightnessNandB,1
carpet pos,0
pc,0
Time (ms),CH1 Auto-Correlation
1.0,0.052624769508838654
2.0,0.051274579018354416
3.0,0.04995081201195717
4.0,0.04865046590566635
5.0,0.047434572130441666
6.0,0.046291533857584
7.0,0.045198239386081696
8.0,0.04418037086725235
9.0,0.04314912110567093
10.0,0.04214458540081978
11.0,0.041187725961208344
12.0,0.04021603614091873
13.0,0.03924804925918579
14.0,0.03829178214073181
15.0,0.03734512999653816
16.0,0.036457359790802
18.0,0.034819576889276505
20.0,0.03335101902484894
22.0,0.03201711177825928
24.0,0.03080528788268566
26.0,0.02963292971253395
28.0,0.028568783774971962
30.0,0.027698703110218048
32.0,0.0268419049680233
36.0,0.025350898504257202
40.0,0.023900166153907776
44.0,0.022441649809479713
48.0,0.02111680619418621
52.0,0.02000417187809944
56.0,0.019157851114869118
60.0,0.018350351601839066
64.0,0.017549267038702965
72.0,0.015924744307994843
80.0,0.014257164672017097
88.0,0.012823591940104961
96.0,0.011709778569638729
104.0,0.01087582390755415
112.0,0.00995730422437191
120.0,0.008981428109109402
128.0,0.008112631738185883
144.0,0.006225768942385912
160.0,0.0038704380858689547
176.0,0.0020130076445639133
192.0,0.00018860583077184856
208.0,0.00027809789753519
224.0,0.0014726979425176978
240.0,0.0015392133500427008
256.0,0.0005120153655298054
288.0,0.0005490026087500155
320.0,0.0005950888153165579
352.0,-0.0002758412156254053
384.0,-0.001960325986146927
416.0,-0.00205224403180182
448.0,-0.0011523833964020014
480.0,-0.0011011858005076647
512.0,-0.002609082730486989
576.0,-0.0008740983321331441
640.0,-0.00101324578281492
704.0,-0.000984500045888126
768.0,0.0018540727905929089
832.0,0.0027015639934688807
896.0,0.0010259451810270548
960.0,0.0001892419095383957
1024.0,-0.0002720814081840217
1152.0,0.0029175959061831236
1280.0,0.00419796584174037
1408.0,0.005419756285846233
1536.0,0.004549977369606495
1664.0,0.0001173108903458342
1792.0,-0.004210634157061577
1920.0,-0.004898094106465578
2048.0,0.0012125313514843583
2304.0,0.0027274275198578835
2560.0,-0.001275369431823492
2816.0,-0.001716794678941369
3072.0,-0.0006195719470269978
3328.0,-0.0012928377836942673
3584.0,0.0012630023993551731
3840.0,4.667098255595192e-05
4096.0,-0.005422660149633884
4608.0,0.0026298952288925648
5120.0,-0.00224027200601995
5632.0,0.002274799393489957
6144.0,-7.355534035013989e-05
6656.0,-0.0004589568416122347
7168.0,0.0008751510758884251
7680.0,-0.004224822856485844
8192.0,-0.005310904234647751
end
