version,3.0
numOfCh,1
type,point
parent_name,ff67b_0dot08-1dot0
ch_type,1_1
kcount,1
numberNandB,1
brightnessNandB,1
carpet pos,0
pc,0
Time (ms),CH1 Auto-Correlation
1.0,0.025124631822109222
2.0,0.024921473115682602
3.0,0.02472810260951519
4.0,0.02453676238656044
5.0,0.02435155026614666
6.0,0.024172551929950714
7.0,0.02400052733719349
8.0,0.023830821737647057
9.0,0.023663610219955444
10.0,0.023500707000494003
11.0,0.02333863265812397
12.0,0.023176981136202812
13.0,0.023011600598692894
14.0,0.022852003574371338
15.0,0.022689132019877434
16.0,0.02252824790775776
18.0,0.022216418758034706
20.0,0.021904904395341873
22.0,0.02159576490521431
24.0,0.02130117639899254
26.0,0.021013038232922554
28.0,0.020734407007694244
30.0,0.020456824451684952
32.0,0.02019266039133072
36.0,0.019674556329846382
40.0,0.019177794456481934
44.0,0.01871688850224018
48.0,0.018275316804647446
52.0,0.0178353451192379
56.0,0.017413616180419922
60.0,0.01699940674006939
64.0,0.016635684296488762
72.0,0.01598535291850567
80.0,0.015424846671521664
88.0,0.01488075964152813
96.0,0.014393053948879242
104.0,0.014021485112607479
112.0,0.013674325309693813
120.0,0.013397128321230412
128.0,0.013196351006627083
144.0,0.012886818498373032
160.0,0.012465825304389
176.0,0.011946352198719978
192.0,0.011552472598850727
208.0,0.011301700957119465
224.0,0.01104032713919878
240.0,0.010773335583508015
256.0,0.01038365624845028
288.0,0.009565598331391811
320.0,0.008743039332330227
352.0,0.00827941857278347
384.0,0.00788586214184761
416.0,0.007297993171960115
448.0,0.006799197755753994
480.0,0.006643765605986118
512.0,0.006385312415659428
576.0,0.004902234300971031
640.0,0.0030818190425634384
704.0,0.0024671985302120447
768.0,0.00229377718642354
832.0,0.0014789486303925514
896.0,0.0012941770255565643
960.0,0.0019458412425592542
1024.0,0.002078129444271326
1152.0,0.0006242765230126679
1280.0,-0.0001549192238599062
1408.0,-0.001137404702603817
1536.0,-0.002716079354286194
1664.0,-0.003469986142590642
1792.0,-0.0036819998640567064
1920.0,-0.004570482764393091
2048.0,-0.0050285132601857185
2304.0,-0.005148483440279961
2560.0,-0.005961500108242035
2816.0,-0.004982944577932358
3072.0,-0.006251771934330463
3328.0,-0.004207140300422907
3584.0,-0.001541607198305428
3840.0,0.0018780897371470928
4096.0,-4.709014683612622e-05
4608.0,-0.003287753788754344
5120.0,-0.0014604917960241437
5632.0,-0.00068896752782166
6144.0,0.0015508962096646428
6656.0,0.006714690010994673
7168.0,0.005373932421207428
7680.0,0.0057444642297923565
8192.0,0.00317175779491663
end
