version,3.0
numOfCh,1
type,point
parent_name,ff67b_0dot08-1dot0
ch_type,1_1
kcount,1
numberNandB,1
brightnessNandB,1
carpet pos,0
pc,0
Time (ms),CH1 Auto-Correlation
1.0,0.024612730368971825
2.0,0.02438279427587986
3.0,0.024179309606552124
4.0,0.02398088574409485
5.0,0.023788468912243843
6.0,0.023600315675139427
7.0,0.023417213931679726
8.0,0.023231491446495056
9.0,0.02304818667471409
10.0,0.022859947755932808
11.0,0.022679850459098816
12.0,0.022513682022690773
13.0,0.02234352007508278
14.0,0.02217506617307663
15.0,0.022008419036865234
16.0,0.021845972165465355
18.0,0.021533211693167686
20.0,0.021209318190813065
22.0,0.02087092213332653
24.0,0.020528560504317284
26.0,0.02020540088415146
28.0,0.019887791946530342
30.0,0.019577013328671455
32.0,0.019270729273557663
36.0,0.018684668466448784
40.0,0.018122680485248566
44.0,0.017590569332242012
48.0,0.017073623836040497
52.0,0.01657158136367798
56.0,0.01611330732703209
60.0,0.015708932653069496
64.0,0.01535655278712511
72.0,0.014738204888999462
80.0,0.014163515530526638
88.0,0.013697726652026176
96.0,0.013281799852848053
104.0,0.012839468196034431
112.0,0.012361970730125904
120.0,0.01188024040311575
128.0,0.011429568752646446
144.0,0.01067901961505413
160.0,0.010064174421131611
176.0,0.009425606578588486
192.0,0.008645342662930489
208.0,0.007899611257016659
224.0,0.0072821564972400665
240.0,0.006795424502342939
256.0,0.006502505391836166
288.0,0.0060476562939584255
320.0,0.005049671977758408
352.0,0.0038685633335262537
384.0,0.003346341662108898
416.0,0.0032202990259975195
448.0,0.0028775278478860855
480.0,0.0022817302960902452
512.0,0.001533578266389668
576.0,-0.0008298747125081718
640.0,-0.002306395210325718
704.0,-0.0028705375734716654
768.0,-0.0035049503203481436
832.0,-0.0034781356807798147
896.0,-0.003598195966333151
960.0,-0.003612759057432413
1024.0,-0.004161585122346878
1152.0,-0.005120867397636175
1280.0,-0.004823856521397829
1408.0,-0.004831831436604261
1536.0,-0.0025975950993597507
1664.0,-0.0001610584295121953
1792.0,0.0008283734787255526
1920.0,0.0010494835441932082
2048.0,0.0007023647194728255
2304.0,-0.002098048571497202
2560.0,-0.0014957370003685355
2816.0,0.0016256326343864202
3072.0,0.00012783223064616323
3328.0,-0.0016416620928794146
3584.0,-0.0034381127916276455
3840.0,0.00018289561558049172
4096.0,-0.0007717467960901558
4608.0,0.003381481859833002
5120.0,0.0008942267741076648
5632.0,-0.0004521718656178564
6144.0,5.3168772865319625e-05
6656.0,0.0007666285382583737
7168.0,-0.0013194963103160262
7680.0,0.0036628006491810083
8192.0,-0.003494853852316737
end
