version,3.0
numOfCh,1
type,point
parent_name,ff67b_0dot08-1dot0
ch_type,1_1
kcount,1
numberNandB,1
brightnessNandB,1
carpet pos,0
pc,0
Time (ms),CH1 Auto-Correlation
1.0,0.017539668828248978
2.0,0.017331475391983986
3.0,0.017130017280578613
4.0,0.016934478655457497
5.0,0.01673774980008602
6.0,0.016548404470086098
7.0,0.016359852626919746
8.0,0.016178011894226074
9.0,0.01601276360452175
10.0,0.015847181901335716
11.0,0.015691695734858513
12.0,0.015541342087090015
13.0,0.015387183986604214
14.0,0.01523306593298912
15.0,0.015086734667420387
16.0,0.014947276562452316
18.0,0.014675809070467949
20.0,0.014416155405342579
22.0,0.014161059632897377
24.0,0.013899482786655426
26.0,0.013646638952195644
28.0,0.013406122103333473
30.0,0.013184897601604462
32.0,0.012974404729902744
36.0,0.012563341297209263
40.0,0.01217791996896267
44.0,0.011813458055257797
48.0,0.011457989923655987
52.0,0.011130995117127895
56.0,0.010852936655282974
60.0,0.010613823309540749
64.0,0.010384690947830677
72.0,0.00995166227221489
80.0,0.009527267888188362
88.0,0.009051293134689331
96.0,0.008596922270953655
104.0,0.008299085311591625
112.0,0.008075548335909843
120.0,0.007838818244636059
128.0,0.007589278742671013
144.0,0.007115754298865795
160.0,0.006614002399146557
176.0,0.006084505934268236
192.0,0.005577746778726578
208.0,0.005163364112377167
224.0,0.0048067267052829266
240.0,0.004356798250228167
256.0,0.003976915497332811
288.0,0.0032938129734247923
320.0,0.002612467622384429
352.0,0.0020195816177874804
384.0,0.0013392610708251595
416.0,0.0010351520031690598
448.0,0.0006275608320720494
480.0,-2.797134584398009e-05
512.0,-0.0002921748091466725
576.0,9.322075493400916e-05
640.0,0.0004520774236880243
704.0,0.00025740981800481677
768.0,8.560089918319136e-05
832.0,0.00010634658974595368
896.0,-0.0001104626280721277
960.0,-0.00031692589982412755
1024.0,-0.0006516845314763486
1152.0,-0.001450820593163371
1280.0,-0.00234361388720572
1408.0,-0.002329582581296563
1536.0,-0.0011722147464752197
1664.0,0.0007335984264500439
1792.0,0.0011680788593366742
1920.0,0.00046966291847638786
2048.0,0.0007944399840198457
2304.0,-0.001305453828535974
2560.0,-0.0024334380868822336
2816.0,-0.000510806159581989
3072.0,0.0002299897896591574
3328.0,-0.00022836241987533867
3584.0,0.0011207761708647013
3840.0,0.0022064861841499805
4096.0,-0.0007338296854868531
4608.0,-0.00011525892477948219
5120.0,0.0005889402236789465
5632.0,0.0012089619413018227
6144.0,0.0013977107591927052
6656.0,-0.0004101394151803106
7168.0,-0.003466270165517926
7680.0,-0.0013292344519868493
8192.0,0.0006433925591409206
end
