version,3.0
numOfCh,1
type,point
parent_name,ff67b_0dot08-1dot0
ch_type,1_1
kcount,1
numberNandB,1
brightnessNandB,1
carpet pos,0
pc,0
Time (ms),CH1 Auto-Correlation
1.0,0.024096405133605003
2.0,0.02387230470776558
3.0,0.023651838302612305
4.0,0.023439763113856316
5.0,0.02323358692228794
6.0,0.023036275058984756
7.0,0.022846661508083344
8.0,0.0226557869464159
9.0,0.022468015551567078
10.0,0.022282518446445465
11.0,0.02210507169365883
12.0,0.02192853018641472
13.0,0.02175510674715042
14.0,0.021579287946224213
15.0,0.02140389010310173
16.0,0.021239299327135086
18.0,0.020904267206788063
20.0,0.020568640902638435
22.0,0.020256580784916878
24.0,0.019954686984419823
26.0,0.019646530970931053
28.0,0.019351372495293617
30.0,0.019073253497481346
32.0,0.01879919320344925
36.0,0.01824839785695076
40.0,0.017709732055664062
44.0,0.01722557656466961
48.0,0.01680346019566059
52.0,0.016409410163760185
56.0,0.016033289954066277
60.0,0.01568756252527237
64.0,0.015360184945166111
72.0,0.014654363505542278
80.0,0.013949012383818626
88.0,0.013382092118263245
96.0,0.012834213674068451
104.0,0.012304205447435379
112.0,0.011857971549034119
120.0,0.011452769860625267
128.0,0.011034269817173481
144.0,0.010357613675296307
160.0,0.009680323302745819
176.0,0.009123521856963634
192.0,0.008661736734211445
208.0,0.008225525729358196
224.0,0.007658292073756456
240.0,0.007071983069181442
256.0,0.00655634980648756
288.0,0.005472599063068628
320.0,0.004802601411938667
352.0,0.0045331986621022224
384.0,0.004698761273175478
416.0,0.004469927866011858
448.0,0.003697624895721674
480.0,0.003118974156677723
512.0,0.0028870298992842436
576.0,0.0032738400623202324
640.0,0.002938502235338092
704.0,0.001815063296817243
768.0,0.0012112237745895982
832.0,0.0003885969636030495
896.0,-0.0003769577597267926
960.0,0.000775619875639677
1024.0,0.0018795488867908716
1152.0,0.0009841136634349823
1280.0,0.00024090995430015028
1408.0,0.001387877739034593
1536.0,0.0017836862243711948
1664.0,0.0008743085782043636
1792.0,-0.0010341303423047066
1920.0,-0.003934459760785103
2048.0,-0.003942146897315979
2304.0,-0.0011316266609355807
2560.0,0.0011263741180300713
2816.0,-0.00045533268712460995
3072.0,-0.0017053592018783092
3328.0,-0.0008928231545723975
3584.0,0.0002071811177302152
3840.0,0.001025597215630114
4096.0,0.0007748972275294363
4608.0,-0.0020709275268018246
5120.0,0.0011897197691723704
5632.0,-0.0025187416467815638
6144.0,-0.0028051575645804405
6656.0,-0.001711471937596798
7168.0,-0.006787364836782217
7680.0,-0.0005425363196991384
8192.0,-0.0049523054622113705
end
