version,3.0
numOfCh,1
type,point
parent_name,ff67b_0dot08-1dot0
ch_type,1_1
kcount,1
numberNandB,1
brightnessNandB,1
carpet pos,0
pc,0
Time (ms),CH1 Auto-Correlation
1.0,0.020562170073390007
2.0,0.020328093320131302
3.0,0.020119206979870796
4.0,0.019921353086829185
5.0,0.019725613296031952
6.0,0.01954178884625435
7.0,0.019361546263098717
8.0,0.01919066160917282
9.0,0.019025366753339767
10.0,0.018865132704377174
11.0,0.018706047907471657
12.0,0.018545346334576607
13.0,0.018382862210273743
14.0,0.018232200294733047
15.0,0.018086232244968414
16.0,0.017939599230885506
18.0,0.017633164301514626
20.0,0.017341144382953644
22.0,0.017070583999156952
24.0,0.016815368086099625
26.0,0.016569986939430237
28.0,0.016331756487488747
30.0,0.01611042022705078
32.0,0.01588420569896698
36.0,0.015405808575451374
40.0,0.014954973943531513
44.0,0.014501670375466347
48.0,0.014091365039348602
52.0,0.013711238279938698
56.0,0.013331354595720768
60.0,0.013020391575992107
64.0,0.012765297666192055
72.0,0.012214693240821362
80.0,0.011707620695233345
88.0,0.011274425312876701
96.0,0.010884442366659641
104.0,0.01048135757446289
112.0,0.010169907473027706
120.0,0.00996197946369648
128.0,0.009766671806573868
144.0,0.009198559448122978
160.0,0.008444929495453835
176.0,0.007779429666697979
192.0,0.007159254979342222
208.0,0.006627610884606838
224.0,0.00629329914227128
240.0,0.005783230997622013
256.0,0.0053315237164497375
288.0,0.004679382778704166
320.0,0.003912237472832203
352.0,0.0031009367667138577
384.0,0.0023285760544240475
416.0,0.0016375258564949036
448.0,0.0009527555084787309
480.0,0.0002619160513859242
512.0,-0.0004550038429442793
576.0,-0.001642855117097497
640.0,-0.002419145544990897
704.0,-0.0034822234883904457
768.0,-0.0031760591082274914
832.0,-0.0027356974314898252
896.0,-0.0021546611096709967
960.0,-0.001094863167963922
1024.0,0.00019628097652457654
1152.0,0.0009108944213949144
1280.0,0.0009394933003932238
1408.0,0.0008258030284196138
1536.0,0.0004887190298177302
1664.0,-0.0005557176191359758
1792.0,-0.00122244528029114
1920.0,-0.0005673218402080238
2048.0,-0.0014226553030312061
2304.0,-0.003704579547047615
2560.0,-0.004536012653261423
2816.0,-0.003939405083656311
3072.0,-0.0008191937813535333
3328.0,0.001399488071911037
3584.0,0.0015416276874020696
3840.0,-0.0009793706703931093
4096.0,-0.0017626837361603975
4608.0,0.001690750359557569
5120.0,-0.00033042754512280226
5632.0,-0.00171112478710711
6144.0,-0.00043789471965283155
6656.0,-0.00014734633441548795
7168.0,0.0010802274337038398
7680.0,0.003023992758244276
8192.0,0.002154558664187789
end
