version,3.0
numOfCh,1
type,point
parent_name,ff67b_0dot08-1dot0
ch_type,1_1
kcount,1
numberNandB,1
brightnessNandB,1
carpet pos,0
pc,0
Time (ms),CH1 Auto-Correlation
1.0,0.015613213181495667
2.0,0.015407984144985676
3.0,0.01521654985845089
4.0,0.015034828335046768
5.0,0.014860988594591618
6.0,0.014688242226839066
7.0,0.014524734579026699
8.0,0.01436551008373499
9.0,0.014208339154720306
10.0,0.014052036218345165
11.0,0.013891827315092087
12.0,0.01373776700347662
13.0,0.013583565130829811
14.0,0.013435827568173409
15.0,0.013288981281220913
16.0,0.013147043064236641
18.0,0.012878261506557465
20.0,0.012600671499967575
22.0,0.01231942605227232
24.0,0.012052281759679317
26.0,0.011795696802437305
28.0,0.01154131069779396
30.0,0.01130307000130415
32.0,0.011074899695813656
36.0,0.010626380331814289
40.0,0.010151378810405731
44.0,0.009685508906841278
48.0,0.00923886802047491
52.0,0.008796604350209236
56.0,0.008388182148337364
60.0,0.00803429540246725
64.0,0.007697903085500002
72.0,0.007041078992187977
80.0,0.006467723287642002
88.0,0.005890075583010912
96.0,0.005356315057724714
104.0,0.004928965121507645
112.0,0.004581202287226915
120.0,0.0042800214141607285
128.0,0.004010383505374193
144.0,0.0036925722379237413
160.0,0.003417435334995389
176.0,0.0029915079940110445
192.0,0.00259759440086782
208.0,0.0022508124820888042
224.0,0.0020352283027023077
240.0,0.0017345923697575927
256.0,0.0016188299050554633
288.0,0.001295977970585227
320.0,0.001069979160092771
352.0,0.0009549388196319342
384.0,0.000753894099034369
416.0,0.00040793794323690236
448.0,-0.00015866597823332995
480.0,-0.0004919714410789311
512.0,-0.0008108676411211491
576.0,-0.0011913093039765954
640.0,-0.0020768383983522654
704.0,-0.002527261385694146
768.0,-0.002277396386489272
832.0,-0.002341535408049822
896.0,-0.0014872468309476972
960.0,-0.001058641355484724
1024.0,-0.0022023594938218594
1152.0,-0.002062173094600439
1280.0,-0.0012808225583285093
1408.0,-0.0008862901595421135
1536.0,-0.0006175614544190466
1664.0,-0.0005969196790829301
1792.0,0.000472019863082096
1920.0,0.0004031523421872407
2048.0,-0.0013769784709438682
2304.0,-2.5666407964308746e-05
2560.0,0.0010687969624996185
2816.0,0.00263081188313663
3072.0,0.00036733568413183093
3328.0,0.0007669378537684679
3584.0,-0.0005829133442603052
3840.0,0.00013046798994764686
4096.0,-0.0015144528588280082
4608.0,0.0002852638717740774
5120.0,0.000726071884855628
5632.0,0.00016299510025419295
6144.0,-0.0013002738123759627
6656.0,-0.00032986869337037206
7168.0,-7.490195275750011e-05
7680.0,0.000715037458576262
8192.0,0.0011915185023099184
end
