version,3.0
numOfCh,1
type,point
parent_name,ff67b_0dot08-1dot0
ch_type,1_1
kcount,1
numberNandB,1
brightnessNandB,1
carpet pos,0
pc,0
Time (ms),CH1 Auto-Correlation
1.0,0.01620580069720745
2.0,0.01599142886698246
3.0,0.015792137011885643
4.0,0.01560200285166502
5.0,0.01542145200073719
6.0,0.015236356295645237
7.0,0.015055241994559765
8.0,0.014875982888042927
9.0,0.014694287441670895
10.0,0.014517461881041527
11.0,0.014351200312376022
12.0,0.014188088476657867
13.0,0.014031583443284035
14.0,0.013879731297492981
15.0,0.013732977211475372
16.0,0.013584762811660767
18.0,0.013307824730873108
20.0,0.013023437932133675
22.0,0.012750388123095036
24.0,0.01250018086284399
26.0,0.012258769012987614
28.0,0.012022608891129494
30.0,0.011806546710431576
32.0,0.011600799858570099
36.0,0.011195234023034573
40.0,0.01080253254622221
44.0,0.010362428613007069
48.0,0.009939311072230339
52.0,0.009541160427033901
56.0,0.009174104779958725
60.0,0.008874041959643364
64.0,0.008590598590672016
72.0,0.008049780502915382
80.0,0.0075883506797254086
88.0,0.007117175497114658
96.0,0.00665221968665719
104.0,0.006236667279154062
112.0,0.005952401086688042
120.0,0.005676686763763428
128.0,0.005405767355114222
144.0,0.004743425641208887
160.0,0.00430332450196147
176.0,0.004076353274285793
192.0,0.004001463297754526
208.0,0.0036841256078332663
224.0,0.0032850289717316628
240.0,0.0030286209657788277
256.0,0.002739862771704793
288.0,0.002173223067075014
320.0,0.0016573593020439148
352.0,0.00141420669388026
384.0,0.0012417469406500459
416.0,0.0009116821456700563
448.0,0.00045183292240835726
480.0,-0.00033477068063803017
512.0,-0.0011464207200333476
576.0,-0.0017743909265846014
640.0,-0.002537910360842943
704.0,-0.0029740065801888704
768.0,-0.003272172762081027
832.0,-0.0032260804437100887
896.0,-0.002926328219473362
960.0,-0.0027824004646390676
1024.0,-0.002704104408621788
1152.0,-0.0016780704027041793
1280.0,-0.0009267604327760637
1408.0,-0.0006436053081415594
1536.0,6.211439904291183e-05
1664.0,-0.00026993642677553
1792.0,-0.0004562957619782537
1920.0,0.0016704380977898836
2048.0,0.001159329549409449
2304.0,0.00038290207157842815
2560.0,-0.00029089589952491224
2816.0,-0.0006373964133672416
3072.0,-0.000203905365196988
3328.0,-0.00010562243551248685
3584.0,0.00022240336693357676
3840.0,-0.0014267148217186332
4096.0,7.82466449891217e-05
4608.0,0.0010341595625504851
5120.0,0.0013980275252833962
5632.0,-0.0015472713857889175
6144.0,-0.0007165241986513138
6656.0,0.001316745183430612
7168.0,-0.0007815433782525361
7680.0,-0.0017538637621328235
8192.0,0.0016536049079149961
end
