version,3.0
numOfCh,1
type,point
parent_name,ff67b_0dot08-1dot0
ch_type,1_1
kcount,1
numberNandB,1
brightnessNandB,1
carpet pos,0
pc,0
Time (ms),CH1 Auto-Correlation
1.0,0.024547433480620384
2.0,0.02432011254131794
3.0,0.024118229746818542
4.0,0.02392643876373768
5.0,0.023735640570521355
6.0,0.023557890206575394
7.0,0.02339554950594902
8.0,0.023233847692608833
9.0,0.023067977279424667
10.0,0.02291158400475979
11.0,0.02276226319372654
12.0,0.022624747827649117
13.0,0.022487860172986984
14.0,0.022356994450092316
15.0,0.02222544513642788
16.0,0.02208586409687996
18.0,0.02181822434067726
20.0,0.02155439555644989
22.0,0.021308453753590584
24.0,0.021072033792734146
26.0,0.020836923271417618
28.0,0.020603252574801445
30.0,0.020377682521939278
32.0,0.020158300176262856
36.0,0.01972714439034462
40.0,0.019316811114549637
44.0,0.01894163340330124
48.0,0.018588803708553314
52.0,0.01826196350157261
56.0,0.01794304884970188
60.0,0.01765560917556286
64.0,0.01739581488072872
72.0,0.016899002715945244
80.0,0.01638801209628582
88.0,0.015907157212495804
96.0,0.015449733473360538
104.0,0.014975578524172306
112.0,0.014504698105156422
120.0,0.014066430740058422
128.0,0.013717615976929665
144.0,0.013239064253866673
160.0,0.012739493511617184
176.0,0.012161447666585445
192.0,0.011525224894285202
208.0,0.010998736135661602
224.0,0.010610396042466164
240.0,0.010330979712307453
256.0,0.010026538744568825
288.0,0.009278550744056702
320.0,0.00879119336605072
352.0,0.008666104637086391
384.0,0.008637791499495506
416.0,0.008407889865338802
448.0,0.008174946531653404
480.0,0.007754079066216946
512.0,0.007548779249191284
576.0,0.007183565758168697
640.0,0.006658460013568401
704.0,0.006624066736549139
768.0,0.006214071065187454
832.0,0.005933072417974472
896.0,0.005039934068918228
960.0,0.004767278674989939
1024.0,0.004471982829272747
1152.0,0.0037311818450689316
1280.0,0.0033874118234962225
1408.0,0.004794079344719648
1536.0,0.005320160184055567
1664.0,0.005074215587228537
1792.0,0.005767554976046085
1920.0,0.006872628349810839
2048.0,0.005811199080199003
2304.0,0.0034982229117304087
2560.0,0.0016392512479797006
2816.0,2.8174756153021008e-05
3072.0,-0.0006878392887301743
3328.0,-0.0010688395705074072
3584.0,-0.0030746296979486942
3840.0,-0.0026127968449145555
4096.0,-0.0036915987730026245
4608.0,-0.005130298901349306
5120.0,-0.006962218321859837
5632.0,-0.006383407395333052
6144.0,-0.007164199370890856
6656.0,-0.00429805601015687
7168.0,-0.0033345590345561504
7680.0,-0.004395444877445698
8192.0,-0.0020414532627910376
end
