version,3.0
numOfCh,1
type,point
parent_name,ff67b_0dot08-1dot0
ch_type,1_1
kcount,1
numberNandB,1
brightnessNandB,1
carpet pos,0
pc,0
Time (ms),CH1 Auto-Correlation
1.0,0.022933417931199074
2.0,0.022739313542842865
3.0,0.022547418251633644
4.0,0.022357404232025146
5.0,0.02217746339738369
6.0,0.021990159526467323
7.0,0.0218125618994236
8.0,0.021639419719576836
9.0,0.021463200449943542
10.0,0.021291211247444153
11.0,0.021119166165590286
12.0,0.020957745611667633
13.0,0.020795611664652824
14.0,0.020639123395085335
15.0,0.020477376878261566
16.0,0.02032160945236683
18.0,0.02000552788376808
20.0,0.019688183441758156
22.0,0.019389871507883072
24.0,0.019089918583631516
26.0,0.01878255046904087
28.0,0.018490690737962723
30.0,0.018220406025648117
32.0,0.017967795953154564
36.0,0.017502697184681892
40.0,0.017058124765753746
44.0,0.016637850552797318
48.0,0.016245555132627487
52.0,0.015850814059376717
56.0,0.015462267212569714
60.0,0.015067875385284424
64.0,0.014699400402605534
72.0,0.013961082324385643
80.0,0.013230248354375362
88.0,0.012583428993821144
96.0,0.012049222365021706
104.0,0.011640425771474838
112.0,0.011249106377363205
120.0,0.010767212137579918
128.0,0.010290658101439476
144.0,0.009494449943304062
160.0,0.009044206701219082
176.0,0.008806541562080383
192.0,0.00852169468998909
208.0,0.008373133838176727
224.0,0.008351351134479046
240.0,0.008288910612463951
256.0,0.008240357972681522
288.0,0.008087296038866043
320.0,0.0077190157026052475
352.0,0.00722930021584034
384.0,0.006321984343230724
416.0,0.005778104532510042
448.0,0.0056671262718737125
480.0,0.005348405800759792
512.0,0.005266855470836163
576.0,0.0048913187347352505
640.0,0.0038445100653916597
704.0,0.002579915337264538
768.0,0.0028765182942152023
832.0,0.0018937996355816722
896.0,0.0008580519934184849
960.0,0.0008539831615053117
1024.0,0.0006757489172741771
1152.0,-0.00025130141875706613
1280.0,-0.0010524413082748652
1408.0,-0.0008552358485758305
1536.0,-0.0022738061379641294
1664.0,-0.0016827797517180443
1792.0,-0.0022540725767612457
1920.0,-0.0010240592528134584
2048.0,-0.0007520121871493757
2304.0,-0.0006632183212786913
2560.0,-0.0024120784364640713
2816.0,-0.0012572467094287276
3072.0,8.435482595814392e-05
3328.0,-0.0002714851580094546
3584.0,6.134601426310837e-05
3840.0,0.0009558550082147121
4096.0,0.0016582076204940677
4608.0,0.0008584182360209525
5120.0,-0.0023490905296057463
5632.0,-0.004098159726709127
6144.0,-0.0057046120055019855
6656.0,-0.005585724487900734
7168.0,-0.0019759435672312975
7680.0,0.0007225030567497015
8192.0,-0.00034016568679362535
end
