version,3.0
numOfCh,1
type,point
parent_name,ff67b_0dot08-1dot0
ch_type,1_1
kcount,1
numberNandB,1
brightnessNandB,1
carpet pos,0
pc,0
Time (ms),CH1 Auto-Correlation
1.0,0.021688753738999367
2.0,0.02148527093231678
3.0,0.021292826160788536
4.0,0.021104099228978157
5.0,0.02092238888144493
6.0,0.020745867863297462
7.0,0.020582670345902443
8.0,0.020420925691723824
9.0,0.02025546506047249
10.0,0.02009476162493229
11.0,0.019930489361286163
12.0,0.0197636466473341
13.0,0.019600003957748413
14.0,0.019441161304712296
15.0,0.019286951050162315
16.0,0.019135335460305214
18.0,0.01883687637746334
20.0,0.01854694075882435
22.0,0.018273551017045975
24.0,0.018016783520579338
26.0,0.017775142565369606
28.0,0.01753189042210579
30.0,0.01728280819952488
32.0,0.01704418659210205
36.0,0.01659020036458969
40.0,0.016155676916241646
44.0,0.015710867941379547
48.0,0.01528417132794857
52.0,0.014821835793554783
56.0,0.014371351338922977
60.0,0.013926378451287746
64.0,0.013533834367990494
72.0,0.01280840951949358
80.0,0.012187390588223934
88.0,0.011668705381453037
96.0,0.011127998121082783
104.0,0.010571863502264023
112.0,0.010093714110553265
120.0,0.00968517828732729
128.0,0.009341247379779816
144.0,0.008781359530985355
160.0,0.0081716850399971
176.0,0.007666542194783688
192.0,0.007335181348025799
208.0,0.006997527088969946
224.0,0.006660047918558121
240.0,0.006530547980219126
256.0,0.006340892054140568
288.0,0.005642014089971781
320.0,0.005048723425716162
352.0,0.004591056145727634
384.0,0.0037505333311855793
416.0,0.0027049784548580647
448.0,0.0019706327002495527
480.0,0.001971452496945858
512.0,0.0022498550824820995
576.0,0.002132336376234889
640.0,0.0018146074144169688
704.0,0.0005645416676998138
768.0,-0.0005432366160675883
832.0,-0.0009512896067462862
896.0,-0.0006075231940485537
960.0,-0.0009470580262131989
1024.0,-0.0022836385760456324
1152.0,-0.0020588666666299105
1280.0,-0.0008739978657104075
1408.0,1.1365360478521325e-05
1536.0,0.00016135165060404688
1664.0,0.00015080698358360678
1792.0,0.00014333921717479825
1920.0,-0.0008203197503462434
2048.0,-0.0017960787517949939
2304.0,-3.6405788705451414e-05
2560.0,0.001810584682971239
2816.0,3.116972584393807e-05
3072.0,-0.0035710788797587156
3328.0,-0.005525878630578518
3584.0,-0.005069906357675791
3840.0,-0.002460863208398223
4096.0,0.0008323070942424238
4608.0,0.0016052934806793928
5120.0,0.0016243167920038104
5632.0,0.0005554287927225232
6144.0,-0.001763574662618339
6656.0,0.000695535447448492
7168.0,0.0011030413443222642
7680.0,-0.0033825195860117674
8192.0,-0.005057204514741898
end
