version,3.0
numOfCh,1
type,point
parent_name,ff67b_0dot08-1dot0
ch_type,1_1
kcount,1
numberNandB,1
brightnessNandB,1
carpet pos,0
pc,0
Time (ms),CH1 Auto-Correlation
1.0,0.0195918045938015
2.0,0.019392510876059532
3.0,0.019203901290893555
4.0,0.019022680819034576
5.0,0.018848346546292305
6.0,0.01867193914949894
7.0,0.018505709245800972
8.0,0.018333856016397476
9.0,0.018156440928578377
10.0,0.017983056604862213
11.0,0.017817074432969093
12.0,0.01764719933271408
13.0,0.017479512840509415
14.0,0.017315102741122246
15.0,0.01715712621808052
16.0,0.017002979293465614
18.0,0.016685396432876587
20.0,0.016382522881031036
22.0,0.016078801825642586
24.0,0.015775907784700394
26.0,0.015490940771996975
28.0,0.01523708924651146
30.0,0.014981180429458618
32.0,0.014728818088769913
36.0,0.014273851178586483
40.0,0.013847018592059612
44.0,0.013460265472531319
48.0,0.013108143582940102
52.0,0.01275789923965931
56.0,0.01243134681135416
60.0,0.012143055908381939
64.0,0.01187673956155777
72.0,0.011253802105784416
80.0,0.010615344159305096
88.0,0.010073917917907238
96.0,0.009627210907638073
104.0,0.009219707921147346
112.0,0.00888280849903822
120.0,0.008528861217200756
128.0,0.008208349347114563
144.0,0.007488231640309095
160.0,0.006834950763732195
176.0,0.00628864299505949
192.0,0.005786437541246414
208.0,0.005381403490900993
224.0,0.005071302875876427
240.0,0.004725032951682806
256.0,0.004237907472997904
288.0,0.0035481953527778387
320.0,0.0028174850158393383
352.0,0.002582482760772109
384.0,0.001979510998353362
416.0,0.0014348328113555908
448.0,0.0010427712695673108
480.0,0.0010145416017621756
512.0,0.000834548962302506
576.0,-2.2513973817694932e-05
640.0,-6.26478431513533e-05
704.0,-0.00042517975089140236
768.0,-0.001427566516213119
832.0,-0.0017931390320882201
896.0,-0.0015495767584070563
960.0,-0.000952565751504153
1024.0,-0.0004688405024353415
1152.0,-0.0007387528894469142
1280.0,-0.0012162311468273401
1408.0,-0.000832877354696393
1536.0,-0.0011659739539027214
1664.0,0.00011342747893650085
1792.0,0.0014262886252254248
1920.0,0.0020533399656414986
2048.0,0.0029132224153727293
2304.0,0.0012973345583304763
2560.0,-0.0015219833003357053
2816.0,-0.0045169685035943985
3072.0,-0.004334951285272837
3328.0,-0.0021771483588963747
3584.0,-0.0009184792288579047
3840.0,0.0015524612972512841
4096.0,0.0008281336049549282
4608.0,-0.0023038892541080713
5120.0,-0.0006281610694713891
5632.0,0.00014551782805938274
6144.0,0.001479674712754786
6656.0,-0.0006136333104223013
7168.0,-9.049625805346295e-05
7680.0,0.003143667010590434
8192.0,-0.0017572714714333415
end
