version,3.0
numOfCh,1
type,point
parent_name,ff67b_0dot08-1dot0
ch_type,1_1
kcount,1
numberNandB,1
brightnessNandB,1
carpet pos,0
pc,0
Time (ms),CH1 Auto-Correlation
1.0,0.021667303517460823
2.0,0.021422214806079865
3.0,0.021198462694883347
4.0,0.02098628506064415
5.0,0.020789140835404396
6.0,0.02060328982770443
7.0,0.020424004644155502
8.0,0.02025630697607994
9.0,0.0200965516269207
10.0,0.019932139664888382
11.0,0.019773345440626144
12.0,0.019623715430498123
13.0,0.019469887018203735
14.0,0.019336016848683357
15.0,0.019210124388337135
16.0,0.01907123066484928
18.0,0.018797805532813072
20.0,0.018527384847402573
22.0,0.018279429525136948
24.0,0.018042385578155518
26.0,0.017802737653255463
28.0,0.017586171627044678
30.0,0.017377402633428574
32.0,0.017179429531097412
36.0,0.016781503334641457
40.0,0.016412610188126564
44.0,0.01605006493628025
48.0,0.015706371515989304
52.0,0.015370686538517475
56.0,0.015061281621456146
60.0,0.014718961901962757
64.0,0.01437195111066103
72.0,0.013778253458440304
80.0,0.013272283598780632
88.0,0.012797904200851917
96.0,0.012307532131671906
104.0,0.011848533526062965
112.0,0.011430696584284306
120.0,0.011029996909201145
128.0,0.010663989931344986
144.0,0.010107002221047878
160.0,0.009761995635926723
176.0,0.009463301859796047
192.0,0.009200419299304485
208.0,0.00906513910740614
224.0,0.008780119009315968
240.0,0.008554808795452118
256.0,0.008456649258732796
288.0,0.008674283511936665
320.0,0.008873925544321537
352.0,0.008757400326430798
384.0,0.008569661527872086
416.0,0.008284085430204868
448.0,0.007836014032363892
480.0,0.007054949179291725
512.0,0.0063182213343679905
576.0,0.004686932545155287
640.0,0.003344047348946333
704.0,0.002962416270747781
768.0,0.002698651049286127
832.0,0.002489329781383276
896.0,0.002510477788746357
960.0,0.0018921173177659512
1024.0,0.000844416965264827
1152.0,-0.001982657937332988
1280.0,-0.0032002588268369436
1408.0,-0.0034757538232952356
1536.0,-0.005653816740959883
1664.0,-0.0055489325895905495
1792.0,-0.004682247061282396
1920.0,-0.0050984155386686325
2048.0,-0.005736999679356813
2304.0,-0.003642235416918993
2560.0,-0.0015874585369601846
2816.0,0.0007580797537229955
3072.0,-0.0003862096054945141
3328.0,-0.0007891314453445375
3584.0,-0.0007918169721961021
3840.0,-0.0010407858062535524
4096.0,-0.0020753361750394106
4608.0,-0.001755954115651548
5120.0,-0.0013939047930762172
5632.0,-0.001736856298521161
6144.0,0.000513808976393193
6656.0,0.0008839047513902187
7168.0,0.001844222890213132
7680.0,0.001458329614251852
8192.0,-0.002314818324521184
end
