version,3.0
numOfCh,1
type,point
parent_name,ff67b_0dot08-1dot0
ch_type,1_1
kcount,1
numberNandB,1
brightnessNandB,1
carpet pos,0
pc,0
Time (ms),CH1 Auto-Correlation
1.0,0.02696136012673378
2.0,0.026767557486891747
3.0,0.026585575193166733
4.0,0.026407208293676376
5.0,0.026226144284009933
6.0,0.026056339964270592
7.0,0.025891393423080444
8.0,0.025729024782776833
9.0,0.02556978352367878
10.0,0.02541397325694561
11.0,0.025261051952838898
12.0,0.025108197703957558
13.0,0.024961888790130615
14.0,0.024819979444146156
15.0,0.02468239888548851
16.0,0.02454105205833912
18.0,0.02426612190902233
20.0,0.02400030754506588
22.0,0.0237396489828825
24.0,0.023486152291297913
26.0,0.023239213973283768
28.0,0.023001547902822495
30.0,0.022767620161175728
32.0,0.02253754995763302
36.0,0.022085513919591904
40.0,0.021632881835103035
44.0,0.02119526080787182
48.0,0.020760539919137955
52.0,0.020326007157564163
56.0,0.01991216465830803
60.0,0.01947203278541565
64.0,0.01904602162539959
72.0,0.01823495142161846
80.0,0.017499182373285294
88.0,0.016753222793340683
96.0,0.01597990095615387
104.0,0.01526382751762867
112.0,0.014628051780164242
120.0,0.014047326520085335
128.0,0.013427793979644775
144.0,0.012144227512180805
160.0,0.011103957891464233
176.0,0.010309851728379726
192.0,0.009663067758083344
208.0,0.00893851462751627
224.0,0.008289760909974575
240.0,0.007945997640490532
256.0,0.007780832704156637
288.0,0.0076187290251255035
320.0,0.007195963524281979
352.0,0.006598411127924919
384.0,0.0057795075699687
416.0,0.004794031847268343
448.0,0.003924662712961435
480.0,0.0035306052304804325
512.0,0.003602525219321251
576.0,0.0030618964228779078
640.0,0.0021263789385557175
704.0,0.0011848105350509286
768.0,0.00011456849460955709
832.0,0.0002341632207389921
896.0,0.0007772723911330104
960.0,0.0008513972861692309
1024.0,0.0005867134314030409
1152.0,0.0011933372588828206
1280.0,0.002429669490084052
1408.0,0.0033703327644616365
1536.0,0.002768229926005006
1664.0,0.001083813956938684
1792.0,0.0006096354336477816
1920.0,0.0017459709197282791
2048.0,0.00012671983859036118
2304.0,2.596553895273246e-05
2560.0,0.0008673004922457039
2816.0,0.0016560270451009274
3072.0,0.0018488607602193952
3328.0,0.0009074764093384147
3584.0,0.001532308990135789
3840.0,0.0026091241743415594
4096.0,0.0005196260171942413
4608.0,-0.0014167522313073277
5120.0,-0.0007264409796334803
5632.0,-0.004063815344125032
6144.0,-0.0020677768625319004
6656.0,-0.0035901288501918316
7168.0,-0.00420326367020607
7680.0,-0.0017141714924946427
8192.0,-8.042304398259148e-05
end
