version,3.0
numOfCh,1
type,point
parent_name,ff67b_0dot08-1dot0
ch_type,1_1
kcount,1
numberNandB,1
brightnessNandB,1
carpet pos,0
pc,0
Time (ms),CH1 Auto-Correlation
1.0,0.01825908198952675
2.0,0.01802312768995762
3.0,0.017811710014939308
4.0,0.017611470073461533
5.0,0.01740584522485733
6.0,0.017217053100466728
7.0,0.017042113468050957
8.0,0.01686415635049343
9.0,0.016686227172613144
10.0,0.01651550643146038
11.0,0.016352156177163124
12.0,0.01618565060198307
13.0,0.016030332073569298
14.0,0.015874581411480904
15.0,0.015713969245553017
16.0,0.015552602708339691
18.0,0.015242691151797771
20.0,0.01494614314287901
22.0,0.014658800326287746
24.0,0.014386988244950771
26.0,0.014121996238827705
28.0,0.013862399384379387
30.0,0.013611963950097561
32.0,0.013355490751564503
36.0,0.012877820059657097
40.0,0.012422695755958557
44.0,0.011973707936704159
48.0,0.011528360657393932
52.0,0.011090417392551899
56.0,0.010664629749953747
60.0,0.010251847095787525
64.0,0.009847886860370636
72.0,0.009061884135007858
80.0,0.008297591470181942
88.0,0.007639032322913408
96.0,0.00713347876444459
104.0,0.00665185647085309
112.0,0.006132178939878941
120.0,0.005584046244621277
128.0,0.005122700706124306
144.0,0.004197922069579363
160.0,0.003594482084736228
176.0,0.003148698015138507
192.0,0.0025841251481324434
208.0,0.0018666238756850362
224.0,0.0012270297156646848
240.0,0.000599594903178513
256.0,0.00011953304783673957
288.0,-0.0005828918074257672
320.0,-0.0013524587266147137
352.0,-0.0021182741038501263
384.0,-0.002404354512691498
416.0,-0.0018129367381334305
448.0,-0.0010268522892147303
480.0,-0.000571397424209863
512.0,-0.0007622032426297665
576.0,-0.0011625780025497079
640.0,-0.0006466451450251043
704.0,-0.00035852642031386495
768.0,-0.00042038215906359255
832.0,-9.730004967423156e-05
896.0,4.42965429101605e-05
960.0,0.00043190468568354845
1024.0,4.312033343012445e-05
1152.0,-0.00044968296424485743
1280.0,0.00021948870562482625
1408.0,0.00019161454110872
1536.0,0.0006748914020135999
1664.0,0.001611766405403614
1792.0,0.001645541051402688
1920.0,0.00039425931754522026
2048.0,-0.0010118198115378618
2304.0,-0.0007290300563909113
2560.0,0.000736837275326252
2816.0,-0.00023246509954333305
3072.0,-0.00045352085726335645
3328.0,-0.0004889434785582125
3584.0,-0.0005441264365799725
3840.0,-0.0005845167324878275
4096.0,-0.00034361256984993815
4608.0,-0.00033915156382136047
5120.0,0.0006147625390440226
5632.0,0.0012109946692362428
6144.0,-0.0007805074565112591
6656.0,-0.0006859126733615994
7168.0,-0.0006227184203453362
7680.0,-0.00019172746397089213
8192.0,-0.0009540989412926137
end
