version,3.0
numOfCh,1
type,point
parent_name,ff67b_0dot08-1dot0
ch_type,1_1
kcount,1
numberNandB,1
brightnessNandB,1
carpet pos,0
pc,0
Time (ms),CH1 Auto-Correlation
1.0,0.022160837426781654
2.0,0.02196831814944744
3.0,0.02177969180047512
4.0,0.021594250574707985
5.0,0.02141035720705986
6.0,0.021229319274425507
7.0,0.02105097658932209
8.0,0.020869167521595955
9.0,0.020695706829428673
10.0,0.02052566409111023
11.0,0.02036242000758648
12.0,0.020198769867420197
13.0,0.020041100680828094
14.0,0.01988663710653782
15.0,0.01973467692732811
16.0,0.019586896523833275
18.0,0.019295673817396164
20.0,0.01899992674589157
22.0,0.018701013177633286
24.0,0.018421389162540436
26.0,0.018144184723496437
28.0,0.017858557403087616
30.0,0.01758299022912979
32.0,0.017304208129644394
36.0,0.016780268400907516
40.0,0.016274353489279747
44.0,0.01581757329404354
48.0,0.015389571897685528
52.0,0.014976383186876774
56.0,0.014583518728613853
60.0,0.014245930127799511
64.0,0.013933088630437851
72.0,0.013295318000018597
80.0,0.012745419517159462
88.0,0.01222301460802555
96.0,0.011764909140765667
104.0,0.011374630965292454
112.0,0.011097187176346779
120.0,0.010861600749194622
128.0,0.010632313787937164
144.0,0.010285880416631699
160.0,0.01010060403496027
176.0,0.009882424958050251
192.0,0.009643021039664745
208.0,0.009398930706083775
224.0,0.0090945428237319
240.0,0.008782957680523396
256.0,0.008634279482066631
288.0,0.00868481956422329
320.0,0.00814840104430914
352.0,0.007282667327672243
384.0,0.006698012351989746
416.0,0.0064286766573786736
448.0,0.006304476875811815
480.0,0.0059777554124593735
512.0,0.005800357088446617
576.0,0.005634721368551254
640.0,0.005712210666388273
704.0,0.005736844148486853
768.0,0.006669543217867613
832.0,0.005943425465375185
896.0,0.004754703491926193
960.0,0.003433742094784975
1024.0,0.003358976449817419
1152.0,0.0011477950029075146
1280.0,-0.00025000498862937093
1408.0,-0.0004451549320947379
1536.0,-0.00042993604438379407
1664.0,-0.0014662292087450624
1792.0,-0.0017952664056792855
1920.0,-0.003983727656304836
2048.0,-0.004783061798661947
2304.0,-0.004405430983752012
2560.0,-0.0054378206841647625
2816.0,-0.007227019872516394
3072.0,-0.007436458487063646
3328.0,-0.004498396534472704
3584.0,-0.00469677709043026
3840.0,-0.004135907161980867
4096.0,-0.0033418817911297083
4608.0,-0.0007315611001104116
5120.0,0.0016480637714266777
5632.0,0.002463557058945298
6144.0,0.004111964255571365
6656.0,0.004855239763855934
7168.0,0.004115725867450237
7680.0,0.002692973939701915
8192.0,-0.003174656070768833
end
