version,3.0
numOfCh,1
type,point
parent_name,ff67b_0dot08-1dot0
ch_type,1_1
kcount,1
numberNandB,1
brightnessNandB,1
carpet pos,0
pc,0
Time (ms),CH1 Auto-Correlation
1.0,0.02198607102036476
2.0,0.02176445536315441
3.0,0.021560542285442352
4.0,0.021365616470575333
5.0,0.021176733076572418
6.0,0.020987387746572495
7.0,0.020810555666685104
8.0,0.020631955936551094
9.0,0.020460283383727074
10.0,0.020291872322559357
11.0,0.020117739215493202
12.0,0.01995025761425495
13.0,0.019793933257460594
14.0,0.01962757483124733
15.0,0.019470736384391785
16.0,0.019315365701913834
18.0,0.019014272838830948
20.0,0.018706852570176125
22.0,0.0184028297662735
24.0,0.01810845173895359
26.0,0.01782490685582161
28.0,0.01754492148756981
30.0,0.017268123105168343
32.0,0.017005562782287598
36.0,0.01653284765779972
40.0,0.016062134876847267
44.0,0.015585429035127163
48.0,0.015138214454054832
52.0,0.014721039682626724
56.0,0.014304880984127522
60.0,0.013930417597293854
64.0,0.013559929095208645
72.0,0.012845613993704319
80.0,0.012161088176071644
88.0,0.011616640724241734
96.0,0.01114741899073124
104.0,0.010743485763669014
112.0,0.01040562428534031
120.0,0.0100886020809412
128.0,0.009716419503092766
144.0,0.009039921686053276
160.0,0.008438602089881897
176.0,0.008085701614618301
192.0,0.007785510737448931
208.0,0.007543190848082304
224.0,0.007523155305534601
240.0,0.007551637012511492
256.0,0.007519942708313465
288.0,0.007391480263322592
320.0,0.006932653486728668
352.0,0.00610163202509284
384.0,0.004962909501045942
416.0,0.003660295158624649
448.0,0.0028916618321090937
480.0,0.0026650140061974525
512.0,0.002546238014474511
576.0,0.0025132973678410053
640.0,0.0018694075988605618
704.0,0.0012558945454657078
768.0,0.001847776584327221
832.0,0.0029981492552906275
896.0,0.0034975125454366207
960.0,0.003349379636347294
1024.0,0.0025314749218523502
1152.0,0.0020996863022446632
1280.0,0.0014633660903200507
1408.0,0.0015323448460549116
1536.0,0.000509520061314106
1664.0,-0.0006546947406604886
1792.0,5.693750790669583e-05
1920.0,-0.0008260096656158566
2048.0,-0.0005769554409198463
2304.0,-0.0018360392423346639
2560.0,-0.0015258393250405788
2816.0,0.0006572864949703217
3072.0,0.002294887788593769
3328.0,0.0021081247832626104
3584.0,0.00019709863408934325
3840.0,0.0010053982259705663
4096.0,0.0015232374425977468
4608.0,0.0004470375133678317
5120.0,-0.001507107401266694
5632.0,-0.0035052706953138113
6144.0,-0.00098863011226058
6656.0,-0.0020595688838511705
7168.0,0.0008337427279911935
7680.0,-0.0002790194994304329
8192.0,-0.003049582475796342
end
