version,3.0
numOfCh,1
type,point
parent_name,ff67b_0dot08-1dot0
ch_type,1_1
kcount,1
numberNandB,1
brightnessNandB,1
carpet pos,0
pc,0
Time (ms),CH1 Auto-Correlation
1.0,0.0292549729347229
2.0,0.02903314121067524
3.0,0.028826836496591568
4.0,0.028621573001146317
5.0,0.028424600139260292
6.0,0.028238078579306602
7.0,0.02804686315357685
8.0,0.027855567634105682
9.0,0.027671951800584793
10.0,0.027490966022014618
11.0,0.027309592813253403
12.0,0.02712995745241642
13.0,0.026950178667902946
14.0,0.026778878644108772
15.0,0.026609590277075768
16.0,0.026447050273418427
18.0,0.026117471978068352
20.0,0.025806274265050888
22.0,0.025502176955342293
24.0,0.025213345885276794
26.0,0.02493223547935486
28.0,0.024653011932969093
30.0,0.024379463866353035
32.0,0.024119092151522636
36.0,0.023584121838212013
40.0,0.023058082908391953
44.0,0.022557806223630905
48.0,0.022075815126299858
52.0,0.021581243723630905
56.0,0.021097475662827492
60.0,0.02063586190342903
64.0,0.020199326798319817
72.0,0.019418345764279366
80.0,0.018716737627983093
88.0,0.018046321347355843
96.0,0.017418023198843002
104.0,0.016780439764261246
112.0,0.016157228499650955
120.0,0.015567637979984283
128.0,0.01501377485692501
144.0,0.01391552947461605
160.0,0.012851784005761147
176.0,0.011987094767391682
192.0,0.01119979191571474
208.0,0.010400763712823391
224.0,0.009660052135586739
240.0,0.00896139070391655
256.0,0.008308874443173409
288.0,0.00714829470962286
320.0,0.006783907301723957
352.0,0.006742609664797783
384.0,0.006546970922499895
416.0,0.006323265843093395
448.0,0.0059250169433653355
480.0,0.005706843454390764
512.0,0.005217269528657198
576.0,0.004468933213502169
640.0,0.004222224000841379
704.0,0.0032441301736980677
768.0,0.0016427101800218225
832.0,0.00017002003733068705
896.0,1.0366151400376111e-05
960.0,0.0009263096726499498
1024.0,0.0011975237866863608
1152.0,0.0008256033761426806
1280.0,0.0018979364540427923
1408.0,0.002685742685571313
1536.0,0.0005026928265579045
1664.0,-0.0008319777552969754
1792.0,-0.0011101538548246026
1920.0,-0.0004624567518476397
2048.0,0.0002934325602836907
2304.0,0.0020294389687478542
2560.0,0.0006405988242477179
2816.0,-0.0012529515661299229
3072.0,-0.0027559297159314156
3328.0,-0.004965546075254679
3584.0,-0.0032588245812803507
3840.0,-0.0017413559835404158
4096.0,-0.0030804474372416735
4608.0,-0.0008491870248690248
5120.0,0.0019686466548591852
5632.0,5.5469216022174805e-05
6144.0,0.005361601244658232
6656.0,0.0035632827784866095
7168.0,0.0021049699280411005
7680.0,-0.0012801946140825748
8192.0,-0.004358288832008839
end
