version,3.0
numOfCh,1
type,point
parent_name,ff67b_0dot08-1dot0
ch_type,1_1
kcount,1
numberNandB,1
brightnessNandB,1
carpet pos,0
pc,0
Time (ms),CH1 Auto-Correlation
1.0,0.02358049526810646
2.0,0.02338264137506485
3.0,0.023194976150989532
4.0,0.0230170339345932
5.0,0.022837312892079353
6.0,0.022665364667773247
7.0,0.022496340796351433
8.0,0.02233390137553215
9.0,0.022176140919327736
10.0,0.022024672478437424
11.0,0.02187872678041458
12.0,0.021736236289143562
13.0,0.02159244939684868
14.0,0.021445391699671745
15.0,0.021300237625837326
16.0,0.021162258461117744
18.0,0.02090372145175934
20.0,0.02064386196434498
22.0,0.020380711182951927
24.0,0.020133189857006073
26.0,0.01989917643368244
28.0,0.019665202125906944
30.0,0.01942390203475952
32.0,0.019187957048416138
36.0,0.018746616318821907
40.0,0.01834479533135891
44.0,0.01796463131904602
48.0,0.017592452466487885
52.0,0.01721724309027195
56.0,0.01687479577958584
60.0,0.016538025811314583
64.0,0.016229402273893356
72.0,0.01556423120200634
80.0,0.014894462190568447
88.0,0.0143493777140975
96.0,0.013810834847390652
104.0,0.013299659825861454
112.0,0.012883061543107033
120.0,0.012489772401750088
128.0,0.01212173979729414
144.0,0.01139300037175417
160.0,0.010885737836360931
176.0,0.0104765510186553
192.0,0.00985163263976574
208.0,0.009161895141005516
224.0,0.008666843175888062
240.0,0.008273251354694366
256.0,0.007824818603694439
288.0,0.006850286852568388
320.0,0.005785568151623011
352.0,0.004693344701081514
384.0,0.003689143341034651
416.0,0.0028926481027156115
448.0,0.002445261925458908
480.0,0.0025333925150334835
512.0,0.002839057706296444
576.0,0.0021310204174369574
640.0,0.0009542561019770801
704.0,0.0006900144508108497
768.0,0.0003130169352516532
832.0,0.0006761814001947641
896.0,0.0018036087276414037
960.0,0.002662109211087227
1024.0,0.0030777754727751017
1152.0,0.004388589411973953
1280.0,0.004767193924635649
1408.0,0.003498723031952977
1536.0,0.002383345505222678
1664.0,0.001022397424094379
1792.0,-0.0006222148076631129
1920.0,-0.001192017924040556
2048.0,-0.001372757600620389
2304.0,-0.0020812114235013723
2560.0,-0.004216997418552637
2816.0,-0.0043279086239635944
3072.0,-0.005002245772629976
3328.0,-0.0012774839997291565
3584.0,0.0017956779338419437
3840.0,0.0004911358701065183
4096.0,-0.0016910654958337545
4608.0,-0.00024017816758714616
5120.0,0.002631187904626131
5632.0,0.0015139445895329118
6144.0,-0.0018113893456757069
6656.0,-0.002192251617088914
7168.0,-0.0016448944807052612
7680.0,-0.0019721186254173517
8192.0,0.0009723919210955501
end
