version,3.0
numOfCh,1
type,point
parent_name,ff67b_0dot08-1dot0
ch_type,1_1
kcount,1
numberNandB,1
brightnessNandB,1
carpet pos,0
pc,0
Time (ms),CH1 Auto-Correlation
1.0,0.02433204837143421
2.0,0.0240856371819973
3.0,0.02386205457150936
4.0,0.02365180291235447
5.0,0.023446697741746902
6.0,0.023242894560098648
7.0,0.02303989790380001
8.0,0.0228495541960001
9.0,0.022645100951194763
10.0,0.022452358156442642
11.0,0.022270742803812027
12.0,0.022093120962381363
13.0,0.021923311054706573
14.0,0.021757345646619797
15.0,0.02158731035888195
16.0,0.021428314968943596
18.0,0.02110082469880581
20.0,0.020776033401489258
22.0,0.020462077111005783
24.0,0.0201489869505167
26.0,0.019858160987496376
28.0,0.019585920497775078
30.0,0.01932406798005104
32.0,0.01906108669936657
36.0,0.018579047173261642
40.0,0.01811109110713005
44.0,0.01767542026937008
48.0,0.017250021919608116
52.0,0.016868025064468384
56.0,0.016503142192959785
60.0,0.016168834641575813
64.0,0.0158351119607687
72.0,0.015132027678191662
80.0,0.014398233033716679
88.0,0.013680529780685902
96.0,0.01293155550956726
104.0,0.01217800285667181
112.0,0.011454750783741474
120.0,0.010843542404472828
128.0,0.010349263437092304
144.0,0.009682612493634224
160.0,0.009164350107312202
176.0,0.008630150929093361
192.0,0.007846023887395859
208.0,0.007277039811015129
224.0,0.006810042075812817
240.0,0.006393381394445896
256.0,0.005828498862683773
288.0,0.004638271871954203
320.0,0.003680930007249117
352.0,0.0023516102228313684
384.0,0.0010031048441305757
416.0,-1.425253867637366e-05
448.0,-0.00045864778803661466
480.0,-0.00031359499553218484
512.0,-0.00024500099243596196
576.0,0.00011071864719269797
640.0,0.000619012163951993
704.0,0.0018511750968173146
768.0,0.0033489882480353117
832.0,0.0043127709068357944
896.0,0.004121727775782347
960.0,0.004438017960637808
1024.0,0.005439937114715576
1152.0,0.005215411074459553
1280.0,0.003618543269112706
1408.0,0.0027677658945322037
1536.0,0.00023318338207900524
1664.0,-0.0012864185264334083
1792.0,-4.7558518417645246e-05
1920.0,0.0020289570093154907
2048.0,0.002602576743811369
2304.0,0.0021401671692728996
2560.0,0.0004985140985809267
2816.0,-0.0008812198648229241
3072.0,-0.0002903358545154333
3328.0,0.0022240530233830214
3584.0,0.0017627147026360035
3840.0,0.00035504321567714214
4096.0,-0.0003695624473039061
4608.0,0.001349953468888998
5120.0,0.0005376908811740577
5632.0,-0.0011608247878029943
6144.0,-0.0035942806862294674
6656.0,0.0007678928086534142
7168.0,-0.00492911646142602
7680.0,0.001161677879281342
8192.0,-0.0045041413977742195
end
