version,3.0
numOfCh,1
type,point
parent_name,ff67b_0dot08-1dot0
ch_type,1_1
kcount,1
numberNandB,1
brightnessNandB,1
carpet pos,0
pc,0
Time (ms),CH1 Auto-Correlation
1.0,0.021303702145814896
2.0,0.02109837345778942
3.0,0.020908065140247345
4.0,0.020725183188915253
5.0,0.020536482334136963
6.0,0.020362144336104393
7.0,0.02018900401890278
8.0,0.02001877687871456
9.0,0.01985057070851326
10.0,0.019686751067638397
11.0,0.01952616311609745
12.0,0.01936507038772106
13.0,0.019203759729862213
14.0,0.019050395116209984
15.0,0.018902385607361794
16.0,0.01875428669154644
18.0,0.018467208370566368
20.0,0.018181324005126953
22.0,0.01790078543126583
24.0,0.017632998526096344
26.0,0.017383132129907608
28.0,0.01714092306792736
30.0,0.016916045919060707
32.0,0.016694094985723495
36.0,0.016258956864476204
40.0,0.015834471210837364
44.0,0.015430155210196972
48.0,0.015048387460410595
52.0,0.014687861315906048
56.0,0.014334837906062603
60.0,0.013987410813570023
64.0,0.013658556155860424
72.0,0.013014458119869232
80.0,0.012319070287048817
88.0,0.011589000932872295
96.0,0.010856383480131626
104.0,0.010228562168776989
112.0,0.009771153330802917
120.0,0.009425047785043716
128.0,0.009099905379116535
144.0,0.00869342964142561
160.0,0.008350950665771961
176.0,0.00776503374800086
192.0,0.007352591026574373
208.0,0.0069720628671348095
224.0,0.006553885992616415
240.0,0.006197209004312754
256.0,0.005829900968819857
288.0,0.005225946195423603
320.0,0.004742192570120096
352.0,0.004765887279063463
384.0,0.0045654126442968845
416.0,0.004622629843652248
448.0,0.004717881791293621
480.0,0.0043528759852051735
512.0,0.004121618345379829
576.0,0.0036083084996789694
640.0,0.0027859394904226065
704.0,0.0025197789072990417
768.0,0.001977265113964677
832.0,0.0012108207447454333
896.0,0.0007249354384839535
960.0,0.0009772637858986855
1024.0,0.0012697447091341019
1152.0,0.000912524585146457
1280.0,-0.0005908542079851031
1408.0,-0.0019905343651771545
1536.0,-0.0021515623666346073
1664.0,-0.0014215630944818258
1792.0,-0.0015414283843711019
1920.0,-0.0026300621684640646
2048.0,-0.002675310941413045
2304.0,-0.001691581099294126
2560.0,-0.0007348338840529323
2816.0,4.96659085911233e-05
3072.0,0.0004038915503770113
3328.0,-0.0002866275317501277
3584.0,0.0005787467234767973
3840.0,3.4114409572794102e-06
4096.0,0.00031327916076406837
4608.0,-0.001100198132917285
5120.0,-0.0013966821134090424
5632.0,-0.0024960488080978394
6144.0,-0.000377611315343529
6656.0,-0.002311699790880084
7168.0,-0.000510876823682338
7680.0,0.0016777486307546496
8192.0,0.000660653633531183
end
