version,3.0
numOfCh,1
type,point
parent_name,ff67b_0dot08-1dot0
ch_type,1_1
kcount,1
numberNandB,1
brightnessNandB,1
carpet pos,0
pc,0
Time (ms),CH1 Auto-Correlation
1.0,0.029221272096037865
2.0,0.02903103455901146
3.0,0.028850195929408073
4.0,0.028670499101281166
5.0,0.028505701571702957
6.0,0.028346985578536987
7.0,0.028193091973662376
8.0,0.028044287115335464
9.0,0.027898728847503662
10.0,0.027746204286813736
11.0,0.02760123275220394
12.0,0.02745671570301056
13.0,0.027312805876135826
14.0,0.027169624343514442
15.0,0.027024850249290466
16.0,0.02688477747142315
18.0,0.026626743376255035
20.0,0.02637084200978279
22.0,0.02612345851957798
24.0,0.025884199887514114
26.0,0.025648051872849464
28.0,0.02541867457330227
30.0,0.025202540680766106
32.0,0.024991024285554886
36.0,0.024570509791374207
40.0,0.024150772020220757
44.0,0.02375299297273159
48.0,0.02334407903254032
52.0,0.022917717695236206
56.0,0.022528428584337234
60.0,0.02215733379125595
64.0,0.02179219014942646
72.0,0.021146563813090324
80.0,0.020555246621370316
88.0,0.02005157619714737
96.0,0.01957899145781994
104.0,0.019050758332014084
112.0,0.018434427678585052
120.0,0.01776190474629402
128.0,0.017117353156208992
144.0,0.01596410758793354
160.0,0.014897668734192848
176.0,0.013919557444751263
192.0,0.012998858466744423
208.0,0.012051752768456936
224.0,0.01130799949169159
240.0,0.01080610603094101
256.0,0.010334432125091553
288.0,0.009693893603980541
320.0,0.008707161992788315
352.0,0.007673091255128384
384.0,0.006984405685216188
416.0,0.006350703537464142
448.0,0.005741376429796219
480.0,0.005327697843313217
512.0,0.0048187547363340855
576.0,0.004153470508754253
640.0,0.003411342157050967
704.0,0.0025986828841269016
768.0,0.0020978080574423075
832.0,0.0014568482292816043
896.0,0.00034919564495794475
960.0,-0.00109084602445364
1024.0,-0.0014703164342790842
1152.0,0.000544723414350301
1280.0,0.0011413873871788383
1408.0,-0.0008630892261862755
1536.0,-0.0014904950512573123
1664.0,-0.0011737765744328499
1792.0,-0.001666858559474349
1920.0,-0.0020215329714119434
2048.0,-0.0005032098270021379
2304.0,0.0009656978654675186
2560.0,0.002506210934370756
2816.0,0.005914344917982817
3072.0,0.0038824700750410557
3328.0,7.832944538677111e-05
3584.0,8.924333087634295e-05
3840.0,0.0026262851897627115
4096.0,0.0075963083654642105
4608.0,0.0014920075191184878
5120.0,-0.0028727599419653416
5632.0,-0.0036522806622087955
6144.0,-3.066977296839468e-05
6656.0,0.0028291051276028156
7168.0,-0.0020588734187185764
7680.0,-0.0036396449431777
8192.0,-0.0008492838824167848
end
