version,3.0
numOfCh,1
type,point
parent_name,19e3e_0dot6-0dot01
ch_type,1_1
kcount,1
numberNandB,1
brightnessNandB,1
carpet pos,0
pc,0
Time (ms),CH1 Auto-Correlation
1.0,0.055222637951374054
2.0,0.05397970601916313
3.0,0.05281751602888107
4.0,0.05169033259153366
5.0,0.05063037574291229
6.0,0.04966515302658081
7.0,0.04877133294939995
8.0,0.04791168496012688
9.0,0.047089386731386185
10.0,0.04629021883010864
11.0,0.04553781822323799
12.0,0.04481365904211998
13.0,0.04412248730659485
14.0,0.04346193000674248
15.0,0.042846400290727615
16.0,0.04223796725273132
18.0,0.04116194322705269
20.0,0.04022400453686714
22.0,0.03932197764515877
24.0,0.0384255088865757
26.0,0.037479549646377563
28.0,0.036527667194604874
30.0,0.03563202917575836
32.0,0.03482383117079735
36.0,0.033364441245794296
40.0,0.032202236354351044
44.0,0.03116604872047901
48.0,0.03013085015118122
52.0,0.029123064130544662
56.0,0.02819882705807686
60.0,0.027370400726795197
64.0,0.026708828285336494
72.0,0.025453656911849976
80.0,0.024629516527056694
88.0,0.02371622808277607
96.0,0.02298160269856453
104.0,0.02124232053756714
112.0,0.019413530826568604
120.0,0.01718215085566044
128.0,0.014426025561988354
144.0,0.010075594298541546
160.0,0.007570238318294287
176.0,0.006903060246258974
192.0,0.006948905065655708
208.0,0.006422477308660746
224.0,0.0059046014212071896
240.0,0.005683816038072109
256.0,0.005884254351258278
288.0,0.006543963681906462
320.0,0.0037634004838764668
352.0,0.0013223548885434866
384.0,0.00016988599963951856
416.0,-0.001988878706470132
448.0,-0.003531498834490776
480.0,-0.002979037119075656
512.0,-0.0022200760431587696
576.0,-0.0021118184085935354
640.0,-0.002868111478164792
704.0,-0.0022767032496631145
768.0,-0.0016192111652344465
832.0,-0.002191513078287244
896.0,-0.003385713789612055
960.0,-0.0021094689145684242
1024.0,-0.00035336209111846983
1152.0,-0.0017028766451403499
1280.0,-0.002925299806520343
1408.0,-0.0032630597706884146
1536.0,0.0005703360657207668
1664.0,0.0044051120057702065
1792.0,0.0029457570053637028
1920.0,0.0024505811743438244
2048.0,-0.001117240870371461
2304.0,-0.00032402737997472286
2560.0,0.0010810127714648843
2816.0,-0.004058090969920158
3072.0,-0.009372135624289513
3328.0,-0.0026149346958845854
3584.0,0.004575212486088276
3840.0,0.0055022998712956905
4096.0,0.003688669763505459
4608.0,-0.006652663927525282
5120.0,-0.0030673430301249027
5632.0,-0.005681175738573074
6144.0,0.0055784061551094055
6656.0,-0.005457435734570026
7168.0,-0.003480532206594944
7680.0,0.005306115373969078
8192.0,-0.0008960124687291682
end
