version,3.0
numOfCh,1
type,point
parent_name,19e3e_0dot6-0dot01
ch_type,1_1
kcount,1
numberNandB,1
brightnessNandB,1
carpet pos,0
pc,0
Time (ms),CH1 Auto-Correlation
1.0,0.021560899913311005
2.0,0.020363042131066322
3.0,0.019298791885375977
4.0,0.018380317836999893
5.0,0.01751599833369255
6.0,0.01671873964369297
7.0,0.01594320312142372
8.0,0.015206302516162395
9.0,0.01453939639031887
10.0,0.013939930126070976
11.0,0.013392834924161434
12.0,0.012883386574685574
13.0,0.012360158376395702
14.0,0.011862731538712978
15.0,0.011431841179728508
16.0,0.011010536924004555
18.0,0.010257556103169918
20.0,0.009554142132401466
22.0,0.008913788944482803
24.0,0.008259044960141182
26.0,0.0075971814803779125
28.0,0.0070187863893806934
30.0,0.006511123850941658
32.0,0.006108421832323074
36.0,0.005489923059940338
40.0,0.004938523285090923
44.0,0.004565080162137747
48.0,0.0042124842293560505
52.0,0.00388373713940382
56.0,0.003611912252381444
60.0,0.0034334922675043344
64.0,0.003206151770427823
72.0,0.0026263960171490908
80.0,0.0022289801854640245
88.0,0.0018230746500194073
96.0,0.0015776361105963588
104.0,0.0013412731932476163
112.0,0.0014102404238656163
120.0,0.0014169435016810894
128.0,0.001505096210166812
144.0,0.001309212762862444
160.0,0.0012008785270154476
176.0,0.0015119613381102681
192.0,0.001160050742328167
208.0,0.0010530176805332303
224.0,0.0008121412829495966
240.0,0.0004254630475770682
256.0,0.0006466227350756526
288.0,0.00036812000325880945
320.0,-0.0005567772313952446
352.0,2.6145482479478233e-05
384.0,0.000657194119412452
416.0,0.0010769288055598736
448.0,0.0005808736314065754
480.0,0.00019842010806314647
512.0,-0.00031560391653329134
576.0,0.00029953409102745354
640.0,-0.00044669961789622903
704.0,-0.0006734358030371368
768.0,0.000812747806776315
832.0,0.0010771943489089608
896.0,-0.00022997526684775949
960.0,-0.00011821940279332921
1024.0,0.00042228231905028224
1152.0,0.0004179973911959678
1280.0,0.0006928693037480116
1408.0,-0.0007501314976252615
1536.0,-0.000575760961510241
1664.0,-0.0004974310286343098
1792.0,0.00021962440223433077
1920.0,0.00011338747572153807
2048.0,0.0005161979352124035
2304.0,-0.000302525790175423
2560.0,0.0006265047122724354
2816.0,0.00013117457274347544
3072.0,-0.0007949961582198739
3328.0,0.0003904725599568337
3584.0,-0.00033452798379585147
3840.0,-0.00037991153658367693
4096.0,-3.974358332925476e-05
4608.0,0.0006307675503194332
5120.0,-0.0011771917343139648
5632.0,0.00014540345000568777
6144.0,-0.0009335458744317293
6656.0,-0.0005717631429433823
7168.0,-0.0008603047463111579
7680.0,6.032514193066163e-06
8192.0,-0.0011140973074361682
end
