version,3.0
numOfCh,1
type,point
parent_name,19e3e_0dot6-0dot01
ch_type,1_1
kcount,1
numberNandB,1
brightnessNandB,1
carpet pos,0
pc,0
Time (ms),CH1 Auto-Correlation
1.0,0.02920861728489399
2.0,0.028132878243923187
3.0,0.027154751121997833
4.0,0.026254748925566673
5.0,0.025395788252353668
6.0,0.024608561769127846
7.0,0.02387242019176483
8.0,0.023207969963550568
9.0,0.022555435076355934
10.0,0.021958913654088974
11.0,0.021359389647841454
12.0,0.020809173583984375
13.0,0.020281249657273293
14.0,0.01979115977883339
15.0,0.019289756193757057
16.0,0.018848352134227753
18.0,0.01801525428891182
20.0,0.017306605353951454
22.0,0.016691187396645546
24.0,0.016101526096463203
26.0,0.015610997565090656
28.0,0.015121889300644398
30.0,0.014718172140419483
32.0,0.01428722683340311
36.0,0.013562174513936043
40.0,0.012866155244410038
44.0,0.012196166440844536
48.0,0.01151819247752428
52.0,0.010896597988903522
56.0,0.010424129664897919
60.0,0.010104990564286709
64.0,0.009757590480148792
72.0,0.009681135416030884
80.0,0.009678498841822147
88.0,0.009321505203843117
96.0,0.008865305222570896
104.0,0.008152108639478683
112.0,0.007139799650758505
120.0,0.006573633290827274
128.0,0.006341149564832449
144.0,0.005809884052723646
160.0,0.005721804220229387
176.0,0.005462800618261099
192.0,0.005299881566315889
208.0,0.0051811691373586655
224.0,0.00496657332405448
240.0,0.004707382991909981
256.0,0.005095302127301693
288.0,0.005022604949772358
320.0,0.004343466367572546
352.0,0.004258620552718639
384.0,0.003523149061948061
416.0,0.0028868813533335924
448.0,0.0026871177833527327
480.0,0.0014123962027952075
512.0,0.0021836338564753532
576.0,0.00251543871127069
640.0,0.0013245438458397985
704.0,0.0009257005294784904
768.0,7.203770655905828e-05
832.0,-0.00038298527942970395
896.0,0.00024345258134417236
960.0,-0.0010716740507632494
1024.0,-0.00015741339302621782
1152.0,-0.0011145089520141482
1280.0,-0.0026133351493626833
1408.0,-0.00039680881309323013
1536.0,-0.0003968917008023709
1664.0,0.000575522833969444
1792.0,0.0020251208916306496
1920.0,0.002387062646448612
2048.0,0.0024562166072428226
2304.0,-0.00018048657511826605
2560.0,0.001941085560247302
2816.0,0.00023163009609561414
3072.0,-0.00040020354208536446
3328.0,-0.002012859098613262
3584.0,-0.0011063838610425591
3840.0,-0.002448837272822857
4096.0,-0.0008122219587676227
4608.0,-0.00032655178802087903
5120.0,-0.0019091524882242084
5632.0,-0.0019882414489984512
6144.0,-0.0018738965736702085
6656.0,0.00012113581033190712
7168.0,-0.00012928021897096187
7680.0,-0.0018354119965806603
8192.0,-2.1693991584470496e-05
end
