version,3.0
numOfCh,1
type,point
parent_name,19e3e_0dot6-0dot01
ch_type,1_1
kcount,1
numberNandB,1
brightnessNandB,1
carpet pos,0
pc,0
Time (ms),CH1 Auto-Correlation
1.0,0.023640550673007965
2.0,0.02247074991464615
3.0,0.021451156586408615
4.0,0.020527150481939316
5.0,0.019683213904500008
6.0,0.01891978457570076
7.0,0.018219593912363052
8.0,0.01756899803876877
9.0,0.01698295958340168
10.0,0.01643093302845955
11.0,0.01590934582054615
12.0,0.015414424240589142
13.0,0.014939907938241959
14.0,0.014454549178481102
15.0,0.014023175463080406
16.0,0.013595870696008205
18.0,0.012844309210777283
20.0,0.012179113924503326
22.0,0.011598496697843075
24.0,0.011028718203306198
26.0,0.010507477447390556
28.0,0.010087605565786362
30.0,0.009749751538038254
32.0,0.009421596303582191
36.0,0.008839878253638744
40.0,0.008235892280936241
44.0,0.007676135748624802
48.0,0.007076129782944918
52.0,0.006539332680404186
56.0,0.0060119652189314365
60.0,0.005571937654167414
64.0,0.005198183469474316
72.0,0.004668395034968853
80.0,0.004437530413269997
88.0,0.003997779916971922
96.0,0.00359541829675436
104.0,0.003232761984691024
112.0,0.0028921589255332947
120.0,0.0027634529396891594
128.0,0.0027014887891709805
144.0,0.002323384629562497
160.0,0.0016983812674880028
176.0,0.0019336669938638806
192.0,0.0020155785605311394
208.0,0.002347840229049325
224.0,0.002774242777377367
240.0,0.0027967351488769054
256.0,0.0028053028509020805
288.0,0.003437580307945609
320.0,0.002785102231428027
352.0,0.0024347680155187845
384.0,0.0023734294809401035
416.0,0.0021905803587287664
448.0,0.0018657705513760448
480.0,0.001614688546396792
512.0,0.0012376890517771244
576.0,-6.985620711930096e-05
640.0,-8.2868013123516e-05
704.0,-2.4095268145174487e-06
768.0,-0.0002999660500790924
832.0,0.000717174494639039
896.0,0.00015989910752978176
960.0,-0.0005244445637799799
1024.0,-0.0012141134357079864
1152.0,-0.0004971498856320977
1280.0,-0.001590841799043119
1408.0,-0.0024082704912871122
1536.0,-0.001324254204519093
1664.0,-0.0018614217406138778
1792.0,-0.0027671896386891603
1920.0,-0.0017592370277270675
2048.0,-0.0004954153555445373
2304.0,0.0007363660843111575
2560.0,-0.0001637343957554549
2816.0,0.00045944744488224387
3072.0,0.0015135486610233784
3328.0,0.0009931939421221614
3584.0,0.0009974075946956873
3840.0,0.0016822973266243935
4096.0,0.0007586329593323171
4608.0,-0.0005268108216114342
5120.0,-0.0019440933829173446
5632.0,-0.0010811795946210623
6144.0,0.0005507429596036673
6656.0,0.0014398511266335845
7168.0,0.0011165557662025094
7680.0,0.0008073031203821301
8192.0,-0.00120528694242239
end
