version,3.0
numOfCh,1
type,point
parent_name,19e3e_0dot6-0dot01
ch_type,1_1
kcount,1
numberNandB,1
brightnessNandB,1
carpet pos,0
pc,0
Time (ms),CH1 Auto-Correlation
1.0,0.024824269115924835
2.0,0.02372836321592331
3.0,0.022741490975022316
4.0,0.021817775443196297
5.0,0.020986584946513176
6.0,0.020236756652593613
7.0,0.01951843500137329
8.0,0.018842894583940506
9.0,0.01822858862578869
10.0,0.017690276727080345
11.0,0.017181405797600746
12.0,0.016712399199604988
13.0,0.01625712215900421
14.0,0.015860222280025482
15.0,0.015445809811353683
16.0,0.015076312236487865
18.0,0.014396668411791325
20.0,0.01377857755869627
22.0,0.013201397843658924
24.0,0.012705741450190544
26.0,0.012180770747363567
28.0,0.011641600169241428
30.0,0.011152546852827072
32.0,0.010713741183280945
36.0,0.009991365484893322
40.0,0.009409409947693348
44.0,0.008881949819624424
48.0,0.008362033404409885
52.0,0.007927270606160164
56.0,0.007547337096184492
60.0,0.007147361058741808
64.0,0.0068281665444374084
72.0,0.006444229744374752
80.0,0.005702637135982513
88.0,0.004772685002535582
96.0,0.0041466946713626385
104.0,0.0035302946344017982
112.0,0.0029523405246436596
120.0,0.0025739669799804688
128.0,0.0023759498726576567
144.0,0.0023389982525259256
160.0,0.0016916125314310193
176.0,0.0013545096153393388
192.0,0.0018264275277033448
208.0,0.002161567099392414
224.0,0.002190197119489312
240.0,0.0023977095261216164
256.0,0.0025118961930274963
288.0,0.0023353134747594595
320.0,0.0010047248797491193
352.0,-0.0004316750564612448
384.0,-0.0007357284775935113
416.0,-0.000737024296540767
448.0,-0.00014301371993497014
480.0,0.00015112929395399988
512.0,0.00046778758405707777
576.0,-0.0009865849278867245
640.0,-0.0013991164742037654
704.0,-0.0001484522654209286
768.0,0.00040474094566889107
832.0,-0.0020862428937107325
896.0,-0.0031617048662155867
960.0,-0.0020545367151498795
1024.0,-0.0018180011538788676
1152.0,0.0002772662846837193
1280.0,0.0008086099987849593
1408.0,-0.0002833958133123815
1536.0,-0.00014125661982689053
1664.0,-0.0007827151566743851
1792.0,0.0006854305975139141
1920.0,0.0009706460405141115
2048.0,0.001316583133302629
2304.0,8.628317300463095e-05
2560.0,-0.0004470551502890885
2816.0,-0.0013703113654628396
3072.0,-0.0018196621676906943
3328.0,-0.0007676450768485665
3584.0,-0.0008991847280412912
3840.0,0.0007061205105856061
4096.0,-0.00037427665665745735
4608.0,-0.00011053365597035736
5120.0,-0.0003524197672959417
5632.0,0.000447846541646868
6144.0,0.0019403081387281418
6656.0,0.00012234781752340496
7168.0,-0.000275216851150617
7680.0,3.535252108122222e-05
8192.0,0.00013673507783096284
end
