version,3.0
numOfCh,1
type,point
parent_name,19e3e_0dot6-0dot01
ch_type,1_1
kcount,1
numberNandB,1
brightnessNandB,1
carpet pos,0
pc,0
Time (ms),CH1 Auto-Correlation
1.0,0.03541896864771843
2.0,0.03433139622211456
3.0,0.03334245830774307
4.0,0.03244612738490105
5.0,0.031593143939971924
6.0,0.030789319425821304
7.0,0.030031437054276466
8.0,0.029350459575653076
9.0,0.028726816177368164
10.0,0.028182268142700195
11.0,0.027703531086444855
12.0,0.0272388756275177
13.0,0.026816464960575104
14.0,0.026397237554192543
15.0,0.025972450152039528
16.0,0.02554520219564438
18.0,0.024705123156309128
20.0,0.023893598467111588
22.0,0.023139771074056625
24.0,0.022397445514798164
26.0,0.021739376708865166
28.0,0.02123064175248146
30.0,0.020717833191156387
32.0,0.020265480503439903
36.0,0.01948380284011364
40.0,0.018723856657743454
44.0,0.017992477864027023
48.0,0.017349308356642723
52.0,0.016794346272945404
56.0,0.016366545110940933
60.0,0.01595783233642578
64.0,0.015582500025629997
72.0,0.014968396164476871
80.0,0.014416106976568699
88.0,0.014178644865751266
96.0,0.013877415098249912
104.0,0.013686142861843109
112.0,0.01360174361616373
120.0,0.01339403074234724
128.0,0.01313434075564146
144.0,0.012296468019485474
160.0,0.011653201654553413
176.0,0.011241922155022621
192.0,0.010911494493484497
208.0,0.009804829955101013
224.0,0.008247596211731434
240.0,0.007825450040400028
256.0,0.008191164582967758
288.0,0.00808279775083065
320.0,0.00728971092030406
352.0,0.006474280264228582
384.0,0.00667967414483428
416.0,0.006378684658557177
448.0,0.006790890824049711
480.0,0.006445303559303284
512.0,0.005053146742284298
576.0,0.005326558835804462
640.0,0.0063111321069300175
704.0,0.006315811071544886
768.0,0.006558625027537346
832.0,0.00724763935431838
896.0,0.00622432678937912
960.0,0.005523849278688431
1024.0,0.003816107986494899
1152.0,0.0012067724019289017
1280.0,1.6886247976799496e-05
1408.0,-0.00031967548420652747
1536.0,0.0010750442743301392
1664.0,0.0013100384967401624
1792.0,0.0013445705408230424
1920.0,-0.0005931551568210125
2048.0,-0.0023639739956706762
2304.0,-0.002307301387190819
2560.0,-0.0017515242798253894
2816.0,-0.0029208941850811243
3072.0,-0.0030586286447942257
3328.0,-0.002095194533467293
3584.0,-0.0016883807256817818
3840.0,-0.0018863532459363341
4096.0,-0.0010488256812095642
4608.0,0.0007321284501813352
5120.0,0.000983853475190699
5632.0,-0.0026214546523988247
6144.0,-0.003179228398948908
6656.0,-0.0010490334825590253
7168.0,-0.0007339669391512871
7680.0,-0.0037568314000964165
8192.0,-0.005913869943469763
end
