version,3.0
numOfCh,1
type,point
parent_name,19e3e_0dot6-0dot01
ch_type,1_1
kcount,1
numberNandB,1
brightnessNandB,1
carpet pos,0
pc,0
Time (ms),CH1 Auto-Correlation
1.0,0.04829426482319832
2.0,0.04711936041712761
3.0,0.046037644147872925
4.0,0.04503646865487099
5.0,0.04409394413232803
6.0,0.043207697570323944
7.0,0.04235244169831276
8.0,0.04156509414315224
9.0,0.040826648473739624
10.0,0.040102459490299225
11.0,0.039431653916835785
12.0,0.038791682571172714
13.0,0.038172636181116104
14.0,0.037591055035591125
15.0,0.03706589713692665
16.0,0.036588311195373535
18.0,0.035717565566301346
20.0,0.03480732440948486
22.0,0.03389521688222885
24.0,0.032975077629089355
26.0,0.03210517391562462
28.0,0.031370408833026886
30.0,0.030780792236328125
32.0,0.030207404866814613
36.0,0.029431020841002464
40.0,0.028813030570745468
44.0,0.028224704787135124
48.0,0.02757159247994423
52.0,0.026773719117045403
56.0,0.026026461273431778
60.0,0.02544878050684929
64.0,0.024895822629332542
72.0,0.023605840280652046
80.0,0.02200160175561905
88.0,0.02047896198928356
96.0,0.019128650426864624
104.0,0.01792808808386326
112.0,0.01673537865281105
120.0,0.01547847781330347
128.0,0.014157485216856003
144.0,0.013245319947600365
160.0,0.013132196851074696
176.0,0.012509549967944622
192.0,0.010690885595977306
208.0,0.009733670391142368
224.0,0.010178453288972378
240.0,0.010116174817085266
256.0,0.009535889141261578
288.0,0.00974117498844862
320.0,0.00843028910458088
352.0,0.007449564058333635
384.0,0.005879498086869717
416.0,0.0076408120803534985
448.0,0.007933146320283413
480.0,0.008053578436374664
512.0,0.009499190375208855
576.0,0.00898059457540512
640.0,0.007113140542060137
704.0,0.003438748186454177
768.0,0.0015283656539395452
832.0,0.0019311396172270179
896.0,0.0018822236452251673
960.0,0.0016415221616625786
1024.0,0.002214456908404827
1152.0,-0.0009461357840336859
1280.0,-0.0013422997435554862
1408.0,-0.0011888339649885893
1536.0,-0.002708090003579855
1664.0,-0.00299260881729424
1792.0,-0.0014923845883458853
1920.0,-0.0015557630686089396
2048.0,-0.0047901589423418045
2304.0,-0.002342160325497389
2560.0,-0.0007962200324982405
2816.0,-0.002636145567521453
3072.0,5.228241934673861e-05
3328.0,-0.0020053249318152666
3584.0,0.00038322561886161566
3840.0,-0.0012559209717437625
4096.0,-0.0015788068994879723
4608.0,0.0008111289935186505
5120.0,0.0007974777836352587
5632.0,0.0015371027402579784
6144.0,0.0003865976759698242
6656.0,-0.002313461620360613
7168.0,-0.004496526904404163
7680.0,-0.0004938276251778007
8192.0,0.0033321308437734842
end
