version,3.0
numOfCh,1
type,point
parent_name,19e3e_0dot6-0dot01
ch_type,1_1
kcount,1
numberNandB,1
brightnessNandB,1
carpet pos,0
pc,0
Time (ms),CH1 Auto-Correlation
1.0,0.15173736214637756
2.0,0.15028275549411774
3.0,0.14893780648708344
4.0,0.1476215273141861
5.0,0.14645738899707794
6.0,0.14531682431697845
7.0,0.14424628019332886
8.0,0.14328287541866302
9.0,0.14226771891117096
10.0,0.14133988320827484
11.0,0.14042425155639648
12.0,0.13950921595096588
13.0,0.13861073553562164
14.0,0.13768374919891357
15.0,0.1368851512670517
16.0,0.13606180250644684
18.0,0.13447806239128113
20.0,0.1329781860113144
22.0,0.13150589168071747
24.0,0.13015083968639374
26.0,0.1288539171218872
28.0,0.12785811722278595
30.0,0.1267341673374176
32.0,0.12567009031772614
36.0,0.12325529009103775
40.0,0.12072122097015381
44.0,0.11827392876148224
48.0,0.11620470881462097
52.0,0.11435739696025848
56.0,0.11253180354833603
60.0,0.11051806807518005
64.0,0.10834548622369766
72.0,0.10535158962011337
80.0,0.10426711291074753
88.0,0.10362806171178818
96.0,0.10302485525608063
104.0,0.10263815522193909
112.0,0.10195482522249222
120.0,0.10022304207086563
128.0,0.09823310375213623
144.0,0.09415209293365479
160.0,0.09070129692554474
176.0,0.08604211360216141
192.0,0.08328436315059662
208.0,0.08096829056739807
224.0,0.07840191572904587
240.0,0.07409415394067764
256.0,0.0689171701669693
288.0,0.05536734685301781
320.0,0.046571068465709686
352.0,0.04319951310753822
384.0,0.04106144607067108
416.0,0.03888038545846939
448.0,0.03741319105029106
480.0,0.035841524600982666
512.0,0.03492472320795059
576.0,0.03279457986354828
640.0,0.03137612342834473
704.0,0.027085043489933014
768.0,0.02201671712100506
832.0,0.01949264667928219
896.0,0.016555270180106163
960.0,0.015671826899051666
1024.0,0.017561474815011024
1152.0,0.022760871797800064
1280.0,0.021693557500839233
1408.0,0.014287445694208145
1536.0,0.013334888033568859
1664.0,0.01716720499098301
1792.0,0.01995112933218479
1920.0,0.0167667418718338
2048.0,0.0052771237678825855
2304.0,-0.005118651781231165
2560.0,-0.022804271429777145
2816.0,-0.040737345814704895
3072.0,-0.04296364635229111
3328.0,-0.04460105299949646
3584.0,-0.050429001450538635
3840.0,-0.05105630308389664
4096.0,-0.059481896460056305
4608.0,-0.04660224914550781
5120.0,-0.03255290910601616
5632.0,-0.010506521910429
6144.0,0.003969735000282526
6656.0,0.013176835142076015
7168.0,0.02409798838198185
7680.0,0.029510121792554855
8192.0,0.03373274579644203
end
