version,3.0
numOfCh,1
type,point
parent_name,19e3e_0dot6-0dot01
ch_type,1_1
kcount,1
numberNandB,1
brightnessNandB,1
carpet pos,0
pc,0
Time (ms),CH1 Auto-Correlation
1.0,0.030054517090320587
2.0,0.028919275850057602
3.0,0.02786802314221859
4.0,0.026928823441267014
5.0,0.026086894795298576
6.0,0.02532864175736904
7.0,0.024604789912700653
8.0,0.023970620706677437
9.0,0.023345965892076492
10.0,0.022763419896364212
11.0,0.022200942039489746
12.0,0.021674659103155136
13.0,0.021177923306822777
14.0,0.020738238468766212
15.0,0.02032054401934147
16.0,0.01994512788951397
18.0,0.0192998219281435
20.0,0.018723689019680023
22.0,0.018196001648902893
24.0,0.0177219957113266
26.0,0.01732558012008667
28.0,0.016989683732390404
30.0,0.01667107827961445
32.0,0.016388678923249245
36.0,0.015805158764123917
40.0,0.015107695944607258
44.0,0.014425506815314293
48.0,0.01374715194106102
52.0,0.013062366284430027
56.0,0.0125889228656888
60.0,0.012248692102730274
64.0,0.011877903714776039
72.0,0.01117647159844637
80.0,0.010787406004965305
88.0,0.01036444865167141
96.0,0.009647278115153313
104.0,0.008685275912284851
112.0,0.008353267796337605
120.0,0.00808045919984579
128.0,0.007728558033704758
144.0,0.006553377956151962
160.0,0.006557974498718977
176.0,0.006335461046546698
192.0,0.006059680599719286
208.0,0.005801686551421881
224.0,0.005120086017996073
240.0,0.004304810427129269
256.0,0.003995188511908054
288.0,0.0030845259316265583
320.0,0.002537607681006193
352.0,0.0028768915217369795
384.0,0.0024099014699459076
416.0,0.0023617472033947706
448.0,0.0029179109260439873
480.0,0.003303316654637456
512.0,0.0028525423258543015
576.0,0.0027175871655344963
640.0,0.0026970605831593275
704.0,0.0020604152232408524
768.0,0.0002440851676510647
832.0,0.0003446443588472903
896.0,-0.00018464485765434802
960.0,-0.0003148347605019808
1024.0,0.0017156637040898204
1152.0,0.00338382669724524
1280.0,0.00176531751640141
1408.0,0.0009911260567605495
1536.0,0.0014159642159938812
1664.0,0.001654567662626505
1792.0,-0.000977900461293757
1920.0,-0.0028426803182810545
2048.0,-0.002344943815842271
2304.0,-0.00018272449960932136
2560.0,0.0016220668330788612
2816.0,0.0016077804611995816
3072.0,0.00038220061105675995
3328.0,0.00016072600556071848
3584.0,0.00031816455884836614
3840.0,0.0024683193769305944
4096.0,0.0018649991834536195
4608.0,-0.0030536435078829527
5120.0,0.0009180835331790149
5632.0,0.0005352480802685022
6144.0,-0.0037432448007166386
6656.0,-0.001869823900051415
7168.0,-0.0040298947133123875
7680.0,-0.0029815344605594873
8192.0,6.467000639531761e-05
end
