version,3.0
numOfCh,1
type,point
parent_name,19e3e_0dot6-0dot01
ch_type,1_1
kcount,1
numberNandB,1
brightnessNandB,1
carpet pos,0
pc,0
Time (ms),CH1 Auto-Correlation
1.0,0.03859042376279831
2.0,0.03748045489192009
3.0,0.03646146506071091
4.0,0.03552791103720665
5.0,0.03465920686721802
6.0,0.033884648233652115
7.0,0.03315826132893562
8.0,0.03247633948922157
9.0,0.031835731118917465
10.0,0.031248517334461212
11.0,0.030672093853354454
12.0,0.030132543295621872
13.0,0.029661597684025764
14.0,0.029208863154053688
15.0,0.028763161972165108
16.0,0.02836284227669239
18.0,0.027600470930337906
20.0,0.02689266763627529
22.0,0.02624431997537613
24.0,0.025573313236236572
26.0,0.02493307739496231
28.0,0.024277888238430023
30.0,0.023632247000932693
32.0,0.023088200017809868
36.0,0.02220662496984005
40.0,0.021411655470728874
44.0,0.020603414624929428
48.0,0.019944598898291588
52.0,0.019507650285959244
56.0,0.019081611186265945
60.0,0.018689818680286407
64.0,0.018216919153928757
72.0,0.0170727651566267
80.0,0.016014758497476578
88.0,0.015359461307525635
96.0,0.015098460018634796
104.0,0.014851885847747326
112.0,0.014522909186780453
120.0,0.014158915728330612
128.0,0.014193655923008919
144.0,0.01354341022670269
160.0,0.012909071519970894
176.0,0.012731618247926235
192.0,0.012156789191067219
208.0,0.011074707843363285
224.0,0.010500018484890461
240.0,0.009642516262829304
256.0,0.008943640626966953
288.0,0.008944742381572723
320.0,0.010475360788404942
352.0,0.011260627768933773
384.0,0.010203204117715359
416.0,0.010225084610283375
448.0,0.00961359404027462
480.0,0.008624795824289322
512.0,0.00860380008816719
576.0,0.008061778731644154
640.0,0.006032686680555344
704.0,0.006009310949593782
768.0,0.004447930958122015
832.0,0.0036223893985152245
896.0,0.003085929900407791
960.0,0.0026830758433789015
1024.0,0.00201622792519629
1152.0,0.002725713886320591
1280.0,0.003710924182087183
1408.0,0.0035749829839915037
1536.0,0.0023986853193491697
1664.0,-0.0001777054712874815
1792.0,-0.0015322951367124915
1920.0,-9.266516281059012e-05
2048.0,-0.0012714932672679424
2304.0,-0.0028555223252624273
2560.0,-0.005965563002973795
2816.0,-0.0037190099246799946
3072.0,-0.006972714327275753
3328.0,-0.0027170854154974222
3584.0,-0.0011760168708860874
3840.0,-0.0036506487522274256
4096.0,-0.005552439019083977
4608.0,-0.0022438601590692997
5120.0,0.00304720108397305
5632.0,0.0011455260682851076
6144.0,-0.0007408601813949645
6656.0,-0.0014812953304499388
7168.0,0.0002602380409371108
7680.0,-0.002043643034994602
8192.0,-0.0049530682153999805
end
