version,3.0
numOfCh,1
type,point
parent_name,19e3e_0dot6-0dot01
ch_type,1_1
kcount,1
numberNandB,1
brightnessNandB,1
carpet pos,0
pc,0
Time (ms),CH1 Auto-Correlation
1.0,0.03223660588264465
2.0,0.03068435564637184
3.0,0.02924530953168869
4.0,0.027820726856589317
5.0,0.026574598625302315
6.0,0.025396505370736122
7.0,0.024333320558071136
8.0,0.023676613345742226
9.0,0.0230419859290123
10.0,0.022475911304354668
11.0,0.02194969169795513
12.0,0.021527325734496117
13.0,0.021119611337780952
14.0,0.020742267370224
15.0,0.02042367123067379
16.0,0.02014133706688881
18.0,0.019630858674645424
20.0,0.019193928688764572
22.0,0.01872093789279461
24.0,0.01817152462899685
26.0,0.01757032237946987
28.0,0.016948018223047256
30.0,0.016361039131879807
32.0,0.015854572877287865
36.0,0.014829479157924652
40.0,0.013942034915089607
44.0,0.013325965963304043
48.0,0.012618144042789936
52.0,0.012125267647206783
56.0,0.011625722981989384
60.0,0.010958490893244743
64.0,0.010246982797980309
72.0,0.009809640236198902
80.0,0.009396351873874664
88.0,0.009011396206915379
96.0,0.00873798318207264
104.0,0.008591788820922375
112.0,0.008501777425408363
120.0,0.00823491346091032
128.0,0.007822019048035145
144.0,0.007400076370686293
160.0,0.0072919041849672794
176.0,0.0070078494027256966
192.0,0.0061462512239813805
208.0,0.0053619761019945145
224.0,0.0048507037572562695
240.0,0.0048308908008039
256.0,0.004155816975980997
288.0,0.003908443730324507
320.0,0.004060983192175627
352.0,0.003911087289452553
384.0,0.0032381017226725817
416.0,0.0016816966235637665
448.0,0.001218282850459218
480.0,0.0015230773715302348
512.0,0.0011581280268728733
576.0,-0.0018596082227304578
640.0,-0.0017915531061589718
704.0,-0.0009358468814752996
768.0,-0.00037618153146468103
832.0,0.0005211576935835183
896.0,0.00010526873666094616
960.0,-0.00228879414498806
1024.0,-0.0017341336933895946
1152.0,-0.002262414200231433
1280.0,-0.0005281402263790369
1408.0,-0.0001364264899166301
1536.0,0.0014650496887043118
1664.0,0.0016176196513697505
1792.0,-0.00017788662808015943
1920.0,-0.0013443833449855447
2048.0,-0.0012231252621859312
2304.0,-0.0016175989294424653
2560.0,-0.0017625543987378478
2816.0,-0.0009421853465028107
3072.0,-0.0011765449307858944
3328.0,-0.0006103361374698579
3584.0,-0.0006281158421188593
3840.0,-0.001605153433047235
4096.0,-2.051209594355896e-05
4608.0,-0.0025311531499028206
5120.0,-0.0006530644022859633
5632.0,0.0014022918185219169
6144.0,0.0015905614709481597
6656.0,0.00570992985740304
7168.0,0.002327910391613841
7680.0,-0.006541687063872814
8192.0,0.0025164736434817314
end
