version,3.0
numOfCh,1
type,point
parent_name,19e3e_0dot6-0dot01
ch_type,1_1
kcount,1
numberNandB,1
brightnessNandB,1
carpet pos,0
pc,0
Time (ms),CH1 Auto-Correlation
1.0,0.07174506783485413
2.0,0.07001572847366333
3.0,0.06838645040988922
4.0,0.06684041768312454
5.0,0.06549631059169769
6.0,0.06425239890813828
7.0,0.06307509541511536
8.0,0.06199958547949791
9.0,0.06095777451992035
10.0,0.06000730022788048
11.0,0.05903414636850357
12.0,0.05812766030430794
13.0,0.05721230432391167
14.0,0.056327831000089645
15.0,0.05548439919948578
16.0,0.05457658693194389
18.0,0.05289655178785324
20.0,0.05128016695380211
22.0,0.04971327632665634
24.0,0.048204656690359116
26.0,0.0467616505920887
28.0,0.04547679424285889
30.0,0.04420114681124687
32.0,0.04291427135467529
36.0,0.040482297539711
40.0,0.03831822797656059
44.0,0.03636830300092697
48.0,0.034512732177972794
52.0,0.032720863819122314
56.0,0.030556583777070045
60.0,0.028152933344244957
64.0,0.026142043992877007
72.0,0.02290201559662819
80.0,0.02043667621910572
88.0,0.01830914616584778
96.0,0.016547618433833122
104.0,0.014408094808459282
112.0,0.0113468486815691
120.0,0.008170230314135551
128.0,0.0051592569798231125
144.0,0.005872721318155527
160.0,0.006505979225039482
176.0,0.00831728894263506
192.0,0.011340342462062836
208.0,0.013151123188436031
224.0,0.01444814819842577
240.0,0.014533274807035923
256.0,0.012956728227436543
288.0,0.00830826722085476
320.0,0.004472292959690094
352.0,0.002986545441672206
384.0,0.001269844244234264
416.0,-0.0012739059748128057
448.0,-0.000770868849940598
480.0,-0.0014858742943033576
512.0,-0.003583964891731739
576.0,-0.0030639972537755966
640.0,-0.002729482250288129
704.0,-0.0027308401186019182
768.0,-0.004343546461313963
832.0,-0.004056375939399004
896.0,-0.0003571181441657245
960.0,0.0028984674718230963
1024.0,0.0029512797482311726
1152.0,0.0020708844531327486
1280.0,0.006172752473503351
1408.0,0.006319120526313782
1536.0,0.008867590688169003
1664.0,0.003123284550383687
1792.0,0.0008854177431203425
1920.0,0.0004997661453671753
2048.0,-0.00036512865335680544
2304.0,0.0014256814029067755
2560.0,0.004095442593097687
2816.0,0.002044870750978589
3072.0,-0.0013871741248294711
3328.0,-0.00046398554695770144
3584.0,0.001409295597113669
3840.0,-6.0108282923465595e-05
4096.0,-0.003906995989382267
4608.0,-0.00017360126366838813
5120.0,0.0014417720958590508
5632.0,-0.005384675692766905
6144.0,0.0006299896049313247
6656.0,-0.0065779658034443855
7168.0,-0.0019613553304225206
7680.0,-0.010586174204945564
8192.0,-0.008816621266305447
end
