version,3.0
numOfCh,1
type,point
parent_name,19e3e_0dot6-0dot01
ch_type,1_1
kcount,1
numberNandB,1
brightnessNandB,1
carpet pos,0
pc,0
Time (ms),CH1 Auto-Correlation
1.0,0.023854807019233704
2.0,0.022705672308802605
3.0,0.021677939221262932
4.0,0.020743943750858307
5.0,0.01986795850098133
6.0,0.019063958898186684
7.0,0.018350817263126373
8.0,0.017693931236863136
9.0,0.017089039087295532
10.0,0.016515688970685005
11.0,0.015981141477823257
12.0,0.015467677265405655
13.0,0.014963557943701744
14.0,0.014455332420766354
15.0,0.014014569111168385
16.0,0.013607359491288662
18.0,0.012886746786534786
20.0,0.012349247001111507
22.0,0.011901852674782276
24.0,0.011537816375494003
26.0,0.011167081072926521
28.0,0.010865322314202785
30.0,0.010577688924968243
32.0,0.010230327025055885
36.0,0.009592648595571518
40.0,0.009056932292878628
44.0,0.00856232549995184
48.0,0.008046451024711132
52.0,0.00763723673298955
56.0,0.007397856563329697
60.0,0.007091598119586706
64.0,0.0067841424606740475
72.0,0.00584451574832201
80.0,0.005056304857134819
88.0,0.004728065337985754
96.0,0.004612328484654427
104.0,0.004413836169987917
112.0,0.004438076633960009
120.0,0.004383269231766462
128.0,0.004299362655729055
144.0,0.0041395798325538635
160.0,0.0035781324841082096
176.0,0.0030337516218423843
192.0,0.0026885855477303267
208.0,0.0023910298477858305
224.0,0.0015383409336209297
240.0,0.0009323320700787008
256.0,0.000795844360254705
288.0,0.00019863057241309434
320.0,-0.00013078913616482168
352.0,-0.00025102164363488555
384.0,-0.00044673800584860146
416.0,-0.0004696277901530266
448.0,-0.0003614794695749879
480.0,-0.0002027986920438707
512.0,0.0003799196274485439
576.0,4.5948923798277974e-05
640.0,0.0003535398282110691
704.0,0.0006662385421805084
768.0,0.0009098667651414871
832.0,0.0022486173547804356
896.0,0.0012962870532646775
960.0,0.001130674034357071
1024.0,0.0006491500535048544
1152.0,-0.00047625278239138424
1280.0,-0.001181127387098968
1408.0,-0.001163263339549303
1536.0,3.002640551130753e-05
1664.0,1.6872781998245046e-05
1792.0,-0.0007281855214387178
1920.0,-8.9024513727054e-05
2048.0,-0.0002259239845443517
2304.0,-0.0015146867372095585
2560.0,-0.0002448785526212305
2816.0,-0.0018633924191817641
3072.0,-0.0015143787022680044
3328.0,-0.0010945945978164673
3584.0,-0.0003731079341378063
3840.0,0.00016810653323773295
4096.0,0.00082378153456375
4608.0,0.0008479919633828104
5120.0,0.000991986715234816
5632.0,-3.0551309464499354e-06
6144.0,0.0005282849888317287
6656.0,8.988973422674462e-05
7168.0,-0.0003769196628127247
7680.0,-0.0021664754021912813
8192.0,-0.001732364995405078
end
