version,3.0
numOfCh,1
type,point
parent_name,19e3e_0dot6-0dot01
ch_type,1_1
kcount,1
numberNandB,1
brightnessNandB,1
carpet pos,0
pc,0
Time (ms),CH1 Auto-Correlation
1.0,0.04612342640757561
2.0,0.04492202773690224
3.0,0.04381606727838516
4.0,0.042759716510772705
5.0,0.041742533445358276
6.0,0.040773410350084305
7.0,0.03989086300134659
8.0,0.039060115814208984
9.0,0.03831018507480621
10.0,0.03759464994072914
11.0,0.03693219646811485
12.0,0.03632719814777374
13.0,0.035774506628513336
14.0,0.03522730991244316
15.0,0.034751810133457184
16.0,0.03428689017891884
18.0,0.03351640701293945
20.0,0.03273329511284828
22.0,0.03203492984175682
24.0,0.0314350388944149
26.0,0.03083685040473938
28.0,0.03020641766488552
30.0,0.02955450676381588
32.0,0.028921538963913918
36.0,0.027794314548373222
40.0,0.026808660477399826
44.0,0.02595277689397335
48.0,0.025124654173851013
52.0,0.024355895817279816
56.0,0.023564977571368217
60.0,0.022618819028139114
64.0,0.021763350814580917
72.0,0.02094118855893612
80.0,0.020664246752858162
88.0,0.01988937519490719
96.0,0.018908949568867683
104.0,0.01797311380505562
112.0,0.01734674721956253
120.0,0.016917569562792778
128.0,0.016538498923182487
144.0,0.015109566040337086
160.0,0.013294304721057415
176.0,0.012385634705424309
192.0,0.012377786450088024
208.0,0.012560874223709106
224.0,0.0128171993419528
240.0,0.012675970792770386
256.0,0.011934197507798672
288.0,0.009850789792835712
320.0,0.008585362695157528
352.0,0.0070848665200173855
384.0,0.0065283565782010555
416.0,0.005856032017618418
448.0,0.005433017387986183
480.0,0.005305067170411348
512.0,0.005166238639503717
576.0,0.007506505586206913
640.0,0.006698879878968
704.0,0.006178494542837143
768.0,0.007253984920680523
832.0,0.007824045605957508
896.0,0.007560512516647577
960.0,0.0035571909975260496
1024.0,0.0014229268999770284
1152.0,0.003974241204559803
1280.0,0.0018278093775734305
1408.0,0.001467620488256216
1536.0,0.0007948675192892551
1664.0,-0.0012846754398196936
1792.0,0.0014380129287019372
1920.0,0.0021288315765559673
2048.0,0.002973893890157342
2304.0,0.0015661921352148056
2560.0,-0.0023227401543408632
2816.0,-0.0030540472362190485
3072.0,-0.0038529145531356335
3328.0,-0.006858235690742731
3584.0,-0.011056282557547092
3840.0,-0.006237415596842766
4096.0,-0.0031392755918204784
4608.0,-0.0016344311879947782
5120.0,-0.003780434839427471
5632.0,-0.008450844325125217
6144.0,-0.002900902181863785
6656.0,-0.0014467982109636068
7168.0,0.0005646679201163352
7680.0,-0.002550665521994233
8192.0,0.003178094979375601
end
