version,3.0
numOfCh,1
type,point
parent_name,19e3e_0dot6-0dot01
ch_type,1_1
kcount,1
numberNandB,1
brightnessNandB,1
carpet pos,0
pc,0
Time (ms),CH1 Auto-Correlation
1.0,0.02477724477648735
2.0,0.02365148440003395
3.0,0.022614581510424614
4.0,0.021653171628713608
5.0,0.02078893780708313
6.0,0.019957495853304863
7.0,0.01920696534216404
8.0,0.018499771133065224
9.0,0.017812373116612434
10.0,0.017191067337989807
11.0,0.01659472845494747
12.0,0.01605774089694023
13.0,0.015581122599542141
14.0,0.015136219561100006
15.0,0.014689232222735882
16.0,0.014243117533624172
18.0,0.013436507433652878
20.0,0.012746840715408325
22.0,0.012189425528049469
24.0,0.01165787409991026
26.0,0.011167526245117188
28.0,0.010717901401221752
30.0,0.010325239039957523
32.0,0.0099900271743536
36.0,0.009420295245945454
40.0,0.008822325617074966
44.0,0.00833824835717678
48.0,0.008008693344891071
52.0,0.007720011752098799
56.0,0.007536462042480707
60.0,0.007331293076276779
64.0,0.00706943403929472
72.0,0.006444124039262533
80.0,0.005648663733154535
88.0,0.00489273713901639
96.0,0.004442749544978142
104.0,0.004223903641104698
112.0,0.003953665029257536
120.0,0.0035930220037698746
128.0,0.00356594892218709
144.0,0.0034963078796863556
160.0,0.0038417642936110497
176.0,0.004067598842084408
192.0,0.0036320164799690247
208.0,0.002868982730433345
224.0,0.0028074157889932394
240.0,0.002907042158767581
256.0,0.003052179701626301
288.0,0.002626782516017556
320.0,0.0028794880490750074
352.0,0.00288230087608099
384.0,0.002649900270625949
416.0,0.0024947836063802242
448.0,0.002057935344055295
480.0,0.0010856430744752288
512.0,0.0004131277382839471
576.0,0.0008568118792027235
640.0,0.0015467279590666294
704.0,0.0011106953024864197
768.0,0.0016008485108613968
832.0,0.0011293045245110989
896.0,7.738884050922934e-06
960.0,0.001094734761863947
1024.0,0.0023975020740181208
1152.0,0.0015821416163817048
1280.0,0.0008945025037974119
1408.0,0.00042701384518295527
1536.0,-0.0019250179175287485
1664.0,-0.0014669077936559916
1792.0,-0.0006004379829391837
1920.0,0.0002891898911911994
2048.0,0.0004310142248868942
2304.0,0.0006013652891851962
2560.0,-0.0008788009290583432
2816.0,-0.0008933058124966919
3072.0,0.0008730491972528398
3328.0,0.0019795948173850775
3584.0,-7.470237324014306e-05
3840.0,-0.001634364016354084
4096.0,0.00011838370119221509
4608.0,-0.0005031419568695128
5120.0,-0.0014230471570044756
5632.0,-0.0009391054045408964
6144.0,-0.0012514088302850723
6656.0,-0.0016537061892449856
7168.0,-0.002732926281169057
7680.0,-0.0005475335638038814
8192.0,-0.002754982328042388
end
