version,3.0
numOfCh,1
type,point
parent_name,19e3e_0dot6-0dot01
ch_type,1_1
kcount,1
numberNandB,1
brightnessNandB,1
carpet pos,0
pc,0
Time (ms),CH1 Auto-Correlation
1.0,0.21200956404209137
2.0,0.21002309024333954
3.0,0.20810869336128235
4.0,0.20626607537269592
5.0,0.2044905573129654
6.0,0.2027045041322708
7.0,0.2009609043598175
8.0,0.19920344650745392
9.0,0.19744481146335602
10.0,0.19580955803394318
11.0,0.1941371113061905
12.0,0.19248490035533905
13.0,0.19083920121192932
14.0,0.1892903447151184
15.0,0.18777646124362946
16.0,0.18630459904670715
18.0,0.18314751982688904
20.0,0.1799195110797882
22.0,0.17661087214946747
24.0,0.17333374917507172
26.0,0.17023175954818726
28.0,0.1673346906900406
30.0,0.16464178264141083
32.0,0.16281189024448395
36.0,0.16064703464508057
40.0,0.15851521492004395
44.0,0.15651842951774597
48.0,0.15457314252853394
52.0,0.15253284573554993
56.0,0.15038670599460602
60.0,0.14815868437290192
64.0,0.1459527462720871
72.0,0.14114980399608612
80.0,0.13618116080760956
88.0,0.13114367425441742
96.0,0.12637291848659515
104.0,0.12148773670196533
112.0,0.11780062317848206
120.0,0.1152028813958168
128.0,0.11262886226177216
144.0,0.10890727490186691
160.0,0.10633143037557602
176.0,0.10631139576435089
192.0,0.10767275094985962
208.0,0.10758384317159653
224.0,0.10644679516553879
240.0,0.10575706511735916
256.0,0.10398636758327484
288.0,0.09648655354976654
320.0,0.08650118857622147
352.0,0.08029745519161224
384.0,0.07524248212575912
416.0,0.07348570227622986
448.0,0.07412836700677872
480.0,0.07339104264974594
512.0,0.07155420631170273
576.0,0.05681753531098366
640.0,0.0458974689245224
704.0,0.035052020102739334
768.0,0.02685309574007988
832.0,0.02169020101428032
896.0,0.023631367832422256
960.0,0.02477755770087242
1024.0,0.026320813223719597
1152.0,0.03808029741048813
1280.0,0.00900232046842575
1408.0,0.01961672678589821
1536.0,0.024280531331896782
1664.0,0.03920907527208328
1792.0,0.03910818696022034
1920.0,0.029874812811613083
2048.0,0.03137744218111038
2304.0,0.011776609346270561
2560.0,-0.008060000836849213
2816.0,-0.013538964092731476
3072.0,-0.011725233867764473
3328.0,-0.004772302228957415
3584.0,-0.01209601666778326
3840.0,-0.01380760408937931
4096.0,-0.021015804260969162
4608.0,-0.03665008023381233
5120.0,-0.03897455707192421
5632.0,-0.050374966114759445
6144.0,-0.07074417173862457
6656.0,-0.06731154769659042
7168.0,-0.06329434365034103
7680.0,-0.08783116191625595
8192.0,-0.10053152590990067
end
