version,3.0
numOfCh,1
type,point
parent_name,19e3e_0dot6-0dot01
ch_type,1_1
kcount,1
numberNandB,1
brightnessNandB,1
carpet pos,0
pc,0
Time (ms),CH1 Auto-Correlation
1.0,0.023060649633407593
2.0,0.021907752379775047
3.0,0.02085796184837818
4.0,0.019908482208848
5.0,0.01905681937932968
6.0,0.01822066865861416
7.0,0.01744842901825905
8.0,0.016741864383220673
9.0,0.0161149725317955
10.0,0.015532300807535648
11.0,0.014977190643548965
12.0,0.014447501860558987
13.0,0.013923700898885727
14.0,0.013457894325256348
15.0,0.013023913837969303
16.0,0.012603932991623878
18.0,0.01179142203181982
20.0,0.011099117808043957
22.0,0.010525492951273918
24.0,0.010018992237746716
26.0,0.009518645703792572
28.0,0.009041517041623592
30.0,0.008534839376807213
32.0,0.00806807354092598
36.0,0.007347130216658115
40.0,0.006777060683816671
44.0,0.006247864104807377
48.0,0.005647585727274418
52.0,0.00507949385792017
56.0,0.0046177092008292675
60.0,0.004187133628875017
64.0,0.0037615306209772825
72.0,0.003245724830776453
80.0,0.0028478268068283796
88.0,0.0024685771204531193
96.0,0.002017594175413251
104.0,0.0017289958195760846
112.0,0.0017292671836912632
120.0,0.0019508535042405128
128.0,0.0020298792514950037
144.0,0.0015304512344300747
160.0,0.0010561883682385087
176.0,0.0008726302767172456
192.0,0.0001827603264246136
208.0,0.0003711970348376781
224.0,0.0008932935888879001
240.0,0.0013987384736537933
256.0,0.0016157656209543347
288.0,0.0015894302632659674
320.0,0.0018347526201978326
352.0,0.0018585388315841556
384.0,0.0016284113517031074
416.0,0.0010417478624731302
448.0,0.00022770051145926118
480.0,0.0009004166349768639
512.0,0.0013872248819097877
576.0,0.001550403074361384
640.0,5.5972064728848636e-05
704.0,-0.00046328245662152767
768.0,-0.0007185822469182312
832.0,-0.0004253181687090546
896.0,0.0005774300661869347
960.0,5.018645606469363e-05
1024.0,-4.445583908818662e-05
1152.0,0.0009984991047531366
1280.0,-0.0006734469789080322
1408.0,-0.00044611256453208625
1536.0,0.00044766103383153677
1664.0,-0.0004925461835227907
1792.0,-0.0008110611233860254
1920.0,-0.0009082434116862714
2048.0,0.0004579354717861861
2304.0,-0.0019585341215133667
2560.0,-0.0005738412728533149
2816.0,-0.0005817843484692276
3072.0,0.0002537878172006458
3328.0,-0.000758180976845324
3584.0,-9.911158122122288e-05
3840.0,-1.7877664504339918e-06
4096.0,0.0014178953133523464
4608.0,0.0004294657555874437
5120.0,-9.028550994116813e-05
5632.0,-0.0008943627472035587
6144.0,-0.001322626369073987
6656.0,-0.0005793574382551014
7168.0,0.0006940079038031399
7680.0,-0.000638588098809123
8192.0,-0.00017620633298065513
end
