version,3.0
numOfCh,1
type,point
parent_name,19e3e_0dot6-0dot01
ch_type,1_1
kcount,1
numberNandB,1
brightnessNandB,1
carpet pos,0
pc,0
Time (ms),CH1 Auto-Correlation
1.0,0.024863820523023605
2.0,0.02368982881307602
3.0,0.0226385947316885
4.0,0.021703364327549934
5.0,0.020857015624642372
6.0,0.020086446776986122
7.0,0.019384710118174553
8.0,0.018724502995610237
9.0,0.018116945400834084
10.0,0.01754794269800186
11.0,0.017006220296025276
12.0,0.016484534367918968
13.0,0.015989825129508972
14.0,0.015547198243439198
15.0,0.015131175518035889
16.0,0.014754364266991615
18.0,0.014096266590058804
20.0,0.013433350250124931
22.0,0.012741398066282272
24.0,0.012110109440982342
26.0,0.01152632012963295
28.0,0.010958277620375156
30.0,0.010359711945056915
32.0,0.009805282577872276
36.0,0.008873105980455875
40.0,0.008144349791109562
44.0,0.007602471858263016
48.0,0.007245631422847509
52.0,0.007017276715487242
56.0,0.006803188938647509
60.0,0.0065964870154857635
64.0,0.006409853231161833
72.0,0.005973932798951864
80.0,0.005648959893733263
88.0,0.005254517775028944
96.0,0.00484662689268589
104.0,0.00438495771959424
112.0,0.0038175489753484726
120.0,0.003621499752625823
128.0,0.0038366946391761303
144.0,0.0037497279699891806
160.0,0.0029509211890399456
176.0,0.0022486336529254913
192.0,0.002198997186496854
208.0,0.0022264958824962378
224.0,0.001879047485999763
240.0,0.001245992723852396
256.0,0.0011058758245781064
288.0,0.00020021475211251527
320.0,-0.0004506738332565874
352.0,0.0006994094583205879
384.0,5.3507992561208084e-05
416.0,0.00039994626422412694
448.0,-0.0005402952083386481
480.0,-0.000804783427156508
512.0,-0.001232778187841177
576.0,-7.671138155274093e-05
640.0,-0.00037056455039419234
704.0,0.0012385980226099491
768.0,0.0019271200289949775
832.0,0.002638750709593296
896.0,0.0018648059340193868
960.0,0.0015870868228375912
1024.0,0.0011045311111956835
1152.0,-0.0008886553114280105
1280.0,-0.0011311952257528901
1408.0,0.0001837014133343473
1536.0,-6.5200556491618045e-06
1664.0,8.055701619014144e-05
1792.0,0.0006368759786710143
1920.0,0.0005172509700059891
2048.0,8.057127706706524e-05
2304.0,0.00016093470912892371
2560.0,0.0002814189065247774
2816.0,0.0004985053674317896
3072.0,-0.0018963165348395705
3328.0,0.00010458050383022055
3584.0,0.0008067088201642036
3840.0,-0.0013645539293065667
4096.0,0.00026660249568521976
4608.0,-0.0007382290787063539
5120.0,-0.0005958772380836308
5632.0,-0.0008060240652412176
6144.0,0.0012792273191735148
6656.0,0.001231760485097766
7168.0,0.0009844476589933038
7680.0,0.0009249930153600872
8192.0,-0.0011896470095962286
end
