version,3.0
numOfCh,1
type,point
parent_name,19e3e_0dot6-0dot01
ch_type,1_1
kcount,1
numberNandB,1
brightnessNandB,1
carpet pos,0
pc,0
Time (ms),CH1 Auto-Correlation
1.0,0.04092337563633919
2.0,0.03976116329431534
3.0,0.038689713925123215
4.0,0.03769875317811966
5.0,0.03678031265735626
6.0,0.035940852016210556
7.0,0.0351107195019722
8.0,0.0343329943716526
9.0,0.03360917419195175
10.0,0.03289908543229103
11.0,0.03221895918250084
12.0,0.031577687710523605
13.0,0.03094952180981636
14.0,0.03033284842967987
15.0,0.029735485091805458
16.0,0.029235005378723145
18.0,0.028331521898508072
20.0,0.02749437466263771
22.0,0.026636330410838127
24.0,0.02582329884171486
26.0,0.025095146149396896
28.0,0.024352826178073883
30.0,0.02360423281788826
32.0,0.022855782881379128
36.0,0.021525949239730835
40.0,0.02033446915447712
44.0,0.01930755004286766
48.0,0.018408024683594704
52.0,0.017721107229590416
56.0,0.017097078263759613
60.0,0.016554195433855057
64.0,0.01590544357895851
72.0,0.014738112688064575
80.0,0.013840410858392715
88.0,0.013146287761628628
96.0,0.01251966878771782
104.0,0.011852252297103405
112.0,0.011101934127509594
120.0,0.01057296060025692
128.0,0.01020075473934412
144.0,0.010063969530165195
160.0,0.01056567020714283
176.0,0.01064225472509861
192.0,0.010567340068519115
208.0,0.011081434786319733
224.0,0.011422833427786827
240.0,0.010676485486328602
256.0,0.00981634296476841
288.0,0.00911182165145874
320.0,0.006761318538337946
352.0,0.004985775798559189
384.0,0.00422673299908638
416.0,0.0032720337621867657
448.0,0.0027789236046373844
480.0,0.002072226256132126
512.0,0.002572610042989254
576.0,0.003821102436631918
640.0,0.0018404588336125016
704.0,-0.0011237270664423704
768.0,-0.0010973198805004358
832.0,0.00020187893824186176
896.0,0.0006786871235817671
960.0,0.00010373628902016208
1024.0,-0.00011759839253500104
1152.0,0.0007217964739538729
1280.0,-0.001661312417127192
1408.0,-0.0001664326264290139
1536.0,-0.0012512747198343277
1664.0,0.001018413924612105
1792.0,0.0005922980490140617
1920.0,0.0018590515246614814
2048.0,0.002149212872609496
2304.0,0.0008191670058295131
2560.0,-0.0005391206359490752
2816.0,0.0007415961008518934
3072.0,0.0014600978465750813
3328.0,0.0007522502564825118
3584.0,-0.0015751582104712725
3840.0,-0.0028564136009663343
4096.0,-0.004013529978692532
4608.0,-0.003295975038781762
5120.0,-0.0029514438938349485
5632.0,-0.0023357532918453217
6144.0,-0.004533934406936169
6656.0,-0.00446243304759264
7168.0,-0.004119826480746269
7680.0,-0.0006193588487803936
8192.0,-0.0003048195503652096
end
