version,3.0
numOfCh,1
type,point
parent_name,19e3e_0dot6-0dot01
ch_type,1_1
kcount,1
numberNandB,1
brightnessNandB,1
carpet pos,0
pc,0
Time (ms),CH1 Auto-Correlation
1.0,0.05792286619544029
2.0,0.05646413937211037
3.0,0.055099956691265106
4.0,0.053880564868450165
5.0,0.052787426859140396
6.0,0.05164584144949913
7.0,0.050558630377054214
8.0,0.04956503212451935
9.0,0.04860568791627884
10.0,0.047657374292612076
11.0,0.04670267179608345
12.0,0.0458604134619236
13.0,0.0450730174779892
14.0,0.04433268681168556
15.0,0.04354719817638397
16.0,0.04281175509095192
18.0,0.0413602814078331
20.0,0.040063757449388504
22.0,0.03884018957614899
24.0,0.037572409957647324
26.0,0.036308202892541885
28.0,0.03510886803269386
30.0,0.03389953076839447
32.0,0.03267291560769081
36.0,0.030409546568989754
40.0,0.028330344706773758
44.0,0.026588845998048782
48.0,0.025034945458173752
52.0,0.023383719846606255
56.0,0.021285071969032288
60.0,0.019166667014360428
64.0,0.01724575273692608
72.0,0.015642397105693817
80.0,0.014906728640198708
88.0,0.014537086710333824
96.0,0.014354165643453598
104.0,0.013601244427263737
112.0,0.012829000130295753
120.0,0.012323691509664059
128.0,0.012184306047856808
144.0,0.012937551364302635
160.0,0.013233950361609459
176.0,0.013100145384669304
192.0,0.012712414376437664
208.0,0.01136197429150343
224.0,0.010120827704668045
240.0,0.010001648217439651
256.0,0.009859905578196049
288.0,0.008968881331384182
320.0,0.008704143576323986
352.0,0.008884375914931297
384.0,0.005716141313314438
416.0,0.004013329278677702
448.0,0.0030823061242699623
480.0,0.0018678128253668547
512.0,0.0007510721916332841
576.0,-0.0003173380100633949
640.0,-5.448942829389125e-05
704.0,-0.001363479415886104
768.0,-0.0002804548421408981
832.0,-8.75250407261774e-05
896.0,0.003583587473258376
960.0,0.002558101899921894
1024.0,0.001375742838717997
1152.0,-0.00046359829138964415
1280.0,-0.0015476638218387961
1408.0,-0.001395008061081171
1536.0,-0.0010025044903159142
1664.0,-0.0014457042561843991
1792.0,-0.0013416269794106483
1920.0,0.0009579097968526185
2048.0,-0.00028158872737549245
2304.0,-0.0008354709716513753
2560.0,6.706819112878293e-05
2816.0,0.00143400055821985
3072.0,-0.0021560059394687414
3328.0,-0.0020881779491901398
3584.0,0.0013171060709282756
3840.0,0.0014498456148430705
4096.0,-0.002133291447535157
4608.0,-0.004012631718069315
5120.0,-0.0035009447019547224
5632.0,-0.0015694739995524287
6144.0,0.00304292980581522
6656.0,0.00029796845046803355
7168.0,3.0289427286334103e-06
7680.0,0.00354937044903636
8192.0,-0.007660796400159597
end
