version,3.0
numOfCh,1
type,point
parent_name,dirty_10dot0-0dot01
ch_type,1_1
kcount,1
numberNandB,1
brightnessNandB,1
carpet pos,0
pc,0
Time (ms),CH1 Auto-Correlation
1.0,0.5602989196777344
2.0,0.5545722842216492
3.0,0.5510483384132385
4.0,0.5488408803939819
5.0,0.5469207167625427
6.0,0.5456490516662598
7.0,0.5447375774383545
8.0,0.5438463687896729
9.0,0.5429838299751282
10.0,0.5420050024986267
11.0,0.5413134694099426
12.0,0.5401746034622192
13.0,0.5397620797157288
14.0,0.5392507910728455
15.0,0.5386686325073242
16.0,0.5380445122718811
18.0,0.5370604991912842
20.0,0.5360615253448486
22.0,0.5353457927703857
24.0,0.5343924164772034
26.0,0.5337932109832764
28.0,0.5327738523483276
30.0,0.5316631197929382
32.0,0.5307153463363647
36.0,0.5285258889198303
40.0,0.5257954001426697
44.0,0.5235388278961182
48.0,0.5217645168304443
52.0,0.5206304788589478
56.0,0.5188584327697754
60.0,0.5168270468711853
64.0,0.5145500302314758
72.0,0.5095880031585693
80.0,0.504578173160553
88.0,0.49955248832702637
96.0,0.4925602972507477
104.0,0.4853435754776001
112.0,0.47757256031036377
120.0,0.4687722325325012
128.0,0.461279958486557
144.0,0.4453272819519043
160.0,0.42668449878692627
176.0,0.40713879466056824
192.0,0.38645413517951965
208.0,0.36616742610931396
224.0,0.34715715050697327
240.0,0.3265257477760315
256.0,0.30585595965385437
288.0,0.2662312090396881
320.0,0.2298983633518219
352.0,0.19622810184955597
384.0,0.16766780614852905
416.0,0.14320309460163116
448.0,0.1191755011677742
480.0,0.10176781564950943
512.0,0.08562567830085754
576.0,0.06337889283895493
640.0,0.04443458095192909
704.0,0.030263138934969902
768.0,0.022371061146259308
832.0,0.018396669998764992
896.0,0.016501832753419876
960.0,0.014974325895309448
1024.0,0.014047880657017231
1152.0,0.008400521241128445
1280.0,0.0016968962736427784
1408.0,-0.0030132492538541555
1536.0,-0.0017690431559458375
1664.0,-4.698919838119764e-06
1792.0,0.0012520009186118841
1920.0,-0.00038851998397149146
2048.0,-0.0018240280915051699
2304.0,-0.009436453692615032
2560.0,-0.009910243563354015
2816.0,-0.007026417180895805
3072.0,-0.0058381338603794575
3328.0,-0.006465900223702192
3584.0,-0.0067857722751796246
3840.0,-0.007172770332545042
4096.0,-0.008837386034429073
4608.0,-0.009344186633825302
5120.0,-0.01535586453974247
5632.0,-0.012268491089344025
6144.0,-0.001823101076297462
6656.0,0.008987447246909142
7168.0,-0.01665368489921093
7680.0,-0.026523245498538017
8192.0,-0.026143698021769524
9216.0,-0.02453145571053028
10240.0,-0.02188568376004696
11264.0,-0.05774035304784775
12288.0,-0.0779309794306755
13312.0,-0.10864903777837753
14336.0,-0.15597037971019745
end
