version,3.0
numOfCh,1
type,point
parent_name,dirty_10dot0-0dot01
ch_type,1_1
kcount,1
numberNandB,1
brightnessNandB,1
carpet pos,0
pc,0
Time (ms),CH1 Auto-Correlation
1.0,0.7650482654571533
2.0,0.7623468637466431
3.0,0.7605314254760742
4.0,0.7592258453369141
5.0,0.7580546736717224
6.0,0.7570527195930481
7.0,0.7562056183815002
8.0,0.7553543448448181
9.0,0.754499077796936
10.0,0.7537382245063782
11.0,0.7529260516166687
12.0,0.7522088885307312
13.0,0.7514753341674805
14.0,0.7506746053695679
15.0,0.7499204277992249
16.0,0.7491816878318787
18.0,0.7478896379470825
20.0,0.7466375827789307
22.0,0.7452819347381592
24.0,0.7438007593154907
26.0,0.7421301007270813
28.0,0.7406007647514343
30.0,0.7391083240509033
32.0,0.737712025642395
36.0,0.7346947193145752
40.0,0.7316122055053711
44.0,0.7289847731590271
48.0,0.7265788316726685
52.0,0.7241551280021667
56.0,0.7216248512268066
60.0,0.7189700603485107
64.0,0.7162838578224182
72.0,0.711276113986969
80.0,0.7063772678375244
88.0,0.7014549374580383
96.0,0.6964679956436157
104.0,0.6910940408706665
112.0,0.6858775615692139
120.0,0.6809202432632446
128.0,0.6763550043106079
144.0,0.6677656769752502
160.0,0.6587718725204468
176.0,0.6493873596191406
192.0,0.6398891806602478
208.0,0.6304680705070496
224.0,0.6214786171913147
240.0,0.6128627061843872
256.0,0.6051035523414612
288.0,0.5895384550094604
320.0,0.5744941830635071
352.0,0.5608235001564026
384.0,0.5464504361152649
416.0,0.5343111753463745
448.0,0.5194347500801086
480.0,0.5020765662193298
512.0,0.4843822419643402
576.0,0.4502653479576111
640.0,0.4161176383495331
704.0,0.38249439001083374
768.0,0.35613390803337097
832.0,0.3322385251522064
896.0,0.30760782957077026
960.0,0.2841249406337738
1024.0,0.25925683975219727
1152.0,0.21427737176418304
1280.0,0.17618997395038605
1408.0,0.13093674182891846
1536.0,0.07295486330986023
1664.0,0.015152468346059322
1792.0,-0.03682178631424904
1920.0,-0.07892890274524689
2048.0,-0.11910251528024673
2304.0,-0.15027563273906708
2560.0,-0.175413578748703
2816.0,-0.19218860566616058
3072.0,-0.22317589819431305
3328.0,-0.24441812932491302
3584.0,-0.2586591839790344
3840.0,-0.27093780040740967
4096.0,-0.2830451428890228
4608.0,-0.30292612314224243
5120.0,-0.3138073980808258
5632.0,-0.32159122824668884
6144.0,-0.29054394364356995
6656.0,-0.20643502473831177
7168.0,-0.06372389197349548
7680.0,0.26538124680519104
8192.0,0.40750864148139954
9216.0,0.3433806896209717
10240.0,0.13216763734817505
11264.0,-0.0037275401409715414
12288.0,-0.08286205679178238
13312.0,-0.18997445702552795
14336.0,-0.3384236991405487
end
