version,3.0
numOfCh,1
type,point
parent_name,dirty_10dot0-0dot01
ch_type,1_1
kcount,1
numberNandB,1
brightnessNandB,1
carpet pos,0
pc,0
Time (ms),CH1 Auto-Correlation
1.0,0.41974496841430664
2.0,0.41383761167526245
3.0,0.4110778570175171
4.0,0.40884411334991455
5.0,0.40701353549957275
6.0,0.40552544593811035
7.0,0.4040488004684448
8.0,0.40299856662750244
9.0,0.40194252133369446
10.0,0.40127629041671753
11.0,0.4003126323223114
12.0,0.39941051602363586
13.0,0.3988701403141022
14.0,0.3979557156562805
15.0,0.3968731760978699
16.0,0.39603960514068604
18.0,0.3942994177341461
20.0,0.3928380310535431
22.0,0.39122331142425537
24.0,0.38953787088394165
26.0,0.3876837491989136
28.0,0.3859996795654297
30.0,0.38456088304519653
32.0,0.3828911781311035
36.0,0.3797239065170288
40.0,0.37694838643074036
44.0,0.3745909035205841
48.0,0.3718278706073761
52.0,0.368904173374176
56.0,0.36632320284843445
60.0,0.3637809753417969
64.0,0.36100703477859497
72.0,0.35645461082458496
80.0,0.3521729111671448
88.0,0.3465213179588318
96.0,0.33997681736946106
104.0,0.3339060842990875
112.0,0.3268435299396515
120.0,0.3196699917316437
128.0,0.3118213415145874
144.0,0.29594147205352783
160.0,0.28064796328544617
176.0,0.26767677068710327
192.0,0.256094753742218
208.0,0.2431926280260086
224.0,0.23000368475914001
240.0,0.21485759317874908
256.0,0.19959986209869385
288.0,0.17586342990398407
320.0,0.16264069080352783
352.0,0.1561710238456726
384.0,0.15275035798549652
416.0,0.146780326962471
448.0,0.13919053971767426
480.0,0.13534384965896606
512.0,0.1294902265071869
576.0,0.13081218302249908
640.0,0.12778832018375397
704.0,0.12053268402814865
768.0,0.11857934296131134
832.0,0.11000464111566544
896.0,0.09118164330720901
960.0,0.06977342814207077
1024.0,0.051334261894226074
1152.0,0.02298995666205883
1280.0,0.02174212969839573
1408.0,0.03224671632051468
1536.0,0.03347957506775856
1664.0,0.023186633363366127
1792.0,0.00912332534790039
1920.0,0.004907458089292049
2048.0,0.0057790507562458515
2304.0,0.006820467300713062
2560.0,-0.0014366288669407368
2816.0,-0.00996361393481493
3072.0,-0.008470871485769749
3328.0,-0.0076835122890770435
3584.0,-0.008254283107817173
3840.0,-0.00859314575791359
4096.0,-0.008068114519119263
4608.0,-0.009154201485216618
5120.0,-0.012297921814024448
5632.0,-0.013410273008048534
6144.0,-0.015129645355045795
6656.0,-0.0184941329061985
7168.0,-0.022856146097183228
7680.0,-0.027312681078910828
8192.0,-0.031453464180231094
9216.0,-0.03569598123431206
10240.0,-0.03833884745836258
11264.0,-0.061026521027088165
12288.0,-0.08491765707731247
13312.0,-0.10733108222484589
14336.0,-0.1666674166917801
end
