version,3.0
numOfCh,1
type,point
parent_name,dirty_10dot0-0dot01
ch_type,1_1
kcount,1
numberNandB,1
brightnessNandB,1
carpet pos,0
pc,0
Time (ms),CH1 Auto-Correlation
1.0,0.5369759798049927
2.0,0.5333740711212158
3.0,0.5314890146255493
4.0,0.5303040146827698
5.0,0.5291297435760498
6.0,0.528557538986206
7.0,0.527833878993988
8.0,0.5272707343101501
9.0,0.5266262292861938
10.0,0.5261421203613281
11.0,0.5256867408752441
12.0,0.5255955457687378
13.0,0.5252379179000854
14.0,0.5249456763267517
15.0,0.5243969559669495
16.0,0.5239810347557068
18.0,0.5231154561042786
20.0,0.5224561095237732
22.0,0.5218971967697144
24.0,0.5213901996612549
26.0,0.5206461548805237
28.0,0.5198399424552917
30.0,0.519508421421051
32.0,0.5189191102981567
36.0,0.5180792808532715
40.0,0.5170425176620483
44.0,0.5157619118690491
48.0,0.5144915580749512
52.0,0.5135552883148193
56.0,0.5129328370094299
60.0,0.5119725465774536
64.0,0.5110008120536804
72.0,0.5088828802108765
80.0,0.5076761841773987
88.0,0.5061935782432556
96.0,0.5046173334121704
104.0,0.5031466484069824
112.0,0.5016091465950012
120.0,0.5004202127456665
128.0,0.49940362572669983
144.0,0.497556209564209
160.0,0.4955156147480011
176.0,0.4931926429271698
192.0,0.49003586173057556
208.0,0.48637694120407104
224.0,0.4822990596294403
240.0,0.4783322811126709
256.0,0.47488200664520264
288.0,0.4683876931667328
320.0,0.46238085627555847
352.0,0.45444783568382263
384.0,0.44709083437919617
416.0,0.4396081864833832
448.0,0.4322417378425598
480.0,0.42559128999710083
512.0,0.4185996949672699
576.0,0.4039917588233948
640.0,0.38877707719802856
704.0,0.37156784534454346
768.0,0.35532909631729126
832.0,0.3420959711074829
896.0,0.32615578174591064
960.0,0.30594438314437866
1024.0,0.2862086594104767
1152.0,0.2460879236459732
1280.0,0.2049519121646881
1408.0,0.16921639442443848
1536.0,0.14129716157913208
1664.0,0.11957037448883057
1792.0,0.10109534114599228
1920.0,0.08570517599582672
2048.0,0.07127982378005981
2304.0,0.0558742992579937
2560.0,0.04544764757156372
2816.0,0.039895810186862946
3072.0,0.03487115725874901
3328.0,0.027676180005073547
3584.0,0.008458789438009262
3840.0,-0.016377225518226624
4096.0,-0.03071328066289425
4608.0,-0.03898964822292328
5120.0,-0.04288369417190552
5632.0,-0.04986928030848503
6144.0,-0.06840384751558304
6656.0,-0.0828157290816307
7168.0,-0.09134956449270248
7680.0,-0.10133824497461319
8192.0,-0.11374121904373169
9216.0,-0.14857177436351776
10240.0,-0.19361478090286255
11264.0,-0.25413694977760315
12288.0,-0.2817011773586273
13312.0,-0.2967485785484314
14336.0,-0.33678391575813293
end
