version,3.0
numOfCh,1
type,point
parent_name,dirty_10dot0-0dot01
ch_type,1_1
kcount,1
numberNandB,1
brightnessNandB,1
carpet pos,0
pc,0
Time (ms),CH1 Auto-Correlation
1.0,0.48244914412498474
2.0,0.4795743525028229
3.0,0.4777514636516571
4.0,0.47666317224502563
5.0,0.47561976313591003
6.0,0.4747597277164459
7.0,0.4742082953453064
8.0,0.47362029552459717
9.0,0.47304415702819824
10.0,0.4723844826221466
11.0,0.47201597690582275
12.0,0.4716898500919342
13.0,0.4712323546409607
14.0,0.4706840515136719
15.0,0.4703468382358551
16.0,0.4699570834636688
18.0,0.46913713216781616
20.0,0.46815282106399536
22.0,0.46737736463546753
24.0,0.4664371609687805
26.0,0.46581974625587463
28.0,0.4650479555130005
30.0,0.4642479121685028
32.0,0.46342843770980835
36.0,0.4617398977279663
40.0,0.4601450264453888
44.0,0.458689421415329
48.0,0.45740455389022827
52.0,0.45603665709495544
56.0,0.4543205201625824
60.0,0.45291468501091003
64.0,0.45140162110328674
72.0,0.44750621914863586
80.0,0.4433704912662506
88.0,0.43959054350852966
96.0,0.4362434446811676
104.0,0.43263450264930725
112.0,0.42889875173568726
120.0,0.4245378375053406
128.0,0.42036864161491394
144.0,0.4127146303653717
160.0,0.405405193567276
176.0,0.39805474877357483
192.0,0.39083707332611084
208.0,0.3837249279022217
224.0,0.3767026960849762
240.0,0.36942923069000244
256.0,0.3619673252105713
288.0,0.3489675223827362
320.0,0.33742937445640564
352.0,0.3267591893672943
384.0,0.3152764141559601
416.0,0.3036242127418518
448.0,0.29233941435813904
480.0,0.2818058133125305
512.0,0.27185845375061035
576.0,0.2532157897949219
640.0,0.2317327857017517
704.0,0.20782457292079926
768.0,0.17848891019821167
832.0,0.1474580019712448
896.0,0.11840697377920151
960.0,0.09065251797437668
1024.0,0.06543093919754028
1152.0,0.0278810765594244
1280.0,-0.005351535510271788
1408.0,-0.044178444892168045
1536.0,-0.06768397241830826
1664.0,-0.08015698194503784
1792.0,-0.08008292317390442
1920.0,-0.07894805818796158
2048.0,-0.07948746532201767
2304.0,-0.08084242045879364
2560.0,-0.06612589210271835
2816.0,-0.05750417336821556
3072.0,-0.04423387721180916
3328.0,-0.03246450051665306
3584.0,-0.04764362424612045
3840.0,-0.05169682204723358
4096.0,-0.06638453900814056
4608.0,-0.08601319044828415
5120.0,-0.04777058959007263
5632.0,0.016621945425868034
6144.0,0.02785254828631878
6656.0,-0.033672995865345
7168.0,-0.10411354154348373
7680.0,-0.10398269444704056
8192.0,0.003589129075407982
9216.0,0.22866159677505493
10240.0,0.12783674895763397
11264.0,-0.052841994911432266
12288.0,-0.16024212539196014
13312.0,-0.2849975526332855
14336.0,-0.500785768032074
end
