version,3.0
numOfCh,1
type,point
parent_name,dirty_10dot0-0dot01
ch_type,1_1
kcount,1
numberNandB,1
brightnessNandB,1
carpet pos,0
pc,0
Time (ms),CH1 Auto-Correlation
1.0,0.4362773597240448
2.0,0.43228816986083984
3.0,0.4299421012401581
4.0,0.4284272789955139
5.0,0.4270469546318054
6.0,0.4257640540599823
7.0,0.4248533248901367
8.0,0.42410504817962646
9.0,0.42327871918678284
10.0,0.4224628508090973
11.0,0.42170658707618713
12.0,0.4211156368255615
13.0,0.4203377664089203
14.0,0.41957807540893555
15.0,0.41873878240585327
16.0,0.41794249415397644
18.0,0.4167407751083374
20.0,0.4155217409133911
22.0,0.4142993986606598
24.0,0.41325587034225464
26.0,0.41250333189964294
28.0,0.4115346670150757
30.0,0.41079118847846985
32.0,0.4099586308002472
36.0,0.4081186354160309
40.0,0.4060359001159668
44.0,0.40450337529182434
48.0,0.40287333726882935
52.0,0.4014418125152588
56.0,0.3995634913444519
60.0,0.39780399203300476
64.0,0.3962485194206238
72.0,0.39286112785339355
80.0,0.39033710956573486
88.0,0.3876030147075653
96.0,0.38417699933052063
104.0,0.3807978332042694
112.0,0.3788285255432129
120.0,0.37767189741134644
128.0,0.37691789865493774
144.0,0.3748173117637634
160.0,0.37130436301231384
176.0,0.3674546778202057
192.0,0.3628541827201843
208.0,0.3582896888256073
224.0,0.35347697138786316
240.0,0.3491036593914032
256.0,0.34481894969940186
288.0,0.33775055408477783
320.0,0.33060500025749207
352.0,0.3229970932006836
384.0,0.31514790654182434
416.0,0.3074771463871002
448.0,0.30018359422683716
480.0,0.292559415102005
512.0,0.2829078435897827
576.0,0.2609677314758301
640.0,0.24455659091472626
704.0,0.22822579741477966
768.0,0.21329624950885773
832.0,0.19571922719478607
896.0,0.17925843596458435
960.0,0.1635688692331314
1024.0,0.14875319600105286
1152.0,0.12343842536211014
1280.0,0.09500464797019958
1408.0,0.06753695756196976
1536.0,0.03733938932418823
1664.0,0.014880185946822166
1792.0,0.0011917342199012637
1920.0,-0.00481010228395462
2048.0,-0.008671602234244347
2304.0,-0.01918776147067547
2560.0,-0.03567081689834595
2816.0,-0.06350668519735336
3072.0,-0.07911485433578491
3328.0,-0.07356072217226028
3584.0,-0.05680598318576813
3840.0,-0.030327778309583664
4096.0,-0.018708137795329094
4608.0,-0.041964154690504074
5120.0,-0.10301610082387924
5632.0,-0.16112874448299408
6144.0,-0.15286831557750702
6656.0,-0.15836507081985474
7168.0,-0.19203507900238037
7680.0,-0.18429547548294067
8192.0,-0.11239302158355713
9216.0,0.016880620270967484
10240.0,0.028301894664764404
11264.0,0.05620044842362404
12288.0,0.07843680679798126
13312.0,0.1138019934296608
14336.0,0.11061941832304001
end
