version,3.0
numOfCh,1
type,point
parent_name,dirty_10dot0-0dot01
ch_type,1_1
kcount,1
numberNandB,1
brightnessNandB,1
carpet pos,0
pc,0
Time (ms),CH1 Auto-Correlation
1.0,0.14153262972831726
2.0,0.1350436955690384
3.0,0.1319991499185562
4.0,0.1301182508468628
5.0,0.12874795496463776
6.0,0.12711915373802185
7.0,0.12604045867919922
8.0,0.12537944316864014
9.0,0.12443605810403824
10.0,0.12349890917539597
11.0,0.1225130707025528
12.0,0.12216159701347351
13.0,0.12153973430395126
14.0,0.12131958454847336
15.0,0.12058218568563461
16.0,0.12020598351955414
18.0,0.11895672231912613
20.0,0.11842319369316101
22.0,0.1174083724617958
24.0,0.11647490411996841
26.0,0.11598043888807297
28.0,0.11509053409099579
30.0,0.114704430103302
32.0,0.11408975720405579
36.0,0.11280433088541031
40.0,0.11145967990159988
44.0,0.11028711497783661
48.0,0.10885990411043167
52.0,0.10776709020137787
56.0,0.10670774430036545
60.0,0.10617475211620331
64.0,0.10532750934362411
72.0,0.10297935456037521
80.0,0.10025478899478912
88.0,0.09779126197099686
96.0,0.09535012394189835
104.0,0.09309664368629456
112.0,0.09161831438541412
120.0,0.08992424607276917
128.0,0.08899082243442535
144.0,0.08487584441900253
160.0,0.07998621463775635
176.0,0.07771136611700058
192.0,0.07596433907747269
208.0,0.07282701134681702
224.0,0.0677926242351532
240.0,0.0629098191857338
256.0,0.05775658041238785
288.0,0.048016659915447235
320.0,0.03789801895618439
352.0,0.03184608742594719
384.0,0.027160275727510452
416.0,0.021592920646071434
448.0,0.015743490308523178
480.0,0.012227396480739117
512.0,0.00931765977293253
576.0,0.005435348488390446
640.0,0.001667357748374343
704.0,-0.0005660869646817446
768.0,-0.0015475506661459804
832.0,-0.0004225276643410325
896.0,-8.50355536385905e-06
960.0,-0.000922197534237057
1024.0,-0.0009566604858264327
1152.0,0.0005280273617245257
1280.0,0.0020273993723094463
1408.0,0.004893405828624964
1536.0,0.0072074285708367825
1664.0,0.007270165719091892
1792.0,0.0019838958978652954
1920.0,-0.002697916468605399
2048.0,-0.009335891343653202
2304.0,-0.013161995448172092
2560.0,-0.00699829775840044
2816.0,-0.0010848158271983266
3072.0,-0.0025345184840261936
3328.0,-0.009132909588515759
3584.0,-0.011164212599396706
3840.0,-0.012674105353653431
4096.0,-0.013610455207526684
4608.0,-0.01467555295675993
5120.0,-0.016607699915766716
5632.0,-0.0157734714448452
6144.0,-0.01017074380069971
6656.0,-0.00922249723225832
7168.0,-0.011765033937990665
7680.0,-0.014985701069235802
8192.0,-0.01103123463690281
9216.0,0.018751122057437897
10240.0,0.028231050819158554
11264.0,0.010623573325574398
12288.0,0.00812030490487814
13312.0,-0.0032998418901115656
14336.0,-0.01600099727511406
end
