version,3.0
numOfCh,1
type,point
parent_name,dirty_10dot0-0dot01
ch_type,1_1
kcount,1
numberNandB,1
brightnessNandB,1
carpet pos,0
pc,0
Time (ms),CH1 Auto-Correlation
1.0,0.4106394946575165
2.0,0.40877726674079895
3.0,0.4076722264289856
4.0,0.40677496790885925
5.0,0.40606850385665894
6.0,0.4053363800048828
7.0,0.4047220051288605
8.0,0.40410247445106506
9.0,0.40348467230796814
10.0,0.40289604663848877
11.0,0.40232372283935547
12.0,0.40184661746025085
13.0,0.40123850107192993
14.0,0.40056270360946655
15.0,0.40004557371139526
16.0,0.3995618224143982
18.0,0.3985021412372589
20.0,0.3973592221736908
22.0,0.3961971700191498
24.0,0.39498159289360046
26.0,0.39384421706199646
28.0,0.3925849199295044
30.0,0.39128461480140686
32.0,0.3900831341743469
36.0,0.3877759873867035
40.0,0.38559699058532715
44.0,0.383615642786026
48.0,0.3814541697502136
52.0,0.3794427216053009
56.0,0.377627432346344
60.0,0.3756658136844635
64.0,0.37373897433280945
72.0,0.3699381649494171
80.0,0.36598140001296997
88.0,0.36185821890830994
96.0,0.35773470997810364
104.0,0.3537529408931732
112.0,0.34980738162994385
120.0,0.34599927067756653
128.0,0.3418511748313904
144.0,0.33334049582481384
160.0,0.3241145610809326
176.0,0.31564944982528687
192.0,0.3083338439464569
208.0,0.30165740847587585
224.0,0.29489240050315857
240.0,0.2883783280849457
256.0,0.2822580337524414
288.0,0.270425021648407
320.0,0.25813204050064087
352.0,0.24587459862232208
384.0,0.2307945340871811
416.0,0.2144484966993332
448.0,0.19941477477550507
480.0,0.18365401029586792
512.0,0.16751281917095184
576.0,0.1373714655637741
640.0,0.11449696123600006
704.0,0.10046708583831787
768.0,0.09301801025867462
832.0,0.09108089655637741
896.0,0.09047393500804901
960.0,0.09693872183561325
1024.0,0.1060909554362297
1152.0,0.12141410261392593
1280.0,0.1192360445857048
1408.0,0.1090131625533104
1536.0,0.08499914407730103
1664.0,0.045197613537311554
1792.0,0.0040217675268650055
1920.0,-0.030650753527879715
2048.0,-0.06371341645717621
2304.0,-0.09048818796873093
2560.0,-0.10174024850130081
2816.0,-0.12531186640262604
3072.0,-0.15229982137680054
3328.0,-0.17625458538532257
3584.0,-0.1811218410730362
3840.0,-0.1537398099899292
4096.0,-0.12000028043985367
4608.0,-0.025867924094200134
5120.0,0.030651880428195
5632.0,0.08235163986682892
6144.0,0.0855850875377655
6656.0,0.05715088173747063
7168.0,0.1364821344614029
7680.0,0.05310368537902832
8192.0,-0.009744815528392792
9216.0,-0.004525463562458754
10240.0,-0.06286931037902832
11264.0,-0.12495466321706772
12288.0,-0.16103066504001617
13312.0,-0.11236374080181122
14336.0,-0.05938136950135231
end
