version,3.0
numOfCh,1
type,point
parent_name,dirty_10dot0-0dot01
ch_type,1_1
kcount,1
numberNandB,1
brightnessNandB,1
carpet pos,0
pc,0
Time (ms),CH1 Auto-Correlation
1.0,0.23965708911418915
2.0,0.23542937636375427
3.0,0.2331465631723404
4.0,0.2314315289258957
5.0,0.23027221858501434
6.0,0.2290421426296234
7.0,0.2280896008014679
8.0,0.22721457481384277
9.0,0.22653472423553467
10.0,0.2258744090795517
11.0,0.22551946341991425
12.0,0.224849671125412
13.0,0.22411534190177917
14.0,0.2234821915626526
15.0,0.2226758599281311
16.0,0.22176417708396912
18.0,0.22101309895515442
20.0,0.22009064257144928
22.0,0.21894003450870514
24.0,0.21783645451068878
26.0,0.2166229784488678
28.0,0.21548433601856232
30.0,0.21453014016151428
32.0,0.21339881420135498
36.0,0.211367666721344
40.0,0.20889362692832947
44.0,0.20663809776306152
48.0,0.2046123743057251
52.0,0.20215891301631927
56.0,0.19959168136119843
60.0,0.1973523050546646
64.0,0.19546067714691162
72.0,0.1914297342300415
80.0,0.18734921514987946
88.0,0.1836143136024475
96.0,0.17936427891254425
104.0,0.17502933740615845
112.0,0.1708567887544632
120.0,0.16759680211544037
128.0,0.16367092728614807
144.0,0.15621109306812286
160.0,0.1498783379793167
176.0,0.14451098442077637
192.0,0.13956397771835327
208.0,0.13468360900878906
224.0,0.12983015179634094
240.0,0.12648294866085052
256.0,0.12373735755681992
288.0,0.11788010597229004
320.0,0.11243169009685516
352.0,0.10809621214866638
384.0,0.1035502552986145
416.0,0.0991179570555687
448.0,0.0936262235045433
480.0,0.0877033919095993
512.0,0.08457621186971664
576.0,0.07506023347377777
640.0,0.0628894567489624
704.0,0.05147979408502579
768.0,0.039817437529563904
832.0,0.031748417764902115
896.0,0.024018023163080215
960.0,0.013059888035058975
1024.0,0.004741224925965071
1152.0,-0.0029197363182902336
1280.0,-0.009710240177810192
1408.0,-0.005788286216557026
1536.0,0.0020226247143000364
1664.0,-0.0019284812733530998
1792.0,-0.003111176658421755
1920.0,-0.0016179471276700497
2048.0,0.0018988442607223988
2304.0,0.021254930645227432
2560.0,0.04350005090236664
2816.0,0.05341847240924835
3072.0,0.07541544735431671
3328.0,0.06102002039551735
3584.0,0.03578648343682289
3840.0,0.005299764219671488
4096.0,-0.030881348997354507
4608.0,-0.04174370691180229
5120.0,-0.03298075497150421
5632.0,-0.04103253036737442
6144.0,-0.06006525084376335
6656.0,-0.047260064631700516
7168.0,-0.051852159202098846
7680.0,-0.057435039430856705
8192.0,-0.06498615443706512
9216.0,-0.053391192108392715
10240.0,-0.010831505060195923
11264.0,-0.0075999372638762
12288.0,-0.0014129208866506815
13312.0,0.0448480062186718
14336.0,0.06451504677534103
end
