version,3.0
numOfCh,1
type,point
parent_name,dirty_10dot0-0dot01
ch_type,1_1
kcount,1
numberNandB,1
brightnessNandB,1
carpet pos,0
pc,0
Time (ms),CH1 Auto-Correlation
1.0,0.364149808883667
2.0,0.36290431022644043
3.0,0.3619583547115326
4.0,0.361107736825943
5.0,0.36030322313308716
6.0,0.35951700806617737
7.0,0.3587966561317444
8.0,0.35808154940605164
9.0,0.3573842942714691
10.0,0.3567383289337158
11.0,0.3560214340686798
12.0,0.35535570979118347
13.0,0.35474225878715515
14.0,0.3541073203086853
15.0,0.35341358184814453
16.0,0.3527572453022003
18.0,0.35136446356773376
20.0,0.35002246499061584
22.0,0.34853261709213257
24.0,0.3471582233905792
26.0,0.34583353996276855
28.0,0.34441834688186646
30.0,0.3430173099040985
32.0,0.34156936407089233
36.0,0.33870959281921387
40.0,0.3358571231365204
44.0,0.33308687806129456
48.0,0.330282598733902
52.0,0.32760223746299744
56.0,0.32475605607032776
60.0,0.3218745291233063
64.0,0.31910842657089233
72.0,0.3138076364994049
80.0,0.3083406686782837
88.0,0.30311447381973267
96.0,0.298023521900177
104.0,0.29332953691482544
112.0,0.2886461317539215
120.0,0.28379783034324646
128.0,0.278735876083374
144.0,0.2691510319709778
160.0,0.25958937406539917
176.0,0.2505200505256653
192.0,0.24165870249271393
208.0,0.23334816098213196
224.0,0.22535544633865356
240.0,0.21776093542575836
256.0,0.20999480783939362
288.0,0.19594652950763702
320.0,0.18437543511390686
352.0,0.1744580715894699
384.0,0.1635720431804657
416.0,0.15034760534763336
448.0,0.13936962187290192
480.0,0.12968742847442627
512.0,0.12036432325839996
576.0,0.10769465565681458
640.0,0.09695557504892349
704.0,0.08914535492658615
768.0,0.08570173382759094
832.0,0.09096217900514603
896.0,0.09592531621456146
960.0,0.09717345237731934
1024.0,0.09646134078502655
1152.0,0.08977725356817245
1280.0,0.0869230329990387
1408.0,0.07605992257595062
1536.0,0.0535975880920887
1664.0,0.029709838330745697
1792.0,0.005006394814699888
1920.0,-0.005410144571214914
2048.0,-0.010687621310353279
2304.0,-0.027168190106749535
2560.0,-0.014618977904319763
2816.0,-0.01322260033339262
3072.0,-0.05368036776781082
3328.0,-0.09626171737909317
3584.0,-0.09968159347772598
3840.0,-0.07443460077047348
4096.0,-0.08366187661886215
4608.0,-0.12120143324136734
5120.0,-0.08354071527719498
5632.0,-0.07724205404520035
6144.0,-0.038369935005903244
6656.0,0.02207079902291298
7168.0,0.050609927624464035
7680.0,0.07583264261484146
8192.0,0.08822992444038391
9216.0,0.037225961685180664
10240.0,0.007920367643237114
11264.0,-0.04631122201681137
12288.0,-0.1201137825846672
13312.0,-0.20698028802871704
14336.0,-0.06363634020090103
end
