version,3.0
numOfCh,1
type,point
parent_name,dirty_10dot0-0dot01
ch_type,1_1
kcount,1
numberNandB,1
brightnessNandB,1
carpet pos,0
pc,0
Time (ms),CH1 Auto-Correlation
1.0,0.12397351115942001
2.0,0.1173875629901886
3.0,0.11408871412277222
4.0,0.11171858012676239
5.0,0.1099688932299614
6.0,0.10883664339780807
7.0,0.10810864716768265
8.0,0.10715842247009277
9.0,0.10653874278068542
10.0,0.10573183745145798
11.0,0.10517368465662003
12.0,0.10473312437534332
13.0,0.1041240319609642
14.0,0.10371444374322891
15.0,0.10326545685529709
16.0,0.10300955921411514
18.0,0.10229898244142532
20.0,0.10157995671033859
22.0,0.10066282749176025
24.0,0.09959191083908081
26.0,0.09896931052207947
28.0,0.09852273762226105
30.0,0.09761294722557068
32.0,0.09686243534088135
36.0,0.09600769728422165
40.0,0.0947592481970787
44.0,0.09347636252641678
48.0,0.09206817299127579
52.0,0.09139455854892731
56.0,0.09044092148542404
60.0,0.08928942680358887
64.0,0.0883321762084961
72.0,0.08685718476772308
80.0,0.08538714796304703
88.0,0.08411278575658798
96.0,0.08322839438915253
104.0,0.0813952311873436
112.0,0.08087848126888275
120.0,0.0792103186249733
128.0,0.07764872163534164
144.0,0.07568445056676865
160.0,0.07526333630084991
176.0,0.07625144720077515
192.0,0.0766083300113678
208.0,0.0765230655670166
224.0,0.07585851848125458
240.0,0.07474712282419205
256.0,0.07367069274187088
288.0,0.07293334603309631
320.0,0.07083078473806381
352.0,0.06580740213394165
384.0,0.06125994771718979
416.0,0.05822062864899635
448.0,0.05509517341852188
480.0,0.05411834269762039
512.0,0.05350213125348091
576.0,0.04604682698845863
640.0,0.035574790090322495
704.0,0.027814222499728203
768.0,0.024432789534330368
832.0,0.020446214824914932
896.0,0.014757677912712097
960.0,0.007426015101373196
1024.0,0.006648611277341843
1152.0,0.001957537606358528
1280.0,-0.0016796612180769444
1408.0,-0.0024347708094865084
1536.0,-0.003464283887296915
1664.0,-0.004924727138131857
1792.0,-0.007242953404784203
1920.0,-0.0072278655134141445
2048.0,-0.007703777868300676
2304.0,-0.009866580367088318
2560.0,-0.010578465647995472
2816.0,-0.009196829050779343
3072.0,-0.01049095019698143
3328.0,-0.007853217422962189
3584.0,-0.008445403538644314
3840.0,-0.004199933260679245
4096.0,-0.004421372432261705
4608.0,-0.00397722702473402
5120.0,-0.004888510797172785
5632.0,-0.006018168292939663
6144.0,-0.005526497960090637
6656.0,-0.004550388548523188
7168.0,-0.003591502085328102
7680.0,-0.002299283165484667
8192.0,-0.0053697912953794
9216.0,-0.00951172225177288
10240.0,-0.015381029807031155
11264.0,-0.019500691443681717
12288.0,-0.021045977249741554
13312.0,0.0052373092621564865
14336.0,0.007897469215095043
end
