version,3.0
numOfCh,1
type,point
parent_name,dirty_10dot0-0dot01
ch_type,1_1
kcount,1
numberNandB,1
brightnessNandB,1
carpet pos,0
pc,0
Time (ms),CH1 Auto-Correlation
1.0,0.4818950295448303
2.0,0.47982338070869446
3.0,0.4783937633037567
4.0,0.47720199823379517
5.0,0.4761527180671692
6.0,0.4752790331840515
7.0,0.4743340015411377
8.0,0.47331658005714417
9.0,0.47238433361053467
10.0,0.4715217053890228
11.0,0.4707004725933075
12.0,0.46984073519706726
13.0,0.46894994378089905
14.0,0.4680866599082947
15.0,0.4672302007675171
16.0,0.46638724207878113
18.0,0.46462199091911316
20.0,0.462979793548584
22.0,0.4611881971359253
24.0,0.45934346318244934
26.0,0.4574715197086334
28.0,0.45564672350883484
30.0,0.4538379907608032
32.0,0.45182931423187256
36.0,0.44824689626693726
40.0,0.44510793685913086
44.0,0.4419959783554077
48.0,0.43881383538246155
52.0,0.4357619881629944
56.0,0.4326103627681732
60.0,0.42954930663108826
64.0,0.42634254693984985
72.0,0.4197028875350952
80.0,0.4130247235298157
88.0,0.40660157799720764
96.0,0.40044039487838745
104.0,0.3942050039768219
112.0,0.3873702883720398
120.0,0.38061100244522095
128.0,0.37408506870269775
144.0,0.3613665699958801
160.0,0.3512933850288391
176.0,0.34310948848724365
192.0,0.33517858386039734
208.0,0.32853201031684875
224.0,0.3243374526500702
240.0,0.3207838833332062
256.0,0.31707897782325745
288.0,0.31326109170913696
320.0,0.3104954659938812
352.0,0.30688729882240295
384.0,0.3032504916191101
416.0,0.29817163944244385
448.0,0.2912609279155731
480.0,0.2828511595726013
512.0,0.27066880464553833
576.0,0.24026067554950714
640.0,0.21382483839988708
704.0,0.20045936107635498
768.0,0.19969689846038818
832.0,0.2032274305820465
896.0,0.2100650519132614
960.0,0.2158048003911972
1024.0,0.21176943182945251
1152.0,0.19017577171325684
1280.0,0.17805108428001404
1408.0,0.16491541266441345
1536.0,0.14899605512619019
1664.0,0.11497251689434052
1792.0,0.09613353759050369
1920.0,0.0848250761628151
2048.0,0.07276558130979538
2304.0,0.0808030292391777
2560.0,0.0717286542057991
2816.0,0.07198226451873779
3072.0,0.05921293795108795
3328.0,0.030894320458173752
3584.0,-0.0035097573418170214
3840.0,-0.03574955463409424
4096.0,-0.06401258707046509
4608.0,-0.07985176891088486
5120.0,-0.06160479784011841
5632.0,-0.02134786732494831
6144.0,0.011589592322707176
6656.0,0.007861042395234108
7168.0,-0.024359282106161118
7680.0,0.024807235226035118
8192.0,0.02697109989821911
9216.0,-0.06856539100408554
10240.0,-0.2726154625415802
11264.0,-0.36393147706985474
12288.0,-0.3017759323120117
13312.0,-0.28386637568473816
14336.0,-0.2593163251876831
end
