version,3.0
numOfCh,1
type,point
parent_name,dirty_10dot0-0dot01
ch_type,1_1
kcount,1
numberNandB,1
brightnessNandB,1
carpet pos,0
pc,0
Time (ms),CH1 Auto-Correlation
1.0,0.47384461760520935
2.0,0.47214022278785706
3.0,0.47095322608947754
4.0,0.4700084328651428
5.0,0.46923819184303284
6.0,0.46860644221305847
7.0,0.46796777844429016
8.0,0.46731671690940857
9.0,0.4667768180370331
10.0,0.4661381244659424
11.0,0.46556010842323303
12.0,0.4648936092853546
13.0,0.4643843472003937
14.0,0.4639597237110138
15.0,0.46348053216934204
16.0,0.4628264605998993
18.0,0.4618079364299774
20.0,0.46070438623428345
22.0,0.45969370007514954
24.0,0.45869264006614685
26.0,0.4575386047363281
28.0,0.4564480185508728
30.0,0.4554840922355652
32.0,0.45450666546821594
36.0,0.4527175724506378
40.0,0.4509442150592804
44.0,0.4492032825946808
48.0,0.44756051898002625
52.0,0.4458892345428467
56.0,0.44417044520378113
60.0,0.4421548843383789
64.0,0.44033464789390564
72.0,0.43670475482940674
80.0,0.4330539405345917
88.0,0.4294576644897461
96.0,0.4257062077522278
104.0,0.4219813346862793
112.0,0.4184374511241913
120.0,0.4151591658592224
128.0,0.4121986925601959
144.0,0.40606972575187683
160.0,0.4003843367099762
176.0,0.3952484130859375
192.0,0.38894417881965637
208.0,0.3828020691871643
224.0,0.37746331095695496
240.0,0.37193015217781067
256.0,0.3664812445640564
288.0,0.3549264669418335
320.0,0.343198299407959
352.0,0.33133620023727417
384.0,0.31697162985801697
416.0,0.3030868172645569
448.0,0.28810763359069824
480.0,0.2732665538787842
512.0,0.2581091523170471
576.0,0.23280932009220123
640.0,0.21120798587799072
704.0,0.1903461515903473
768.0,0.1685410737991333
832.0,0.14699210226535797
896.0,0.13133078813552856
960.0,0.11547759920358658
1024.0,0.10177048295736313
1152.0,0.07880831509828568
1280.0,0.06294400990009308
1408.0,0.050065357238054276
1536.0,0.04067065194249153
1664.0,0.03973265737295151
1792.0,0.04721427708864212
1920.0,0.06518156081438065
2048.0,0.09270855784416199
2304.0,0.1467132270336151
2560.0,0.18128813803195953
2816.0,0.2015804797410965
3072.0,0.19076578319072723
3328.0,0.12872543931007385
3584.0,0.042153388261795044
3840.0,-0.03132672235369682
4096.0,-0.07831988483667374
4608.0,-0.11808684468269348
5120.0,-0.04565878212451935
5632.0,0.011802652850747108
6144.0,-0.030787456780672073
6656.0,-0.18125835061073303
7168.0,-0.2806663513183594
7680.0,-0.2689010202884674
8192.0,-0.2258479744195938
9216.0,-0.12449346482753754
10240.0,-0.18044787645339966
11264.0,-0.0892476961016655
12288.0,-0.021425101906061172
13312.0,-0.04050030559301376
14336.0,0.09106627106666565
end
