version,3.0
numOfCh,1
type,point
parent_name,34766_3dot0-1dot0
ch_type,1_1
kcount,1
numberNandB,1
brightnessNandB,1
carpet pos,0
pc,0
Time (ms),CH1 Auto-Correlation
1.0,0.01586444117128849
2.0,0.012872987426817417
3.0,0.010781480930745602
4.0,0.009146342054009438
5.0,0.007930663414299488
6.0,0.006970814894884825
7.0,0.006171473301947117
8.0,0.005510530900210142
9.0,0.005041878204792738
10.0,0.004632186144590378
11.0,0.004397683311253786
12.0,0.004144641570746899
13.0,0.003921593073755503
14.0,0.0036866057198494673
15.0,0.0035104884300380945
16.0,0.0033397397492080927
18.0,0.0029010577127337456
20.0,0.002649377565830946
22.0,0.0023676964920014143
24.0,0.001985396957024932
26.0,0.0017614761600270867
28.0,0.0016430806135758758
30.0,0.0014732766430824995
32.0,0.0011750818230211735
36.0,0.0009949838276952505
40.0,0.0009022753220051527
44.0,0.0008707914967089891
48.0,0.0006819283589720726
52.0,0.0007009318796917796
56.0,0.0006950836977921426
60.0,0.0005900694523006678
64.0,0.00045107334153726697
72.0,0.0006704251863993704
80.0,0.000596232246607542
88.0,6.171833229018375e-05
96.0,-0.0003627535770647228
104.0,-0.0003267311258241534
112.0,5.153247911948711e-05
120.0,0.00022134259052108973
128.0,6.753724301233888e-05
144.0,-0.00011949514737352729
160.0,-0.00031490076798945665
176.0,-0.000192091305507347
192.0,-0.00018866462050937116
208.0,-0.0006619369378313422
224.0,-0.0006352350465022027
240.0,0.00014856002235319465
256.0,0.00010018100874731317
288.0,-0.00019282300490885973
320.0,0.00011433465988375247
352.0,0.0002057907113339752
384.0,0.00028883767663501203
416.0,-6.390972703229636e-05
448.0,-0.00018910513608716428
480.0,-0.0006377361132763326
512.0,-0.0006782574346289039
576.0,-0.00026999926194548607
640.0,0.0005773597513325512
704.0,0.000272980920271948
768.0,-0.00016388845688197762
832.0,1.028657061397098e-05
896.0,0.0001118690925068222
960.0,-3.3814372727647424e-05
1024.0,-0.00012852970394305885
1152.0,2.2284208171186037e-05
1280.0,0.0006258212379179895
1408.0,-0.00010432264389237389
1536.0,1.3830748684995342e-05
1664.0,-5.7149576605297625e-05
1792.0,-0.0002644275373313576
1920.0,0.0004354907141532749
2048.0,0.00012167218665126711
2304.0,0.00018012603686656803
2560.0,-0.00015007067122496665
2816.0,0.00023799952759873122
3072.0,-0.0003538549062795937
3328.0,-8.46187977003865e-05
3584.0,0.00010788174404297024
3840.0,-0.00014553994697052985
4096.0,-0.00011968076432822272
4608.0,-8.961709681898355e-05
5120.0,0.00015755259664729238
5632.0,-0.0002791023871395737
6144.0,6.571991252712905e-05
6656.0,7.81209600972943e-05
7168.0,0.00014611464575864375
7680.0,6.106324872234836e-05
8192.0,-0.00014564709272235632
end
