version,3.0
numOfCh,1
type,point
parent_name,34766_3dot0-1dot0
ch_type,1_1
kcount,1
numberNandB,1
brightnessNandB,1
carpet pos,0
pc,0
Time (ms),CH1 Auto-Correlation
1.0,0.01662355475127697
2.0,0.01373984757810831
3.0,0.011609964072704315
4.0,0.009970128536224365
5.0,0.008832317776978016
6.0,0.007814149372279644
7.0,0.007165062241256237
8.0,0.006642961874604225
9.0,0.0062209549359977245
10.0,0.005808007903397083
11.0,0.005314133130013943
12.0,0.004871997982263565
13.0,0.004538973793387413
14.0,0.00417231023311615
15.0,0.003903741482645273
16.0,0.0036906544119119644
18.0,0.0032104516867548227
20.0,0.0028986376710236073
22.0,0.002682933583855629
24.0,0.0026269429363310337
26.0,0.0024007833562791348
28.0,0.0021537053398787975
30.0,0.0018727582646533847
32.0,0.0018082010792568326
36.0,0.0016086359973996878
40.0,0.0014056934742257
44.0,0.001159532694146037
48.0,0.0011931095505133271
52.0,0.000967435073107481
56.0,0.0007711431244388223
60.0,0.0008451839676126838
64.0,0.0010047915857285261
72.0,0.0008936076192185283
80.0,0.000907396839465946
88.0,0.0008125980966724455
96.0,0.000426784303272143
104.0,0.00027392880292609334
112.0,0.00042147314525209367
120.0,0.00018982221081387252
128.0,0.0002949523041024804
144.0,0.0005622009630315006
160.0,9.917983697960153e-05
176.0,-0.0003644934331532568
192.0,-0.0008458354277536273
208.0,-0.0010282705770805478
224.0,-0.0007256203680299222
240.0,-0.0007310209330171347
256.0,-0.00041761930333450437
288.0,-0.00033688521943986416
320.0,-0.00024652350111864507
352.0,-6.147534440970048e-05
384.0,-0.00014086064766161144
416.0,-0.00036219830508343875
448.0,-0.0001880667987279594
480.0,-0.00015821271517779678
512.0,-0.00010208394814981148
576.0,0.00027905983733944595
640.0,0.00027522718301042914
704.0,0.000676896539516747
768.0,0.0006617249455302954
832.0,-0.00010553357424214482
896.0,-0.0006975123542360961
960.0,-0.0002481159463059157
1024.0,0.00025347922928631306
1152.0,0.0005603496101684868
1280.0,0.00011421875387895852
1408.0,-1.7109237887780182e-05
1536.0,-0.00014596106484532356
1664.0,-0.000650593894533813
1792.0,0.0005735296290367842
1920.0,0.0004927858244627714
2048.0,-0.00021332521282602102
2304.0,-0.0001348916266579181
2560.0,0.0006996153970248997
2816.0,-0.0003401170251891017
3072.0,0.0003344299038872123
3328.0,-0.0003433900128584355
3584.0,0.00026817884645424783
3840.0,0.0001631737541174516
4096.0,-0.0003304854908492416
4608.0,0.00014281529001891613
5120.0,0.00029964526765979826
5632.0,2.8088823000871344e-06
6144.0,-3.6780922982870834e-06
6656.0,-0.00021107109205331653
7168.0,9.215489990310743e-05
7680.0,-6.413882510969415e-05
8192.0,-3.9475511584896594e-05
end
