version,3.0
numOfCh,1
type,point
parent_name,34766_3dot0-1dot0
ch_type,1_1
kcount,1
numberNandB,1
brightnessNandB,1
carpet pos,0
pc,0
Time (ms),CH1 Auto-Correlation
1.0,0.017066529020667076
2.0,0.013896265998482704
3.0,0.011764932423830032
4.0,0.010221248492598534
5.0,0.009091245010495186
6.0,0.008113530464470387
7.0,0.007386732846498489
8.0,0.006921331398189068
9.0,0.0065692453645169735
10.0,0.0060705747455358505
11.0,0.005616148002445698
12.0,0.005276266951113939
13.0,0.0048414478078484535
14.0,0.0044812471605837345
15.0,0.004172218963503838
16.0,0.00390202016569674
18.0,0.0034809394273906946
20.0,0.0032892541494220495
22.0,0.0030515179969370365
24.0,0.002763345604762435
26.0,0.002563342684879899
28.0,0.002413606271147728
30.0,0.0022356535773724318
32.0,0.0020292000845074654
36.0,0.0016267275204882026
40.0,0.0012781227706000209
44.0,0.0011310515692457557
48.0,0.0010191492037847638
52.0,0.0012747066793963313
56.0,0.001388426637277007
60.0,0.0011964293662458658
64.0,0.0010850178077816963
72.0,0.0005724307848140597
80.0,0.00033115193946287036
88.0,0.0005110088968649507
96.0,0.0007804013439454138
104.0,0.0006834695232100785
112.0,0.0008274364518001676
120.0,0.0010031197452917695
128.0,0.0007392906118184328
144.0,0.00019960275676567107
160.0,5.207934736972675e-05
176.0,0.0002940925769507885
192.0,0.000360987993190065
208.0,0.00036599644226953387
224.0,-7.64669239288196e-05
240.0,8.567129407310858e-05
256.0,-0.00010076745093101636
288.0,-6.65683692204766e-05
320.0,0.0001869564293883741
352.0,0.0004478652845136821
384.0,0.00016783624596428126
416.0,-0.00016250521002802998
448.0,0.000354562362190336
480.0,0.00014202484453562647
512.0,0.0003935342247132212
576.0,0.00047502818051725626
640.0,2.0585077436408028e-05
704.0,0.00016086612595245242
768.0,0.00020771964045707136
832.0,0.000337922916514799
896.0,-0.00022806723427493125
960.0,-8.819426875561476e-05
1024.0,0.00040149359847418964
1152.0,3.969949102611281e-05
1280.0,-4.4477863411884755e-05
1408.0,-0.00035146332811564207
1536.0,-7.25167992641218e-05
1664.0,-0.00017155545356217772
1792.0,1.4718822967552114e-05
1920.0,0.00015420682029798627
2048.0,0.0007767081260681152
2304.0,1.9307288312120363e-05
2560.0,0.0004114423936698586
2816.0,0.00020060940005350858
3072.0,-2.1738394934800453e-05
3328.0,-0.0001330003869952634
3584.0,-0.0006304797134362161
3840.0,-3.2445191209262703e-06
4096.0,-0.00022515133605338633
4608.0,-2.4323520847246982e-05
5120.0,0.0003906034107785672
5632.0,9.834978845901787e-05
6144.0,-8.278456516563892e-05
6656.0,-0.0003329829196445644
7168.0,-2.8509875846793875e-05
7680.0,3.747073424165137e-05
8192.0,6.755511276423931e-05
end
