version,3.0
numOfCh,1
type,point
parent_name,34766_3dot0-1dot0
ch_type,1_1
kcount,1
numberNandB,1
brightnessNandB,1
carpet pos,0
pc,0
Time (ms),CH1 Auto-Correlation
1.0,0.016258008778095245
2.0,0.013319752179086208
3.0,0.011313390918076038
4.0,0.009938460774719715
5.0,0.00891311839222908
6.0,0.008093821816146374
7.0,0.007451527751982212
8.0,0.006958444602787495
9.0,0.006546202581375837
10.0,0.006067664362490177
11.0,0.005650689825415611
12.0,0.005295589100569487
13.0,0.005061163567006588
14.0,0.004817253910005093
15.0,0.004720906261354685
16.0,0.004477991256862879
18.0,0.004135466180741787
20.0,0.00378623534925282
22.0,0.0033922498114407063
24.0,0.0030767563730478287
26.0,0.003090714570134878
28.0,0.002947666682302952
30.0,0.0027255909517407417
32.0,0.0027730504516512156
36.0,0.0025703338906168938
40.0,0.002441674005240202
44.0,0.002272222423925996
48.0,0.0021237172186374664
52.0,0.0020206947810947895
56.0,0.0020791462156921625
60.0,0.0019315979443490505
64.0,0.0015821963315829635
72.0,0.0012513349065557122
80.0,0.0007257756660692394
88.0,0.000535201164893806
96.0,-2.2137021005619317e-05
104.0,0.00021629477851092815
112.0,0.00055879628052935
120.0,0.0006045969785191119
128.0,0.000361472339136526
144.0,-3.634040695033036e-05
160.0,0.0003301082761026919
176.0,0.000319348881021142
192.0,0.00010876225132960826
208.0,0.00012698960199486464
224.0,5.5679367505945265e-05
240.0,-0.0005382506060414016
256.0,-0.0004002358764410019
288.0,-0.0002757108595687896
320.0,0.00012576498556882143
352.0,0.00028484471840783954
384.0,0.0001721385633572936
416.0,0.00016435635916423053
448.0,-0.00011887145228683949
480.0,0.00010056460450869054
512.0,-0.00036308137350715697
576.0,-8.560510468669236e-05
640.0,-2.0895209672744386e-05
704.0,-5.188875547901262e-06
768.0,4.146705396124162e-05
832.0,-0.0004924678942188621
896.0,-0.00042851822217926383
960.0,-0.00020424339163582772
1024.0,-0.0006318843807093799
1152.0,-0.00027956179110333323
1280.0,-0.000495219836011529
1408.0,4.6645262045785785e-05
1536.0,0.00014856414054520428
1664.0,-0.0004513087042141706
1792.0,-0.00019646492728497833
1920.0,-0.0002750846615526825
2048.0,0.000188287187484093
2304.0,-0.00011240772437304258
2560.0,-5.511370090971468e-06
2816.0,0.00024592215777374804
3072.0,8.166435873135924e-05
3328.0,-0.00011835466284537688
3584.0,0.0003927183570340276
3840.0,-0.0001757100544637069
4096.0,-0.0005295740556903183
4608.0,-0.00023334343859460205
5120.0,0.00026960342074744403
5632.0,0.00040503981290385127
6144.0,-0.0001934600149979815
6656.0,-0.000170105995493941
7168.0,0.0001669309858698398
7680.0,-0.00041284956387244165
8192.0,0.00036461360286921263
end
