version,3.0
numOfCh,1
type,point
parent_name,34766_3dot0-1dot0
ch_type,1_1
kcount,1
numberNandB,1
brightnessNandB,1
carpet pos,0
pc,0
Time (ms),CH1 Auto-Correlation
1.0,0.01603967510163784
2.0,0.012970640324056149
3.0,0.01091283280402422
4.0,0.009310300461947918
5.0,0.008082850836217403
6.0,0.007062193006277084
7.0,0.006190621294081211
8.0,0.00551716098561883
9.0,0.005038398317992687
10.0,0.004504452459514141
11.0,0.00402483344078064
12.0,0.003592059714719653
13.0,0.00309862126596272
14.0,0.002796080894768238
15.0,0.0024575949646532536
16.0,0.002330919960513711
18.0,0.001964037539437413
20.0,0.001648581586778164
22.0,0.0013841870240867138
24.0,0.0012120442697778344
26.0,0.0009600784396752715
28.0,0.0008537062676623464
30.0,0.0008903532288968563
32.0,0.0009412034414708614
36.0,0.0008116679964587092
40.0,0.0007900578784756362
44.0,0.0005604870384559035
48.0,0.00027201088960282505
52.0,0.00028225936694070697
56.0,0.00010957340418826789
60.0,-8.567753684474155e-05
64.0,2.3602566216140985e-05
72.0,-0.0002077218086924404
80.0,6.858073174953461e-05
88.0,-0.00014686264330521226
96.0,0.00021464437304530293
104.0,-7.034595910226926e-05
112.0,-0.00014782829384785146
120.0,-0.000260742730461061
128.0,-0.00010337381536373869
144.0,0.0004427955427672714
160.0,0.000500991940498352
176.0,-2.1573059711954556e-05
192.0,-0.00012843037256971002
208.0,5.623585093417205e-05
224.0,-0.0005128490156494081
240.0,-0.0006898944266140461
256.0,-0.0003278042422607541
288.0,0.0002170753141399473
320.0,0.00044566314318217337
352.0,-2.0260008568584453e-06
384.0,0.00020568017498590052
416.0,0.000559602165594697
448.0,0.00047687027836218476
480.0,-1.4730078873981256e-05
512.0,-0.00011821864609373733
576.0,0.00010432768613100052
640.0,-1.6069587218225934e-05
704.0,0.00011149336205562577
768.0,0.0005633828113786876
832.0,-0.0001412053097737953
896.0,4.453421934158541e-05
960.0,0.0004430095141287893
1024.0,0.0001838245225371793
1152.0,-0.00013043814396951348
1280.0,0.0001440767227904871
1408.0,0.0003471796226222068
1536.0,-0.00016041836352087557
1664.0,-0.00019975418399553746
1792.0,-5.09349447384011e-05
1920.0,0.00018296866619493812
2048.0,-2.004326779569965e-05
2304.0,-6.29817513981834e-05
2560.0,-6.260679947445169e-05
2816.0,0.000188795558642596
3072.0,-0.00018070633814204484
3328.0,0.0001813342678360641
3584.0,-5.167240033188136e-06
3840.0,-0.00010961397492792457
4096.0,-0.00011680999159580097
4608.0,2.4728824428166263e-05
5120.0,4.707258631242439e-05
5632.0,-4.764791810885072e-05
6144.0,3.411839497857727e-05
6656.0,3.774460856220685e-05
7168.0,-1.6535639588255435e-05
7680.0,3.950330938096158e-05
8192.0,-0.00015568212256766856
end
