version,3.0
numOfCh,1
type,point
parent_name,34766_3dot0-1dot0
ch_type,1_1
kcount,1
numberNandB,1
brightnessNandB,1
carpet pos,0
pc,0
Time (ms),CH1 Auto-Correlation
1.0,0.016667703166604042
2.0,0.013644672930240631
3.0,0.011476892977952957
4.0,0.009837719611823559
5.0,0.008491995744407177
6.0,0.007460400462150574
7.0,0.006659523118287325
8.0,0.0060392324812710285
9.0,0.005527200177311897
10.0,0.005123592913150787
11.0,0.004828303121030331
12.0,0.004562182817608118
13.0,0.004354856442660093
14.0,0.0041243028827011585
15.0,0.0038554940838366747
16.0,0.0035835872404277325
18.0,0.0030844463035464287
20.0,0.0027553930412977934
22.0,0.0025826964993029833
24.0,0.0023841431830078363
26.0,0.0020476984791457653
28.0,0.001705974224023521
30.0,0.0015189382247626781
32.0,0.001371675985865295
36.0,0.0013995511690154672
40.0,0.0015091639943420887
44.0,0.0015282538952305913
48.0,0.0012865030439570546
52.0,0.0013443832285702229
56.0,0.0012464352184906602
60.0,0.0012429020134732127
64.0,0.0008334930753335357
72.0,0.00022984488168731332
80.0,-3.0021879865671508e-05
88.0,0.00018052395898848772
96.0,0.00041045102989301085
104.0,6.885574839543551e-05
112.0,-0.00016711646458134055
120.0,2.6564161089481786e-05
128.0,-5.929985491093248e-05
144.0,-8.30708522698842e-05
160.0,-0.0003539565659593791
176.0,-0.0003206808469258249
192.0,-0.00016441551269963384
208.0,-0.0002831908059306443
224.0,-0.0004574772610794753
240.0,0.00012222645455040038
256.0,0.0003132569545414299
288.0,2.0314324501669034e-05
320.0,-8.969964983407408e-05
352.0,0.0007381666218861938
384.0,0.0005098945694044232
416.0,-9.130663966061547e-05
448.0,9.178474283544347e-05
480.0,-9.352150300401263e-06
512.0,-0.0002258363092551008
576.0,-0.00046603649388998747
640.0,4.781135430675931e-06
704.0,-0.00011908103624591604
768.0,-0.00013394512643571943
832.0,-0.00019962890655733645
896.0,-0.0003141679335385561
960.0,0.00014178470883052796
1024.0,0.00011725951480912045
1152.0,-0.00042239236063323915
1280.0,4.9211423174710944e-05
1408.0,0.00021209877741057426
1536.0,6.717471114825457e-05
1664.0,5.064208744443022e-05
1792.0,-0.0005087089957669377
1920.0,-0.00013382133329287171
2048.0,-0.00045298534678295255
2304.0,-0.0004190642212051898
2560.0,0.00027470296481624246
2816.0,5.177639195608208e-06
3072.0,-4.2235849832650274e-05
3328.0,9.988067904487252e-05
3584.0,-0.00012793454516213387
3840.0,0.00019916350720450282
4096.0,-9.793533536139876e-05
4608.0,1.6691148630343378e-05
5120.0,5.2818471885984764e-05
5632.0,-0.00012328657612670213
6144.0,0.0001476966281188652
6656.0,9.244767716154456e-05
7168.0,-0.0002478188253007829
7680.0,0.00010804684279719368
8192.0,-8.740620251046494e-05
end
