version,3.0
numOfCh,1
type,point
parent_name,34766_3dot0-1dot0
ch_type,1_1
kcount,1
numberNandB,1
brightnessNandB,1
carpet pos,0
pc,0
Time (ms),CH1 Auto-Correlation
1.0,0.0172566045075655
2.0,0.014311716891825199
3.0,0.012202977202832699
4.0,0.010546616278588772
5.0,0.009163429960608482
6.0,0.008082418702542782
7.0,0.007271190639585257
8.0,0.006675823591649532
9.0,0.006240284536033869
10.0,0.005826590582728386
11.0,0.005486308131366968
12.0,0.005173343699425459
13.0,0.004995526745915413
14.0,0.004684706684201956
15.0,0.004486188292503357
16.0,0.0043681031093001366
18.0,0.0041163647547364235
20.0,0.0038832388818264008
22.0,0.003560199635103345
24.0,0.003238636301830411
26.0,0.0028517318423837423
28.0,0.002506138989701867
30.0,0.0023416855838149786
32.0,0.0022041741758584976
36.0,0.001908050267957151
40.0,0.0017847117269411683
44.0,0.0015824042493477464
48.0,0.0011275692377239466
52.0,0.0009805901208892465
56.0,0.0013444664655253291
60.0,0.0013646581210196018
64.0,0.0011324305087327957
72.0,0.0008350120624527335
80.0,0.0008577630505897105
88.0,0.0005022364784963429
96.0,0.00020171591313555837
104.0,9.170274279313162e-05
112.0,0.0002216325665358454
120.0,0.000480608461657539
128.0,0.00018456234829500318
144.0,3.148706673528068e-05
160.0,-0.00010195382492383942
176.0,-3.896126872859895e-05
192.0,0.0003687602002173662
208.0,0.0001828740641940385
224.0,-0.00020202412270009518
240.0,-0.00030158727895468473
256.0,-0.00044103842810727656
288.0,-7.846461812732741e-05
320.0,-0.0001835102157201618
352.0,-7.011453999439254e-05
384.0,6.441690493375063e-05
416.0,0.00012538950250018388
448.0,0.00025981166982091963
480.0,4.199212708044797e-05
512.0,-0.00038051040610298514
576.0,-0.0007137576467357576
640.0,-0.0002752960426732898
704.0,0.00015841492859181017
768.0,0.0003753934579435736
832.0,0.00033130915835499763
896.0,0.0004137156647630036
960.0,0.00017800278146751225
1024.0,-0.00018375685613136739
1152.0,0.00025607331190258265
1280.0,-4.805942080565728e-05
1408.0,-0.0005208801012486219
1536.0,-0.0005508605390787125
1664.0,-0.0002320293860975653
1792.0,-0.0002063314605038613
1920.0,0.0004122329119127244
2048.0,0.00028322453727014363
2304.0,-0.00022126738622318953
2560.0,3.1339488486992195e-05
2816.0,0.00018651584105100483
3072.0,-0.0003172325959894806
3328.0,-0.0004074311291333288
3584.0,-0.00012338221131358296
3840.0,-4.0468767110724e-05
4096.0,-0.00048140372382476926
4608.0,0.00029340421315282583
5120.0,-0.00010805227066157386
5632.0,0.00024291020235978067
6144.0,0.0004128253785893321
6656.0,1.2272445019334555e-05
7168.0,0.00016730811330489814
7680.0,-0.0007324103498831391
8192.0,-0.00015751637693028897
end
