version,3.0
numOfCh,1
type,point
parent_name,34766_3dot0-1dot0
ch_type,1_1
kcount,1
numberNandB,1
brightnessNandB,1
carpet pos,0
pc,0
Time (ms),CH1 Auto-Correlation
1.0,0.016473064199090004
2.0,0.01360564585775137
3.0,0.011566716246306896
4.0,0.010059096850454807
5.0,0.008952093310654163
6.0,0.007923577912151814
7.0,0.007015599869191647
8.0,0.006393964868038893
9.0,0.005701770074665546
10.0,0.005138912703841925
11.0,0.004770137835294008
12.0,0.004434927366673946
13.0,0.004181789234280586
14.0,0.003983964677900076
15.0,0.0036901275161653757
16.0,0.0035291665699332952
18.0,0.0032811693381518126
20.0,0.0030697020702064037
22.0,0.0029999397229403257
24.0,0.00286179524846375
26.0,0.0027920349966734648
28.0,0.002620056504383683
30.0,0.0023158518597483635
32.0,0.001985386712476611
36.0,0.0015902079176157713
40.0,0.0011912015033885837
44.0,0.0010211103362962604
48.0,0.0008646045462228358
52.0,0.0007476029568351805
56.0,0.0004898813203908503
60.0,0.0005973033257760108
64.0,0.0006314068450592458
72.0,0.0009358921670354903
80.0,0.0006343371351249516
88.0,0.00038773324922658503
96.0,0.0004581830289680511
104.0,-0.000252483383519575
112.0,-0.00021833785285707563
120.0,-9.472946112509817e-05
128.0,-0.00011023045954061672
144.0,-0.00010301267320755869
160.0,-0.00048096722457557917
176.0,-0.00010292875958839431
192.0,-0.0004765773192048073
208.0,-0.0006972711416892707
224.0,-4.04818456445355e-05
240.0,0.00010880708578042686
256.0,-0.00011910308967344463
288.0,0.00029241672018542886
320.0,0.0005503373104147613
352.0,-2.4479713829350658e-05
384.0,-0.0003543697530403733
416.0,-0.0004903599037788808
448.0,-0.0004001446068286896
480.0,-0.00026680424343794584
512.0,-0.0001642515417188406
576.0,-0.00030375467031262815
640.0,-0.0001513529714429751
704.0,0.00018943281611427665
768.0,-0.0010302298469468951
832.0,0.0001133083351305686
896.0,0.0004143748665228486
960.0,-0.00010918286716332659
1024.0,0.00021640838531311601
1152.0,-0.0004242548893671483
1280.0,-7.460108463419601e-06
1408.0,-0.00028924099751748145
1536.0,3.945636490243487e-05
1664.0,-6.870607467135414e-05
1792.0,0.00015132586122490466
1920.0,0.00024216133169829845
2048.0,-0.0002667345106601715
2304.0,0.0001698784762993455
2560.0,-0.0001153719422291033
2816.0,9.330939792562276e-05
3072.0,-0.00013102596858516335
3328.0,-0.00027996828430332243
3584.0,2.571556478869752e-06
3840.0,1.2111547221138608e-05
4096.0,0.00038973416667431593
4608.0,8.990555943455547e-05
5120.0,4.817879744223319e-05
5632.0,0.00024240401398856193
6144.0,-0.00014702165208291262
6656.0,-0.00031041697366163135
7168.0,5.41343106306158e-05
7680.0,0.00013868966198060662
8192.0,-0.00012124089698772877
end
