version,3.0
numOfCh,1
type,point
parent_name,34766_3dot0-1dot0
ch_type,1_1
kcount,1
numberNandB,1
brightnessNandB,1
carpet pos,0
pc,0
Time (ms),CH1 Auto-Correlation
1.0,0.01675190031528473
2.0,0.013684757053852081
3.0,0.011572668328881264
4.0,0.010068589821457863
5.0,0.008951799012720585
6.0,0.008027493953704834
7.0,0.007193055469542742
8.0,0.006494097877293825
9.0,0.006008958909660578
10.0,0.005583866499364376
11.0,0.005151013843715191
12.0,0.00486036716029048
13.0,0.004606742411851883
14.0,0.004320221953094006
15.0,0.004065657500177622
16.0,0.003823361126706004
18.0,0.003450499614700675
20.0,0.0032640518620610237
22.0,0.0032911505550146103
24.0,0.0032482820097357035
26.0,0.0031507539097219706
28.0,0.0029820173513144255
30.0,0.0027839327231049538
32.0,0.0026157288812100887
36.0,0.0021243386436253786
40.0,0.0016669403994455934
44.0,0.0016691277269273996
48.0,0.0016285909805446863
52.0,0.0014274251880124211
56.0,0.0011052184272557497
60.0,0.0008857471402734518
64.0,0.0007471570861525834
72.0,0.0004912797012366354
80.0,0.000503917399328202
88.0,0.0004377938457764685
96.0,0.0001653127110330388
104.0,0.00018646978423930705
112.0,0.00023333322315011173
120.0,0.00020753331773448735
128.0,0.0003550610563252121
144.0,8.070696640061215e-05
160.0,5.9991147281834856e-05
176.0,-0.00013988935097586364
192.0,-0.00028445079806260765
208.0,-0.0003287354775238782
224.0,-0.00023897949722595513
240.0,-0.00015778174565639347
256.0,-9.938054427038878e-05
288.0,-0.00023525097640231252
320.0,-0.0005382405361160636
352.0,-0.0009327793959528208
384.0,-0.0008426254498772323
416.0,-0.0009202599758282304
448.0,-0.0007380389724858105
480.0,-0.0008337225881405175
512.0,-0.0001296055706916377
576.0,2.071768722089473e-05
640.0,-6.13419761066325e-05
704.0,0.000339429680025205
768.0,-6.673367897747084e-05
832.0,0.00020968113676644862
896.0,-9.789670730242506e-05
960.0,0.0003410851350054145
1024.0,5.834510739077814e-05
1152.0,0.0003109395911451429
1280.0,-0.00044488636194728315
1408.0,-0.000494381645694375
1536.0,-0.00031029139063321054
1664.0,0.0003083751362282783
1792.0,0.0004637138044927269
1920.0,0.00021335831843316555
2048.0,0.00013048462278675288
2304.0,-0.00041283704922534525
2560.0,7.421507325489074e-05
2816.0,7.415671279886737e-05
3072.0,0.00020556959498208016
3328.0,-0.0003278441436123103
3584.0,0.0003024135367013514
3840.0,-0.00024686750839464366
4096.0,-0.00029032741440460086
4608.0,-7.425944204442203e-05
5120.0,0.00012490554945543408
5632.0,7.352684042416513e-05
6144.0,0.0002442012482788414
6656.0,-7.189509051386267e-05
7168.0,-0.00011131744395243004
7680.0,-0.00014845907571725547
8192.0,9.86351806204766e-05
end
