version,3.0
numOfCh,1
type,point
parent_name,34766_3dot0-1dot0
ch_type,1_1
kcount,1
numberNandB,1
brightnessNandB,1
carpet pos,0
pc,0
Time (ms),CH1 Auto-Correlation
1.0,0.015800051391124725
2.0,0.012905794195830822
3.0,0.010873185470700264
4.0,0.009272856637835503
5.0,0.008036710321903229
6.0,0.007050123997032642
7.0,0.006316149141639471
8.0,0.005687635391950607
9.0,0.005201107356697321
10.0,0.004848204553127289
11.0,0.004382224287837744
12.0,0.004013617988675833
13.0,0.0036802866961807013
14.0,0.0033353392500430346
15.0,0.0030743505340069532
16.0,0.002838491927832365
18.0,0.002318504499271512
20.0,0.0020067617297172546
22.0,0.0018355377251282334
24.0,0.001631546183489263
26.0,0.0016052195569500327
28.0,0.0014002578100189567
30.0,0.0013395230052992702
32.0,0.0012357219820842147
36.0,0.0009903049794957042
40.0,0.0008354956516996026
44.0,0.00045539147686213255
48.0,0.0004312431556172669
52.0,0.00021497432317119092
56.0,0.0002629389055073261
60.0,0.000303864770103246
64.0,0.00027580675669014454
72.0,0.00032120663672685623
80.0,0.000317385041853413
88.0,0.0002546032192185521
96.0,-4.660012200474739e-05
104.0,-3.066959106945433e-05
112.0,-0.00018732884200289845
120.0,-6.696079071843997e-05
128.0,-6.0135138483019546e-05
144.0,2.50080647674622e-05
160.0,0.00013265947927720845
176.0,0.0004414925933815539
192.0,0.0008593085804022849
208.0,0.000575234938878566
224.0,0.0006873154197819531
240.0,0.0005126548348926008
256.0,0.0003194232995156199
288.0,-0.00032036262564361095
320.0,-0.0004007483657915145
352.0,2.5381383238709532e-05
384.0,0.0002990437496919185
416.0,0.0004558148211799562
448.0,0.00011110044579254463
480.0,0.0002727508544921875
512.0,-0.00010863877105293795
576.0,0.0004597615043167025
640.0,0.00031920592300593853
704.0,0.0002327531110495329
768.0,-0.00020865713304374367
832.0,-0.00011507511953823268
896.0,0.00017934481729753315
960.0,-0.000234911116422154
1024.0,-0.00024005975865293294
1152.0,0.00023791714920662344
1280.0,1.343421627097996e-05
1408.0,-0.0003753843193408102
1536.0,-0.00039940071292221546
1664.0,-0.00042339516221545637
1792.0,-6.564022623933852e-05
1920.0,-0.00018746175919659436
2048.0,-0.00010721512808231637
2304.0,4.917074693366885e-05
2560.0,0.0001498132769484073
2816.0,-3.5674404443852836e-06
3072.0,0.00022164506663102657
3328.0,0.00010507481056265533
3584.0,-5.385876283980906e-05
3840.0,-0.00012128280650358647
4096.0,-0.00038026119000278413
4608.0,-8.549600897822529e-05
5120.0,8.944120781961828e-05
5632.0,0.00021552876569330692
6144.0,0.0001876611786428839
6656.0,-9.69852990237996e-05
7168.0,-0.00032249168725684285
7680.0,-0.00030784524278715253
8192.0,8.076878657448106e-06
end
