version,3.0
numOfCh,1
type,point
parent_name,34766_3dot0-1dot0
ch_type,1_1
kcount,1
numberNandB,1
brightnessNandB,1
carpet pos,0
pc,0
Time (ms),CH1 Auto-Correlation
1.0,0.01730828918516636
2.0,0.01425464078783989
3.0,0.01208547968417406
4.0,0.010432183742523193
5.0,0.009165982715785503
6.0,0.008148055523633957
7.0,0.007395390886813402
8.0,0.0067694829776883125
9.0,0.006172816269099712
10.0,0.005730974953621626
11.0,0.0052983323112130165
12.0,0.004973827861249447
13.0,0.004606400150805712
14.0,0.0042404173873364925
15.0,0.003982817754149437
16.0,0.00371974497102201
18.0,0.0032705350313335657
20.0,0.002976351184770465
22.0,0.002807150362059474
24.0,0.0026601948775351048
26.0,0.002579969586804509
28.0,0.002334994962438941
30.0,0.002373791066929698
32.0,0.0024234752636402845
36.0,0.002190479077398777
40.0,0.001982026034966111
44.0,0.002082004677504301
48.0,0.0020992052741348743
52.0,0.002153994282707572
56.0,0.0024058083072304726
60.0,0.0020421892404556274
64.0,0.0019091925350949168
72.0,0.0012805770384147763
80.0,0.0007238994003273547
88.0,0.0007456617313437164
96.0,0.0005210251547396183
104.0,0.000536847161129117
112.0,0.00027419155230745673
120.0,0.0007400415488518775
128.0,0.0012350245378911495
144.0,0.0009119435562752187
160.0,0.0008462024270556867
176.0,0.0009297787910327315
192.0,0.000698609568644315
208.0,0.0007061575306579471
224.0,0.0004724461759906262
240.0,0.00022696747328154743
256.0,0.00046696700155735016
288.0,0.0007801947649568319
320.0,0.0003007242048624903
352.0,0.000126953877042979
384.0,0.00018112518591806293
416.0,0.0005935067893005908
448.0,0.0006140019977465272
480.0,0.0006139928009361029
512.0,8.59039428178221e-05
576.0,0.00012412485375534743
640.0,-0.00023987678287085146
704.0,0.0001509536086814478
768.0,0.00018244959937874228
832.0,0.00011171972437296063
896.0,0.00042154607945121825
960.0,8.661134779686108e-05
1024.0,-0.0002537101390771568
1152.0,-0.0002828830329235643
1280.0,-0.0005346511607058346
1408.0,-0.0006831834325566888
1536.0,-0.00020130891061853617
1664.0,-0.00034537847386673093
1792.0,-0.0004285969480406493
1920.0,-0.0004890533164143562
2048.0,-0.0006801281706430018
2304.0,-0.0006373587530106306
2560.0,-0.00032171502243727446
2816.0,-0.0002577768173068762
3072.0,-0.0001317996357101947
3328.0,-5.995839455863461e-05
3584.0,0.00022191397147253156
3840.0,0.0003852350637316704
4096.0,0.00036993384128436446
4608.0,0.0002123224694514647
5120.0,0.00040130066918209195
5632.0,-5.1693270506802946e-05
6144.0,-0.0007051262655295432
6656.0,-0.00048565343604423106
7168.0,-0.00036841616383753717
7680.0,0.00045214511919766665
8192.0,0.0004667293978855014
end
