version,3.0
numOfCh,1
type,point
parent_name,34766_3dot0-1dot0
ch_type,1_1
kcount,1
numberNandB,1
brightnessNandB,1
carpet pos,0
pc,0
Time (ms),CH1 Auto-Correlation
1.0,0.016208892688155174
2.0,0.013190786354243755
3.0,0.010989991016685963
4.0,0.009432812221348286
5.0,0.008256264962255955
6.0,0.007435753010213375
7.0,0.006744805257767439
8.0,0.006158800795674324
9.0,0.005652966443449259
10.0,0.005180018022656441
11.0,0.004777873866260052
12.0,0.0043793669901788235
13.0,0.004000636283308268
14.0,0.003714384976774454
15.0,0.003415102604776621
16.0,0.003149039577692747
18.0,0.002652319148182869
20.0,0.002363885287195444
22.0,0.0021078905556350946
24.0,0.0019751221407204866
26.0,0.0020288508385419846
28.0,0.002094884868711233
30.0,0.0018803899874910712
32.0,0.0017554659862071276
36.0,0.001428496208973229
40.0,0.0014329797122627497
44.0,0.001199244288727641
48.0,0.0011800494976341724
52.0,0.0012482163729146123
56.0,0.0006401279242709279
60.0,0.00021676985488738865
64.0,8.92078023753129e-05
72.0,-0.00035509341978468
80.0,-0.0004459415504243225
88.0,-3.09933748212643e-05
96.0,-0.0002780773211270571
104.0,-0.0005314493901096284
112.0,-0.0004408848471939564
120.0,-0.0002998822892550379
128.0,-7.21909964340739e-05
144.0,0.00021513902174774557
160.0,0.00034318026155233383
176.0,0.0007463193032890558
192.0,0.0005090357735753059
208.0,0.00044763696496374905
224.0,0.00010827013466041535
240.0,-0.00022371418890543282
256.0,-0.00039092492079362273
288.0,-0.0001742006716085598
320.0,0.0002905980800278485
352.0,0.0007665848825126886
384.0,0.000395157840102911
416.0,0.00048257524031214416
448.0,0.0005792240845039487
480.0,0.00018451611686032265
512.0,-5.9136495110578835e-05
576.0,-0.00032885081600397825
640.0,-8.150637586368248e-05
704.0,-0.00014151819050312042
768.0,-0.00022756136604584754
832.0,0.0009711563470773399
896.0,-4.00107164750807e-05
960.0,-0.0005902743432670832
1024.0,3.8248490454861894e-05
1152.0,5.482784763444215e-05
1280.0,-0.0001949795987457037
1408.0,-7.240389822982252e-05
1536.0,-8.561626600567251e-05
1664.0,1.3527058399631642e-05
1792.0,-0.0004305549373384565
1920.0,-0.00012275308836251497
2048.0,-0.00021340233797673136
2304.0,-0.00029076807550154626
2560.0,-7.405945507343858e-05
2816.0,-0.0002256536390632391
3072.0,-8.424225597991608e-06
3328.0,-7.590989116579294e-05
3584.0,-0.00016863133350852877
3840.0,0.00024692623992450535
4096.0,0.00041399066685698926
4608.0,2.2715903469361365e-05
5120.0,-6.087662040954456e-05
5632.0,1.3596729331766255e-05
6144.0,-0.00011073361383751035
6656.0,-0.00015863213047850877
7168.0,5.508356935024494e-06
7680.0,-3.599652336561121e-05
8192.0,0.00010822477634064853
end
