version,3.0
numOfCh,1
type,point
parent_name,34766_3dot0-1dot0
ch_type,1_1
kcount,1
numberNandB,1
brightnessNandB,1
carpet pos,0
pc,0
Time (ms),CH1 Auto-Correlation
1.0,0.016061002388596535
2.0,0.013147838413715363
3.0,0.011196194216609001
4.0,0.009756842628121376
5.0,0.008584648370742798
6.0,0.007722046691924334
7.0,0.00695476308465004
8.0,0.006349894683808088
9.0,0.005668386816978455
10.0,0.005232999566942453
11.0,0.004867533687502146
12.0,0.004511365666985512
13.0,0.004148551728576422
14.0,0.003939651418477297
15.0,0.0036743702366948128
16.0,0.003339143702760339
18.0,0.002738547045737505
20.0,0.0022617890499532223
22.0,0.001979786902666092
24.0,0.0017653567483648658
26.0,0.0015288784634321928
28.0,0.0014364406233653426
30.0,0.0012344230199232697
32.0,0.0011053088819608092
36.0,0.0008609942742623389
40.0,0.0008789363200776279
44.0,0.0007988155703060329
48.0,0.0008944586734287441
52.0,0.0006246778648346663
56.0,0.0007282865699380636
60.0,0.0008402570383623242
64.0,0.0010309184435755014
72.0,0.0010003484785556793
80.0,0.0009056901326403022
88.0,0.0005843091057613492
96.0,0.0005381741793826222
104.0,0.0002737705362960696
112.0,7.946498226374388e-05
120.0,9.915809641825035e-05
128.0,0.00034998278715647757
144.0,0.00020606789621524513
160.0,4.3668791477102786e-05
176.0,-0.00016100748325698078
192.0,-2.536836291255895e-05
208.0,-2.6078394512296654e-05
224.0,0.0003714630729518831
240.0,0.0004755779227707535
256.0,0.00043779262341558933
288.0,-3.17811245622579e-05
320.0,2.3024107576929964e-05
352.0,0.00030184912611730397
384.0,-3.0236516977311112e-05
416.0,0.0006263903342187405
448.0,-2.1730953449150547e-05
480.0,0.00046787093742750585
512.0,0.00021369448222685605
576.0,0.00012906921620015055
640.0,-0.0004593493649736047
704.0,-0.0006482512108050287
768.0,-0.0003870650543831289
832.0,0.00029466068372130394
896.0,0.00025378979626111686
960.0,-0.0004233055515214801
1024.0,-0.00039717089384794235
1152.0,-0.00024936874979175627
1280.0,6.3616771512897685e-06
1408.0,6.248782301554456e-05
1536.0,-0.0001903481752378866
1664.0,-9.388442413182929e-05
1792.0,-0.00028923864010721445
1920.0,0.00017021830717567354
2048.0,-0.00018382053531240672
2304.0,9.446073818253353e-05
2560.0,-0.0002169473300455138
2816.0,0.0002275138394907117
3072.0,-3.2001978979678825e-05
3328.0,-4.5524993765866384e-05
3584.0,-0.00019359783618710935
3840.0,-0.0007135449559427798
4096.0,-8.15583043731749e-05
4608.0,0.00017570596537552774
5120.0,9.903345926431939e-05
5632.0,-7.007097156019881e-05
6144.0,0.00012549008533824235
6656.0,6.238320202101022e-05
7168.0,-0.0003371296916157007
7680.0,0.0001549225562484935
8192.0,-0.00019397668074816465
end
