version,3.0
numOfCh,1
type,point
parent_name,34766_3dot0-1dot0
ch_type,1_1
kcount,1
numberNandB,1
brightnessNandB,1
carpet pos,0
pc,0
Time (ms),CH1 Auto-Correlation
1.0,0.016362808644771576
2.0,0.013330953195691109
3.0,0.011257503181695938
4.0,0.009697920642793179
5.0,0.008555588312447071
6.0,0.007631078362464905
7.0,0.006963308434933424
8.0,0.006406976841390133
9.0,0.005826107691973448
10.0,0.0053713358938694
11.0,0.005011793226003647
12.0,0.004640412516891956
13.0,0.004451439715921879
14.0,0.004350054543465376
15.0,0.004113053437322378
16.0,0.0038222731091082096
18.0,0.003589092753827572
20.0,0.0030801340471953154
22.0,0.002776362467557192
24.0,0.0026288144290447235
26.0,0.002479943446815014
28.0,0.0023334010038524866
30.0,0.002313837641850114
32.0,0.0021173974964767694
36.0,0.0019103799713775516
40.0,0.0016870286781340837
44.0,0.0015876982361078262
48.0,0.0015907378401607275
52.0,0.0012806685408577323
56.0,0.0011293384013697505
60.0,0.001412622514180839
64.0,0.001295982045121491
72.0,0.0005164617323316634
80.0,0.0004275054088793695
88.0,0.00039646882214583457
96.0,0.0008340459316968918
104.0,0.0004440252960193902
112.0,3.701692185131833e-05
120.0,-0.00019448398961685598
128.0,-0.0004632310592569411
144.0,-0.00033282849472016096
160.0,-0.0004711048386525363
176.0,-7.643919525435194e-05
192.0,-0.00012025906471535563
208.0,-0.00033706927206367254
224.0,0.00023274873092304915
240.0,0.00027146461070515215
256.0,-0.00024312862660735846
288.0,-0.0002458025701344013
320.0,-0.00024158856831490993
352.0,-0.00016422252519987524
384.0,-0.000578267325181514
416.0,-0.0010806433856487274
448.0,-0.0011932143243029714
480.0,-0.0006376256933435798
512.0,-0.00025394029216840863
576.0,0.0003773414355237037
640.0,0.00029065264970995486
704.0,0.00026987757883034647
768.0,0.00036689755506813526
832.0,0.00016619831149000674
896.0,0.00029924570117145777
960.0,0.00010721646685851738
1024.0,-7.914477464510128e-05
1152.0,1.6856351066962816e-05
1280.0,-0.00026155528030358255
1408.0,-0.0004667949106078595
1536.0,-0.0003127266827505082
1664.0,-0.00017106336599681526
1792.0,2.3119364414014854e-05
1920.0,-0.00013982862583361566
2048.0,-0.00017261679749935865
2304.0,-0.00021110571105964482
2560.0,0.0001040623610606417
2816.0,-6.571187259396538e-05
3072.0,-4.917114711133763e-05
3328.0,0.00026227941270917654
3584.0,-0.00018347678997088224
3840.0,-0.00025034710415638983
4096.0,0.0002300127234775573
4608.0,3.045051016670186e-06
5120.0,0.0001593324268469587
5632.0,-9.285983833251521e-05
6144.0,-7.659347465960309e-05
6656.0,1.2083896763215307e-05
7168.0,6.210193532751873e-06
7680.0,0.00037199046346358955
8192.0,-0.00037885308847762644
end
