version,3.0
numOfCh,1
type,point
parent_name,34766_3dot0-1dot0
ch_type,1_1
kcount,1
numberNandB,1
brightnessNandB,1
carpet pos,0
pc,0
Time (ms),CH1 Auto-Correlation
1.0,0.015792859718203545
2.0,0.012763199396431446
3.0,0.010629805736243725
4.0,0.00910091307014227
5.0,0.007944829761981964
6.0,0.00706656975671649
7.0,0.006271629128605127
8.0,0.005595275666564703
9.0,0.005081088747829199
10.0,0.004631950054317713
11.0,0.004244931973516941
12.0,0.003856476629152894
13.0,0.003613752080127597
14.0,0.0033591105602681637
15.0,0.0032630234491080046
16.0,0.0032818762119859457
18.0,0.0029933019541203976
20.0,0.0027747571002691984
22.0,0.0025252257473766804
24.0,0.0021967263892292976
26.0,0.001778267091140151
28.0,0.0016543942037969828
30.0,0.001723264460451901
32.0,0.0017145564779639244
36.0,0.0012357180239632726
40.0,0.0011358289048075676
44.0,0.0011024922132492065
48.0,0.0008103029103949666
52.0,0.00055111845722422
56.0,0.00040660041850060225
60.0,0.0004337811842560768
64.0,0.00021350616589188576
72.0,0.00031603046227246523
80.0,-6.383722939062864e-05
88.0,-0.00040219121729023755
96.0,-0.00023087245062924922
104.0,-0.00010183939593844116
112.0,3.95855495298747e-05
120.0,0.0002533692168071866
128.0,0.00022220172104425728
144.0,0.00020539794059004635
160.0,0.00039139072760008276
176.0,0.00021659350022673607
192.0,3.7833947317267302e-06
208.0,-0.00011311039270367473
224.0,-0.000194620355614461
240.0,0.00011576646647881716
256.0,-0.00010159106750506908
288.0,2.506933014956303e-05
320.0,0.0005200259038247168
352.0,0.00032982180709950626
384.0,0.00011887928849318996
416.0,-0.00011237901344429702
448.0,0.00040622366941533983
480.0,0.00039108676719479263
512.0,8.465901191812009e-05
576.0,-4.270930730854161e-05
640.0,0.00023405670071952045
704.0,0.0005275339353829622
768.0,0.00029162829741835594
832.0,-0.00037123181391507387
896.0,0.0005814764881506562
960.0,0.00038006235263310373
1024.0,-2.9787255698465742e-05
1152.0,0.00014346776879392564
1280.0,-0.00016490143025293946
1408.0,3.597847580749658e-06
1536.0,-0.0003194590681232512
1664.0,-0.00021756852220278233
1792.0,8.73385724844411e-05
1920.0,4.115221599931829e-05
2048.0,-8.218068251153454e-05
2304.0,-0.00024382260744459927
2560.0,0.00010933593148365617
2816.0,5.013000554754399e-05
3072.0,-0.0001648476318223402
3328.0,0.00010806714271893725
3584.0,3.2814274163683876e-05
3840.0,9.742775000631809e-05
4096.0,-0.00021087958884891123
4608.0,-0.0003454998368397355
5120.0,-0.00014218340220395476
5632.0,-3.974642822868191e-05
6144.0,-0.00011454334890004247
6656.0,2.6826976409211056e-06
7168.0,-0.000266556249698624
7680.0,-0.00026397424517199397
8192.0,-0.00020278709416743368
end
