version,3.0
numOfCh,1
type,point
parent_name,34766_3dot0-1dot0
ch_type,1_1
kcount,1
numberNandB,1
brightnessNandB,1
carpet pos,0
pc,0
Time (ms),CH1 Auto-Correlation
1.0,0.016731755807995796
2.0,0.01375940628349781
3.0,0.011671409010887146
4.0,0.010097384452819824
5.0,0.009007456712424755
6.0,0.00806005671620369
7.0,0.00723989587277174
8.0,0.006504386197775602
9.0,0.00595496641471982
10.0,0.005442859139293432
11.0,0.005018494091928005
12.0,0.004690560512244701
13.0,0.004431648179888725
14.0,0.004111129324883223
15.0,0.003823269857093692
16.0,0.003578494070097804
18.0,0.003191951895132661
20.0,0.0029436720069497824
22.0,0.002665803534910083
24.0,0.0023444448597729206
26.0,0.002156568458303809
28.0,0.0020284485071897507
30.0,0.0019912475254386663
32.0,0.0019436279544606805
36.0,0.0017652309034019709
40.0,0.0012748048175126314
44.0,0.0011449923040345311
48.0,0.0007735546678304672
52.0,0.0005694225546903908
56.0,0.0008180009899660945
60.0,0.000895002274774015
64.0,0.001079070963896811
72.0,0.0006629321724176407
80.0,0.00021266599651426077
88.0,0.0004141596145927906
96.0,0.0007739269640296698
104.0,0.0006434522219933569
112.0,0.0007554601761512458
120.0,0.0002649566740728915
128.0,4.8515033995499834e-05
144.0,0.00015004722808953375
160.0,-2.582290790087427e-06
176.0,-8.158603122865316e-06
192.0,0.00011669728701235726
208.0,-6.557078449986875e-05
224.0,-2.0462306565605104e-05
240.0,-0.00012527797662187368
256.0,0.0001818580349208787
288.0,0.00039498324622400105
320.0,0.0006286572315730155
352.0,0.0004400011384859681
384.0,0.0004520340298768133
416.0,0.00021991482935845852
448.0,-0.00025928750983439386
480.0,4.644578439183533e-05
512.0,0.0002622495812829584
576.0,0.0002969343331642449
640.0,0.0004235010128468275
704.0,-2.3445094484486617e-05
768.0,-0.00048047309974208474
832.0,0.00032391271088272333
896.0,0.0002535820531193167
960.0,0.00030875360243953764
1024.0,7.320562872337177e-05
1152.0,-9.012554073706269e-05
1280.0,0.00019898686150554568
1408.0,0.00033653993159532547
1536.0,0.0005912008346058428
1664.0,0.00045719576883129776
1792.0,-0.00010545140685280785
1920.0,6.600921915378422e-05
2048.0,7.449981785612181e-05
2304.0,0.0004089103895239532
2560.0,-4.012551471532788e-06
2816.0,-9.050159860635176e-05
3072.0,9.90492117125541e-05
3328.0,-0.00048669372336007655
3584.0,-0.00012999090540688485
3840.0,0.0001698304695310071
4096.0,-0.00016241418779827654
4608.0,-0.00032019216450862586
5120.0,-0.00033528078347444534
5632.0,-0.000408495485316962
6144.0,-0.00022054312285035849
6656.0,6.231613951968029e-06
7168.0,-0.0003465773770585656
7680.0,-0.00037028631777502596
8192.0,-7.713749073445797e-05
end
