version,3.0
numOfCh,1
type,point
parent_name,34766_3dot0-1dot0
ch_type,1_1
kcount,1
numberNandB,1
brightnessNandB,1
carpet pos,0
pc,0
Time (ms),CH1 Auto-Correlation
1.0,0.01602686569094658
2.0,0.013065612874925137
3.0,0.011084912344813347
4.0,0.009485761635005474
5.0,0.008161609061062336
6.0,0.007258502300828695
7.0,0.006545368116348982
8.0,0.005928362254053354
9.0,0.005342635326087475
10.0,0.00477366941049695
11.0,0.004324769601225853
12.0,0.004017086233943701
13.0,0.003739265026524663
14.0,0.003482975298538804
15.0,0.003167597809806466
16.0,0.0028846370987594128
18.0,0.0023611413780599833
20.0,0.0021680055651813745
22.0,0.001953501021489501
24.0,0.0014934120699763298
26.0,0.0010573823237791657
28.0,0.0007547414861619473
30.0,0.0008860365487635136
32.0,0.0009322134428657591
36.0,0.0012066449271515012
40.0,0.0011271396651864052
44.0,0.0011350710410624743
48.0,0.0012780242832377553
52.0,0.001155876787379384
56.0,0.0012688391143456101
60.0,0.0012367317685857415
64.0,0.0011755542363971472
72.0,0.000961494049988687
80.0,0.0008605902548879385
88.0,0.0007634599460288882
96.0,0.000710868916939944
104.0,0.0003591398417484015
112.0,0.0003073964035138488
120.0,0.00021130696404725313
128.0,0.0008399513317272067
144.0,0.0007371151586994529
160.0,5.042692646384239e-05
176.0,-2.0033505279570818e-05
192.0,-0.00011296274169581011
208.0,-0.0002700132899917662
224.0,-0.00010346406634198502
240.0,0.000326957437209785
256.0,0.00015950282977428287
288.0,-0.0001570553722558543
320.0,0.00012409007467795163
352.0,0.000309219176415354
384.0,-0.00012538302689790726
416.0,-0.0002095495001412928
448.0,-0.00030544339097104967
480.0,-6.507238140329719e-05
512.0,0.0006865004543215036
576.0,-8.780782809481025e-05
640.0,1.7134001609520055e-05
704.0,9.224469977198169e-06
768.0,0.00012275647895876318
832.0,0.00026414712192490697
896.0,-0.00043672946048900485
960.0,-0.0007156913634389639
1024.0,-0.0005103531293570995
1152.0,-0.0001870805717771873
1280.0,-0.00026762805646285415
1408.0,-0.0002861453976947814
1536.0,-0.0003300239332020283
1664.0,-0.0001444265217287466
1792.0,-7.27908918634057e-05
1920.0,-0.00012897902342956513
2048.0,0.00030527974013239145
2304.0,-7.520605140598491e-05
2560.0,-0.00030082304147072136
2816.0,0.00043300201650708914
3072.0,4.7405083023477346e-05
3328.0,-0.00010888488031923771
3584.0,-2.5190220185322687e-06
3840.0,-0.0001534092443762347
4096.0,0.0002141131117241457
4608.0,0.0002693063870538026
5120.0,-0.00017924186249729246
5632.0,-0.0003193546726834029
6144.0,-3.075486165471375e-05
6656.0,-9.552791016176343e-05
7168.0,0.0001518221542937681
7680.0,0.00021816717344336212
8192.0,-0.0001582075492478907
end
