version,3.0
numOfCh,1
type,point
parent_name,34766_3dot0-1dot0
ch_type,1_1
kcount,1
numberNandB,1
brightnessNandB,1
carpet pos,0
pc,0
Time (ms),CH1 Auto-Correlation
1.0,0.016838153824210167
2.0,0.013889654539525509
3.0,0.011747932992875576
4.0,0.010162187740206718
5.0,0.00907028466463089
6.0,0.008290168829262257
7.0,0.007550301495939493
8.0,0.006825433112680912
9.0,0.0062062968499958515
10.0,0.005707170814275742
11.0,0.0052770283073186874
12.0,0.004953679628670216
13.0,0.004646421410143375
14.0,0.004255206789821386
15.0,0.004065195098519325
16.0,0.003824783256277442
18.0,0.003554202616214752
20.0,0.0033403898123651743
22.0,0.0031553886365145445
24.0,0.0030613215640187263
26.0,0.0031229592859745026
28.0,0.002934022108092904
30.0,0.0025267836172133684
32.0,0.002239880384877324
36.0,0.0019002475310117006
40.0,0.0013634426286444068
44.0,0.0009319349192082882
48.0,0.0007176865474320948
52.0,0.00041475892066955566
56.0,9.46694053709507e-05
60.0,0.00019158523355145007
64.0,0.0005042730481363833
72.0,0.00047341707977466285
80.0,0.0002850335440598428
88.0,-8.303086360683665e-05
96.0,-0.00020818972552660853
104.0,-0.0001161586114903912
112.0,0.0002129142958438024
120.0,0.0001547374267829582
128.0,0.00011759145127143711
144.0,0.00042081312858499587
160.0,0.0004940632497891784
176.0,0.0006299870437942445
192.0,0.0005107193137519062
208.0,0.0003883252793457359
224.0,0.0007477628532797098
240.0,0.0003183695371262729
256.0,9.97413371806033e-05
288.0,-0.00020743343338835984
320.0,-5.718130341847427e-05
352.0,-0.00019830279052257538
384.0,0.00012363420682959259
416.0,-0.0002250389807159081
448.0,-0.00025592808378860354
480.0,-0.000734795059543103
512.0,-0.00036611035466194153
576.0,0.00018330539751332253
640.0,-0.00018169429677072912
704.0,0.000350572750903666
768.0,0.00022451634868048131
832.0,0.00011978219845332205
896.0,-0.00023012977908365428
960.0,5.003353362553753e-05
1024.0,0.0006201202049851418
1152.0,-0.00017072411719709635
1280.0,4.8702782805776224e-05
1408.0,9.480894368607551e-05
1536.0,0.00015383324353024364
1664.0,1.8883938537328504e-05
1792.0,-7.347240898525342e-05
1920.0,-0.0005364875541999936
2048.0,-0.0005009761662222445
2304.0,-0.0001599016395630315
2560.0,0.0001660180278122425
2816.0,0.00013824553752783686
3072.0,-2.2484571672976017e-05
3328.0,-0.00038701825542375445
3584.0,-0.00022943774820305407
3840.0,5.909465471631847e-05
4096.0,0.00012651324504986405
4608.0,6.166036473587155e-05
5120.0,4.4394728320185095e-05
5632.0,9.482957830186933e-05
6144.0,-0.00019803711620625108
6656.0,-0.00028882449259981513
7168.0,-0.00011133831139886752
7680.0,-0.0002789154532365501
8192.0,-3.228538844268769e-05
end
