version,3.0
numOfCh,1
type,point
parent_name,34766_3dot0-1dot0
ch_type,1_1
kcount,1
numberNandB,1
brightnessNandB,1
carpet pos,0
pc,0
Time (ms),CH1 Auto-Correlation
1.0,0.016786884516477585
2.0,0.013758954592049122
3.0,0.011515320278704166
4.0,0.010005590505897999
5.0,0.008834118954837322
6.0,0.007888217456638813
7.0,0.007082697004079819
8.0,0.00635011401027441
9.0,0.005936746951192617
10.0,0.005542701575905085
11.0,0.005220026709139347
12.0,0.00496349623426795
13.0,0.004695527721196413
14.0,0.004446904640644789
15.0,0.00415311474353075
16.0,0.003961305599659681
18.0,0.0037326940800994635
20.0,0.003543573198840022
22.0,0.0033490487840026617
24.0,0.003153986530378461
26.0,0.002756129950284958
28.0,0.0025726391468197107
30.0,0.002573073608800769
32.0,0.0024972616229206324
36.0,0.001983057940378785
40.0,0.0019224745919927955
44.0,0.00183618173468858
48.0,0.0017447593854740262
52.0,0.0015927355270832777
56.0,0.0013390822568908334
60.0,0.0009979847818613052
64.0,0.0010517040500417352
72.0,0.0006896952399984002
80.0,0.0007422144990414381
88.0,0.001316776848398149
96.0,0.0011252510594204068
104.0,0.0007058498449623585
112.0,0.0007813208503648639
120.0,0.0006384435691870749
128.0,0.0006302701076492667
144.0,0.00036946122418157756
160.0,0.0002572903467807919
176.0,2.38961074501276e-05
192.0,-0.0002457941591273993
208.0,-0.0004469093692023307
224.0,0.00014407506387215108
240.0,0.00026221206644549966
256.0,0.0004173194174654782
288.0,3.700860179378651e-05
320.0,-0.00017087796004489064
352.0,0.00018062668095808476
384.0,5.672900806530379e-05
416.0,0.000141432203236036
448.0,-8.770667045610026e-05
480.0,-0.0002778538619168103
512.0,-0.0005409198347479105
576.0,-0.00038595692603848875
640.0,-0.0002217161381850019
704.0,-0.00031231390312314034
768.0,4.197908128844574e-05
832.0,-0.00032995716901496053
896.0,-0.0005889828316867352
960.0,-0.0007122271344996989
1024.0,-0.0007505446556024253
1152.0,-0.000306345900753513
1280.0,-1.2458848686947022e-05
1408.0,-0.0001491450530011207
1536.0,0.0001321382587775588
1664.0,1.968060496437829e-05
1792.0,3.5479606594890356e-05
1920.0,0.00016392342513427138
2048.0,-0.00017908935842569917
2304.0,0.00024077080888673663
2560.0,-0.0001546833518659696
2816.0,-0.00013054005103185773
3072.0,0.00017729615501593798
3328.0,-0.00043518998427316546
3584.0,0.00041977036744356155
3840.0,0.00030841334955766797
4096.0,-9.179048902296927e-06
4608.0,-0.00022363894095178694
5120.0,-0.00024665394448675215
5632.0,0.0001478623744333163
6144.0,2.8305663363425992e-05
6656.0,8.045625463637407e-07
7168.0,-0.00019157440692652017
7680.0,0.00014788165572099388
8192.0,1.3826754184265155e-05
end
