version,3.0
numOfCh,1
type,point
parent_name,34766_3dot0-1dot0
ch_type,1_1
kcount,1
numberNandB,1
brightnessNandB,1
carpet pos,0
pc,0
Time (ms),CH1 Auto-Correlation
1.0,0.016860518604516983
2.0,0.013804355636239052
3.0,0.011620036326348782
4.0,0.009993910789489746
5.0,0.008661393076181412
6.0,0.007598424796015024
7.0,0.006725316867232323
8.0,0.006068077869713306
9.0,0.0055221510119736195
10.0,0.005092438776046038
11.0,0.004662474151700735
12.0,0.004365132190287113
13.0,0.004154346417635679
14.0,0.0038881669752299786
15.0,0.0036761921364814043
16.0,0.003435684833675623
18.0,0.003143148496747017
20.0,0.0029968852177262306
22.0,0.0029499419033527374
24.0,0.002744193421676755
26.0,0.0026212260127067566
28.0,0.0024144344497472048
30.0,0.0024401419796049595
32.0,0.0023005646653473377
36.0,0.0018568142550066113
40.0,0.00160681689158082
44.0,0.0010662461863830686
48.0,0.0008827492129057646
52.0,0.0007402432966046035
56.0,0.0007352601969614625
60.0,0.0006930377567186952
64.0,0.0007437388994731009
72.0,0.00044428117689676583
80.0,0.00032835151068866253
88.0,0.0004541751404758543
96.0,0.0003108823439106345
104.0,0.0002894824428949505
112.0,0.0005746998940594494
120.0,0.0007032538997009397
128.0,0.000646981003228575
144.0,0.0005392908351495862
160.0,0.0005579641438089311
176.0,-9.414576925337315e-05
192.0,-0.00045235149445943534
208.0,-0.0003069086524192244
224.0,-0.0002683195052668452
240.0,-0.0004190290055703372
256.0,-0.00014510251639876515
288.0,-0.0006390823400579393
320.0,-0.0003962359332945198
352.0,-0.00018091729725711048
384.0,4.106390042579733e-05
416.0,0.0003154576988890767
448.0,-0.0002404932165518403
480.0,-0.00016637504450045526
512.0,-0.00022698365501128137
576.0,-0.00016690685879439116
640.0,-0.0003874640096910298
704.0,0.0003482845495454967
768.0,7.240253762574866e-05
832.0,-0.0003925540077034384
896.0,-7.371890387730673e-05
960.0,-0.00018455609097145498
1024.0,5.712862184736878e-05
1152.0,8.207017344830092e-06
1280.0,3.681728048832156e-05
1408.0,-0.0001501124497735873
1536.0,-0.0002508131437934935
1664.0,-0.00025079172337427735
1792.0,-0.00034068035893142223
1920.0,-0.00012210266140755266
2048.0,0.00016862938355188817
2304.0,-0.00014051141624804586
2560.0,3.086694050580263e-05
2816.0,0.00030465240706689656
3072.0,0.0005375539767555892
3328.0,8.482920384267345e-05
3584.0,-0.00032955387723632157
3840.0,0.00035429789568297565
4096.0,-0.00016991594748105854
4608.0,-0.0002728932595346123
5120.0,8.193265966838226e-05
5632.0,0.00021997773728799075
6144.0,0.0002455624344293028
6656.0,-0.00027532706735655665
7168.0,-0.00012048432836309075
7680.0,-0.00030853383941575885
8192.0,-8.970851922640577e-05
end
