version,3.0
numOfCh,1
type,point
parent_name,34766_3dot0-1dot0
ch_type,1_1
kcount,1
numberNandB,1
brightnessNandB,1
carpet pos,0
pc,0
Time (ms),CH1 Auto-Correlation
1.0,0.017836498096585274
2.0,0.014751077629625797
3.0,0.012678880244493484
4.0,0.010954448953270912
5.0,0.009630418382585049
6.0,0.008573646657168865
7.0,0.007783600129187107
8.0,0.007041554432362318
9.0,0.0065643033012747765
10.0,0.006089889910072088
11.0,0.005766751244664192
12.0,0.005440517328679562
13.0,0.005140837747603655
14.0,0.004818204324692488
15.0,0.004654853139072657
16.0,0.004513772204518318
18.0,0.0041013313457369804
20.0,0.0039185103960335255
22.0,0.0037044724449515343
24.0,0.0034162630327045918
26.0,0.003078028094023466
28.0,0.003107249503955245
30.0,0.0032277677673846483
32.0,0.003054817207157612
36.0,0.002668668981641531
40.0,0.001927778823301196
44.0,0.0015601166523993015
48.0,0.0011844048276543617
52.0,0.0012437927071005106
56.0,0.0012840594863519073
60.0,0.0012302898103371263
64.0,0.001294036046601832
72.0,0.0009927799692377448
80.0,0.0005413257167674601
88.0,0.0004851130361203104
96.0,0.0004813480481971055
104.0,0.0005809680442325771
112.0,0.0007625075522810221
120.0,0.0005158855929039419
128.0,0.00016287800099235028
144.0,-8.929247269406915e-05
160.0,-1.477872228861088e-05
176.0,0.00047994390479288995
192.0,0.000694759248290211
208.0,0.0006333505152724683
224.0,-9.749116725288332e-05
240.0,-0.0003485933120828122
256.0,-0.0003915325505658984
288.0,-0.0001241295103682205
320.0,-4.0291022742167115e-05
352.0,-0.00034223467810079455
384.0,7.931454092613421e-06
416.0,-0.0002059321996057406
448.0,0.00030774864717386663
480.0,0.0001802279002731666
512.0,-5.8071927924174815e-05
576.0,-0.00025362943415530026
640.0,0.00013109213614370674
704.0,0.0003218965430278331
768.0,0.000442699616542086
832.0,0.00024457089602947235
896.0,-0.0003228841524105519
960.0,-0.00048474984942004085
1024.0,0.00013031392882112414
1152.0,7.728229684289545e-05
1280.0,0.0002886746369767934
1408.0,-3.78771401301492e-05
1536.0,0.0006015024846419692
1664.0,0.00013593985931947827
1792.0,-5.513389623956755e-05
1920.0,0.0001594575442140922
2048.0,-6.867924821563065e-05
2304.0,0.00018456194084137678
2560.0,-0.00013658941315952688
2816.0,-0.0003128300595562905
3072.0,-0.0003253443574067205
3328.0,-0.0005458281375467777
3584.0,-0.00021607053349725902
3840.0,-0.00015770825848449022
4096.0,-0.00014506086881738156
4608.0,0.00015864708984736353
5120.0,-0.000505866832099855
5632.0,-0.0004439737240318209
6144.0,0.00013729947386309505
6656.0,-9.353485438623466e-06
7168.0,-5.899367170059122e-05
7680.0,1.3114589819451794e-05
8192.0,0.00020928822050336748
end
