version,3.0
numOfCh,1
type,point
parent_name,34766_3dot0-1dot0
ch_type,1_1
kcount,1
numberNandB,1
brightnessNandB,1
carpet pos,0
pc,0
Time (ms),CH1 Auto-Correlation
1.0,0.01695087179541588
2.0,0.013933887705206871
3.0,0.011888458393514156
4.0,0.010351980105042458
5.0,0.009279420599341393
6.0,0.008405144326388836
7.0,0.007680676877498627
8.0,0.006982081104069948
9.0,0.0062735192477703094
10.0,0.005764346104115248
11.0,0.005476110614836216
12.0,0.005233013071119785
13.0,0.005071061663329601
14.0,0.004784249234944582
15.0,0.004486412741243839
16.0,0.004343912936747074
18.0,0.003874398535117507
20.0,0.003546325024217367
22.0,0.003379435045644641
24.0,0.003167762653902173
26.0,0.00288515561260283
28.0,0.0024922180455178022
30.0,0.00203310395590961
32.0,0.0018216547323390841
36.0,0.0017879431834444404
40.0,0.0017916569486260414
44.0,0.0018271661829203367
48.0,0.0013733120867982507
52.0,0.0010405677603557706
56.0,0.001001872937195003
60.0,0.0009719087393023074
64.0,0.0007297453703358769
72.0,0.0007470012060366571
80.0,0.0004947418347001076
88.0,0.0006084069609642029
96.0,0.0005364258540794253
104.0,0.0004231642815284431
112.0,0.0009705285192467272
120.0,0.0007607365259900689
128.0,0.0005688908859156072
144.0,0.00041723845060914755
160.0,-4.636422454495914e-05
176.0,8.08694603620097e-05
192.0,0.0004142202960792929
208.0,-0.00046220130752772093
224.0,-0.0006933605181984603
240.0,-0.0004398970340844244
256.0,-0.00036862242268398404
288.0,-0.0005802140804007649
320.0,-0.0006707305437885225
352.0,-0.0009658572962507606
384.0,-0.0001439645275240764
416.0,-0.00015326804714277387
448.0,0.00021387895685620606
480.0,0.0003011990920640528
512.0,0.0002559134445618838
576.0,-0.00035435170866549015
640.0,-0.000432436412665993
704.0,0.000303239154163748
768.0,0.00030039536068215966
832.0,-0.00010165778076043352
896.0,-2.9107857699273154e-05
960.0,0.00031432812102138996
1024.0,-0.00014469787129200995
1152.0,0.00017705163918435574
1280.0,0.00017806034884415567
1408.0,-0.00010139709047507495
1536.0,8.59624269651249e-05
1664.0,0.00048227666411548853
1792.0,-0.0002443480188958347
1920.0,3.3659071050351486e-05
2048.0,0.000506994838360697
2304.0,7.209246541606262e-05
2560.0,-7.242785795824602e-05
2816.0,-0.00010548264981480315
3072.0,-1.071015140041709e-05
3328.0,0.0006914721452631056
3584.0,-0.0003579013282433152
3840.0,-0.0005477086524479091
4096.0,0.00010095526522491127
4608.0,-0.00011081544653279707
5120.0,2.1700523120671278e-06
5632.0,-0.00017790286801755428
6144.0,4.4963362597627565e-05
6656.0,-7.767357601551339e-05
7168.0,-0.00023242623137775809
7680.0,-0.0001659211702644825
8192.0,0.00013373787805903703
end
