version,3.0
numOfCh,1
type,point
parent_name,34766_3dot0-1dot0
ch_type,1_1
kcount,1
numberNandB,1
brightnessNandB,1
carpet pos,0
pc,0
Time (ms),CH1 Auto-Correlation
1.0,0.017014607787132263
2.0,0.014053331688046455
3.0,0.011958716437220573
4.0,0.010371789336204529
5.0,0.009150278754532337
6.0,0.008097301237285137
7.0,0.007297323551028967
8.0,0.006734976079314947
9.0,0.006170396227389574
10.0,0.005705293267965317
11.0,0.005262485705316067
12.0,0.004925717134028673
13.0,0.004729790147393942
14.0,0.004432221874594688
15.0,0.004312699194997549
16.0,0.004103967919945717
18.0,0.0037507854867726564
20.0,0.0034319269470870495
22.0,0.0032107725273817778
24.0,0.0030254751909524202
26.0,0.0029040067456662655
28.0,0.0027659276966005564
30.0,0.0024025714956223965
32.0,0.002140990924090147
36.0,0.0015359548851847649
40.0,0.0012778250966221094
44.0,0.00124366523232311
48.0,0.0010321970330551267
52.0,0.0009799131657928228
56.0,0.0011912566842511296
60.0,0.0013579123187810183
64.0,0.0014204221079126
72.0,0.0011283977655693889
80.0,0.0007400786853395402
88.0,0.0007300805882550776
96.0,0.0004413755959831178
104.0,0.00012039616558467969
112.0,0.00030754198087379336
120.0,0.00040505995275452733
128.0,0.0007073048618622124
144.0,0.0005153475794941187
160.0,0.0003551471745595336
176.0,-0.0003300391836091876
192.0,-0.0005910474574193358
208.0,-0.0001658009277889505
224.0,7.380925671895966e-05
240.0,0.0005999872810207307
256.0,5.12290425831452e-05
288.0,-0.0003001414006575942
320.0,-0.0006068969378247857
352.0,-0.00041510153096169233
384.0,-0.0005202182219363749
416.0,-0.000693422625772655
448.0,-0.0005057481466792524
480.0,-0.00014791954890824854
512.0,-0.0003595823363866657
576.0,-0.00015156604058574885
640.0,0.00014984649897087365
704.0,0.00012416134995874017
768.0,2.2531299691763707e-05
832.0,-0.00031694420613348484
896.0,-0.00033004622673615813
960.0,-0.0001712543162284419
1024.0,-7.7654498454649e-05
1152.0,0.0004518942441791296
1280.0,0.00014742875646334141
1408.0,0.00030101064476184547
1536.0,-0.0002628925140015781
1664.0,-0.00028469625976867974
1792.0,4.068021371494979e-05
1920.0,6.083453627070412e-05
2048.0,0.0002003570698434487
2304.0,0.0002464930003043264
2560.0,-0.00014194393588695675
2816.0,-0.0003388921031728387
3072.0,8.458147203782573e-05
3328.0,1.5213611732178833e-05
3584.0,0.00015756013453938067
3840.0,-0.0004656457167584449
4096.0,-0.00020988957840017974
4608.0,0.00016517745098099113
5120.0,1.8416760212858208e-05
5632.0,-3.2390809792559594e-05
6144.0,-0.00017944433784577996
6656.0,4.779629671247676e-05
7168.0,0.00021255051251500845
7680.0,-0.00024938068236224353
8192.0,9.725238669489045e-06
end
