version,3.0
numOfCh,1
type,point
parent_name,clean
ch_type,1_1
kcount,1
numberNandB,1
brightnessNandB,1
carpet pos,0
pc,0
Time (ms),CH1 Auto-Correlation
1.0,0.03095906414091587
2.0,0.028869889676570892
3.0,0.026989636942744255
4.0,0.025448843836784363
5.0,0.024098826572299004
6.0,0.022891979664564133
7.0,0.02180168218910694
8.0,0.020826878026127815
9.0,0.01994936354458332
10.0,0.0191203486174345
11.0,0.018366137519478798
12.0,0.017689356580376625
13.0,0.01707492582499981
14.0,0.01649334840476513
15.0,0.015999654307961464
16.0,0.015489057637751102
18.0,0.014604293741285801
20.0,0.013896847143769264
22.0,0.013333650305867195
24.0,0.012931635603308678
26.0,0.012495648115873337
28.0,0.011991908773779869
30.0,0.01142866536974907
32.0,0.01081826165318489
36.0,0.009637086652219296
40.0,0.008758950047194958
44.0,0.007920480333268642
48.0,0.007181048858910799
52.0,0.0064353193156421185
56.0,0.005433054640889168
60.0,0.00453527644276619
64.0,0.003974285442382097
72.0,0.0037825885228812695
80.0,0.003551357425749302
88.0,0.0034371193032711744
96.0,0.003198635298758745
104.0,0.00284341792576015
112.0,0.00248402520082891
120.0,0.002487319754436612
128.0,0.002301120664924383
144.0,0.0020276419818401337
160.0,0.0021923393942415714
176.0,0.002300018910318613
192.0,0.002330323914065957
208.0,0.0026993779465556145
224.0,0.0023735242430120707
240.0,0.0020471839234232903
256.0,0.002054924378171563
288.0,0.002452563028782606
320.0,0.0024103426840156317
352.0,0.0021333079785108566
384.0,0.0015144236385822296
416.0,-8.516429079463705e-05
448.0,-0.000718884461093694
480.0,-0.00034578805207274854
512.0,-0.0002558556734584272
576.0,0.0006885582115501165
640.0,0.0016892260173335671
704.0,-8.529691695002839e-05
768.0,0.00018859458214137703
832.0,-0.000480190064990893
896.0,6.0052279877709225e-05
960.0,0.0007740770815871656
1024.0,0.0004312633827794343
1152.0,5.998811684548855e-05
1280.0,-0.0001515956682851538
1408.0,-0.00032896880293264985
1536.0,0.00022207575966604054
1664.0,0.00031912344275042415
1792.0,-0.000134783229441382
1920.0,-0.0010930525604635477
2048.0,-0.0006980015314184129
2304.0,0.0008769193082116544
2560.0,0.00020451708405744284
2816.0,0.0012515515554696321
3072.0,0.0009115205612033606
3328.0,0.0002045931323664263
3584.0,-0.00010815890709636733
3840.0,-0.00011817122140200809
4096.0,-0.0014402174856513739
4608.0,-0.0007257500546984375
5120.0,-0.00023039878578856587
5632.0,-0.0018030821811407804
6144.0,-0.001394651597365737
6656.0,-0.0005788434646092355
7168.0,-0.0010044692317023873
7680.0,-0.0008372089941985905
8192.0,-0.0009215158643200994
9216.0,0.0005941145936958492
10240.0,-6.793136708438396e-05
11264.0,-0.00011082880519097671
12288.0,0.0011070274049416184
13312.0,0.0003115732397418469
14336.0,-0.0003631897270679474
end
