version,3.0
numOfCh,1
type,point
parent_name,clean
ch_type,1_1
kcount,1
numberNandB,1
brightnessNandB,1
carpet pos,0
pc,0
Time (ms),CH1 Auto-Correlation
1.0,0.04253838211297989
2.0,0.03939535468816757
3.0,0.036663465201854706
4.0,0.03430540859699249
5.0,0.03219803050160408
6.0,0.030346808955073357
7.0,0.028679750859737396
8.0,0.027191998437047005
9.0,0.025811506435275078
10.0,0.024554075673222542
11.0,0.02339302748441696
12.0,0.022327708080410957
13.0,0.021365148946642876
14.0,0.020535338670015335
15.0,0.01980031654238701
16.0,0.01919654570519924
18.0,0.018057433888316154
20.0,0.01713036745786667
22.0,0.01628916710615158
24.0,0.015273812226951122
26.0,0.014247750863432884
28.0,0.0134016377851367
30.0,0.012678287923336029
32.0,0.011984862387180328
36.0,0.01100161112844944
40.0,0.010350460186600685
44.0,0.009546666406095028
48.0,0.008708993904292583
52.0,0.007845197804272175
56.0,0.007463767658919096
60.0,0.007192374672740698
64.0,0.006959626451134682
72.0,0.005811996292322874
80.0,0.005087288562208414
88.0,0.004677498247474432
96.0,0.0034694387577474117
104.0,0.0026769263204187155
112.0,0.002468537073582411
120.0,0.002429109765216708
128.0,0.0027345221024006605
144.0,0.0032072451431304216
160.0,0.003321536350995302
176.0,0.0032035920303314924
192.0,0.002231282414868474
208.0,0.0009969247039407492
224.0,0.0003044769400730729
240.0,-0.00031504069920629263
256.0,-0.0006270473240874708
288.0,-0.0008605299517512321
320.0,-0.0009794819634407759
352.0,-0.0012179443147033453
384.0,0.000774777727201581
416.0,0.0012518984731286764
448.0,0.0017869306029751897
480.0,0.0009093640837818384
512.0,-8.37281986605376e-05
576.0,-0.0018643250223249197
640.0,-0.001247451058588922
704.0,-0.002038721228018403
768.0,-0.0017175792017951608
832.0,-0.002740568947046995
896.0,-0.0017749759135767817
960.0,-0.0019519997294992208
1024.0,-0.0011219966690987349
1152.0,0.0011184485629200935
1280.0,0.0008780151838436723
1408.0,4.579132564686006e-06
1536.0,-0.0004363697371445596
1664.0,-0.0006396335083991289
1792.0,-0.001356546999886632
1920.0,-0.0010562831303104758
2048.0,-0.0014932710910215974
2304.0,-0.00040407676715403795
2560.0,0.0024403645657002926
2816.0,-0.0010059135966002941
3072.0,-0.0020778262987732887
3328.0,-0.0022317692637443542
3584.0,0.0004108081921003759
3840.0,0.002681033220142126
4096.0,-0.0005799890495836735
4608.0,-0.0006112238042987883
5120.0,0.0017542624846100807
5632.0,-0.0013755949912592769
6144.0,-0.00036441005067899823
6656.0,0.00029404833912849426
7168.0,-0.0007233733776956797
7680.0,-8.180516488209832e-06
8192.0,0.001676187152042985
9216.0,-0.0015508746728301048
10240.0,-0.00033503377926535904
11264.0,-0.0005759608466178179
12288.0,-0.0005196717684157193
13312.0,0.0009364372817799449
14336.0,-0.0007356152054853737
end
