version,3.0
numOfCh,1
type,point
parent_name,clean
ch_type,1_1
kcount,1
numberNandB,1
brightnessNandB,1
carpet pos,0
pc,0
Time (ms),CH1 Auto-Correlation
1.0,0.0943976491689682
2.0,0.08738408982753754
3.0,0.08146482706069946
4.0,0.07661538571119308
5.0,0.07208885252475739
6.0,0.0682169646024704
7.0,0.0644855797290802
8.0,0.0613124780356884
9.0,0.058396726846694946
10.0,0.05595555901527405
11.0,0.053734827786684036
12.0,0.05169586092233658
13.0,0.04981980845332146
14.0,0.047948531806468964
15.0,0.04619303345680237
16.0,0.044498223811388016
18.0,0.041800837963819504
20.0,0.039565615355968475
22.0,0.03749861568212509
24.0,0.035558734089136124
26.0,0.0338715985417366
28.0,0.03182773292064667
30.0,0.029582303017377853
32.0,0.027753444388508797
36.0,0.025082888081669807
40.0,0.02374608814716339
44.0,0.022504102438688278
48.0,0.02157609537243843
52.0,0.020698241889476776
56.0,0.020129788666963577
60.0,0.019054315984249115
64.0,0.017908962443470955
72.0,0.016199210658669472
80.0,0.013290931470692158
88.0,0.010489982552826405
96.0,0.008016145788133144
104.0,0.006645729765295982
112.0,0.005346208345144987
120.0,0.003873988753184676
128.0,0.005013310816138983
144.0,0.00562245724722743
160.0,0.004816411528736353
176.0,0.002696504583582282
192.0,0.0020173280499875546
208.0,0.0054640574380755424
224.0,0.006258126348257065
240.0,0.004499540198594332
256.0,0.001979643013328314
288.0,0.003911678679287434
320.0,0.0013387893559411168
352.0,0.00012008429621346295
384.0,-0.00021481496514752507
416.0,-0.002068266738206148
448.0,-0.0018866583704948425
480.0,0.0009790090844035149
512.0,0.0036915880627930164
576.0,0.0056586237624287605
640.0,0.0014556453097611666
704.0,0.00040346424793824553
768.0,0.0013646570732817054
832.0,-0.00396730238571763
896.0,-0.0026309373788535595
960.0,-0.0026953851338475943
1024.0,-0.000297973194392398
1152.0,0.0008260704344138503
1280.0,0.002524280222132802
1408.0,-8.908547897590324e-05
1536.0,-0.001043124939315021
1664.0,-0.001359804766252637
1792.0,-0.0009698676294647157
1920.0,-0.002177710644900799
2048.0,-0.0020000373478978872
2304.0,0.0011439641239121556
2560.0,-0.001348950550891459
2816.0,-0.002001308836042881
3072.0,0.0027285537216812372
3328.0,-0.006489192601293325
3584.0,-0.0011711388360708952
3840.0,-0.003486964851617813
4096.0,-0.002631399082019925
4608.0,0.00022043116041459143
5120.0,-0.002582428278401494
5632.0,-0.0012868186458945274
6144.0,-0.0006463826866820455
6656.0,-0.001592575223185122
7168.0,-0.0038669356144964695
7680.0,-0.0005180796142667532
8192.0,0.0005898306262679398
9216.0,3.893150278599933e-05
10240.0,0.005288826301693916
11264.0,0.0022478715982288122
12288.0,-0.00022347709455061704
13312.0,-0.002451512264087796
14336.0,-0.001721136854030192
end
