version,3.0
numOfCh,1
type,point
parent_name,clean
ch_type,1_1
kcount,1
numberNandB,1
brightnessNandB,1
carpet pos,0
pc,0
Time (ms),CH1 Auto-Correlation
1.0,0.08817178010940552
2.0,0.0814230814576149
3.0,0.07537911832332611
4.0,0.07032761722803116
5.0,0.06616048514842987
6.0,0.06247324496507645
7.0,0.059176281094551086
8.0,0.05623875558376312
9.0,0.05364714935421944
10.0,0.05128486081957817
11.0,0.049177199602127075
12.0,0.047154705971479416
13.0,0.04513537138700485
14.0,0.04318976402282715
15.0,0.041473932564258575
16.0,0.03984256088733673
18.0,0.037061817944049835
20.0,0.03471352905035019
22.0,0.03285158798098564
24.0,0.03114006109535694
26.0,0.029712172225117683
28.0,0.028389694169163704
30.0,0.027281969785690308
32.0,0.02649376541376114
36.0,0.025433726608753204
40.0,0.024258926510810852
44.0,0.022888964042067528
48.0,0.021556833758950233
52.0,0.019823867827653885
56.0,0.018523603677749634
60.0,0.01746945269405842
64.0,0.01656455174088478
72.0,0.015621299855411053
80.0,0.014930113218724728
88.0,0.01268602441996336
96.0,0.009293840266764164
104.0,0.007238882593810558
112.0,0.007014199625700712
120.0,0.006748167797923088
128.0,0.006391200702637434
144.0,0.005343130324035883
160.0,0.005470471456646919
176.0,0.005233654286712408
192.0,0.004919418133795261
208.0,0.0023861152585595846
224.0,0.0023667761124670506
240.0,0.000903415959328413
256.0,-0.0012637160252779722
288.0,0.0015282545937225223
320.0,0.0010114599717780948
352.0,-0.00048424716806039214
384.0,-0.0007868771208450198
416.0,-0.0010318569839000702
448.0,-0.000754157081246376
480.0,0.0009831545175984502
512.0,-0.0005483197164721787
576.0,0.002526652766391635
640.0,0.001035345601849258
704.0,-0.002225046046078205
768.0,-0.004438389092683792
832.0,-0.004570691380649805
896.0,-0.005973650608211756
960.0,-0.00035927846329286695
1024.0,-0.002536082174628973
1152.0,-0.003041875781491399
1280.0,0.00319472374394536
1408.0,0.0070066023617982864
1536.0,0.005563740152865648
1664.0,0.000292661803541705
1792.0,0.0026970799081027508
1920.0,0.0018406726885586977
2048.0,-0.004149745684117079
2304.0,-0.007288690190762281
2560.0,-0.004126765765249729
2816.0,0.0017035212367773056
3072.0,0.0014145883033052087
3328.0,0.007067691534757614
3584.0,-0.0007137649226933718
3840.0,-0.0005988741177134216
4096.0,-0.007830276153981686
4608.0,0.001656056148931384
5120.0,0.00018112063116859645
5632.0,-0.005413812585175037
6144.0,0.0011588390916585922
6656.0,0.001301183714531362
7168.0,-0.0024233402218669653
7680.0,0.0052029844373464584
8192.0,0.0025446543004363775
9216.0,-0.0016817559953778982
10240.0,-0.0029368314426392317
11264.0,-0.0005161018343642354
12288.0,-0.0025886958464980125
13312.0,-0.00019658471865113825
14336.0,0.0025369320064783096
end
