version,3.0
numOfCh,1
type,point
parent_name,clean
ch_type,1_1
kcount,1
numberNandB,1
brightnessNandB,1
carpet pos,0
pc,0
Time (ms),CH1 Auto-Correlation
1.0,0.037161365151405334
2.0,0.03390132635831833
3.0,0.031119145452976227
4.0,0.02873343974351883
5.0,0.026636851951479912
6.0,0.024802198633551598
7.0,0.023225141689181328
8.0,0.02189789153635502
9.0,0.020622963085770607
10.0,0.019527042284607887
11.0,0.018450692296028137
12.0,0.017496081069111824
13.0,0.01670469343662262
14.0,0.0158272385597229
15.0,0.015058621764183044
16.0,0.014270287938416004
18.0,0.013033734634518623
20.0,0.012086386792361736
22.0,0.01143687218427658
24.0,0.010931389406323433
26.0,0.010371102951467037
28.0,0.009643696248531342
30.0,0.009025988169014454
32.0,0.008514491841197014
36.0,0.007508873473852873
40.0,0.006582741625607014
44.0,0.005738456267863512
48.0,0.005411940161138773
52.0,0.005116191692650318
56.0,0.004989009816199541
60.0,0.004960346035659313
64.0,0.00439756503328681
72.0,0.0035971084143966436
80.0,0.0032809895928949118
88.0,0.002806907519698143
96.0,0.0021338651422411203
104.0,0.0021063683088868856
112.0,0.00218252744525671
120.0,0.0021643980871886015
128.0,0.0020744502544403076
144.0,0.0027376541402190924
160.0,0.0024457729887217283
176.0,0.0021312464959919453
192.0,0.0009783533168956637
208.0,0.001045935321599245
224.0,-0.00027310827863402665
240.0,-0.0005038292147219181
256.0,0.000593158882111311
288.0,-0.00031271090847440064
320.0,-7.818716403562576e-05
352.0,0.0002717171737458557
384.0,0.0005997397238388658
416.0,0.00016497235628776252
448.0,0.0009763154084794223
480.0,0.0017173083033412695
512.0,0.0009867192711681128
576.0,0.0007584784762002528
640.0,-0.0001267794577870518
704.0,0.0006974214338697493
768.0,0.0015454143285751343
832.0,0.0004408484965097159
896.0,0.0031027754303067923
960.0,0.002852741163223982
1024.0,0.0008016580832190812
1152.0,0.00042356690391898155
1280.0,0.0004333899705670774
1408.0,-0.0010196368675678968
1536.0,-0.00185812555719167
1664.0,0.0006294823833741248
1792.0,0.0006714783376082778
1920.0,0.0002077119133900851
2048.0,-0.0009777048835530877
2304.0,-0.00024535940610803664
2560.0,0.0014735840959474444
2816.0,0.00044092978350818157
3072.0,-0.0008392828167416155
3328.0,-0.002491052495315671
3584.0,0.0019568002317100763
3840.0,-0.0007057338953018188
4096.0,-0.0018611649284139276
4608.0,-0.00020753171702381223
5120.0,0.0002889766765292734
5632.0,-0.0004801273753400892
6144.0,-5.819018042529933e-05
6656.0,-0.0004813506384380162
7168.0,0.00024508716887794435
7680.0,0.00024283087986987084
8192.0,-0.0003389779303688556
9216.0,-0.00023420479556079954
10240.0,-0.0004655500524677336
11264.0,-0.0008635296253487468
12288.0,-0.0015342055121436715
13312.0,-0.0014966643648222089
14336.0,0.0014383939560502768
end
