version,3.0
numOfCh,1
type,point
parent_name,clean
ch_type,1_1
kcount,1
numberNandB,1
brightnessNandB,1
carpet pos,0
pc,0
Time (ms),CH1 Auto-Correlation
1.0,0.030952824279665947
2.0,0.028830373659729958
3.0,0.026987146586179733
4.0,0.02535741589963436
5.0,0.02391212433576584
6.0,0.022574041038751602
7.0,0.021349124610424042
8.0,0.02026103436946869
9.0,0.019253913313150406
10.0,0.0183321014046669
11.0,0.01746681146323681
12.0,0.016705619171261787
13.0,0.016054866835474968
14.0,0.01551559753715992
15.0,0.015019573271274567
16.0,0.014484019950032234
18.0,0.013686916790902615
20.0,0.013008113019168377
22.0,0.012322192080318928
24.0,0.011636797338724136
26.0,0.010962611995637417
28.0,0.010383261367678642
30.0,0.009872833266854286
32.0,0.009447730146348476
36.0,0.008851035498082638
40.0,0.008294922299683094
44.0,0.007758497726172209
48.0,0.007262170314788818
52.0,0.00670650927349925
56.0,0.006201166659593582
60.0,0.005588015541434288
64.0,0.004893361125141382
72.0,0.003968395292758942
80.0,0.0025955589953809977
88.0,0.0017628995701670647
96.0,0.0015422989381477237
104.0,0.0017289608949795365
112.0,0.0017864782130345702
120.0,0.002084207721054554
128.0,0.002429958200082183
144.0,0.0019277138635516167
160.0,0.0018526813946664333
176.0,0.002280249260365963
192.0,0.0023279108572751284
208.0,0.0025298099499195814
224.0,0.001724987872876227
240.0,0.0012625133385881782
256.0,0.00019777618581429124
288.0,0.00044327782234176993
320.0,-0.0002699546457733959
352.0,-0.0013508887495845556
384.0,-0.0019288724288344383
416.0,-0.001581902732141316
448.0,-0.0018275643233209848
480.0,-0.0024643538054078817
512.0,-0.002375104697421193
576.0,-0.0018642437644302845
640.0,-0.0028602362144738436
704.0,-0.0008032543119043112
768.0,0.0011755654122680426
832.0,0.0006008947384543717
896.0,0.0021814918145537376
960.0,0.0022529042325913906
1024.0,0.0015030467184260488
1152.0,-0.00024207266687881202
1280.0,0.0005844859406352043
1408.0,-0.001118202693760395
1536.0,5.854355094925268e-06
1664.0,0.0012632627040147781
1792.0,0.0010988661088049412
1920.0,0.0005468980525620282
2048.0,0.0009312375914305449
2304.0,-0.0006903272587805986
2560.0,-4.0009981603361666e-05
2816.0,0.0010785378981381655
3072.0,0.00020429813594091684
3328.0,-0.0022267161402851343
3584.0,-0.0005452129407785833
3840.0,0.0010327678173780441
4096.0,-0.0006795178051106632
4608.0,0.00017426935664843768
5120.0,-0.0014393904712051153
5632.0,7.336962153203785e-05
6144.0,-0.0006796106463298202
6656.0,-9.601024794392288e-05
7168.0,-0.0006371210911311209
7680.0,-0.0011228150688111782
8192.0,-5.0341011956334114e-05
9216.0,-0.0006958045996725559
10240.0,0.000904628133866936
11264.0,0.00030897415126673877
12288.0,0.0014449533773586154
13312.0,-0.00042967236367985606
14336.0,-0.0006348061724565923
end
