version,3.0
numOfCh,1
type,point
parent_name,clean
ch_type,1_1
kcount,1
numberNandB,1
brightnessNandB,1
carpet pos,0
pc,0
Time (ms),CH1 Auto-Correlation
1.0,0.08772677183151245
2.0,0.08072616159915924
3.0,0.07465432584285736
4.0,0.0694611519575119
5.0,0.06498853862285614
6.0,0.061017077416181564
7.0,0.05765548720955849
8.0,0.054591745138168335
9.0,0.05187205597758293
10.0,0.04931928589940071
11.0,0.04705420881509781
12.0,0.044917114078998566
13.0,0.042855437844991684
14.0,0.04096205160021782
15.0,0.039325207471847534
16.0,0.037710580974817276
18.0,0.03457036241889
20.0,0.03203336521983147
22.0,0.02997887134552002
24.0,0.028182413429021835
26.0,0.026664046570658684
28.0,0.025381335988640785
30.0,0.024356774985790253
32.0,0.02312515117228031
36.0,0.02059737592935562
40.0,0.017864152789115906
44.0,0.016541749238967896
48.0,0.016178254038095474
52.0,0.015899648889899254
56.0,0.015370465815067291
60.0,0.014199448749423027
64.0,0.01279579196125269
72.0,0.011340566910803318
80.0,0.010028809309005737
88.0,0.009428571909666061
96.0,0.008686141110956669
104.0,0.0078562768176198
112.0,0.0071052503772079945
120.0,0.007899805903434753
128.0,0.007151416037231684
144.0,0.004324696026742458
160.0,0.003074469044804573
176.0,0.0034224921837449074
192.0,0.0014383919769898057
208.0,0.000514151353854686
224.0,0.0005978506524115801
240.0,-0.002027725102379918
256.0,-0.0013666254235431552
288.0,0.00221618521027267
320.0,0.00016537599731236696
352.0,-0.0009322126279585063
384.0,-0.0006651817238889635
416.0,0.0014810854336246848
448.0,0.000798681634478271
480.0,0.0015781696420162916
512.0,0.00406317412853241
576.0,0.004274068865925074
640.0,0.0024584925267845392
704.0,-0.002064413856714964
768.0,-0.0025544369127601385
832.0,-0.0021697974298149347
896.0,-0.0019131811568513513
960.0,-0.00111109740100801
1024.0,-0.0013349647633731365
1152.0,0.0009649881394580007
1280.0,-0.00044709438225254416
1408.0,-0.0016765011241659522
1536.0,-0.0003828114131465554
1664.0,0.002444146666675806
1792.0,0.003107166150584817
1920.0,0.0006824652082286775
2048.0,-0.0009507408831268549
2304.0,0.0017402113880962133
2560.0,-0.001274112961255014
2816.0,-0.002619724255055189
3072.0,-0.0011714533902704716
3328.0,0.0006231935112737119
3584.0,0.0033983795437961817
3840.0,-0.0010663263965398073
4096.0,-0.0005280379555188119
4608.0,-0.0012122162152081728
5120.0,-0.0007656100206077099
5632.0,0.0008105355082079768
6144.0,-0.0007674006628803909
6656.0,-0.0014322904171422124
7168.0,-0.0024179210886359215
7680.0,0.001000833697617054
8192.0,0.0021942390594631433
9216.0,0.0015324701089411974
10240.0,0.0008414387120865285
11264.0,-0.0026186001487076283
12288.0,-0.002542226342484355
13312.0,-0.0030114557594060898
14336.0,-0.0020452900789678097
end
