version,3.0
numOfCh,1
type,point
parent_name,clean
ch_type,1_1
kcount,1
numberNandB,1
brightnessNandB,1
carpet pos,0
pc,0
Time (ms),CH1 Auto-Correlation
1.0,0.02638958767056465
2.0,0.02435551956295967
3.0,0.02260834537446499
4.0,0.021045368164777756
5.0,0.01961730606853962
6.0,0.018353955820202827
7.0,0.017297493293881416
8.0,0.016363631933927536
9.0,0.015541470609605312
10.0,0.01475545670837164
11.0,0.014054794795811176
12.0,0.013379372656345367
13.0,0.012732761912047863
14.0,0.01213111262768507
15.0,0.011576198972761631
16.0,0.010974007658660412
18.0,0.009952537715435028
20.0,0.009144206531345844
22.0,0.008364076726138592
24.0,0.007587065454572439
26.0,0.006889618467539549
28.0,0.006289269775152206
30.0,0.005798503290861845
32.0,0.005330201704055071
36.0,0.0046322643756866455
40.0,0.004039216320961714
44.0,0.0037782820872962475
48.0,0.0036745506804436445
52.0,0.0034342643339186907
56.0,0.0030758180655539036
60.0,0.0029348803218454123
64.0,0.0025828122161328793
72.0,0.002262851456180215
80.0,0.0018622430507093668
88.0,0.0013591026654466987
96.0,0.0010245779994875193
104.0,0.0013029807014390826
112.0,0.0012747975997626781
120.0,0.0012678439961746335
128.0,0.0010084229288622737
144.0,0.0008332127472385764
160.0,0.0006021122680976987
176.0,0.0007878761389292777
192.0,-0.00013429508544504642
208.0,0.00023685207997914404
224.0,0.0008934824145399034
240.0,0.0010300262365490198
256.0,7.993528561200947e-05
288.0,-0.0007980752852745354
320.0,0.0001688896882114932
352.0,0.0010002675699070096
384.0,0.0006503239856101573
416.0,0.0005052192136645317
448.0,0.0003122776106465608
480.0,0.0006292282487265766
512.0,0.0006647803238593042
576.0,-0.0004029965784866363
640.0,-0.0003047441132366657
704.0,0.0014223814941942692
768.0,0.0009809078183025122
832.0,-0.00022498270845972002
896.0,-0.00010075388854602352
960.0,-0.0006302666151896119
1024.0,-0.001170150120742619
1152.0,-0.0009685408440418541
1280.0,-0.0002112320507876575
1408.0,2.150966611225158e-05
1536.0,-0.0002944093430414796
1664.0,-0.0005986719042994082
1792.0,-0.0007710307836532593
1920.0,0.000931881251744926
2048.0,0.0003345831064507365
2304.0,-6.488175131380558e-05
2560.0,-0.0005925459554418921
2816.0,0.0008488053572364151
3072.0,0.0005047466256655753
3328.0,0.0002677252050489187
3584.0,0.0004784785269293934
3840.0,-0.0005394197651185095
4096.0,-7.064249803079292e-05
4608.0,-0.0005267545930109918
5120.0,-0.0006511852261610329
5632.0,-0.000273931713309139
6144.0,-0.0006710453308187425
6656.0,-0.0007727164193056524
7168.0,0.0006177154136821628
7680.0,0.00011262217594776303
8192.0,-0.0006511349929496646
9216.0,-0.0003980672627221793
10240.0,0.0007863416103646159
11264.0,0.0009317676303908229
12288.0,-0.0003830266650766134
13312.0,8.233148400904611e-05
14336.0,0.00033867894671857357
end
