version,3.0
numOfCh,1
type,point
parent_name,clean
ch_type,1_1
kcount,1
numberNandB,1
brightnessNandB,1
carpet pos,0
pc,0
Time (ms),CH1 Auto-Correlation
1.0,0.04322328418493271
2.0,0.04014723375439644
3.0,0.03756190091371536
4.0,0.03531015291810036
5.0,0.033318933099508286
6.0,0.03157799318432808
7.0,0.030055701732635498
8.0,0.028757736086845398
9.0,0.027523567900061607
10.0,0.026431268081068993
11.0,0.025378074496984482
12.0,0.024351133033633232
13.0,0.023456314578652382
14.0,0.022709447890520096
15.0,0.02206270769238472
16.0,0.02138964831829071
18.0,0.020187316462397575
20.0,0.019162539392709732
22.0,0.018112946301698685
24.0,0.017134344205260277
26.0,0.016371870413422585
28.0,0.015703098848462105
30.0,0.015163866803050041
32.0,0.014722965657711029
36.0,0.013984406366944313
40.0,0.01310243271291256
44.0,0.01222995575517416
48.0,0.011306187137961388
52.0,0.010563229210674763
56.0,0.009905599057674408
60.0,0.009521979838609695
64.0,0.009333012625575066
72.0,0.008687521331012249
80.0,0.0084402309730649
88.0,0.00854414701461792
96.0,0.008053209632635117
104.0,0.007837492041289806
112.0,0.0073285335674881935
120.0,0.006698473356664181
128.0,0.005754061974585056
144.0,0.005547103472054005
160.0,0.00602461863309145
176.0,0.005957125220447779
192.0,0.00611454714089632
208.0,0.005585765466094017
224.0,0.0045121232978999615
240.0,0.003857289906591177
256.0,0.004635166376829147
288.0,0.005153917241841555
320.0,0.005072415806353092
352.0,0.0024244175292551517
384.0,0.0008050092146731913
416.0,-0.0002799234935082495
448.0,-0.0006331620970740914
480.0,-0.001024229102768004
512.0,-0.0021272003650665283
576.0,-0.003498653881251812
640.0,-0.0026188718620687723
704.0,-0.003174646757543087
768.0,-0.002791081089526415
832.0,-0.0036525290925055742
896.0,-0.0034198230132460594
960.0,-0.002341917483136058
1024.0,-0.0015306726563721895
1152.0,-0.0002577021368779242
1280.0,-0.00017567073518875986
1408.0,0.00012122197222197428
1536.0,-0.0005087423487566411
1664.0,-0.0006672630552202463
1792.0,-0.002393095288425684
1920.0,0.0005033519119024277
2048.0,0.0007607490988448262
2304.0,0.0005813281168229878
2560.0,-0.0009689093567430973
2816.0,-0.000165220582857728
3072.0,0.00035509810550138354
3328.0,0.0017829742282629013
3584.0,-0.00042659806786105037
3840.0,-0.004814845509827137
4096.0,-0.0029329033568501472
4608.0,0.004226984456181526
5120.0,-0.0014600829454138875
5632.0,-0.0013350688386708498
6144.0,9.30676978896372e-05
6656.0,0.0030218451283872128
7168.0,-0.00296980794519186
7680.0,0.0031166435219347477
8192.0,-0.0020640839356929064
9216.0,0.002694528317078948
10240.0,-0.003271239111199975
11264.0,-0.0009754005004651845
12288.0,-0.0011975758243352175
13312.0,0.0015788257587701082
14336.0,1.2714342119579669e-05
end
