version,3.0
numOfCh,1
type,point
parent_name,clean
ch_type,1_1
kcount,1
numberNandB,1
brightnessNandB,1
carpet pos,0
pc,0
Time (ms),CH1 Auto-Correlation
1.0,0.029997946694493294
2.0,0.02784970961511135
3.0,0.026009535416960716
4.0,0.024411924183368683
5.0,0.02292085997760296
6.0,0.021591033786535263
7.0,0.020424364134669304
8.0,0.01937931776046753
9.0,0.018424903973937035
10.0,0.017590492963790894
11.0,0.01684592291712761
12.0,0.01618586853146553
13.0,0.015623790211975574
14.0,0.015065335668623447
15.0,0.01449449174106121
16.0,0.013972720131278038
18.0,0.01306894700974226
20.0,0.01231359038501978
22.0,0.011722618713974953
24.0,0.01123307179659605
26.0,0.010794335976243019
28.0,0.01026949007064104
30.0,0.009723510593175888
32.0,0.009258783422410488
36.0,0.008524006232619286
40.0,0.008037175051867962
44.0,0.007695186883211136
48.0,0.00730612687766552
52.0,0.006948249880224466
56.0,0.0067347632721066475
60.0,0.006362915970385075
64.0,0.00578266242519021
72.0,0.005224317777901888
80.0,0.004213309846818447
88.0,0.0034456129651516676
96.0,0.0028336660470813513
104.0,0.0023812423460185528
112.0,0.0023207454942166805
120.0,0.002625452820211649
128.0,0.0029319697059690952
144.0,0.0022325150202959776
160.0,0.0018260297365486622
176.0,0.0008206347119994462
192.0,-0.00011460680252639577
208.0,-0.0002736931783147156
224.0,-7.598537195008248e-06
240.0,0.00015717747737653553
256.0,3.8597852835664526e-05
288.0,0.0008974203374236822
320.0,0.0004001533961854875
352.0,0.0002857691142708063
384.0,0.0006748879095539451
416.0,-0.0001611752377357334
448.0,-0.0007452748250216246
480.0,-0.0015431150095537305
512.0,-0.0008829281432554126
576.0,-0.001051900559104979
640.0,0.00017577141989022493
704.0,-0.0005105678574182093
768.0,0.0005077742971479893
832.0,0.000657182012218982
896.0,0.0015708203427493572
960.0,0.0011895798379555345
1024.0,0.00212965183891356
1152.0,0.0004550468293018639
1280.0,0.0007158957305364311
1408.0,0.000992447603493929
1536.0,0.0004233471699990332
1664.0,0.0011633167741820216
1792.0,9.574546129442751e-05
1920.0,-0.00014070757606532425
2048.0,-0.0015951296081766486
2304.0,0.00013476524327415973
2560.0,0.00098569062538445
2816.0,0.0008013123297132552
3072.0,-0.001043551485054195
3328.0,-0.0012037628330290318
3584.0,0.0008894969359971583
3840.0,-0.0005230006645433605
4096.0,-0.00039776123594492674
4608.0,-0.001134025864303112
5120.0,-0.0007116690394468606
5632.0,-0.0004935424658469856
6144.0,-0.0005057435482740402
6656.0,-0.0003329572209622711
7168.0,-0.0017636124975979328
7680.0,0.0001348860823782161
8192.0,-1.9392824469832703e-05
9216.0,-0.000619949190877378
10240.0,1.0018134162237402e-05
11264.0,0.000280168023891747
12288.0,0.00011918989184778184
13312.0,0.0007641416159458458
14336.0,0.0007121816161088645
end
