version,3.0
numOfCh,1
type,point
parent_name,clean
ch_type,1_1
kcount,1
numberNandB,1
brightnessNandB,1
carpet pos,0
pc,0
Time (ms),CH1 Auto-Correlation
1.0,0.03843173012137413
2.0,0.03515561297535896
3.0,0.032524801790714264
4.0,0.03021932579576969
5.0,0.0281481072306633
6.0,0.026297515258193016
7.0,0.024658914655447006
8.0,0.02321629412472248
9.0,0.021978847682476044
10.0,0.020926985889673233
11.0,0.020028121769428253
12.0,0.01919136941432953
13.0,0.018445659428834915
14.0,0.017697583884000778
15.0,0.017074907198548317
16.0,0.016500083729624748
18.0,0.015479432418942451
20.0,0.014639303088188171
22.0,0.013644645921885967
24.0,0.012720325030386448
26.0,0.012079565785825253
28.0,0.01160504948347807
30.0,0.011281775310635567
32.0,0.010878775268793106
36.0,0.009819962084293365
40.0,0.008937768638134003
44.0,0.007961063645780087
48.0,0.006898968014866114
52.0,0.006335150916129351
56.0,0.005990155972540379
60.0,0.005292579997330904
64.0,0.004634613171219826
72.0,0.00387051934376359
80.0,0.0036341350059956312
88.0,0.0036230813711881638
96.0,0.0036403611302375793
104.0,0.00238865427672863
112.0,0.0017952780472114682
120.0,0.0013709006598219275
128.0,0.0013259932165965438
144.0,0.0008415421470999718
160.0,0.0006236476474441588
176.0,0.0006367824971675873
192.0,0.0009670119034126401
208.0,0.0010935321915894747
224.0,0.00119982345495373
240.0,0.0011856046039611101
256.0,0.0017819475615397096
288.0,0.0014054452767595649
320.0,0.0013412614353001118
352.0,0.0006845095194876194
384.0,0.00036580246523953974
416.0,0.001350858947262168
448.0,0.0018704365938901901
480.0,0.0012010103091597557
512.0,0.000789768761023879
576.0,-0.0005484545836225152
640.0,-0.0016702661523595452
704.0,-0.002920994069427252
768.0,-0.002510547637939453
832.0,-0.0010830898536369205
896.0,-0.0004971383023075759
960.0,-0.00042605618364177644
1024.0,-0.002914128825068474
1152.0,-0.0014002667739987373
1280.0,0.00098587351385504
1408.0,-0.00014060766261536628
1536.0,0.0007350978557951748
1664.0,-0.001063421368598938
1792.0,-9.426579345017672e-05
1920.0,0.00135435548145324
2048.0,-0.0021218268666416407
2304.0,0.0014570639468729496
2560.0,0.0006278519867919385
2816.0,0.0006623277440667152
3072.0,1.4015798114996869e-05
3328.0,-0.001015023561194539
3584.0,-0.0001421430060872808
3840.0,0.0005340923671610653
4096.0,0.0008278409950435162
4608.0,-0.0006653862656094134
5120.0,-0.0008575572865083814
5632.0,0.0005578558193519711
6144.0,-0.0002798776840791106
6656.0,-0.0006790444022044539
7168.0,-0.001027262071147561
7680.0,-0.0015674697933718562
8192.0,0.0013115815818309784
9216.0,0.0005945969023741782
10240.0,-0.002243848517537117
11264.0,0.0011197959538549185
12288.0,0.0007984711555764079
13312.0,-9.668718121247366e-05
14336.0,0.00016586809942964464
end
