version,3.0
numOfCh,1
type,point
parent_name,clean
ch_type,1_1
kcount,1
numberNandB,1
brightnessNandB,1
carpet pos,0
pc,0
Time (ms),CH1 Auto-Correlation
1.0,0.08323091268539429
2.0,0.07680808007717133
3.0,0.0714443027973175
4.0,0.0669490247964859
5.0,0.06296151131391525
6.0,0.059423502534627914
7.0,0.05621008574962616
8.0,0.05347280949354172
9.0,0.05106094107031822
10.0,0.049062564969062805
11.0,0.047042928636074066
12.0,0.045301273465156555
13.0,0.04364027827978134
14.0,0.042160362005233765
15.0,0.0407450869679451
16.0,0.039335981011390686
18.0,0.03678590804338455
20.0,0.03416964039206505
22.0,0.031645819544792175
24.0,0.02954881079494953
26.0,0.02788311243057251
28.0,0.026425061747431755
30.0,0.025017831474542618
32.0,0.023611176759004593
36.0,0.020863110199570656
40.0,0.01767723448574543
44.0,0.01442964468151331
48.0,0.012480431236326694
52.0,0.01044207252562046
56.0,0.009569796733558178
60.0,0.008989321067929268
64.0,0.00830632634460926
72.0,0.006860914174467325
80.0,0.005335938185453415
88.0,0.003770730923861265
96.0,0.003471957053989172
104.0,0.0020981603302061558
112.0,0.0022433109115809202
120.0,0.0032503055408596992
128.0,0.0025575526524335146
144.0,0.0027851152699440718
160.0,0.0037141842767596245
176.0,0.0029621587600558996
192.0,0.0022426762152463198
208.0,0.001943604089319706
224.0,0.0004466874524950981
240.0,0.0005254917778074741
256.0,0.0007398069137707353
288.0,0.00045711215352639556
320.0,0.0009959787130355835
352.0,0.0010536052286624908
384.0,0.002267205622047186
416.0,0.0006589542026631534
448.0,-0.0014856060734018683
480.0,-0.0038170386105775833
512.0,-0.0022699811961501837
576.0,6.828223558841273e-05
640.0,0.0025175954215228558
704.0,0.002049120608717203
768.0,0.00011605348845478147
832.0,-0.0004430609114933759
896.0,-0.0017491534817963839
960.0,-0.00486928503960371
1024.0,-0.0043380241841077805
1152.0,-0.0013066916726529598
1280.0,-0.0014772670110687613
1408.0,0.0014814012683928013
1536.0,0.0014660005690529943
1664.0,-0.002755153691396117
1792.0,0.002284084213897586
1920.0,0.002807875396683812
2048.0,0.00047202923451550305
2304.0,0.0014992562355473638
2560.0,0.0025725578889250755
2816.0,-0.0013716674875468016
3072.0,-0.0006580822519026697
3328.0,-0.0019869457464665174
3584.0,-0.005057787522673607
3840.0,0.0016569583676755428
4096.0,-0.0006834151572547853
4608.0,0.002218349603936076
5120.0,-0.0016076117753982544
5632.0,-0.0029053303878754377
6144.0,-0.00010788017971208319
6656.0,0.00364014133810997
7168.0,0.0004643990832846612
7680.0,-0.00020655685511883348
8192.0,-0.003388487035408616
9216.0,0.0018621399067342281
10240.0,-0.0027583008632063866
11264.0,-0.0004215983208268881
12288.0,-0.003839396871626377
13312.0,0.0007961324881762266
14336.0,-0.0014917897060513496
end
