version,3.0
numOfCh,1
type,point
parent_name,clean
ch_type,1_1
kcount,1
numberNandB,1
brightnessNandB,1
carpet pos,0
pc,0
Time (ms),CH1 Auto-Correlation
1.0,0.09197781980037689
2.0,0.08525636792182922
3.0,0.07950819283723831
4.0,0.07433845847845078
5.0,0.06974830478429794
6.0,0.06579869985580444
7.0,0.0622299499809742
8.0,0.058949485421180725
9.0,0.055802542716264725
10.0,0.052903737872838974
11.0,0.050440624356269836
12.0,0.048041053116321564
13.0,0.04599751904606819
14.0,0.044060371816158295
15.0,0.04233274981379509
16.0,0.040754806250333786
18.0,0.037875477224588394
20.0,0.035265687853097916
22.0,0.032673902809619904
24.0,0.030363522469997406
26.0,0.028260206803679466
28.0,0.026619087904691696
30.0,0.025447478517889977
32.0,0.024177202954888344
36.0,0.02131771855056286
40.0,0.019831636920571327
44.0,0.019011875614523888
48.0,0.018072132021188736
52.0,0.017351485788822174
56.0,0.016932019963860512
60.0,0.017005089670419693
64.0,0.017092963680624962
72.0,0.017075544223189354
80.0,0.016443807631731033
88.0,0.014006911776959896
96.0,0.01091916486620903
104.0,0.009372488595545292
112.0,0.007617088034749031
120.0,0.005405161529779434
128.0,0.0052708471193909645
144.0,0.005843522027134895
160.0,0.004208664875477552
176.0,0.0017655687406659126
192.0,0.001063159666955471
208.0,0.0017323270440101624
224.0,0.0009180454653687775
240.0,0.0022608935832977295
256.0,0.002093205926939845
288.0,-0.0005841661477461457
320.0,-8.228362275986001e-05
352.0,0.0012220917269587517
384.0,-0.0009192592115141451
416.0,-0.0006222615484148264
448.0,-0.002965780906379223
480.0,-0.004307009279727936
512.0,-0.004735167603939772
576.0,-0.00312416790984571
640.0,-0.001867262995801866
704.0,0.002608336042612791
768.0,0.0015550835523754358
832.0,0.0007927989354357123
896.0,-0.0013346431078389287
960.0,-0.00026670738589018583
1024.0,0.0024959600996226072
1152.0,0.0004091531445737928
1280.0,-0.0011979577830061316
1408.0,0.0026705388445407152
1536.0,-0.00019331451039761305
1664.0,-0.0028499779291450977
1792.0,0.00024198352184612304
1920.0,0.0012235435424372554
2048.0,0.001816008472815156
2304.0,0.00037434406112879515
2560.0,0.0007428171811625361
2816.0,0.0007883814396336675
3072.0,-0.0019759126007556915
3328.0,-0.006880847737193108
3584.0,0.002408715896308422
3840.0,0.0012624254450201988
4096.0,-0.00010541406663833186
4608.0,0.001709707546979189
5120.0,0.0020786719396710396
5632.0,-0.00305128819309175
6144.0,0.001575776725076139
6656.0,0.0002965097373817116
7168.0,-0.0008065392030403018
7680.0,-0.0022741039283573627
8192.0,-0.005668342113494873
9216.0,-0.0003240586956962943
10240.0,-0.003301458666101098
11264.0,-0.0001582210388733074
12288.0,0.0011788164265453815
13312.0,1.7721426047501154e-05
14336.0,0.0028896171133965254
end
