version,3.0
numOfCh,1
type,point
parent_name,clean
ch_type,1_1
kcount,1
numberNandB,1
brightnessNandB,1
carpet pos,0
pc,0
Time (ms),CH1 Auto-Correlation
1.0,0.08720667660236359
2.0,0.0803629532456398
3.0,0.07438614964485168
4.0,0.06921779364347458
5.0,0.06488091498613358
6.0,0.061122406274080276
7.0,0.0577310286462307
8.0,0.05468561127781868
9.0,0.05218459665775299
10.0,0.05002794787287712
11.0,0.04809089004993439
12.0,0.04607740789651871
13.0,0.044020090252161026
14.0,0.04219129681587219
15.0,0.04036230593919754
16.0,0.038480427116155624
18.0,0.03549088537693024
20.0,0.033051393926143646
22.0,0.03090292401611805
24.0,0.02907205931842327
26.0,0.027099192142486572
28.0,0.024962352588772774
30.0,0.023149270564317703
32.0,0.02165243588387966
36.0,0.019381916150450706
40.0,0.01822587288916111
44.0,0.017679527401924133
48.0,0.01679956540465355
52.0,0.015442457050085068
56.0,0.013808563351631165
60.0,0.012161409482359886
64.0,0.010922692716121674
72.0,0.00898321159183979
80.0,0.007799535058438778
88.0,0.007212439551949501
96.0,0.00810655765235424
104.0,0.008563078008592129
112.0,0.007710812147706747
120.0,0.008263308554887772
128.0,0.008687056601047516
144.0,0.007811916060745716
160.0,0.008690827526152134
176.0,0.0076848543249070644
192.0,0.00494021363556385
208.0,0.0035396742168813944
224.0,0.005168884992599487
240.0,0.0038467671256512403
256.0,0.0036880408879369497
288.0,0.0060278368182480335
320.0,0.0025959203485399485
352.0,0.0030161640606820583
384.0,0.0013670827029272914
416.0,-0.000194384076166898
448.0,0.001055701868608594
480.0,0.00262014614418149
512.0,0.004230997990816832
576.0,0.002635394223034382
640.0,0.0018619447946548462
704.0,0.002814535517245531
768.0,0.004027447663247585
832.0,0.004869741853326559
896.0,0.0035814899019896984
960.0,0.0020247092470526695
1024.0,0.004521375522017479
1152.0,0.0052341981790959835
1280.0,-0.0016845022328197956
1408.0,0.0004818415327463299
1536.0,0.001946961390785873
1664.0,0.0022432974074035883
1792.0,0.0003459454164840281
1920.0,-0.0003063428739551455
2048.0,-0.0040044584311544895
2304.0,-0.0017393233720213175
2560.0,-0.0003756483201868832
2816.0,0.000860918837133795
3072.0,-0.002639224985614419
3328.0,0.00031260703690350056
3584.0,0.0020329307299107313
3840.0,8.226887075579725e-06
4096.0,0.0008128328481689095
4608.0,-0.0017435704357922077
5120.0,-0.0019343311432749033
5632.0,-0.0024406732991337776
6144.0,-0.0034004785120487213
6656.0,-0.0009385287994518876
7168.0,-0.0022806935012340546
7680.0,0.0002997682604473084
8192.0,-0.0002584462345112115
9216.0,-0.002184550277888775
10240.0,-0.000414481561165303
11264.0,0.0016512484289705753
12288.0,-0.0024407333694398403
13312.0,-0.0036609633825719357
14336.0,-0.0014106555609032512
end
