version,3.0
numOfCh,1
type,point
parent_name,clean
ch_type,1_1
kcount,1
numberNandB,1
brightnessNandB,1
carpet pos,0
pc,0
Time (ms),CH1 Auto-Correlation
1.0,0.09326280653476715
2.0,0.08612576127052307
3.0,0.08017011731863022
4.0,0.0749361589550972
5.0,0.07030205428600311
6.0,0.06630110740661621
7.0,0.06274066865444183
8.0,0.059574440121650696
9.0,0.05657874420285225
10.0,0.05400412902235985
11.0,0.05167499929666519
12.0,0.04952441528439522
13.0,0.04783662036061287
14.0,0.046292129904031754
15.0,0.04478276148438454
16.0,0.04334854334592819
18.0,0.04050791636109352
20.0,0.03815921023488045
22.0,0.03587418422102928
24.0,0.03363899514079094
26.0,0.031626466661691666
28.0,0.0295823123306036
30.0,0.027462247759103775
32.0,0.025564342737197876
36.0,0.022597040981054306
40.0,0.019980475306510925
44.0,0.01763448305428028
48.0,0.01547940168529749
52.0,0.013532543554902077
56.0,0.011935234069824219
60.0,0.011208007112145424
64.0,0.01083626039326191
72.0,0.009737590327858925
80.0,0.00929535087198019
88.0,0.009338869713246822
96.0,0.00952567532658577
104.0,0.008473952300846577
112.0,0.0062691885977983475
120.0,0.005098110530525446
128.0,0.004970293026417494
144.0,0.002375402022153139
160.0,0.0009064684854820371
176.0,0.00026725500356405973
192.0,0.0019141014199703932
208.0,0.005288149230182171
224.0,0.003548836102709174
240.0,0.0026734196580946445
256.0,0.00349448318593204
288.0,0.0017543197609484196
320.0,0.004739683121442795
352.0,0.0062674242071807384
384.0,0.002039517043158412
416.0,0.0008326114038936794
448.0,0.002061082050204277
480.0,0.001841038465499878
512.0,-0.0014703536871820688
576.0,0.0004978359211236238
640.0,0.0022858057636767626
704.0,0.001242088619619608
768.0,-0.0024145657662302256
832.0,0.0003986188385169953
896.0,-0.001928646583110094
960.0,-0.0004014412115793675
1024.0,0.0030078834388405085
1152.0,0.0019423082703724504
1280.0,-0.00045396402128972113
1408.0,0.0037920824252068996
1536.0,0.0030500246211886406
1664.0,0.006820144597440958
1792.0,0.001512962277047336
1920.0,-0.0012067388743162155
2048.0,0.004942761268466711
2304.0,0.0032776747830212116
2560.0,-0.000851121440064162
2816.0,0.0030166173819452524
3072.0,0.0020116176456212997
3328.0,0.0024208182003349066
3584.0,0.0019174780463799834
3840.0,-0.002239351626485586
4096.0,-0.005893135443329811
4608.0,0.001397416926920414
5120.0,-0.0023841543588787317
5632.0,0.00035237474367022514
6144.0,-0.0021241232752799988
6656.0,-0.004204313270747662
7168.0,-0.002553169149905443
7680.0,0.0005037441733293235
8192.0,-0.005964502226561308
9216.0,-0.0026242886669933796
10240.0,-0.0034386394545435905
11264.0,-0.00039096843102015555
12288.0,-0.0014729272807016969
13312.0,-0.0019416515715420246
14336.0,-0.0006177870091050863
end
