version,3.0
numOfCh,1
type,point
parent_name,clean
ch_type,1_1
kcount,1
numberNandB,1
brightnessNandB,1
carpet pos,0
pc,0
Time (ms),CH1 Auto-Correlation
1.0,0.02718016877770424
2.0,0.02499629557132721
3.0,0.02324448898434639
4.0,0.021729493513703346
5.0,0.020414115861058235
6.0,0.019294429570436478
7.0,0.01825973019003868
8.0,0.017382869496941566
9.0,0.016576258465647697
10.0,0.01589273102581501
11.0,0.01522753108292818
12.0,0.014583926647901535
13.0,0.014005973003804684
14.0,0.013513296842575073
15.0,0.01307357382029295
16.0,0.012656676582992077
18.0,0.011910296976566315
20.0,0.01119530200958252
22.0,0.010402907617390156
24.0,0.009770264849066734
26.0,0.00920174177736044
28.0,0.008750036358833313
30.0,0.00829499401152134
32.0,0.007858924567699432
36.0,0.007067996542900801
40.0,0.006407677195966244
44.0,0.0059464615769684315
48.0,0.0054342313669621944
52.0,0.005318922456353903
56.0,0.005443048197776079
60.0,0.00553180230781436
64.0,0.005402479786425829
72.0,0.004554177168756723
80.0,0.0039369347505271435
88.0,0.0037793356459587812
96.0,0.0039137606509029865
104.0,0.004163037519901991
112.0,0.004213225096464157
120.0,0.004230012185871601
128.0,0.004265307914465666
144.0,0.0034544954542070627
160.0,0.0030396762304008007
176.0,0.0021568662486970425
192.0,0.0015352482441812754
208.0,0.0009233918390236795
224.0,0.0004710762877948582
240.0,-0.00010636541264830157
256.0,8.053654892137274e-05
288.0,0.0004138378135394305
320.0,-0.00020092287741135806
352.0,-0.00019536919717211276
384.0,-0.0003103725321125239
416.0,0.0005807942361570895
448.0,1.733132558001671e-05
480.0,2.7383299311622977e-05
512.0,0.00031141986255533993
576.0,-0.00010013979772338644
640.0,-0.0009368570172227919
704.0,-0.0030451875645667315
768.0,-0.0027734064497053623
832.0,-0.003509452333673835
896.0,-0.0018113309051841497
960.0,-0.000444607314420864
1024.0,-0.0006651910371147096
1152.0,2.146290171367582e-05
1280.0,-0.0001876439491752535
1408.0,0.00019037160382140428
1536.0,0.0004246101016178727
1664.0,0.00012929696822538972
1792.0,-0.0006303340778686106
1920.0,6.373383803293109e-05
2048.0,2.5266746888519265e-05
2304.0,0.00039270290290005505
2560.0,0.0007075034664012492
2816.0,-0.00025814035325311124
3072.0,-7.894807640695944e-05
3328.0,-0.0010844350326806307
3584.0,0.00029643173911608756
3840.0,-0.0008832936873659492
4096.0,-0.0019924689549952745
4608.0,0.0009919347940012813
5120.0,0.0003412039368413389
5632.0,-0.0007958057103678584
6144.0,-0.0005846087587997317
6656.0,-0.00043928885133937
7168.0,9.44890416576527e-05
7680.0,0.002002724912017584
8192.0,0.00019287764735054225
9216.0,0.000336767261615023
10240.0,-0.000614787160884589
11264.0,0.0006598876207135618
12288.0,0.0012524797348305583
13312.0,-0.0017698875162750483
14336.0,-0.0005066526355221868
end
