version,3.0
numOfCh,1
type,point
parent_name,clean
ch_type,1_1
kcount,1
numberNandB,1
brightnessNandB,1
carpet pos,0
pc,0
Time (ms),CH1 Auto-Correlation
1.0,0.02645738795399666
2.0,0.02436533384025097
3.0,0.022530024871230125
4.0,0.02097358927130699
5.0,0.019643746316432953
6.0,0.018435461446642876
7.0,0.017384078353643417
8.0,0.016470780596137047
9.0,0.01566367596387863
10.0,0.01491005439311266
11.0,0.014213898219168186
12.0,0.013558320701122284
13.0,0.013014291413128376
14.0,0.012491678819060326
15.0,0.011938854120671749
16.0,0.011439258232712746
18.0,0.010517695918679237
20.0,0.009743131697177887
22.0,0.009009883739054203
24.0,0.008318889886140823
26.0,0.007642417214810848
28.0,0.007090832106769085
30.0,0.006644871085882187
32.0,0.006276506930589676
36.0,0.005657318979501724
40.0,0.0050550843589007854
44.0,0.004653973039239645
48.0,0.004469037055969238
52.0,0.004126072861254215
56.0,0.0037440932355821133
60.0,0.003462153486907482
64.0,0.0034692578483372927
72.0,0.0034587159752845764
80.0,0.003301311284303665
88.0,0.0030900973360985518
96.0,0.002823374466970563
104.0,0.0024696479085832834
112.0,0.002222022507339716
120.0,0.0017135321395471692
128.0,0.0014027563156560063
144.0,0.0009196213213726878
160.0,0.0011296115117147565
176.0,0.0015752003528177738
192.0,0.0016096503240987659
208.0,0.00031440661405213177
224.0,-0.0009432040387764573
240.0,-0.001378752407617867
256.0,-0.0013240310363471508
288.0,-0.0007995495689101517
320.0,-0.0010248750913888216
352.0,-0.0009309028391726315
384.0,-0.0007613399066030979
416.0,7.749847281957045e-05
448.0,0.0001541755482321605
480.0,4.4798758608521894e-05
512.0,-0.00037710252217948437
576.0,0.0002680243633221835
640.0,0.0012300966773182154
704.0,0.0005097902612760663
768.0,0.00041777038131840527
832.0,-0.0001312278036493808
896.0,-0.0005604189354926348
960.0,-0.0019993800669908524
1024.0,-0.0017609570641070604
1152.0,-7.429857214447111e-05
1280.0,0.0003936265129595995
1408.0,-0.00021612035925500095
1536.0,-0.0007849412504583597
1664.0,-0.0002396073250565678
1792.0,-0.0009732653852552176
1920.0,-0.0007946061086840928
2048.0,-0.0017205015756189823
2304.0,0.00015202943177428097
2560.0,8.553332736482844e-05
2816.0,0.00010976089834002778
3072.0,-4.311779048293829e-05
3328.0,0.00041628075996413827
3584.0,0.0013393217232078314
3840.0,0.00015949568478390574
4096.0,0.0011349982814863324
4608.0,-0.0007932204753160477
5120.0,-0.0003115249564871192
5632.0,-0.0006273037870414555
6144.0,-0.00014001186355017126
6656.0,0.00036720550269819796
7168.0,0.0007134588668122888
7680.0,0.001068251789547503
8192.0,-0.0005869093583896756
9216.0,-0.0006931397365406156
10240.0,-0.00012056413834216073
11264.0,0.0002797320485115051
12288.0,0.000178140340722166
13312.0,-0.0003251565794926137
14336.0,1.2394578334351536e-05
end
