version,3.0
numOfCh,1
type,point
parent_name,clean
ch_type,1_1
kcount,1
numberNandB,1
brightnessNandB,1
carpet pos,0
pc,0
Time (ms),CH1 Auto-Correlation
1.0,0.037896815687417984
2.0,0.034700658172369
3.0,0.03195873275399208
4.0,0.029554780572652817
5.0,0.027452519163489342
6.0,0.02569257840514183
7.0,0.024111874401569366
8.0,0.02267281524837017
9.0,0.021287741139531136
10.0,0.0199924036860466
11.0,0.01884634979069233
12.0,0.017828313633799553
13.0,0.01693316176533699
14.0,0.0161722544580698
15.0,0.015427026897668839
16.0,0.014821543358266354
18.0,0.01364294346421957
20.0,0.012618375942111015
22.0,0.011918497271835804
24.0,0.011311599053442478
26.0,0.010732335038483143
28.0,0.009989309124648571
30.0,0.009350326843559742
32.0,0.008678033016622066
36.0,0.007531037554144859
40.0,0.006840456742793322
44.0,0.006558102089911699
48.0,0.006253082305192947
52.0,0.005820549093186855
56.0,0.0048888977617025375
60.0,0.004368131514638662
64.0,0.0040212091989815235
72.0,0.0032839737832546234
80.0,0.002585099544376135
88.0,0.0019480445189401507
96.0,0.001516504678875208
104.0,0.0012686074478551745
112.0,0.0010486003011465073
120.0,0.0009693004540167749
128.0,0.0012322352267801762
144.0,0.0005687405355274677
160.0,-0.00045505454181693494
176.0,-0.0005353326559998095
192.0,-0.0019187219440937042
208.0,-0.001373743754811585
224.0,-0.00033752404851838946
240.0,-0.000465639604954049
256.0,-0.0015346197178587317
288.0,-0.0011585981119424105
320.0,-0.0005320380441844463
352.0,-0.0011127389734610915
384.0,-5.789785063825548e-05
416.0,-0.00038634557859040797
448.0,0.0012152496492490172
480.0,0.0014136296231299639
512.0,0.0013153073377907276
576.0,0.0010455561568960547
640.0,-8.312785212183371e-05
704.0,-0.0003142604837194085
768.0,0.00046800257405266166
832.0,-0.0002074775838991627
896.0,6.6829397837864235e-06
960.0,-0.0006135270232334733
1024.0,-0.0006215875619091094
1152.0,0.0007396491710096598
1280.0,0.0005579215940088034
1408.0,0.00010062096407637
1536.0,-0.001157549791969359
1664.0,-0.0011168826604261994
1792.0,-0.0008841371745802462
1920.0,-0.00014489807654172182
2048.0,1.3688403669220861e-05
2304.0,0.0018733541946858168
2560.0,-0.0015822419663891196
2816.0,0.0005759032792411745
3072.0,-0.0008886370924301445
3328.0,0.0015421094140037894
3584.0,-0.00040047787479124963
3840.0,-0.0004550252924673259
4096.0,0.00022286422608885914
4608.0,-0.000958754331804812
5120.0,-0.00012605129450093955
5632.0,-0.00030172898550517857
6144.0,0.0003066554490942508
6656.0,0.0006958359153941274
7168.0,0.0011978513794019818
7680.0,-0.00011235837882850319
8192.0,-0.00027700464124791324
9216.0,0.00021510304941330105
10240.0,-0.00018000796262640506
11264.0,-0.0019189051818102598
12288.0,-0.0007066581747494638
13312.0,0.0009426454780623317
14336.0,0.0002836209605447948
end
