version,3.0
numOfCh,1
type,point
parent_name,34766_0dot069-0dot01
ch_type,1_1
kcount,1
numberNandB,1
brightnessNandB,1
carpet pos,0
pc,0
Time (ms),CH1 Auto-Correlation
1.0,0.03321845456957817
2.0,0.033031661063432693
3.0,0.03285134956240654
4.0,0.032679472118616104
5.0,0.032515332102775574
6.0,0.03235611692070961
7.0,0.03220421448349953
8.0,0.032051585614681244
9.0,0.03189786151051521
10.0,0.03174358233809471
11.0,0.03158654645085335
12.0,0.0314265601336956
13.0,0.031267765909433365
14.0,0.0311158187687397
15.0,0.030964020639657974
16.0,0.03081340156495571
18.0,0.03051869012415409
20.0,0.030227800831198692
22.0,0.029936684295535088
24.0,0.0296464953571558
26.0,0.029370110481977463
28.0,0.029108772054314613
30.0,0.028850354254245758
32.0,0.028593579307198524
36.0,0.028124283999204636
40.0,0.027658546343445778
44.0,0.027207432314753532
48.0,0.02677389606833458
52.0,0.026336219161748886
56.0,0.02591446414589882
60.0,0.02548554725944996
64.0,0.025067631155252457
72.0,0.024192076176404953
80.0,0.023348471149802208
88.0,0.022522805258631706
96.0,0.021780626848340034
104.0,0.02114689350128174
112.0,0.020638352259993553
120.0,0.020164653658866882
128.0,0.01969689503312111
144.0,0.018700167536735535
160.0,0.017758147791028023
176.0,0.01703573204576969
192.0,0.016377214342355728
208.0,0.015557314269244671
224.0,0.014586825855076313
240.0,0.013585319742560387
256.0,0.012700950726866722
288.0,0.01127613428980112
320.0,0.010292383842170238
352.0,0.009615813381969929
384.0,0.008791589178144932
416.0,0.008109561167657375
448.0,0.007538430858403444
480.0,0.006853523664176464
512.0,0.0057149045169353485
576.0,0.003751482116058469
640.0,0.002923833206295967
704.0,0.0020311621483415365
768.0,0.0002509821788407862
832.0,-0.000288619427010417
896.0,-0.0011536515085026622
960.0,-0.0021434882655739784
1024.0,-0.0020532715134322643
1152.0,-0.0034000135492533445
1280.0,-0.0039326767437160015
1408.0,-0.004928137641400099
1536.0,-0.005021258722990751
1664.0,-0.004674016032367945
1792.0,-0.0036707064136862755
1920.0,-0.004272600635886192
2048.0,-0.004936270881444216
2304.0,-0.004973360802978277
2560.0,-0.0019627478905022144
2816.0,-3.16136829496827e-05
3072.0,0.005989274941384792
3328.0,0.0032130819745361805
3584.0,0.004271672107279301
3840.0,-0.0010847517987713218
4096.0,-0.004843350499868393
4608.0,-0.0009788114111870527
5120.0,-0.007024451158940792
5632.0,-0.013126207515597343
6144.0,-0.006619296036660671
6656.0,0.00394457345828414
7168.0,0.0073937722481787205
7680.0,0.008783025667071342
8192.0,0.006003262009471655
end
