version,3.0
numOfCh,1
type,point
parent_name,34766_0dot069-0dot01
ch_type,1_1
kcount,1
numberNandB,1
brightnessNandB,1
carpet pos,0
pc,0
Time (ms),CH1 Auto-Correlation
1.0,0.02883441559970379
2.0,0.02862606942653656
3.0,0.028418125584721565
4.0,0.02820855751633644
5.0,0.028001384809613228
6.0,0.027794640511274338
7.0,0.027587391436100006
8.0,0.027383964508771896
9.0,0.02718508243560791
10.0,0.026992198079824448
11.0,0.026807360351085663
12.0,0.026622990146279335
13.0,0.026445936411619186
14.0,0.02626867964863777
15.0,0.026087721809744835
16.0,0.025909343734383583
18.0,0.025564488023519516
20.0,0.025224892422556877
22.0,0.024890657514333725
24.0,0.0245615653693676
26.0,0.024241143837571144
28.0,0.023933546617627144
30.0,0.023639358580112457
32.0,0.023350711911916733
36.0,0.02278931252658367
40.0,0.022265154868364334
44.0,0.021771838888525963
48.0,0.02129066362977028
52.0,0.020807653665542603
56.0,0.020315522328019142
60.0,0.019837824627757072
64.0,0.019393811002373695
72.0,0.018515828996896744
80.0,0.017645694315433502
88.0,0.016848795115947723
96.0,0.01610129326581955
104.0,0.015443257987499237
112.0,0.01483587920665741
120.0,0.01427146140486002
128.0,0.013753153383731842
144.0,0.01283959299325943
160.0,0.01184721291065216
176.0,0.0108069758862257
192.0,0.009819254279136658
208.0,0.008847510442137718
224.0,0.008085072971880436
240.0,0.007533447816967964
256.0,0.007069290615618229
288.0,0.006254718638956547
320.0,0.005045535508543253
352.0,0.0036044777370989323
384.0,0.002209252677857876
416.0,0.0009175851009786129
448.0,4.5138174755265936e-05
480.0,-0.0004921667277812958
512.0,-0.0005799676873721182
576.0,0.0003339026588946581
640.0,0.000259915366768837
704.0,9.418676199857146e-05
768.0,0.00035468561691232026
832.0,0.0012264336692169309
896.0,0.002414039336144924
960.0,0.003551446832716465
1024.0,0.0033947862684726715
1152.0,0.00408433610573411
1280.0,0.0032033210154622793
1408.0,0.0012781469849869609
1536.0,-0.0015965193742886186
1664.0,-0.005114553961902857
1792.0,-0.005654789973050356
1920.0,-0.004242481663823128
2048.0,-0.0018191687995567918
2304.0,-0.0012078951112926006
2560.0,-0.0008582729496993124
2816.0,-0.0013007265515625477
3072.0,-0.0016289020422846079
3328.0,-0.001422295579686761
3584.0,-0.004870669916272163
3840.0,-0.0044839950278401375
4096.0,-0.002123533748090267
4608.0,-0.0047572036273777485
5120.0,-0.002376608783379197
5632.0,-0.0020059477537870407
6144.0,-0.0025172841269522905
6656.0,0.005241327453404665
7168.0,0.0032409816049039364
7680.0,0.0037484101485460997
8192.0,0.003675174666568637
end
