version,3.0
numOfCh,1
type,point
parent_name,34766_0dot069-0dot01
ch_type,1_1
kcount,1
numberNandB,1
brightnessNandB,1
carpet pos,0
pc,0
Time (ms),CH1 Auto-Correlation
1.0,0.027046116068959236
2.0,0.026839207857847214
3.0,0.026630237698554993
4.0,0.02642146125435829
5.0,0.026212509721517563
6.0,0.02600644715130329
7.0,0.025797555223107338
8.0,0.025591712445020676
9.0,0.025388306006789207
10.0,0.025189068168401718
11.0,0.024983752518892288
12.0,0.02478107251226902
13.0,0.024574151262640953
14.0,0.024361541494727135
15.0,0.024151606485247612
16.0,0.02394646778702736
18.0,0.023565419018268585
20.0,0.023180700838565826
22.0,0.022800730541348457
24.0,0.022429989650845528
26.0,0.022058608010411263
28.0,0.021678166463971138
30.0,0.02130543626844883
32.0,0.02093171514570713
36.0,0.020161179825663567
40.0,0.01938866823911667
44.0,0.01868654415011406
48.0,0.018032550811767578
52.0,0.0173871498554945
56.0,0.016758641228079796
60.0,0.01615452952682972
64.0,0.015571875497698784
72.0,0.014383718371391296
80.0,0.01324163842946291
88.0,0.012213814072310925
96.0,0.011263934895396233
104.0,0.010421376675367355
112.0,0.009727302007377148
120.0,0.009200714528560638
128.0,0.008756001479923725
144.0,0.008055416867136955
160.0,0.007362138479948044
176.0,0.00666377367451787
192.0,0.005777393467724323
208.0,0.004790401551872492
224.0,0.003867900697514415
240.0,0.0031979167833924294
256.0,0.002768276957795024
288.0,0.0019116966286674142
320.0,0.0013505779206752777
352.0,0.0008583706803619862
384.0,-0.0001454210141673684
416.0,-0.001379415625706315
448.0,-0.0019404012709856033
480.0,-0.001711301039904356
512.0,-0.0007217806996777654
576.0,0.003131178207695484
640.0,0.004028130788356066
704.0,0.0038446406833827496
768.0,0.00224979012273252
832.0,0.002335031982511282
896.0,0.0033469628542661667
960.0,0.002416722709313035
1024.0,0.00020991578639950603
1152.0,-0.0009726994903758168
1280.0,-0.0016537468181923032
1408.0,-0.000821361318230629
1536.0,0.002698313444852829
1664.0,0.003664750140160322
1792.0,0.0020161548163741827
1920.0,-0.0016986825503408909
2048.0,-0.0001798122248146683
2304.0,0.00036498511326499283
2560.0,-0.0014179773861542344
2816.0,0.0006927780341356993
3072.0,-0.0006798552349209785
3328.0,-0.00013084067904856056
3584.0,0.0007526999688707292
3840.0,0.0027667004615068436
4096.0,-0.00019917004101444036
4608.0,-0.0034376801922917366
5120.0,-0.0018245527753606439
5632.0,-0.0003026813792530447
6144.0,0.0011671719839796424
6656.0,0.000647634849883616
7168.0,-0.003927316516637802
7680.0,-0.0039284322410821915
8192.0,-0.010053501464426517
end
