version,3.0
numOfCh,1
type,point
parent_name,34766_0dot069-0dot01
ch_type,1_1
kcount,1
numberNandB,1
brightnessNandB,1
carpet pos,0
pc,0
Time (ms),CH1 Auto-Correlation
1.0,0.02744891308248043
2.0,0.02724343352019787
3.0,0.027044489979743958
4.0,0.026851836591959
5.0,0.02665235474705696
6.0,0.026461971923708916
7.0,0.02627047896385193
8.0,0.026079105213284492
9.0,0.025894353166222572
10.0,0.02570842020213604
11.0,0.02551911398768425
12.0,0.025330061092972755
13.0,0.025139756500720978
14.0,0.024954596534371376
15.0,0.024774739518761635
16.0,0.024594152346253395
18.0,0.024242963641881943
20.0,0.023903975263237953
22.0,0.02357637882232666
24.0,0.023263882845640182
26.0,0.022963520139455795
28.0,0.022670043632388115
30.0,0.022375136613845825
32.0,0.02207927778363228
36.0,0.021511590108275414
40.0,0.02098231390118599
44.0,0.020496876910328865
48.0,0.02005729451775551
52.0,0.01963815465569496
56.0,0.01923430897295475
60.0,0.01881670579314232
64.0,0.018380388617515564
72.0,0.017551027238368988
80.0,0.01682211272418499
88.0,0.016136279329657555
96.0,0.015514051541686058
104.0,0.014920149929821491
112.0,0.014353161677718163
120.0,0.013821319676935673
128.0,0.013303686864674091
144.0,0.012521888129413128
160.0,0.011775911785662174
176.0,0.010997005738317966
192.0,0.01019676961004734
208.0,0.009405001066625118
224.0,0.008608889766037464
240.0,0.007874892093241215
256.0,0.007371420506387949
288.0,0.006739476229995489
320.0,0.0062818075530231
352.0,0.0056226677261292934
384.0,0.005021080374717712
416.0,0.004217530135065317
448.0,0.0033727814443409443
480.0,0.002562008798122406
512.0,0.0023387144319713116
576.0,0.0018743963446468115
640.0,0.0014043564442545176
704.0,-0.001124527887441218
768.0,-0.0027347691357135773
832.0,-0.0030692468862980604
896.0,-0.0033105856273323298
960.0,-0.00328708509914577
1024.0,-0.0028937042225152254
1152.0,-0.002304917201399803
1280.0,-0.002831407357007265
1408.0,-0.0021386989392340183
1536.0,-0.001063929288648069
1664.0,-0.0009016162366606295
1792.0,-0.002023369772359729
1920.0,-0.003808705136179924
2048.0,-0.004049565643072128
2304.0,-0.003212427254766226
2560.0,-0.0018989985110238194
2816.0,0.0006662440137006342
3072.0,0.0011611244408413768
3328.0,-0.0007097172201611102
3584.0,-0.0006372480420395732
3840.0,5.747809700551443e-05
4096.0,-0.0028311647474765778
4608.0,-0.0011649427469819784
5120.0,0.00022936439199838787
5632.0,-0.000837055325973779
6144.0,0.0017121683340519667
6656.0,0.0029506783466786146
7168.0,-0.004378310404717922
7680.0,-0.0029870676808059216
8192.0,-0.0027812677435576916
end
