version,3.0
numOfCh,1
type,point
parent_name,34766_0dot069-0dot01
ch_type,1_1
kcount,1
numberNandB,1
brightnessNandB,1
carpet pos,0
pc,0
Time (ms),CH1 Auto-Correlation
1.0,0.03053530678153038
2.0,0.030327104032039642
3.0,0.030122417956590652
4.0,0.029918434098362923
5.0,0.029709592461586
6.0,0.029498986899852753
7.0,0.029293887317180634
8.0,0.029088925570249557
9.0,0.0288923941552639
10.0,0.028699355199933052
11.0,0.02850855141878128
12.0,0.02831730805337429
13.0,0.02812936343252659
14.0,0.027944013476371765
15.0,0.027764812111854553
16.0,0.027578609064221382
18.0,0.027219684794545174
20.0,0.02687365561723709
22.0,0.02652824856340885
24.0,0.026181181892752647
26.0,0.025854624807834625
28.0,0.025541873648762703
30.0,0.0252392441034317
32.0,0.02494078129529953
36.0,0.024370968341827393
40.0,0.02382061630487442
44.0,0.02328772097826004
48.0,0.02277236059308052
52.0,0.022290349006652832
56.0,0.021854810416698456
60.0,0.021444089710712433
64.0,0.02100188657641411
72.0,0.02018713764846325
80.0,0.019422775134444237
88.0,0.0186722781509161
96.0,0.017906179651618004
104.0,0.01722014881670475
112.0,0.01664547063410282
120.0,0.016079628840088844
128.0,0.015451295301318169
144.0,0.01418518926948309
160.0,0.013225325383245945
176.0,0.012431146577000618
192.0,0.011773208156228065
208.0,0.011245585046708584
224.0,0.010808467864990234
240.0,0.010639477521181107
256.0,0.010469061322510242
288.0,0.009636176750063896
320.0,0.009054013527929783
352.0,0.008891659788787365
384.0,0.00857891421765089
416.0,0.008270546793937683
448.0,0.008207662031054497
480.0,0.008417164906859398
512.0,0.008510442450642586
576.0,0.007938631810247898
640.0,0.006862000562250614
704.0,0.006204071920365095
768.0,0.005391170270740986
832.0,0.004884602967649698
896.0,0.005134904757142067
960.0,0.004657119512557983
1024.0,0.002388163236901164
1152.0,0.00040427985368296504
1280.0,-0.0013886343222111464
1408.0,-0.0016439652536064386
1536.0,-0.0028361480217427015
1664.0,-0.0071955458261072636
1792.0,-0.005730898585170507
1920.0,-0.00487459497526288
2048.0,-0.00602386798709631
2304.0,-0.007702264003455639
2560.0,-0.007942760363221169
2816.0,-0.003751116804778576
3072.0,-0.0010728102643042803
3328.0,-0.0013731061480939388
3584.0,-3.81235295208171e-05
3840.0,0.00014404315152205527
4096.0,0.0010252014035359025
4608.0,0.0030877001117914915
5120.0,0.003340065013617277
5632.0,-0.0012837829999625683
6144.0,-0.00043732646736316383
6656.0,0.0015785044524818659
7168.0,-0.0025359117425978184
7680.0,-0.006909498013556004
8192.0,-0.006116901524364948
end
