version,3.0
numOfCh,1
type,point
parent_name,34766_0dot069-0dot01
ch_type,1_1
kcount,1
numberNandB,1
brightnessNandB,1
carpet pos,0
pc,0
Time (ms),CH1 Auto-Correlation
1.0,0.028978396207094193
2.0,0.028755269944667816
3.0,0.0285353884100914
4.0,0.02831634320318699
5.0,0.028098445385694504
6.0,0.0278831385076046
7.0,0.027675876393914223
8.0,0.027466541156172752
9.0,0.027261951938271523
10.0,0.027061007916927338
11.0,0.026859797537326813
12.0,0.02666730061173439
13.0,0.026475949212908745
14.0,0.02629183605313301
15.0,0.026109008118510246
16.0,0.025931237265467644
18.0,0.025578057393431664
20.0,0.025224028155207634
22.0,0.02488688938319683
24.0,0.024555617943406105
26.0,0.024239787831902504
28.0,0.023937616497278214
30.0,0.023633494973182678
32.0,0.023343563079833984
36.0,0.022806018590927124
40.0,0.02225670963525772
44.0,0.021681295707821846
48.0,0.021099044010043144
52.0,0.02055194601416588
56.0,0.020023712888360023
60.0,0.01951448619365692
64.0,0.018997136503458023
72.0,0.01797809824347496
80.0,0.017077134922146797
88.0,0.016296934336423874
96.0,0.015585919842123985
104.0,0.014893650077283382
112.0,0.014251821674406528
120.0,0.01365761086344719
128.0,0.013154893182218075
144.0,0.012269911356270313
160.0,0.011495719663798809
176.0,0.0108650466427207
192.0,0.010271410457789898
208.0,0.009537169709801674
224.0,0.00868506170809269
240.0,0.007901394739747047
256.0,0.007128593046218157
288.0,0.005671187769621611
320.0,0.004435299430042505
352.0,0.0037589548155665398
384.0,0.0035932231694459915
416.0,0.0036069846246391535
448.0,0.0034111745189875364
480.0,0.0032732991967350245
512.0,0.002803575713187456
576.0,0.0021159290336072445
640.0,0.0018143197521567345
704.0,0.0006291542667895555
768.0,-0.0005059514660388231
832.0,-0.0014068526215851307
896.0,-0.002256933366879821
960.0,-0.003974799066781998
1024.0,-0.005101568065583706
1152.0,-0.004484235309064388
1280.0,-0.003350944723933935
1408.0,-0.0008599799475632608
1536.0,0.0009673172025941312
1664.0,0.002608991228044033
1792.0,0.002813504310324788
1920.0,0.002056545577943325
2048.0,0.0005897565861232579
2304.0,-0.001021728035993874
2560.0,-0.004899099934846163
2816.0,-0.004163123667240143
3072.0,2.5348435883643106e-05
3328.0,0.002410275163128972
3584.0,0.0020337619353085756
3840.0,0.0035538822412490845
4096.0,-0.003079250454902649
4608.0,-0.005728407297283411
5120.0,-0.005970481783151627
5632.0,0.0008038163068704307
6144.0,0.0002532944199629128
6656.0,-0.0029653292149305344
7168.0,0.003967601805925369
7680.0,0.006366110406816006
8192.0,-0.0032459429930895567
end
