version,3.0
numOfCh,1
type,point
parent_name,34766_0dot069-0dot01
ch_type,1_1
kcount,1
numberNandB,1
brightnessNandB,1
carpet pos,0
pc,0
Time (ms),CH1 Auto-Correlation
1.0,0.03657149150967598
2.0,0.03637625649571419
3.0,0.0361868180334568
4.0,0.03600100055336952
5.0,0.03581667318940163
6.0,0.03563426807522774
7.0,0.03545602783560753
8.0,0.03527020663022995
9.0,0.035086095333099365
10.0,0.034900814294815063
11.0,0.034720491617918015
12.0,0.03454766049981117
13.0,0.034378521144390106
14.0,0.03420984372496605
15.0,0.03404071927070618
16.0,0.03387681767344475
18.0,0.033557407557964325
20.0,0.033246394246816635
22.0,0.03294539079070091
24.0,0.032656773924827576
26.0,0.032380569726228714
28.0,0.0320943258702755
30.0,0.03179796412587166
32.0,0.031508397310972214
36.0,0.03096122294664383
40.0,0.03042236529290676
44.0,0.02989179827272892
48.0,0.029383976012468338
52.0,0.028889503329992294
56.0,0.02839614450931549
60.0,0.02792070060968399
64.0,0.02746492438018322
72.0,0.0266323983669281
80.0,0.025867005810141563
88.0,0.025098148733377457
96.0,0.02436324954032898
104.0,0.02363220416009426
112.0,0.022967470809817314
120.0,0.02236524410545826
128.0,0.021744433790445328
144.0,0.0205389391630888
160.0,0.019484009593725204
176.0,0.018500471487641335
192.0,0.0175772812217474
208.0,0.01656937226653099
224.0,0.015800757333636284
240.0,0.01520239096134901
256.0,0.01455630175769329
288.0,0.013640428893268108
320.0,0.013012734241783619
352.0,0.012822705321013927
384.0,0.012549227103590965
416.0,0.01232582051306963
448.0,0.012134806253015995
480.0,0.012318029068410397
512.0,0.012471810914576054
576.0,0.0128020653501153
640.0,0.012379522435367107
704.0,0.012367787770926952
768.0,0.012612479738891125
832.0,0.013272657990455627
896.0,0.013575472868978977
960.0,0.013504487462341785
1024.0,0.012037738226354122
1152.0,0.008562799543142319
1280.0,0.006614586338400841
1408.0,0.006868947297334671
1536.0,0.006144360173493624
1664.0,0.0039002536796033382
1792.0,0.0029205798637121916
1920.0,0.0011054587084800005
2048.0,-0.0008312409045174718
2304.0,-0.0009158285101875663
2560.0,-0.002009217394515872
2816.0,-0.00358971836976707
3072.0,-0.005934123881161213
3328.0,-0.0048686726950109005
3584.0,-0.004241498652845621
3840.0,-0.0075055016204714775
4096.0,-0.007833244279026985
4608.0,-0.0042598131112754345
5120.0,-0.003454003017395735
5632.0,-0.009138311259448528
6144.0,-0.011190436780452728
6656.0,-0.01484123058617115
7168.0,-0.01612098701298237
7680.0,-0.012172327376902103
8192.0,-0.00029847287805750966
end
