version,3.0
numOfCh,1
type,point
parent_name,34766_0dot069-0dot01
ch_type,1_1
kcount,1
numberNandB,1
brightnessNandB,1
carpet pos,0
pc,0
Time (ms),CH1 Auto-Correlation
1.0,0.36270076036453247
2.0,0.36180558800697327
3.0,0.36085179448127747
4.0,0.3598940372467041
5.0,0.358934223651886
6.0,0.35789069533348083
7.0,0.3567661643028259
8.0,0.35566049814224243
9.0,0.3545806109905243
10.0,0.3534708321094513
11.0,0.35241222381591797
12.0,0.3513384163379669
13.0,0.35028040409088135
14.0,0.3492004871368408
15.0,0.34806373715400696
16.0,0.34696775674819946
18.0,0.34477946162223816
20.0,0.3426577150821686
22.0,0.340650349855423
24.0,0.3387545049190521
26.0,0.336914598941803
28.0,0.33503156900405884
30.0,0.33323150873184204
32.0,0.3315080404281616
36.0,0.3286954164505005
40.0,0.32644227147102356
44.0,0.3248266279697418
48.0,0.32387784123420715
52.0,0.3231356739997864
56.0,0.32250940799713135
60.0,0.3217049241065979
64.0,0.3205071687698364
72.0,0.31722691655158997
80.0,0.3136192560195923
88.0,0.3097986876964569
96.0,0.3053027093410492
104.0,0.30075308680534363
112.0,0.29679447412490845
120.0,0.29282867908477783
128.0,0.28803977370262146
144.0,0.2748107612133026
160.0,0.26062437891960144
176.0,0.2517109513282776
192.0,0.24386638402938843
208.0,0.235391765832901
224.0,0.22681529819965363
240.0,0.2172953486442566
256.0,0.20501750707626343
288.0,0.18025891482830048
320.0,0.16132371127605438
352.0,0.14663420617580414
384.0,0.13002994656562805
416.0,0.11594858020544052
448.0,0.10992159694433212
480.0,0.10537377744913101
512.0,0.09781648963689804
576.0,0.08520408719778061
640.0,0.06898509711027145
704.0,0.06682683527469635
768.0,0.06292500346899033
832.0,0.05690271034836769
896.0,0.04720150679349899
960.0,0.03663758933544159
1024.0,0.024380138143897057
1152.0,-0.012115196324884892
1280.0,-0.032407063990831375
1408.0,-0.04387316852807999
1536.0,-0.040211036801338196
1664.0,-0.04273293539881706
1792.0,-0.04169778153300285
1920.0,-0.04708246886730194
2048.0,-0.0579068548977375
2304.0,-0.055427584797143936
2560.0,-0.019697947427630424
2816.0,-0.0029703229665756226
3072.0,0.014158529229462147
3328.0,0.019033368676900864
3584.0,0.012898260727524757
3840.0,0.0222469475120306
4096.0,0.004165297839790583
end
