version,3.0
numOfCh,1
type,point
parent_name,34766_0dot069-0dot01
ch_type,1_1
kcount,1
numberNandB,1
brightnessNandB,1
carpet pos,0
pc,0
Time (ms),CH1 Auto-Correlation
1.0,0.5606647729873657
2.0,0.5594998002052307
3.0,0.5582708120346069
4.0,0.5569305419921875
5.0,0.5555659532546997
6.0,0.554203987121582
7.0,0.5527760982513428
8.0,0.5514179468154907
9.0,0.5500179529190063
10.0,0.5486359596252441
11.0,0.5472996830940247
12.0,0.5460109710693359
13.0,0.5447731614112854
14.0,0.5434914827346802
15.0,0.5421963334083557
16.0,0.5408885478973389
18.0,0.5382077693939209
20.0,0.5355026125907898
22.0,0.5326690673828125
24.0,0.5296847224235535
26.0,0.5267184376716614
28.0,0.5236966013908386
30.0,0.5206133723258972
32.0,0.5175222754478455
36.0,0.5110569596290588
40.0,0.5047909617424011
44.0,0.49856987595558167
48.0,0.4923211932182312
52.0,0.48640763759613037
56.0,0.4808788001537323
60.0,0.4755932688713074
64.0,0.470435231924057
72.0,0.46036237478256226
80.0,0.451570063829422
88.0,0.4436129629611969
96.0,0.4353116750717163
104.0,0.4274933934211731
112.0,0.42100057005882263
120.0,0.41591840982437134
128.0,0.4114501178264618
144.0,0.40323108434677124
160.0,0.3970770239830017
176.0,0.3897721469402313
192.0,0.3814135491847992
208.0,0.37004926800727844
224.0,0.3564022481441498
240.0,0.34007009863853455
256.0,0.3239794373512268
288.0,0.2950216233730316
320.0,0.26120197772979736
352.0,0.22185827791690826
384.0,0.18625611066818237
416.0,0.14868834614753723
448.0,0.11722078174352646
480.0,0.09851621836423874
512.0,0.0890221819281578
576.0,0.04158344864845276
640.0,-0.024762365967035294
704.0,-0.04446114972233772
768.0,-0.055818118155002594
832.0,-0.06365269422531128
896.0,-0.07189638912677765
960.0,-0.07894673943519592
1024.0,-0.0815272256731987
1152.0,-0.07527797669172287
1280.0,-0.05811334401369095
1408.0,-0.04519277438521385
1536.0,-0.030943583697080612
1664.0,-0.014107384718954563
1792.0,0.004007710609585047
1920.0,0.0049865408800542355
2048.0,0.004932699259370565
2304.0,0.007775907404720783
2560.0,0.01857081614434719
2816.0,0.03201128914952278
3072.0,0.041953831911087036
3328.0,0.008541076444089413
3584.0,-0.04037503898143768
3840.0,-0.07513143867254257
4096.0,-0.07989505678415298
4608.0,-0.08961724489927292
5120.0,-0.11443156003952026
5632.0,-0.15385504066944122
6144.0,-0.1806422621011734
6656.0,-0.21845321357250214
7168.0,0.0230229664593935
end
