version,3.0
numOfCh,1
type,point
parent_name,34766_0dot069-0dot01
ch_type,1_1
kcount,1
numberNandB,1
brightnessNandB,1
carpet pos,0
pc,0
Time (ms),CH1 Auto-Correlation
1.0,0.032008808106184006
2.0,0.03181019052863121
3.0,0.031611308455467224
4.0,0.03141837939620018
5.0,0.031229907646775246
6.0,0.031041506677865982
7.0,0.030851444229483604
8.0,0.030662884935736656
9.0,0.030478287488222122
10.0,0.03029448166489601
11.0,0.03011547029018402
12.0,0.029931169003248215
13.0,0.029745733365416527
14.0,0.029556868597865105
15.0,0.029373617842793465
16.0,0.029194410890340805
18.0,0.028836973011493683
20.0,0.028483057394623756
22.0,0.028119876980781555
24.0,0.02774946205317974
26.0,0.02738402597606182
28.0,0.027033381164073944
30.0,0.026691243052482605
32.0,0.026347758248448372
36.0,0.025664979591965675
40.0,0.02501642145216465
44.0,0.02439652755856514
48.0,0.023812849074602127
52.0,0.02328062430024147
56.0,0.022781115025281906
60.0,0.022283092141151428
64.0,0.021766137331724167
72.0,0.02079249545931816
80.0,0.01985645852982998
88.0,0.018996547907590866
96.0,0.01821344718337059
104.0,0.01748279109597206
112.0,0.016836054623126984
120.0,0.016189362853765488
128.0,0.015556393191218376
144.0,0.014321809634566307
160.0,0.013142507523298264
176.0,0.012246139347553253
192.0,0.011521374806761742
208.0,0.010750940069556236
224.0,0.01009115856140852
240.0,0.009358524344861507
256.0,0.008589932695031166
288.0,0.007489953190088272
320.0,0.006577734369784594
352.0,0.006013019476085901
384.0,0.005437515210360289
416.0,0.0052233231253921986
448.0,0.004422560799866915
480.0,0.0034945246297866106
512.0,0.002862339373677969
576.0,0.0030146229546517134
640.0,0.002970387227833271
704.0,0.0026606100145727396
768.0,0.0027477017138153315
832.0,0.002948409179225564
896.0,0.0022953692823648453
960.0,0.0017544530564919114
1024.0,0.0016572637250646949
1152.0,0.0015906693879514933
1280.0,0.0018016898538917303
1408.0,0.0009251084993593395
1536.0,-0.00010789971565827727
1664.0,-0.00038555182982236147
1792.0,0.00034174477332271636
1920.0,-0.000913063355255872
2048.0,-0.0009201044449582696
2304.0,0.0008673870470374823
2560.0,0.001496108015999198
2816.0,-0.0001473439042456448
3072.0,0.0003483615582808852
3328.0,0.0017948067979887128
3584.0,0.0032097971998155117
3840.0,0.0005098948604427278
4096.0,-0.004187736194580793
4608.0,-0.007707159034907818
5120.0,-0.0047885398380458355
5632.0,-0.005185476969927549
6144.0,-0.0019492129795253277
6656.0,-0.005868247710168362
7168.0,-0.0044847046956419945
7680.0,-0.0002096458920277655
8192.0,-0.004970272071659565
end
