version,3.0
numOfCh,1
type,point
parent_name,34766_0dot069-0dot01
ch_type,1_1
kcount,1
numberNandB,1
brightnessNandB,1
carpet pos,0
pc,0
Time (ms),CH1 Auto-Correlation
1.0,0.025347426533699036
2.0,0.02512323670089245
3.0,0.024902379140257835
4.0,0.024689171463251114
5.0,0.024488236755132675
6.0,0.024295749142766
7.0,0.024103106930851936
8.0,0.02390853315591812
9.0,0.023715166375041008
10.0,0.02351994253695011
11.0,0.02333875000476837
12.0,0.023157689720392227
13.0,0.022975068539381027
14.0,0.02280213125050068
15.0,0.02263569086790085
16.0,0.022475281730294228
18.0,0.022169385105371475
20.0,0.021872544661164284
22.0,0.02157909795641899
24.0,0.021290475502610207
26.0,0.021004559472203255
28.0,0.02073577605187893
30.0,0.02047237753868103
32.0,0.02021872065961361
36.0,0.019766179844737053
40.0,0.019335752353072166
44.0,0.018917739391326904
48.0,0.0185184758156538
52.0,0.01812146045267582
56.0,0.017731791362166405
60.0,0.017359405755996704
64.0,0.016961295157670975
72.0,0.016178421676158905
80.0,0.015505891293287277
88.0,0.014966567978262901
96.0,0.014474288560450077
104.0,0.01392894983291626
112.0,0.013436991721391678
120.0,0.012897911481559277
128.0,0.012379989959299564
144.0,0.0114003736525774
160.0,0.010514572262763977
176.0,0.0095696821808815
192.0,0.008791421540081501
208.0,0.008144979365170002
224.0,0.007557735778391361
240.0,0.006976379081606865
256.0,0.00651973532512784
288.0,0.005339176394045353
320.0,0.004517541732639074
352.0,0.004323495086282492
384.0,0.00426535913720727
416.0,0.004791506100445986
448.0,0.004989441484212875
480.0,0.005110026802867651
512.0,0.005016692448407412
576.0,0.00352669064886868
640.0,0.0019336533732712269
704.0,0.0010328841162845492
768.0,0.00012312339094933122
832.0,0.00022967644326854497
896.0,0.0017417313065379858
960.0,0.003802694147452712
1024.0,0.004396995063871145
1152.0,0.004357792902737856
1280.0,0.003122486174106598
1408.0,0.003719695145264268
1536.0,0.0007463510264642537
1664.0,-0.0026088200975209475
1792.0,-0.005073363892734051
1920.0,-0.0017740983748808503
2048.0,-0.0009188208496198058
2304.0,-0.005003352649509907
2560.0,-0.004140401724725962
2816.0,-0.005288319196552038
3072.0,-0.004484137520194054
3328.0,-0.004033251665532589
3584.0,-0.0052917832508683205
3840.0,-0.006625796668231487
4096.0,-0.005316717084497213
4608.0,0.0007529369322583079
5120.0,-0.0033090426586568356
5632.0,-0.0022395255509763956
6144.0,0.0016446021618321538
6656.0,0.005867877509444952
7168.0,0.008226016536355019
7680.0,0.0004177341179456562
8192.0,-0.001779190613888204
end
