version,3.0
numOfCh,1
type,point
parent_name,34766_0dot069-0dot01
ch_type,1_1
kcount,1
numberNandB,1
brightnessNandB,1
carpet pos,0
pc,0
Time (ms),CH1 Auto-Correlation
1.0,0.12818318605422974
2.0,0.12776239216327667
3.0,0.1273089051246643
4.0,0.12684905529022217
5.0,0.12639468908309937
6.0,0.12592092156410217
7.0,0.12547551095485687
8.0,0.12505188584327698
9.0,0.12466292828321457
10.0,0.12428206950426102
11.0,0.12387450039386749
12.0,0.12347033619880676
13.0,0.1230705976486206
14.0,0.12269372493028641
15.0,0.12231113761663437
16.0,0.1219230592250824
18.0,0.12118522822856903
20.0,0.12049173563718796
22.0,0.11985020339488983
24.0,0.11925150454044342
26.0,0.11864924430847168
28.0,0.11808215826749802
30.0,0.11762803047895432
32.0,0.11716318875551224
36.0,0.11627279222011566
40.0,0.11552570760250092
44.0,0.11493440717458725
48.0,0.11450330913066864
52.0,0.11427067220211029
56.0,0.11404357850551605
60.0,0.11363700777292252
64.0,0.11328689008951187
72.0,0.11271686106920242
80.0,0.11178959161043167
88.0,0.11104144901037216
96.0,0.1103951558470726
104.0,0.10952427983283997
112.0,0.10844050347805023
120.0,0.10738864541053772
128.0,0.10667937994003296
144.0,0.10550091415643692
160.0,0.10393048822879791
176.0,0.10182050615549088
192.0,0.09945106506347656
208.0,0.09781483560800552
224.0,0.09655369818210602
240.0,0.09530381858348846
256.0,0.09452582895755768
288.0,0.08931517601013184
320.0,0.08488094061613083
352.0,0.08012502640485764
384.0,0.07570373266935349
416.0,0.07160841673612595
448.0,0.06531184166669846
480.0,0.06059953570365906
512.0,0.0547085702419281
576.0,0.04468647018074989
640.0,0.033794503659009933
704.0,0.02363848127424717
768.0,0.013739288784563541
832.0,0.005555786192417145
896.0,-0.0021092386450618505
960.0,-0.009558238089084625
1024.0,-0.016897426918148994
1152.0,-0.025025205686688423
1280.0,-0.028669625520706177
1408.0,-0.030463868752121925
1536.0,-0.027957474812865257
1664.0,-0.026607127860188484
1792.0,-0.02403985522687435
1920.0,-0.020986953750252724
2048.0,-0.015117195434868336
2304.0,-0.006038334686309099
2560.0,0.000701006967574358
2816.0,0.00012548931408673525
3072.0,-0.005042480770498514
3328.0,-0.0073911333456635475
3584.0,-0.0021570094395428896
3840.0,0.011937221512198448
4096.0,0.021636608988046646
4608.0,0.013969605788588524
5120.0,0.018365871161222458
5632.0,-0.002966679632663727
6144.0,-0.042439911514520645
6656.0,-0.01612521894276142
7168.0,0.005623363424092531
7680.0,0.009223062545061111
8192.0,0.014463203959167004
end
