version,3.0
numOfCh,1
type,point
parent_name,34766_0dot069-0dot01
ch_type,1_1
kcount,1
numberNandB,1
brightnessNandB,1
carpet pos,0
pc,0
Time (ms),CH1 Auto-Correlation
1.0,0.033095017075538635
2.0,0.032860297709703445
3.0,0.03263470157980919
4.0,0.0324067585170269
5.0,0.0321832001209259
6.0,0.0319645032286644
7.0,0.03173491731286049
8.0,0.03151419386267662
9.0,0.03130021691322327
10.0,0.031085824593901634
11.0,0.030879464000463486
12.0,0.030673131346702576
13.0,0.03047480620443821
14.0,0.030279889702796936
15.0,0.030084166675806046
16.0,0.029887324199080467
18.0,0.029520614072680473
20.0,0.02917090617120266
22.0,0.028830327093601227
24.0,0.028489015996456146
26.0,0.028157472610473633
28.0,0.027843289077281952
30.0,0.02753254771232605
32.0,0.02722439542412758
36.0,0.026685083284974098
40.0,0.026190059259533882
44.0,0.02570565789937973
48.0,0.025238409638404846
52.0,0.024767298251390457
56.0,0.02428906224668026
60.0,0.023815933614969254
64.0,0.023408249020576477
72.0,0.02261357754468918
80.0,0.021888738498091698
88.0,0.021227851510047913
96.0,0.020609281957149506
104.0,0.019959257915616035
112.0,0.01939757727086544
120.0,0.018857084214687347
128.0,0.01834077760577202
144.0,0.017275594174861908
160.0,0.016016369685530663
176.0,0.014970523305237293
192.0,0.014066354371607304
208.0,0.013198371045291424
224.0,0.012539096176624298
240.0,0.012025577947497368
256.0,0.01148796733468771
288.0,0.010853363201022148
320.0,0.010501721873879433
352.0,0.009490523487329483
384.0,0.008204112760722637
416.0,0.007222305983304977
448.0,0.00614396296441555
480.0,0.005740423686802387
512.0,0.005587532185018063
576.0,0.006187520455569029
640.0,0.0061752223409712315
704.0,0.005439703352749348
768.0,0.004735611844807863
832.0,0.00458550313487649
896.0,0.003917821682989597
960.0,0.0033900996204465628
1024.0,0.0021189663093537092
1152.0,0.002784095937386155
1280.0,0.002524210838600993
1408.0,0.0022711032070219517
1536.0,0.004038921557366848
1664.0,0.005959306377917528
1792.0,0.006905784364789724
1920.0,0.005303020589053631
2048.0,0.0031786407344043255
2304.0,0.0013577680801972747
2560.0,-0.00186899583786726
2816.0,-0.003930616658180952
3072.0,-0.00605794508010149
3328.0,-0.00449926033616066
3584.0,-0.002754437969997525
3840.0,-0.0005319397896528244
4096.0,0.001797179807908833
4608.0,-0.0033740426879376173
5120.0,-0.0016234418144449592
5632.0,0.00011657681898213923
6144.0,-0.0011932608904317021
6656.0,-0.008196208626031876
7168.0,-0.015200013294816017
7680.0,-0.007969914935529232
8192.0,-0.00822913646697998
end
