version,3.0
numOfCh,1
type,point
parent_name,34766_0dot069-0dot01
ch_type,1_1
kcount,1
numberNandB,1
brightnessNandB,1
carpet pos,0
pc,0
Time (ms),CH1 Auto-Correlation
1.0,0.04039779305458069
2.0,0.040163762867450714
3.0,0.039930522441864014
4.0,0.039699435234069824
5.0,0.039466895163059235
6.0,0.03924012929201126
7.0,0.03901829198002815
8.0,0.03879910707473755
9.0,0.03858885169029236
10.0,0.038375258445739746
11.0,0.0381663478910923
12.0,0.0379609651863575
13.0,0.03775428980588913
14.0,0.03755662217736244
15.0,0.03736036270856857
16.0,0.03716311976313591
18.0,0.03676434978842735
20.0,0.03636790066957474
22.0,0.03597692400217056
24.0,0.035613056272268295
26.0,0.03528345748782158
28.0,0.034974951297044754
30.0,0.034685153514146805
32.0,0.03439486771821976
36.0,0.033824190497398376
40.0,0.033308643847703934
44.0,0.03275648504495621
48.0,0.032204680144786835
52.0,0.031667083501815796
56.0,0.031202761456370354
60.0,0.030742594972252846
64.0,0.03025656007230282
72.0,0.029383409768342972
80.0,0.028582600876688957
88.0,0.02776101604104042
96.0,0.02701665833592415
104.0,0.026360005140304565
112.0,0.025855397805571556
120.0,0.02535564824938774
128.0,0.02476639673113823
144.0,0.023787375539541245
160.0,0.022861698642373085
176.0,0.022378258407115936
192.0,0.021971607580780983
208.0,0.021616527810692787
224.0,0.021308736875653267
240.0,0.021187081933021545
256.0,0.02121918462216854
288.0,0.020440464839339256
320.0,0.01909058168530464
352.0,0.017563996836543083
384.0,0.016900192946195602
416.0,0.016169138252735138
448.0,0.015142016112804413
480.0,0.014074430800974369
512.0,0.013058778829872608
576.0,0.01102366205304861
640.0,0.009590045548975468
704.0,0.008815152570605278
768.0,0.007881521247327328
832.0,0.006447263527661562
896.0,0.006069851107895374
960.0,0.006454675458371639
1024.0,0.006112473551183939
1152.0,0.001790489419363439
1280.0,0.00036868490860797465
1408.0,-0.0007602851837873459
1536.0,-0.0033686135429888964
1664.0,-0.006089356727898121
1792.0,-0.006748303771018982
1920.0,-0.00967942550778389
2048.0,-0.01251839380711317
2304.0,-0.013314411044120789
2560.0,-0.012490367516875267
2816.0,-0.008720715530216694
3072.0,-0.006686069071292877
3328.0,-0.00585905322805047
3584.0,-0.0017351008718833327
3840.0,0.0020068620797246695
4096.0,0.004400838632136583
4608.0,0.0054944404400885105
5120.0,0.001871882937848568
5632.0,-0.0030138888396322727
6144.0,-0.013304516673088074
6656.0,-0.013318409211933613
7168.0,-0.010952616110444069
7680.0,-0.003259270219132304
8192.0,0.0005626925267279148
end
