version,3.0
numOfCh,1
type,point
parent_name,34766_0dot069-0dot01
ch_type,1_1
kcount,1
numberNandB,1
brightnessNandB,1
carpet pos,0
pc,0
Time (ms),CH1 Auto-Correlation
1.0,0.3700610101222992
2.0,0.36918601393699646
3.0,0.36834341287612915
4.0,0.36751601099967957
5.0,0.36669921875
6.0,0.3658923804759979
7.0,0.36506807804107666
8.0,0.364169716835022
9.0,0.3633069097995758
10.0,0.36242160201072693
11.0,0.3615427017211914
12.0,0.3607148826122284
13.0,0.35986483097076416
14.0,0.3590466380119324
15.0,0.35817858576774597
16.0,0.35733819007873535
18.0,0.3555722236633301
20.0,0.35388118028640747
22.0,0.3521764874458313
24.0,0.3505389094352722
26.0,0.34895649552345276
28.0,0.34734874963760376
30.0,0.34573695063591003
32.0,0.34404030442237854
36.0,0.34075093269348145
40.0,0.3373502194881439
44.0,0.33389827609062195
48.0,0.33039435744285583
52.0,0.32687413692474365
56.0,0.32322806119918823
60.0,0.31952881813049316
64.0,0.31577280163764954
72.0,0.30549031496047974
80.0,0.2974563539028168
88.0,0.2900469899177551
96.0,0.2829236090183258
104.0,0.2758122682571411
112.0,0.2681393325328827
120.0,0.26043879985809326
128.0,0.2533356547355652
144.0,0.24114084243774414
160.0,0.22807767987251282
176.0,0.2135966569185257
192.0,0.19903355836868286
208.0,0.18450987339019775
224.0,0.17058639228343964
240.0,0.15753594040870667
256.0,0.14386209845542908
288.0,0.11284048855304718
320.0,0.08390149474143982
352.0,0.057681020349264145
384.0,0.038380276411771774
416.0,0.03382730111479759
448.0,0.02716314233839512
480.0,0.020642222836613655
512.0,0.015144811943173409
576.0,0.00971552450209856
640.0,0.004225850570946932
704.0,-0.00041484725079499185
768.0,-0.0018701789667829871
832.0,-0.004198858048766851
896.0,-0.008212089538574219
960.0,-0.011285562068223953
1024.0,-0.01239269133657217
1152.0,-0.017179876565933228
1280.0,-0.020141376182436943
1408.0,-0.019958000630140305
1536.0,-0.014717082493007183
1664.0,-0.010460714809596539
1792.0,-0.01223364844918251
1920.0,-0.016858691349625587
2048.0,-0.024087239056825638
2304.0,-0.01656944304704666
2560.0,-0.013892503455281258
2816.0,0.0025053871795535088
3072.0,0.011216257698833942
3328.0,0.015084954909980297
3584.0,0.016083963215351105
3840.0,0.01512556616216898
4096.0,0.007590910419821739
4608.0,-0.021117648109793663
5120.0,-0.019981570541858673
5632.0,-0.0019469604594632983
6144.0,-0.0009094116976484656
6656.0,0.0388837493956089
7168.0,0.015832887962460518
7680.0,-0.02674596942961216
8192.0,-0.04245629161596298
end
