version,3.0
numOfCh,1
type,point
parent_name,34766_0dot069-0dot01
ch_type,1_1
kcount,1
numberNandB,1
brightnessNandB,1
carpet pos,0
pc,0
Time (ms),CH1 Auto-Correlation
1.0,0.026781540364027023
2.0,0.026584403589367867
3.0,0.026385627686977386
4.0,0.02618410438299179
5.0,0.02598593197762966
6.0,0.02579544670879841
7.0,0.02560926042497158
8.0,0.025425713509321213
9.0,0.025244539603590965
10.0,0.025065988302230835
11.0,0.024890277534723282
12.0,0.024716703221201897
13.0,0.024549176916480064
14.0,0.024386826902627945
15.0,0.024221479892730713
16.0,0.024058299139142036
18.0,0.02374306321144104
20.0,0.02343040332198143
22.0,0.023128297179937363
24.0,0.022819694131612778
26.0,0.02250894345343113
28.0,0.022203270345926285
30.0,0.02190295420587063
32.0,0.0216088704764843
36.0,0.02106057107448578
40.0,0.020518044009804726
44.0,0.02000865712761879
48.0,0.01954418048262596
52.0,0.01912466622889042
56.0,0.018730202689766884
60.0,0.018356984481215477
64.0,0.018004007637500763
72.0,0.017269283533096313
80.0,0.016464397311210632
88.0,0.015734372660517693
96.0,0.01509887631982565
104.0,0.014554399065673351
112.0,0.014129296876490116
120.0,0.013806942850351334
128.0,0.013492017984390259
144.0,0.012907632626593113
160.0,0.012189369648694992
176.0,0.011363648809492588
192.0,0.010449407622218132
208.0,0.009339268319308758
224.0,0.008153384551405907
240.0,0.007181849330663681
256.0,0.006583067122846842
288.0,0.005770381074398756
320.0,0.0051247673109173775
352.0,0.004598410800099373
384.0,0.004614760167896748
416.0,0.004801648203283548
448.0,0.004462550859898329
480.0,0.004462654702365398
512.0,0.0049871886149048805
576.0,0.006087534129619598
640.0,0.006101457867771387
704.0,0.006120284553617239
768.0,0.005295340903103352
832.0,0.003902302822098136
896.0,0.0028891453985124826
960.0,0.0010287915356457233
1024.0,4.525208714767359e-05
1152.0,-0.0007739768479950726
1280.0,-0.0001838040043367073
1408.0,-0.0009984280914068222
1536.0,-0.0027009767945855856
1664.0,-0.003549797460436821
1792.0,-0.0018576958682388067
1920.0,-7.747342897346243e-05
2048.0,-0.00016149056318681687
2304.0,-0.0021794417407363653
2560.0,-0.002706084167584777
2816.0,-0.001707458752207458
3072.0,-0.0046003432944417
3328.0,-0.007184785790741444
3584.0,-0.007380947470664978
3840.0,-0.008289572782814503
4096.0,-0.009728830307722092
4608.0,-0.003111916361376643
5120.0,0.0021520585287362337
5632.0,0.005620102398097515
6144.0,0.007649456616491079
6656.0,0.004776457324624062
7168.0,0.0022139567881822586
7680.0,0.0008697640732862055
8192.0,0.002329672919586301
end
