version,3.0
numOfCh,1
type,point
parent_name,34766_0dot069-0dot01
ch_type,1_1
kcount,1
numberNandB,1
brightnessNandB,1
carpet pos,0
pc,0
Time (ms),CH1 Auto-Correlation
1.0,0.028559181839227676
2.0,0.028369098901748657
3.0,0.028176940977573395
4.0,0.02798837050795555
5.0,0.027802640572190285
6.0,0.02762400545179844
7.0,0.02744259312748909
8.0,0.027268772944808006
9.0,0.027098262682557106
10.0,0.026924489066004753
11.0,0.026750896126031876
12.0,0.026579294353723526
13.0,0.026409253478050232
14.0,0.026243768632411957
15.0,0.02607634663581848
16.0,0.025910500437021255
18.0,0.025583505630493164
20.0,0.02527030184864998
22.0,0.0249636247754097
24.0,0.024658003821969032
26.0,0.024358520284295082
28.0,0.024060143157839775
30.0,0.02376650832593441
32.0,0.023485109210014343
36.0,0.022943193092942238
40.0,0.022454306483268738
44.0,0.021976174786686897
48.0,0.021500425413250923
52.0,0.021056436002254486
56.0,0.020628226920962334
60.0,0.02020893432199955
64.0,0.019795693457126617
72.0,0.01897457242012024
80.0,0.018206525593996048
88.0,0.017525603994727135
96.0,0.016842437908053398
104.0,0.016192538663744926
112.0,0.015580694191157818
120.0,0.015014526434242725
128.0,0.014425494708120823
144.0,0.013246291317045689
160.0,0.012140721082687378
176.0,0.011191398836672306
192.0,0.01033069472759962
208.0,0.00949709489941597
224.0,0.00861036404967308
240.0,0.0076193539425730705
256.0,0.006818234454840422
288.0,0.005427271593362093
320.0,0.004007361363619566
352.0,0.003494114149361849
384.0,0.003388260956853628
416.0,0.0034213124308735132
448.0,0.003615807741880417
480.0,0.0034308391623198986
512.0,0.0027527494821697474
576.0,0.002168966457247734
640.0,0.0023625162430107594
704.0,0.0016919896006584167
768.0,8.5863983258605e-05
832.0,0.00012929641525261104
896.0,0.0001788049121387303
960.0,0.0006081018364056945
1024.0,0.0007359777810052037
1152.0,-0.0003324231947772205
1280.0,-0.00147635315079242
1408.0,-0.001897727488540113
1536.0,6.788227619836107e-05
1664.0,0.0007302439771592617
1792.0,0.0004269793862476945
1920.0,0.0009245718247257173
2048.0,0.00266084261238575
2304.0,-3.9364844269584864e-05
2560.0,-0.003213239135220647
2816.0,-0.003582893405109644
3072.0,0.00010700727580115199
3328.0,0.00035736820427700877
3584.0,0.0015088915824890137
3840.0,0.0018534159753471613
4096.0,0.00021876288519706577
4608.0,-0.0016454473370686173
5120.0,0.006702890153974295
5632.0,0.003190182615071535
6144.0,-0.0008719688630662858
6656.0,-0.0016081854701042175
7168.0,0.003709474578499794
7680.0,-0.005608859471976757
8192.0,-0.006921905092895031
end
