version,3.0
numOfCh,1
type,point
parent_name,34766_0dot069-0dot01
ch_type,1_1
kcount,1
numberNandB,1
brightnessNandB,1
carpet pos,0
pc,0
Time (ms),CH1 Auto-Correlation
1.0,0.07713612169027328
2.0,0.07652515172958374
3.0,0.07598365098237991
4.0,0.07546241581439972
5.0,0.0749603658914566
6.0,0.07445904612541199
7.0,0.0739474669098854
8.0,0.0734744742512703
9.0,0.07300107181072235
10.0,0.07248806208372116
11.0,0.07196439802646637
12.0,0.07146865129470825
13.0,0.07094671577215195
14.0,0.07043161243200302
15.0,0.06991414725780487
16.0,0.06940025836229324
18.0,0.06819459795951843
20.0,0.06737780570983887
22.0,0.06651106476783752
24.0,0.06559538096189499
26.0,0.06478123366832733
28.0,0.06400060653686523
30.0,0.06316240131855011
32.0,0.06225796788930893
36.0,0.06044076383113861
40.0,0.058759916573762894
44.0,0.05718955397605896
48.0,0.05571020022034645
52.0,0.054448604583740234
56.0,0.05317812040448189
60.0,0.05201270431280136
64.0,0.0508531779050827
72.0,0.04739002883434296
80.0,0.04517800733447075
88.0,0.04271601513028145
96.0,0.0399790033698082
104.0,0.0371151827275753
112.0,0.03406185656785965
120.0,0.031545765697956085
128.0,0.029071727767586708
144.0,0.02442793734371662
160.0,0.02313157729804516
176.0,0.021921532228589058
192.0,0.020888682454824448
208.0,0.019569439813494682
224.0,0.01821865513920784
240.0,0.016576794907450676
256.0,0.01470605656504631
288.0,0.010650834999978542
320.0,0.008105692453682423
352.0,0.00721536111086607
384.0,0.00669340742751956
416.0,0.00593455508351326
448.0,0.00492277555167675
480.0,0.005117377266287804
512.0,0.005635146517306566
576.0,0.007682801689952612
640.0,0.008978253230452538
704.0,0.00944127794355154
768.0,0.009228706359863281
832.0,0.006224371958523989
896.0,0.0024657861795276403
960.0,-0.0003551360860001296
1024.0,-0.0037886244244873524
1152.0,-0.004812908358871937
1280.0,-0.006602449808269739
1408.0,-0.0062883347272872925
1536.0,-0.003787867957726121
1664.0,-0.006494464352726936
1792.0,-0.006673142313957214
1920.0,-0.007324687205255032
2048.0,-0.002002148889005184
2304.0,-0.0033090419601649046
2560.0,-0.0002906103618443012
2816.0,0.0010331892408430576
3072.0,0.00296772550791502
3328.0,0.0064643812365829945
3584.0,0.007919082418084145
3840.0,0.0026137034874409437
4096.0,-0.0033049944322556257
4608.0,-0.0031826377380639315
5120.0,0.0017770007252693176
5632.0,0.010461950674653053
6144.0,0.005772022996097803
6656.0,0.0032363231293857098
7168.0,-0.005325924605131149
7680.0,-0.013526484370231628
8192.0,-0.004433733876794577
end
