version,3.0
numOfCh,1
type,point
parent_name,34766_0dot069-0dot01
ch_type,1_1
kcount,1
numberNandB,1
brightnessNandB,1
carpet pos,0
pc,0
Time (ms),CH1 Auto-Correlation
1.0,0.025441942736506462
2.0,0.025237098336219788
3.0,0.02502943016588688
4.0,0.024819280952215195
5.0,0.02461222931742668
6.0,0.02440616302192211
7.0,0.024200251325964928
8.0,0.023997202515602112
9.0,0.02380039356648922
10.0,0.023614875972270966
11.0,0.023430628702044487
12.0,0.023246921598911285
13.0,0.023065365850925446
14.0,0.022883916273713112
15.0,0.022708937525749207
16.0,0.022539693862199783
18.0,0.022207899019122124
20.0,0.021877551451325417
22.0,0.02154996246099472
24.0,0.021234462037682533
26.0,0.02092340961098671
28.0,0.02061382122337818
30.0,0.02030622400343418
32.0,0.020003627985715866
36.0,0.019448479637503624
40.0,0.01892784796655178
44.0,0.018445860594511032
48.0,0.018001331016421318
52.0,0.017553500831127167
56.0,0.017110468819737434
60.0,0.016689661890268326
64.0,0.016332164406776428
72.0,0.015642739832401276
80.0,0.01494251936674118
88.0,0.014318818226456642
96.0,0.013794690370559692
104.0,0.013305560685694218
112.0,0.01271733921021223
120.0,0.01206823531538248
128.0,0.011441566050052643
144.0,0.010305872187018394
160.0,0.009511062875390053
176.0,0.00886004138737917
192.0,0.008089229464530945
208.0,0.007414896972477436
224.0,0.006960615050047636
240.0,0.006589672993868589
256.0,0.006267906166613102
288.0,0.005502819549292326
320.0,0.004620626103132963
352.0,0.00372569658793509
384.0,0.003205236978828907
416.0,0.0024765904527157545
448.0,0.0017569120973348618
480.0,0.0006912261596880853
512.0,-0.00038395693991333246
576.0,-0.0020525793079286814
640.0,-0.002855279017239809
704.0,-0.0022281177807599306
768.0,-0.0008308763499371707
832.0,0.00017655134433880448
896.0,-0.00018499410361982882
960.0,-0.0001588354498380795
1024.0,0.0004633858916349709
1152.0,0.002917426871135831
1280.0,0.0028262424748390913
1408.0,-0.0005968953482806683
1536.0,-0.0026582004502415657
1664.0,-0.0046816118992865086
1792.0,-0.006539494730532169
1920.0,-0.004546483512967825
2048.0,-0.0031595074106007814
2304.0,-0.0006390379276126623
2560.0,0.002938483841717243
2816.0,0.003454561810940504
3072.0,0.00363720185123384
3328.0,0.0002193423715652898
3584.0,-0.002716277027502656
3840.0,-0.0005210372619330883
4096.0,0.0022144089452922344
4608.0,-0.0063377623446285725
5120.0,-0.001972572412341833
5632.0,0.0012462744489312172
6144.0,-0.0006418538396246731
6656.0,0.0035940834786742926
7168.0,-0.004219360649585724
7680.0,-0.0024030001368373632
8192.0,-0.004270664881914854
end
