version,3.0
numOfCh,1
type,point
parent_name,34766_0dot069-0dot01
ch_type,1_1
kcount,1
numberNandB,1
brightnessNandB,1
carpet pos,0
pc,0
Time (ms),CH1 Auto-Correlation
1.0,0.043326184153556824
2.0,0.043020181357860565
3.0,0.04272480681538582
4.0,0.04244396463036537
5.0,0.042178258299827576
6.0,0.04190770164132118
7.0,0.04165232554078102
8.0,0.04140034690499306
9.0,0.041163600981235504
10.0,0.040915071964263916
11.0,0.04068288207054138
12.0,0.04045146331191063
13.0,0.040221408009529114
14.0,0.039991721510887146
15.0,0.03976089507341385
16.0,0.03953695297241211
18.0,0.03910939395427704
20.0,0.03868613764643669
22.0,0.038242191076278687
24.0,0.037762392312288284
26.0,0.03729970380663872
28.0,0.036828767508268356
30.0,0.03639530763030052
32.0,0.03597177192568779
36.0,0.0350382998585701
40.0,0.034116268157958984
44.0,0.03325696662068367
48.0,0.0324806272983551
52.0,0.0317586250603199
56.0,0.03106841817498207
60.0,0.030421122908592224
64.0,0.029843473806977272
72.0,0.028548046946525574
80.0,0.0273516196757555
88.0,0.02656836062669754
96.0,0.025908801704645157
104.0,0.025178326293826103
112.0,0.024540632963180542
120.0,0.02398274652659893
128.0,0.02342796139419079
144.0,0.02229597233235836
160.0,0.021470779553055763
176.0,0.020722124725580215
192.0,0.01995914988219738
208.0,0.01855144277215004
224.0,0.016548482701182365
240.0,0.01466243714094162
256.0,0.013128194026648998
288.0,0.010940133593976498
320.0,0.009023148566484451
352.0,0.006340860389173031
384.0,0.003950630314648151
416.0,0.0017164403107017279
448.0,-0.00010131631279364228
480.0,-0.0019907476380467415
512.0,-0.003562006400898099
576.0,-0.003989017102867365
640.0,-0.00578429875895381
704.0,-0.006400240119546652
768.0,-0.009036150760948658
832.0,-0.007431271485984325
896.0,-0.0057938615791499615
960.0,-0.006290110293775797
1024.0,-0.0045288498513400555
1152.0,-0.0040952288545668125
1280.0,-0.0027800854295492172
1408.0,-0.004938854370266199
1536.0,-0.0054602543823421
1664.0,-0.0058316197246313095
1792.0,-0.005015798378735781
1920.0,-0.002660103142261505
2048.0,-0.0027822484262287617
2304.0,-0.003754489589482546
2560.0,-0.006428450345993042
2816.0,-0.0036866464652121067
3072.0,-0.0016989759169518948
3328.0,-0.0017781370552256703
3584.0,0.001747745438478887
3840.0,0.006276355125010014
4096.0,0.01464396994560957
4608.0,-0.006740199401974678
5120.0,-0.007034082897007465
5632.0,-0.0029507481958717108
6144.0,-0.006918466184288263
6656.0,-0.0028031880501657724
7168.0,0.02434002235531807
end
