version,3.0
numOfCh,1
type,point
parent_name,34766_0dot069-0dot01
ch_type,1_1
kcount,1
numberNandB,1
brightnessNandB,1
carpet pos,0
pc,0
Time (ms),CH1 Auto-Correlation
1.0,0.03574133664369583
2.0,0.03554230555891991
3.0,0.035342179238796234
4.0,0.03514056280255318
5.0,0.03493724763393402
6.0,0.03474537283182144
7.0,0.03455608710646629
8.0,0.03437042981386185
9.0,0.03418080881237984
10.0,0.03398938104510307
11.0,0.0337965190410614
12.0,0.03359880670905113
13.0,0.03340281918644905
14.0,0.03319818899035454
15.0,0.03300416097044945
16.0,0.03281407803297043
18.0,0.03244052454829216
20.0,0.03208418935537338
22.0,0.03172662854194641
24.0,0.03136603161692619
26.0,0.031018495559692383
28.0,0.03068605437874794
30.0,0.03036605939269066
32.0,0.030075034126639366
36.0,0.029486387968063354
40.0,0.028899678960442543
44.0,0.028344621881842613
48.0,0.02781062200665474
52.0,0.02729380689561367
56.0,0.026780404150485992
60.0,0.0262372437864542
64.0,0.0256971325725317
72.0,0.02466236613690853
80.0,0.023833459243178368
88.0,0.023106170818209648
96.0,0.022348254919052124
104.0,0.02157217636704445
112.0,0.020746249705553055
120.0,0.019913997501134872
128.0,0.0191834457218647
144.0,0.017956938594579697
160.0,0.017003148794174194
176.0,0.015981566160917282
192.0,0.015110856853425503
208.0,0.014437905512750149
224.0,0.013599473983049393
240.0,0.012748906388878822
256.0,0.012174817733466625
288.0,0.010619751177728176
320.0,0.009090985171496868
352.0,0.007960044778883457
384.0,0.007333529647439718
416.0,0.007050151936709881
448.0,0.006421421188861132
480.0,0.005598228890448809
512.0,0.004879008512943983
576.0,0.004191478248685598
640.0,0.00289687467738986
704.0,0.001712387427687645
768.0,-0.0008131633512675762
832.0,-0.002423578407615423
896.0,-0.004650760907679796
960.0,-0.006617287639528513
1024.0,-0.0061680590733885765
1152.0,-0.0029502646066248417
1280.0,-0.0012831200147047639
1408.0,-0.0028584939427673817
1536.0,-0.0030123856849968433
1664.0,0.0014505910221487284
1792.0,0.008684623055160046
1920.0,0.010612363927066326
2048.0,0.007829953916370869
2304.0,-0.0011826656991615891
2560.0,-0.0019278855761513114
2816.0,-0.0016496754251420498
3072.0,0.003290492342785001
3328.0,-5.367111953091808e-05
3584.0,0.0018109340453520417
3840.0,0.004095112904906273
4096.0,-0.0008023119880817831
4608.0,-0.004413670394569635
5120.0,-0.007899271324276924
5632.0,-0.0033970291260629892
6144.0,-0.006272989325225353
6656.0,-0.010526229627430439
7168.0,-0.006036102306097746
7680.0,0.006313492078334093
8192.0,-0.030024826526641846
end
