version,3.0
numOfCh,1
type,point
parent_name,34766_0dot069-0dot01
ch_type,1_1
kcount,1
numberNandB,1
brightnessNandB,1
carpet pos,0
pc,0
Time (ms),CH1 Auto-Correlation
1.0,0.031070871278643608
2.0,0.030889976769685745
3.0,0.030711235478520393
4.0,0.03053770773112774
5.0,0.030367376282811165
6.0,0.030202040448784828
7.0,0.03004002757370472
8.0,0.029881086200475693
9.0,0.029721301048994064
10.0,0.029567182064056396
11.0,0.029415003955364227
12.0,0.029268233105540276
13.0,0.029126599431037903
14.0,0.028985895216464996
15.0,0.02885056845843792
16.0,0.028718998655676842
18.0,0.028458818793296814
20.0,0.02820943482220173
22.0,0.02795826643705368
24.0,0.027708375826478004
26.0,0.027455808594822884
28.0,0.02718771994113922
30.0,0.026920830830931664
32.0,0.026670239865779877
36.0,0.02617417834699154
40.0,0.025693582370877266
44.0,0.025242362171411514
48.0,0.02481008693575859
52.0,0.024377092719078064
56.0,0.02394307591021061
60.0,0.023519735783338547
64.0,0.02310623787343502
72.0,0.022355537861585617
80.0,0.021643832325935364
88.0,0.021008433774113655
96.0,0.02039756253361702
104.0,0.019867511466145515
112.0,0.01937076449394226
120.0,0.018885867670178413
128.0,0.018404899165034294
144.0,0.017519796267151833
160.0,0.016847804188728333
176.0,0.016253765672445297
192.0,0.015674350783228874
208.0,0.015112511813640594
224.0,0.014398278668522835
240.0,0.0135927964001894
256.0,0.012757835909724236
288.0,0.011110722087323666
320.0,0.009711978025734425
352.0,0.008735064417123795
384.0,0.008037091232836246
416.0,0.00781310722231865
448.0,0.0068582030944526196
480.0,0.005597265437245369
512.0,0.004998075310140848
576.0,0.004565488081425428
640.0,0.004359721671789885
704.0,0.004495395813137293
768.0,0.005293106194585562
832.0,0.0053140525706112385
896.0,0.004945139400660992
960.0,0.004016219638288021
1024.0,0.002830719808116555
1152.0,-0.0005931853665970266
1280.0,-0.003774965414777398
1408.0,-0.004358229693025351
1536.0,-0.0028917710296809673
1664.0,-0.001054421067237854
1792.0,0.000537897169124335
1920.0,0.0010147073771804571
2048.0,-0.00123816158156842
2304.0,-0.002944883657619357
2560.0,-0.0008116567623801529
2816.0,0.0003639638307504356
3072.0,-0.0002788393176160753
3328.0,-0.00223285099491477
3584.0,-0.003427316201850772
3840.0,-0.003599506104364991
4096.0,-0.0038550114259123802
4608.0,-0.004070445895195007
5120.0,-0.0009919475996866822
5632.0,-0.0009986275108531117
6144.0,-0.0010457970201969147
6656.0,0.0030602288898080587
7168.0,0.00813484936952591
7680.0,0.001826466410420835
8192.0,-0.00257486361078918
end
