version,3.0
numOfCh,1
type,point
parent_name,34766_0dot069-0dot01
ch_type,1_1
kcount,1
numberNandB,1
brightnessNandB,1
carpet pos,0
pc,0
Time (ms),CH1 Auto-Correlation
1.0,0.04516668617725372
2.0,0.044753819704055786
3.0,0.04432477429509163
4.0,0.043920017778873444
5.0,0.04349162429571152
6.0,0.04308559000492096
7.0,0.04267755523324013
8.0,0.042276449501514435
9.0,0.041850537061691284
10.0,0.041443489491939545
11.0,0.04103785753250122
12.0,0.0406339131295681
13.0,0.04020179435610771
14.0,0.03977299481630325
15.0,0.03930399939417839
16.0,0.038889821618795395
18.0,0.038093920797109604
20.0,0.03733951970934868
22.0,0.03659668192267418
24.0,0.03579350933432579
26.0,0.03492174297571182
28.0,0.034006644040346146
30.0,0.03307967260479927
32.0,0.032176412642002106
36.0,0.03047950379550457
40.0,0.02882451005280018
44.0,0.02724270522594452
48.0,0.025920040905475616
52.0,0.02469678595662117
56.0,0.023768184706568718
60.0,0.023023482412099838
64.0,0.022474117577075958
72.0,0.021464044228196144
80.0,0.02054790034890175
88.0,0.020046405494213104
96.0,0.019729072228074074
104.0,0.01913483627140522
112.0,0.0182548388838768
120.0,0.017535312101244926
128.0,0.01700707897543907
144.0,0.01568654552102089
160.0,0.014751839451491833
176.0,0.014415482059121132
192.0,0.013680159114301205
208.0,0.012650257907807827
224.0,0.010946976020932198
240.0,0.00976657122373581
256.0,0.008522278629243374
288.0,0.007958296686410904
320.0,0.008233234286308289
352.0,0.008310377597808838
384.0,0.0076285796239972115
416.0,0.007045723497867584
448.0,0.007486047223210335
480.0,0.006046993192285299
512.0,0.002746349200606346
576.0,0.0039548431523144245
640.0,0.003118927124887705
704.0,0.004107041750103235
768.0,0.003811268135905266
832.0,0.0016800259472802281
896.0,0.0020088772289454937
960.0,0.0004318316641729325
1024.0,-0.0008930087205953896
1152.0,-0.002073578769341111
1280.0,-3.3367097785230726e-05
1408.0,0.0031734921503812075
1536.0,0.001684911665506661
1664.0,0.0004488163103815168
1792.0,0.0025219416711479425
1920.0,0.0010482444195076823
2048.0,-7.70568149164319e-05
2304.0,-0.0006723418482579291
2560.0,-0.00444991048425436
2816.0,-0.004693365655839443
3072.0,-0.006162520032376051
3328.0,-0.007067045196890831
3584.0,-0.0075857085175812244
3840.0,-0.0121046407148242
4096.0,-0.009544502012431622
4608.0,-0.003692045109346509
5120.0,-0.003870907938107848
5632.0,0.0005449787131510675
6144.0,-0.0015384582802653313
6656.0,0.007519854698330164
7168.0,0.006559098605066538
7680.0,0.004621000960469246
8192.0,0.0002817423373926431
end
