version,3.0
numOfCh,1
type,point
parent_name,34766_0dot069-0dot01
ch_type,1_1
kcount,1
numberNandB,1
brightnessNandB,1
carpet pos,0
pc,0
Time (ms),CH1 Auto-Correlation
1.0,0.03261421248316765
2.0,0.03240465745329857
3.0,0.032202403992414474
4.0,0.032000478357076645
5.0,0.03179718554019928
6.0,0.03160001337528229
7.0,0.03140415996313095
8.0,0.03120925836265087
9.0,0.03101038932800293
10.0,0.030816946178674698
11.0,0.030623378232121468
12.0,0.03043411858379841
13.0,0.030248114839196205
14.0,0.03005816787481308
15.0,0.029865438118577003
16.0,0.029674120247364044
18.0,0.0293001439422369
20.0,0.028946014121174812
22.0,0.02859940566122532
24.0,0.028245145455002785
26.0,0.027888992801308632
28.0,0.02754686027765274
30.0,0.02722129039466381
32.0,0.026889771223068237
36.0,0.02624637447297573
40.0,0.025612149387598038
44.0,0.02500692568719387
48.0,0.024438707157969475
52.0,0.023903636261820793
56.0,0.023385120555758476
60.0,0.02285962551832199
64.0,0.02236904390156269
72.0,0.021524840965867043
80.0,0.020764963701367378
88.0,0.020146919414401054
96.0,0.01953386887907982
104.0,0.018870988860726357
112.0,0.018209751695394516
120.0,0.01760273240506649
128.0,0.01704016514122486
144.0,0.01610325463116169
160.0,0.015355639159679413
176.0,0.014684141613543034
192.0,0.014107498340308666
208.0,0.0133883748203516
224.0,0.012525654397904873
240.0,0.011813635937869549
256.0,0.011475448496639729
288.0,0.010727345943450928
320.0,0.009596728719770908
352.0,0.008772678673267365
384.0,0.008821042254567146
416.0,0.008719565346837044
448.0,0.00806494615972042
480.0,0.007757008075714111
512.0,0.007430561352521181
576.0,0.006220128852874041
640.0,0.005717312917113304
704.0,0.006050750147551298
768.0,0.005651343148201704
832.0,0.005640639457851648
896.0,0.005404063034802675
960.0,0.0052448902279138565
1024.0,0.004321360029280186
1152.0,0.002725588157773018
1280.0,0.003679535584524274
1408.0,0.0032534990459680557
1536.0,0.0028006890788674355
1664.0,0.003708816133439541
1792.0,0.005640670191496611
1920.0,0.0059958891943097115
2048.0,0.0050399512983858585
2304.0,0.0015476514818146825
2560.0,0.0008723349310457706
2816.0,0.001881102449260652
3072.0,0.0012741145910695195
3328.0,0.0018535510171204805
3584.0,-0.0009563775965943933
3840.0,-0.005949812009930611
4096.0,-0.008710047230124474
4608.0,-0.006423653103411198
5120.0,-0.0027973465621471405
5632.0,-0.00291619380004704
6144.0,-0.0016905837692320347
6656.0,-0.0012059188447892666
7168.0,-0.004002013243734837
7680.0,-0.004216758068650961
8192.0,0.0003585752856452018
end
