version,3.0
numOfCh,1
type,point
parent_name,34766_0dot069-0dot01
ch_type,1_1
kcount,1
numberNandB,1
brightnessNandB,1
carpet pos,0
pc,0
Time (ms),CH1 Auto-Correlation
1.0,0.23964953422546387
2.0,0.23854434490203857
3.0,0.23743300139904022
4.0,0.23618990182876587
5.0,0.2349826842546463
6.0,0.2337522655725479
7.0,0.2325076013803482
8.0,0.23128506541252136
9.0,0.2299998551607132
10.0,0.22869335114955902
11.0,0.22738033533096313
12.0,0.22602467238903046
13.0,0.22466245293617249
14.0,0.22327609360218048
15.0,0.22184842824935913
16.0,0.22047285735607147
18.0,0.21764151751995087
20.0,0.21471942961215973
22.0,0.21176469326019287
24.0,0.20881015062332153
26.0,0.20577841997146606
28.0,0.20275922119617462
30.0,0.19986575841903687
32.0,0.19703525304794312
36.0,0.19110655784606934
40.0,0.1851290911436081
44.0,0.17926834523677826
48.0,0.17347173392772675
52.0,0.1676880419254303
56.0,0.16182777285575867
60.0,0.15603649616241455
64.0,0.1504480242729187
72.0,0.139249786734581
80.0,0.12762078642845154
88.0,0.11556514352560043
96.0,0.1029018685221672
104.0,0.09064022451639175
112.0,0.07821846008300781
120.0,0.06549780070781708
128.0,0.053313661366701126
144.0,0.0353676974773407
160.0,0.03074512630701065
176.0,0.027752501890063286
192.0,0.024396179243922234
208.0,0.02117544412612915
224.0,0.0190380048006773
240.0,0.017460111528635025
256.0,0.014751744456589222
288.0,0.009645654819905758
320.0,0.006438573356717825
352.0,0.006922519765794277
384.0,0.007954340428113937
416.0,0.010381968691945076
448.0,0.010825789533555508
480.0,0.01267566904425621
512.0,0.01432796474546194
576.0,0.020523924380540848
640.0,0.02700169011950493
704.0,0.027231205254793167
768.0,0.019141554832458496
832.0,0.006712865550071001
896.0,-0.0031999736092984676
960.0,-0.004478039685636759
1024.0,-0.0009783905697986484
1152.0,0.007318754214793444
1280.0,0.00205981289036572
1408.0,-0.0039228699170053005
1536.0,0.0013125325785949826
1664.0,-0.0008692063274793327
1792.0,-0.011243247427046299
1920.0,-0.0072575160302221775
2048.0,-0.01657521165907383
2304.0,-0.004990414250642061
2560.0,-0.007281852420419455
2816.0,-0.018331998959183693
3072.0,0.00030327451531775296
3328.0,-0.006149087101221085
3584.0,-0.013160841539502144
3840.0,-0.0015557021833956242
4096.0,0.012587674893438816
4608.0,0.00855755154043436
5120.0,0.006695306859910488
5632.0,0.0003050333762075752
6144.0,-0.027709143236279488
6656.0,-0.049413252621889114
7168.0,-0.07517886161804199
7680.0,-0.04547708109021187
8192.0,-0.02739938721060753
end
