version,3.0
numOfCh,1
type,point
parent_name,34766_0dot069-0dot01
ch_type,1_1
kcount,1
numberNandB,1
brightnessNandB,1
carpet pos,0
pc,0
Time (ms),CH1 Auto-Correlation
1.0,0.16686655580997467
2.0,0.16645556688308716
3.0,0.16602565348148346
4.0,0.16560648381710052
5.0,0.16519632935523987
6.0,0.16482660174369812
7.0,0.16445276141166687
8.0,0.1640929877758026
9.0,0.16369546949863434
10.0,0.16328100860118866
11.0,0.16288481652736664
12.0,0.16246940195560455
13.0,0.16204723715782166
14.0,0.16161659359931946
15.0,0.16121405363082886
16.0,0.16079312562942505
18.0,0.1599525511264801
20.0,0.15907444059848785
22.0,0.1581912636756897
24.0,0.15733827650547028
26.0,0.15647345781326294
28.0,0.15557990968227386
30.0,0.1546768695116043
32.0,0.15378278493881226
36.0,0.15214714407920837
40.0,0.15061335265636444
44.0,0.14926376938819885
48.0,0.14805622398853302
52.0,0.14692693948745728
56.0,0.14576712250709534
60.0,0.14464451372623444
64.0,0.1435062140226364
72.0,0.14081475138664246
80.0,0.1379234790802002
88.0,0.13492512702941895
96.0,0.131976917386055
104.0,0.1289042979478836
112.0,0.1260087490081787
120.0,0.123311348259449
128.0,0.12057854980230331
144.0,0.1141032874584198
160.0,0.10629986226558685
176.0,0.09873368591070175
192.0,0.09266608953475952
208.0,0.08725432306528091
224.0,0.08225519955158234
240.0,0.07729660719633102
256.0,0.07201863080263138
288.0,0.06300663203001022
320.0,0.05526967719197273
352.0,0.05000189691781998
384.0,0.04533306509256363
416.0,0.04116428643465042
448.0,0.03913669288158417
480.0,0.03770631551742554
512.0,0.036914292722940445
576.0,0.033461280167102814
640.0,0.03099524974822998
704.0,0.03019767813384533
768.0,0.033026229590177536
832.0,0.036851707845926285
896.0,0.04287194833159447
960.0,0.0488518550992012
1024.0,0.05113412067294121
1152.0,0.04460223764181137
1280.0,0.031027881428599358
1408.0,0.01095493696630001
1536.0,-0.008210458792746067
1664.0,-0.02153046429157257
1792.0,-0.02240011654794216
1920.0,-0.018461009487509727
2048.0,-0.013005856424570084
2304.0,-0.012504387646913528
2560.0,-0.01792593114078045
2816.0,-0.020156176760792732
3072.0,-0.023185597732663155
3328.0,-0.012714873999357224
3584.0,-0.013792026787996292
3840.0,-0.004013114608824253
4096.0,-0.0035892766900360584
4608.0,-0.0043009864166378975
5120.0,-0.004917058628052473
5632.0,-0.011413227766752243
6144.0,0.00676930183544755
6656.0,0.02932799607515335
7168.0,0.01814442314207554
7680.0,-0.006814080290496349
8192.0,-0.04301118478178978
end
