version,3.0
numOfCh,1
type,point
parent_name,34766_0dot069-0dot01
ch_type,1_1
kcount,1
numberNandB,1
brightnessNandB,1
carpet pos,0
pc,0
Time (ms),CH1 Auto-Correlation
1.0,0.0448775440454483
2.0,0.04467414692044258
3.0,0.044473156332969666
4.0,0.04427441954612732
5.0,0.0440799854695797
6.0,0.04388576000928879
7.0,0.04369880631566048
8.0,0.04351567476987839
9.0,0.04333484172821045
10.0,0.043157145380973816
11.0,0.04298265278339386
12.0,0.04281392693519592
13.0,0.042651038616895676
14.0,0.04248867183923721
15.0,0.04231954738497734
16.0,0.042151886969804764
18.0,0.041816916316747665
20.0,0.04149099066853523
22.0,0.04118930920958519
24.0,0.04089568555355072
26.0,0.04060773178935051
28.0,0.04031280428171158
30.0,0.04001525416970253
32.0,0.03971591964364052
36.0,0.03915785625576973
40.0,0.03863668814301491
44.0,0.03811311721801758
48.0,0.03758728504180908
52.0,0.03708174079656601
56.0,0.036617763340473175
60.0,0.036168117076158524
64.0,0.03573593124747276
72.0,0.0348331443965435
80.0,0.03392711654305458
88.0,0.033096183091402054
96.0,0.03224672004580498
104.0,0.031348127871751785
112.0,0.030439533293247223
120.0,0.029581738635897636
128.0,0.028829917311668396
144.0,0.02744409441947937
160.0,0.02633536420762539
176.0,0.02546525187790394
192.0,0.024569891393184662
208.0,0.023811830207705498
224.0,0.02328214980661869
240.0,0.023023247718811035
256.0,0.02283840999007225
288.0,0.022462813183665276
320.0,0.022108187898993492
352.0,0.021699415519833565
384.0,0.020515767857432365
416.0,0.019227147102355957
448.0,0.017551401630043983
480.0,0.015849260613322258
512.0,0.014504576101899147
576.0,0.012358980253338814
640.0,0.010968622751533985
704.0,0.010179969482123852
768.0,0.009329451248049736
832.0,0.00856669433414936
896.0,0.00777360238134861
960.0,0.008039594627916813
1024.0,0.009036541916429996
1152.0,0.008762024343013763
1280.0,0.006400281563401222
1408.0,0.0052159507758915424
1536.0,0.007029842119663954
1664.0,0.006867211777716875
1792.0,0.0066539216786623
1920.0,0.007695379201322794
2048.0,0.010017206892371178
2304.0,0.01291605457663536
2560.0,0.012228480540215969
2816.0,0.008498718030750751
3072.0,0.006349906325340271
3328.0,0.006334606092423201
3584.0,0.00018865424499381334
3840.0,-0.0029906772542744875
4096.0,-0.0025873843114823103
4608.0,2.522965041862335e-05
5120.0,-0.005367835517972708
5632.0,-0.008342621847987175
6144.0,-0.011255462653934956
6656.0,-0.008129172027111053
7168.0,-0.006998283788561821
7680.0,-0.0062642148695886135
8192.0,-0.011158470064401627
end
