version,3.0
numOfCh,1
type,point
parent_name,34766_0dot1-0dot01
ch_type,1_1
kcount,1
numberNandB,1
brightnessNandB,1
carpet pos,0
pc,0
Time (ms),CH1 Auto-Correlation
1.0,0.02024739608168602
2.0,0.020049573853611946
3.0,0.019857970997691154
4.0,0.019670778885483742
5.0,0.01948731020092964
6.0,0.0193090308457613
7.0,0.01913737878203392
8.0,0.018966734409332275
9.0,0.01879836432635784
10.0,0.018624819815158844
11.0,0.018457133322954178
12.0,0.01829318329691887
13.0,0.018137825652956963
14.0,0.017983200028538704
15.0,0.017831899225711823
16.0,0.01768368110060692
18.0,0.01738213375210762
20.0,0.017086714506149292
22.0,0.016791759058833122
24.0,0.016501396894454956
26.0,0.016225745901465416
28.0,0.01595892384648323
30.0,0.015702279284596443
32.0,0.01545670349150896
36.0,0.0150136174634099
40.0,0.014617596752941608
44.0,0.014241954311728477
48.0,0.013879867270588875
52.0,0.013529287651181221
56.0,0.013182178139686584
60.0,0.012813030742108822
64.0,0.01243288442492485
72.0,0.011730680242180824
80.0,0.011125360615551472
88.0,0.010566642507910728
96.0,0.010069270618259907
104.0,0.009629379957914352
112.0,0.00926278531551361
120.0,0.00895661860704422
128.0,0.008696693927049637
144.0,0.00824961718171835
160.0,0.007777657825499773
176.0,0.007414520252496004
192.0,0.007092058192938566
208.0,0.00686541385948658
224.0,0.006733803544193506
240.0,0.0066116624511778355
256.0,0.00635642372071743
288.0,0.005488105583935976
320.0,0.00445675291121006
352.0,0.0036597931757569313
384.0,0.0028179616201668978
416.0,0.002335525583475828
448.0,0.002323995577171445
480.0,0.0023073330521583557
512.0,0.002263076603412628
576.0,0.002169487066566944
640.0,0.0017991939093917608
704.0,0.001366559648886323
768.0,0.0005750776617787778
832.0,0.0003453475364949554
896.0,0.00048718415200710297
960.0,0.0018383722053840756
1024.0,0.0027981058228760958
1152.0,0.003220038954168558
1280.0,0.0035793676506727934
1408.0,0.0034518688917160034
1536.0,0.0026695572305470705
1664.0,0.0023285013157874346
1792.0,0.0014451214810833335
1920.0,0.0007073517772369087
2048.0,7.694355736020952e-05
2304.0,0.0017847123090177774
2560.0,0.0012086485512554646
2816.0,0.0004153300542384386
3072.0,-0.0015627366956323385
3328.0,-0.0018633861327543855
3584.0,-0.0011810698779299855
3840.0,-0.0007867110543884337
4096.0,-0.0021098684519529343
4608.0,-0.001845002407208085
5120.0,-0.0010725590400397778
5632.0,-0.0033772767055779696
6144.0,-0.000894758733920753
6656.0,0.0004884572699666023
7168.0,0.000660433666780591
7680.0,0.0030585380736738443
8192.0,9.970997052732855e-05
end
