version,3.0
numOfCh,1
type,point
parent_name,34766_0dot1-0dot01
ch_type,1_1
kcount,1
numberNandB,1
brightnessNandB,1
carpet pos,0
pc,0
Time (ms),CH1 Auto-Correlation
1.0,0.031879886984825134
2.0,0.031674306839704514
3.0,0.03147964924573898
4.0,0.03129177168011665
5.0,0.03109273687005043
6.0,0.030906638130545616
7.0,0.03072221763432026
8.0,0.03053467348217964
9.0,0.030341703444719315
10.0,0.0301502775400877
11.0,0.02996032126247883
12.0,0.029774758964776993
13.0,0.029585959389805794
14.0,0.029398052021861076
15.0,0.029208265244960785
16.0,0.029014313593506813
18.0,0.028576144948601723
20.0,0.028198225423693657
22.0,0.027813203632831573
24.0,0.027411870658397675
26.0,0.02702307142317295
28.0,0.026649126783013344
30.0,0.02629515342414379
32.0,0.02594398520886898
36.0,0.02522856742143631
40.0,0.024518487975001335
44.0,0.02380903996527195
48.0,0.023103732615709305
52.0,0.022429926320910454
56.0,0.021818110719323158
60.0,0.021269727498292923
64.0,0.020740292966365814
72.0,0.019551808014512062
80.0,0.018529463559389114
88.0,0.017543265596032143
96.0,0.016800912097096443
104.0,0.016158662736415863
112.0,0.015550297684967518
120.0,0.014928344637155533
128.0,0.014329912140965462
144.0,0.012871548533439636
160.0,0.01151003036648035
176.0,0.009869778528809547
192.0,0.008061596192419529
208.0,0.006423222832381725
224.0,0.005209758877754211
240.0,0.004185887984931469
256.0,0.003329268656671047
288.0,0.002209753030911088
320.0,0.0012848316691815853
352.0,0.0008034331258386374
384.0,0.001058426802046597
416.0,0.0018147658556699753
448.0,0.002269398421049118
480.0,0.002609961200505495
512.0,0.002907118760049343
576.0,0.0030420327093452215
640.0,0.003042571246623993
704.0,0.003255614312365651
768.0,0.002212037332355976
832.0,0.0009981263428926468
896.0,0.00010662282147677615
960.0,-0.0013923023361712694
1024.0,-0.003434759797528386
1152.0,-0.002680789912119508
1280.0,-0.00029769985121674836
1408.0,-1.1599598110478837e-05
1536.0,-0.0016438283491879702
1664.0,-0.0008122313884086907
1792.0,-0.0005929107428528368
1920.0,-0.00027848200988955796
2048.0,-0.000494023784995079
2304.0,-0.0034842523746192455
2560.0,0.0012021175352856517
2816.0,-0.00012782873818650842
3072.0,-0.00047436324530281126
3328.0,0.0001250545756192878
3584.0,-0.0001867752434918657
3840.0,-0.0007526364061050117
4096.0,-0.0009483957546763122
4608.0,-0.00436991173774004
5120.0,-0.0027901881840080023
5632.0,-0.002420480363070965
6144.0,-0.0009365513687953353
6656.0,-0.002189443213865161
7168.0,-0.004850293509662151
7680.0,-0.001710650627501309
8192.0,-0.0032682542223483324
end
