version,3.0
numOfCh,1
type,point
parent_name,34766_0dot1-0dot01
ch_type,1_1
kcount,1
numberNandB,1
brightnessNandB,1
carpet pos,0
pc,0
Time (ms),CH1 Auto-Correlation
1.0,0.03922722116112709
2.0,0.0389862135052681
3.0,0.03875403851270676
4.0,0.038532134145498276
5.0,0.038316741585731506
6.0,0.03810983523726463
7.0,0.037907008081674576
8.0,0.03771441802382469
9.0,0.03752852603793144
10.0,0.03734458237886429
11.0,0.03716364502906799
12.0,0.036970727145671844
13.0,0.036776624619960785
14.0,0.03659530356526375
15.0,0.0364169180393219
16.0,0.03623950481414795
18.0,0.03585824742913246
20.0,0.035527318716049194
22.0,0.035192470997571945
24.0,0.03486575558781624
26.0,0.03455304726958275
28.0,0.034238655120134354
30.0,0.03391580283641815
32.0,0.03361586108803749
36.0,0.03307221457362175
40.0,0.03251003473997116
44.0,0.03193969279527664
48.0,0.031390685588121414
52.0,0.03091082163155079
56.0,0.03049391880631447
60.0,0.030095122754573822
64.0,0.029695583507418633
72.0,0.028977759182453156
80.0,0.028146741911768913
88.0,0.027323946356773376
96.0,0.02659948728978634
104.0,0.02579396218061447
112.0,0.024968521669507027
120.0,0.024159317836165428
128.0,0.023572558537125587
144.0,0.02270575612783432
160.0,0.021874919533729553
176.0,0.021085726097226143
192.0,0.020278776064515114
208.0,0.019457118585705757
224.0,0.01871839351952076
240.0,0.01790187694132328
256.0,0.01713109016418457
288.0,0.015656737610697746
320.0,0.013923753052949905
352.0,0.012727675028145313
384.0,0.01163263339549303
416.0,0.010525916703045368
448.0,0.009228426963090897
480.0,0.008395379409193993
512.0,0.008204976096749306
576.0,0.005872420035302639
640.0,0.0037163204979151487
704.0,0.0025629603769630194
768.0,0.002507234690710902
832.0,0.0025139579083770514
896.0,0.002112295711413026
960.0,0.002710873493924737
1024.0,0.00446117902174592
1152.0,0.005493872798979282
1280.0,0.005663480143994093
1408.0,0.00462949788197875
1536.0,0.003949017263948917
1664.0,0.004418328870087862
1792.0,0.005991632118821144
1920.0,0.007616017945110798
2048.0,0.0070108710788190365
2304.0,0.00406173150986433
2560.0,0.0005976147367618978
2816.0,-0.002382280072197318
3072.0,4.438559244590579e-06
3328.0,0.0017025809502229095
3584.0,0.002538926899433136
3840.0,0.0018144058994948864
4096.0,0.0004581671964842826
4608.0,-0.00031266649602912366
5120.0,0.003139598062261939
5632.0,0.0012067335192114115
6144.0,-0.0070667564868927
6656.0,-0.0006344504654407501
7168.0,0.00048760726349428296
7680.0,-0.0014503104612231255
8192.0,-0.00289392308332026
end
