version,3.0
numOfCh,1
type,point
parent_name,34766_0dot1-0dot01
ch_type,1_1
kcount,1
numberNandB,1
brightnessNandB,1
carpet pos,0
pc,0
Time (ms),CH1 Auto-Correlation
1.0,0.02360466495156288
2.0,0.02341974526643753
3.0,0.023237058892846107
4.0,0.02305554412305355
5.0,0.02288126014173031
6.0,0.022708063945174217
7.0,0.02253936044871807
8.0,0.02237316220998764
9.0,0.022207360714673996
10.0,0.022044437006115913
11.0,0.021887892857193947
12.0,0.021731941029429436
13.0,0.021582890301942825
14.0,0.02143278904259205
15.0,0.021281786262989044
16.0,0.021133653819561005
18.0,0.020846404135227203
20.0,0.02057347446680069
22.0,0.020307043567299843
24.0,0.020053977146744728
26.0,0.01980382762849331
28.0,0.019554009661078453
30.0,0.019315507262945175
32.0,0.0190849918872118
36.0,0.01865985058248043
40.0,0.018264520913362503
44.0,0.017914846539497375
48.0,0.017596649006009102
52.0,0.017292754724621773
56.0,0.01699797809123993
60.0,0.016721036285161972
64.0,0.016459310427308083
72.0,0.01594538986682892
80.0,0.01545615866780281
88.0,0.0149833420291543
96.0,0.0145120145753026
104.0,0.014017529785633087
112.0,0.013563965447247028
120.0,0.013145867735147476
128.0,0.012795022688806057
144.0,0.012220099568367004
160.0,0.011578280478715897
176.0,0.010857991874217987
192.0,0.010113794356584549
208.0,0.009365905076265335
224.0,0.008736147545278072
240.0,0.008274604566395283
256.0,0.007884616032242775
288.0,0.007591678760945797
320.0,0.007549239322543144
352.0,0.006979946978390217
384.0,0.006480413954705
416.0,0.006021543405950069
448.0,0.005783247295767069
480.0,0.005941504146903753
512.0,0.006093451287597418
576.0,0.007563845254480839
640.0,0.008844749070703983
704.0,0.009546900168061256
768.0,0.009438195265829563
832.0,0.008979781530797482
896.0,0.008073936216533184
960.0,0.007145104929804802
1024.0,0.007037268485873938
1152.0,0.005823480896651745
1280.0,0.0045013101771473885
1408.0,0.0043795546516776085
1536.0,0.0019494368461892009
1664.0,0.001334866974502802
1792.0,0.003083552001044154
1920.0,0.0031571551226079464
2048.0,0.0027042969595640898
2304.0,-0.00021587111405096948
2560.0,-0.00018202766659669578
2816.0,-0.0010145537089556456
3072.0,-0.0029706573113799095
3328.0,-0.002715156879276037
3584.0,-0.004933843854814768
3840.0,-0.004754779394716024
4096.0,-0.005731536075472832
4608.0,-0.007365953177213669
5120.0,-0.007629960775375366
5632.0,-0.007277125027030706
6144.0,-0.007043893449008465
6656.0,-0.004432512912899256
7168.0,-0.0019710299093276262
7680.0,0.0013321301667019725
8192.0,0.0027941798325628042
end
