version,3.0
numOfCh,1
type,point
parent_name,34766_0dot1-0dot01
ch_type,1_1
kcount,1
numberNandB,1
brightnessNandB,1
carpet pos,0
pc,0
Time (ms),CH1 Auto-Correlation
1.0,0.06660224497318268
2.0,0.06595510989427567
3.0,0.0652984008193016
4.0,0.06466168910264969
5.0,0.06401190161705017
6.0,0.06337016075849533
7.0,0.06275418400764465
8.0,0.06213005632162094
9.0,0.06149773299694061
10.0,0.0608670674264431
11.0,0.0602785125374794
12.0,0.059676699340343475
13.0,0.0590631403028965
14.0,0.05844857916235924
15.0,0.057848431169986725
16.0,0.05724700167775154
18.0,0.05602002888917923
20.0,0.05483679845929146
22.0,0.053737573325634
24.0,0.05279592424631119
26.0,0.051870569586753845
28.0,0.05096999183297157
30.0,0.05011240392923355
32.0,0.049304697662591934
36.0,0.047740526497364044
40.0,0.04643874615430832
44.0,0.045150026679039
48.0,0.04384617134928703
52.0,0.04266880825161934
56.0,0.04142584651708603
60.0,0.04015757516026497
64.0,0.03895692899823189
72.0,0.03667566180229187
80.0,0.03429679945111275
88.0,0.032518357038497925
96.0,0.03089495748281479
104.0,0.028752539306879044
112.0,0.025673285126686096
120.0,0.022289562970399857
128.0,0.01874464564025402
144.0,0.014449739828705788
160.0,0.012475678697228432
176.0,0.010518264956772327
192.0,0.009539229795336723
208.0,0.008908487856388092
224.0,0.008040379732847214
240.0,0.007441186346113682
256.0,0.007021178957074881
288.0,0.005980310961604118
320.0,0.005301513243466616
352.0,0.005556713789701462
384.0,0.005461502354592085
416.0,0.005168603733181953
448.0,0.003551454283297062
480.0,0.0021081753075122833
512.0,0.0009037642157636583
576.0,0.00017947280139196664
640.0,0.0008631237433291972
704.0,0.0025370719376951456
768.0,0.002524841809645295
832.0,0.0018184769432991743
896.0,0.0018187389941886067
960.0,0.001875221962109208
1024.0,0.0024747129064053297
1152.0,0.0018126382492482662
1280.0,0.0008841240778565407
1408.0,-0.0018445851746946573
1536.0,-0.002936707343906164
1664.0,-0.0030434848740696907
1792.0,-0.0022700289264321327
1920.0,-0.0005811501177959144
2048.0,-0.002796044573187828
2304.0,-0.003917684778571129
2560.0,-0.003365159034729004
2816.0,-0.002016692655161023
3072.0,-0.002676159143447876
3328.0,-0.0024962658062577248
3584.0,-0.0021104756742715836
3840.0,-0.0018435962265357375
4096.0,-0.0003799159894697368
4608.0,0.0027632382698357105
5120.0,0.004172055050730705
5632.0,0.00507756182923913
6144.0,0.006463334895670414
6656.0,0.004973351955413818
7168.0,-0.0007142899557948112
7680.0,-0.005287589970976114
8192.0,-0.009778247214853764
end
