version,3.0
numOfCh,1
type,point
parent_name,34766_0dot1-0dot01
ch_type,1_1
kcount,1
numberNandB,1
brightnessNandB,1
carpet pos,0
pc,0
Time (ms),CH1 Auto-Correlation
1.0,0.027998700737953186
2.0,0.027775965631008148
3.0,0.027561577036976814
4.0,0.027347620576620102
5.0,0.027140749618411064
6.0,0.02693428285419941
7.0,0.026736034080386162
8.0,0.026540057733654976
9.0,0.026349468156695366
10.0,0.02615705318748951
11.0,0.0259698498994112
12.0,0.025788499042391777
13.0,0.025605620816349983
14.0,0.025429990142583847
15.0,0.025256285443902016
16.0,0.025087183341383934
18.0,0.024757038801908493
20.0,0.024426205083727837
22.0,0.024088075384497643
24.0,0.02376243658363819
26.0,0.02345455251634121
28.0,0.023148424923419952
30.0,0.022849250584840775
32.0,0.022561246529221535
36.0,0.022010408341884613
40.0,0.021491631865501404
44.0,0.021022498607635498
48.0,0.020588234066963196
52.0,0.020182425156235695
56.0,0.019811121746897697
60.0,0.019432850182056427
64.0,0.019055603072047234
72.0,0.018344005569815636
80.0,0.01766117475926876
88.0,0.01696118712425232
96.0,0.01629498414695263
104.0,0.015616114251315594
112.0,0.014929035678505898
120.0,0.014360073953866959
128.0,0.013841982930898666
144.0,0.012895520776510239
160.0,0.011995166540145874
176.0,0.01117140892893076
192.0,0.010524500161409378
208.0,0.010089822113513947
224.0,0.009748701937496662
240.0,0.0094009293243289
256.0,0.008724256418645382
288.0,0.007873743772506714
320.0,0.00745640741661191
352.0,0.006765284109860659
384.0,0.006319921929389238
416.0,0.006117220036685467
448.0,0.0058319722302258015
480.0,0.0049414257518947124
512.0,0.003572458168491721
576.0,0.0017665780615061522
640.0,0.001454753801226616
704.0,0.002238662913441658
768.0,0.0026219801511615515
832.0,0.001993440091609955
896.0,0.0016798535361886024
960.0,0.0007912943256087601
1024.0,0.001375736785121262
1152.0,0.004115013405680656
1280.0,0.0035308573860675097
1408.0,0.002105272840708494
1536.0,0.0020479909144341946
1664.0,0.0017309578834101558
1792.0,-0.0026518076192587614
1920.0,-0.0035366308875381947
2048.0,-0.0033170811366289854
2304.0,-0.0030818080995231867
2560.0,-0.0016996142221614718
2816.0,0.0023753526620566845
3072.0,0.0014036264037713408
3328.0,-0.00029001428629271686
3584.0,-0.002053553471341729
3840.0,0.000533639919012785
4096.0,0.004050763789564371
4608.0,0.0026624302845448256
5120.0,-0.0012684559915214777
5632.0,-0.0013937401818111539
6144.0,-0.0025620919186621904
6656.0,-0.0009178663021884859
7168.0,-0.005561918951570988
7680.0,-0.006678998004645109
8192.0,-0.0055014523677527905
end
