version,3.0
numOfCh,1
type,point
parent_name,34766_0dot1-0dot01
ch_type,1_1
kcount,1
numberNandB,1
brightnessNandB,1
carpet pos,0
pc,0
Time (ms),CH1 Auto-Correlation
1.0,0.0203013364225626
2.0,0.02011418715119362
3.0,0.019930921494960785
4.0,0.019751032814383507
5.0,0.019572820514440536
6.0,0.019399860873818398
7.0,0.01922924630343914
8.0,0.019062066450715065
9.0,0.018891582265496254
10.0,0.018726779147982597
11.0,0.0185618344694376
12.0,0.018397290259599686
13.0,0.018237005919218063
14.0,0.018077034503221512
15.0,0.017921151593327522
16.0,0.01776309870183468
18.0,0.017458155751228333
20.0,0.017164429649710655
22.0,0.016881505027413368
24.0,0.016612591221928596
26.0,0.016356132924556732
28.0,0.016111915931105614
30.0,0.01588158681988716
32.0,0.01565338484942913
36.0,0.015244103036820889
40.0,0.01488102599978447
44.0,0.01454413402825594
48.0,0.014249150641262531
52.0,0.013998703099787235
56.0,0.013777798041701317
60.0,0.013546697795391083
64.0,0.013293961994349957
72.0,0.012879010289907455
80.0,0.012482563965022564
88.0,0.012069816701114178
96.0,0.011674157343804836
104.0,0.011245963163673878
112.0,0.010793430730700493
120.0,0.010361834429204464
128.0,0.009916797280311584
144.0,0.00894459430128336
160.0,0.008078772574663162
176.0,0.007281812839210033
192.0,0.0066199698485434055
208.0,0.005971511360257864
224.0,0.0053670769557356834
240.0,0.00474624615162611
256.0,0.004152669571340084
288.0,0.003477041143923998
320.0,0.002803994109854102
352.0,0.002315606689080596
384.0,0.0015880329301580787
416.0,0.001207383698783815
448.0,0.0008845406118780375
480.0,0.0008021265384741127
512.0,0.0006166048697195947
576.0,0.0003603386285249144
640.0,0.00031178994686342776
704.0,3.369066325831227e-05
768.0,-1.3145009916115669e-06
832.0,0.0006319534732028842
896.0,0.0010785771301016212
960.0,0.0011024901177734137
1024.0,0.0007674751104786992
1152.0,-0.0003495963173918426
1280.0,-0.0003327934828121215
1408.0,-0.0009292768081650138
1536.0,-0.0010754347313195467
1664.0,-0.0013226940063759685
1792.0,-0.0017730193212628365
1920.0,-0.0005669972160831094
2048.0,-0.00128390162717551
2304.0,-0.001683040871284902
2560.0,-0.0019289528718218207
2816.0,0.00045416239299811423
3072.0,0.004098030272871256
3328.0,0.0036175777204334736
3584.0,0.0006304045673459768
3840.0,-0.0012085706694051623
4096.0,-0.0008113283547572792
4608.0,-0.0013831020332872868
5120.0,-0.0004303681489545852
5632.0,-0.002959218807518482
6144.0,0.0009796451777219772
6656.0,0.0031947684474289417
7168.0,0.0007037456962279975
7680.0,-0.0020944117568433285
8192.0,-0.002929023001343012
end
