version,3.0
numOfCh,1
type,point
parent_name,34766_0dot1-0dot01
ch_type,1_1
kcount,1
numberNandB,1
brightnessNandB,1
carpet pos,0
pc,0
Time (ms),CH1 Auto-Correlation
1.0,0.017237752676010132
2.0,0.01704968325793743
3.0,0.016868455335497856
4.0,0.016688071191310883
5.0,0.01650826446712017
6.0,0.01633407734334469
7.0,0.016160983592271805
8.0,0.015988733619451523
9.0,0.015819283202290535
10.0,0.015653157606720924
11.0,0.015486281365156174
12.0,0.015326136723160744
13.0,0.015173006802797318
14.0,0.015021264553070068
15.0,0.014872021041810513
16.0,0.014724393375217915
18.0,0.014433959499001503
20.0,0.014149460941553116
22.0,0.01387812104076147
24.0,0.013606859371066093
26.0,0.013349679298698902
28.0,0.013112949207425117
30.0,0.012889478355646133
32.0,0.012670742347836494
36.0,0.012257453985512257
40.0,0.01186150312423706
44.0,0.011473546735942364
48.0,0.011112748645246029
52.0,0.010757294483482838
56.0,0.010419594123959541
60.0,0.010126207955181599
64.0,0.009879762306809425
72.0,0.009428155608475208
80.0,0.00896537397056818
88.0,0.008502175100147724
96.0,0.008081620559096336
104.0,0.007689182180911303
112.0,0.007324680220335722
120.0,0.006971501279622316
128.0,0.006665821187198162
144.0,0.005972841288894415
160.0,0.005361543036997318
176.0,0.004827925935387611
192.0,0.004429639782756567
208.0,0.004208771511912346
224.0,0.003954824060201645
240.0,0.003735610982403159
256.0,0.00348453177139163
288.0,0.0032993683125823736
320.0,0.003241391386836767
352.0,0.002850134391337633
384.0,0.002238814253360033
416.0,0.0016333358362317085
448.0,0.0013183479895815253
480.0,0.000761531526222825
512.0,0.0001336325512966141
576.0,-0.0009251022129319608
640.0,-0.0011568705085664988
704.0,-0.0014038459630683064
768.0,-0.0012461445294320583
832.0,-0.0017233259277418256
896.0,-0.0023644319735467434
960.0,-0.0025124866515398026
1024.0,-0.0026168166659772396
1152.0,-0.00387406162917614
1280.0,-0.004541098140180111
1408.0,-0.002550079021602869
1536.0,-0.002467956393957138
1664.0,-0.0018287620041519403
1792.0,-0.0007177342195063829
1920.0,-0.00018432307115290314
2048.0,0.0004863548674620688
2304.0,0.0010094353929162025
2560.0,0.0027876137755811214
2816.0,0.003286647144705057
3072.0,0.0012789657339453697
3328.0,-0.0010678751859813929
3584.0,-0.001029824954457581
3840.0,-0.0021886315662413836
4096.0,-0.0010128337889909744
4608.0,-0.0009504994377493858
5120.0,0.00013091351138427854
5632.0,0.004408491775393486
6144.0,0.0008596822153776884
6656.0,-0.0027852465864270926
7168.0,-0.004052501171827316
7680.0,-0.000155116111272946
8192.0,0.004134554881602526
end
