version,3.0
numOfCh,1
type,point
parent_name,34766_0dot1-0dot01
ch_type,1_1
kcount,1
numberNandB,1
brightnessNandB,1
carpet pos,0
pc,0
Time (ms),CH1 Auto-Correlation
1.0,0.15723201632499695
2.0,0.1569269299507141
3.0,0.1566104292869568
4.0,0.15630045533180237
5.0,0.15599657595157623
6.0,0.15568853914737701
7.0,0.15537942945957184
8.0,0.1550712287425995
9.0,0.1547679752111435
10.0,0.15445838868618011
11.0,0.15415647625923157
12.0,0.15385586023330688
13.0,0.15356342494487762
14.0,0.15327586233615875
15.0,0.1530044674873352
16.0,0.15273484587669373
18.0,0.15219248831272125
20.0,0.15166622400283813
22.0,0.15114611387252808
24.0,0.15063273906707764
26.0,0.15015366673469543
28.0,0.14968889951705933
30.0,0.14923544228076935
32.0,0.14878450334072113
36.0,0.1478959023952484
40.0,0.1470305323600769
44.0,0.14618146419525146
48.0,0.14537076652050018
52.0,0.14455711841583252
56.0,0.14374636113643646
60.0,0.14293767511844635
64.0,0.1421862244606018
72.0,0.140631303191185
80.0,0.13902299106121063
88.0,0.13732321560382843
96.0,0.13567639887332916
104.0,0.13401979207992554
112.0,0.1322229653596878
120.0,0.13036437332630157
128.0,0.12858133018016815
144.0,0.12598732113838196
160.0,0.12378942966461182
176.0,0.12159585952758789
192.0,0.11955789476633072
208.0,0.11725039780139923
224.0,0.11480201035737991
240.0,0.11262360215187073
256.0,0.11075720936059952
288.0,0.10523222386837006
320.0,0.09918860346078873
352.0,0.09342098981142044
384.0,0.0876699835062027
416.0,0.08139627426862717
448.0,0.07468848675489426
480.0,0.06814748793840408
512.0,0.062070026993751526
576.0,0.050380889326334
640.0,0.03914966806769371
704.0,0.026845650747418404
768.0,0.015588595531880856
832.0,0.007111225742846727
896.0,-0.0006306408322416246
960.0,-0.004131815861910582
1024.0,-0.006016559898853302
1152.0,-0.008346954360604286
1280.0,-0.010268699377775192
1408.0,-0.00823606364428997
1536.0,-0.007504249457269907
1664.0,-0.007006332278251648
1792.0,-0.006184221711009741
1920.0,-0.005519970320165157
2048.0,-0.005510635208338499
2304.0,-0.008577308617532253
2560.0,-0.014863531105220318
2816.0,-0.018905917182564735
3072.0,-0.014149053953588009
3328.0,-0.008497452363371849
3584.0,-0.0010383276967331767
3840.0,0.006309777498245239
4096.0,0.013590323738753796
4608.0,-0.0057859886437654495
5120.0,-0.028607428073883057
5632.0,-0.015446940436959267
6144.0,-0.0033682892099022865
6656.0,-0.006422246806323528
7168.0,-0.011874995194375515
7680.0,-0.007129289209842682
8192.0,-0.004949362017214298
end
