version,3.0
numOfCh,1
type,point
parent_name,34766_0dot1-0dot01
ch_type,1_1
kcount,1
numberNandB,1
brightnessNandB,1
carpet pos,0
pc,0
Time (ms),CH1 Auto-Correlation
1.0,0.01821920834481716
2.0,0.01803254522383213
3.0,0.01784674823284149
4.0,0.017664320766925812
5.0,0.017483297735452652
6.0,0.01730739139020443
7.0,0.017135493457317352
8.0,0.016970645636320114
9.0,0.016806481406092644
10.0,0.016645533964037895
11.0,0.01648455299437046
12.0,0.016329430043697357
13.0,0.016178041696548462
14.0,0.016033919528126717
15.0,0.015888448804616928
16.0,0.01574874296784401
18.0,0.01546948216855526
20.0,0.015192262828350067
22.0,0.014913954772055149
24.0,0.01463884674012661
26.0,0.014373822137713432
28.0,0.01411486603319645
30.0,0.013868029229342937
32.0,0.013621958903968334
36.0,0.01317412406206131
40.0,0.01275643240660429
44.0,0.012343491427600384
48.0,0.011947070248425007
52.0,0.011577320285141468
56.0,0.011236360296607018
60.0,0.010902014560997486
64.0,0.01057015173137188
72.0,0.009932095184922218
80.0,0.009301702491939068
88.0,0.008648761548101902
96.0,0.008053863421082497
104.0,0.007491918746381998
112.0,0.006934576202183962
120.0,0.006416458636522293
128.0,0.005938961636275053
144.0,0.005290530156344175
160.0,0.004648624453693628
176.0,0.003939653746783733
192.0,0.003408824559301138
208.0,0.0030211354605853558
224.0,0.002741594798862934
240.0,0.0026598558761179447
256.0,0.0024924601893872023
288.0,0.0019064296502619982
320.0,0.0016748796915635467
352.0,0.0007519670762121677
384.0,-0.00018102854664903134
416.0,-0.00042806423152796924
448.0,-0.0005151768564246595
480.0,-0.00016743554442655295
512.0,0.0006337201921269298
576.0,0.0020176239777356386
640.0,0.002369682537391782
704.0,0.0017400855431333184
768.0,0.0009385597077198327
832.0,0.0010372090619057417
896.0,0.001142484019510448
960.0,0.00039904136792756617
1024.0,-0.00038779983879067004
1152.0,-0.00020442443201318383
1280.0,0.00034306940506212413
1408.0,-0.00047103659017011523
1536.0,-0.00037168481503613293
1664.0,-0.0014628965873271227
1792.0,-0.0012894360115751624
1920.0,-0.0016133334720507264
2048.0,-0.0029336451552808285
2304.0,-0.0014672885881736875
2560.0,-0.0006484717014245689
2816.0,-0.003062678501009941
3072.0,-0.0011613811366260052
3328.0,-0.0006668472778983414
3584.0,-0.000931022223085165
3840.0,0.0012493835529312491
4096.0,0.000416555383708328
4608.0,-0.001691293902695179
5120.0,-7.34767600079067e-05
5632.0,-0.0015987175283953547
6144.0,0.0002399423683527857
6656.0,0.0021115585695952177
7168.0,-0.0002512022037990391
7680.0,0.0027447566390037537
8192.0,0.0018786985892802477
end
