version,3.0
numOfCh,1
type,point
parent_name,clean
ch_type,1_1
kcount,1
numberNandB,1
brightnessNandB,1
carpet pos,0
pc,0
Time (ms),CH1 Auto-Correlation
1.0,0.10474371165037155
2.0,0.10422840714454651
3.0,0.1037270650267601
4.0,0.10323239862918854
5.0,0.10273347795009613
6.0,0.10223589092493057
7.0,0.10174648463726044
8.0,0.10128361731767654
9.0,0.10082435607910156
10.0,0.10039248317480087
11.0,0.09995713829994202
12.0,0.09953673928976059
13.0,0.09911953657865524
14.0,0.09871780872344971
15.0,0.09831325709819794
16.0,0.09792035818099976
18.0,0.09712184965610504
20.0,0.09634673595428467
22.0,0.09563154727220535
24.0,0.09494204819202423
26.0,0.09427265077829361
28.0,0.0936276838183403
30.0,0.09300117194652557
32.0,0.09238611161708832
36.0,0.09121289849281311
40.0,0.0900883749127388
44.0,0.08897600322961807
48.0,0.08791880309581757
52.0,0.08695270866155624
56.0,0.08601557463407516
60.0,0.0850808322429657
64.0,0.0841837152838707
72.0,0.08230803906917572
80.0,0.08045510947704315
88.0,0.07877495884895325
96.0,0.07727855443954468
104.0,0.0756441056728363
112.0,0.07391885668039322
120.0,0.07227461040019989
128.0,0.07070967555046082
144.0,0.06790527701377869
160.0,0.06551076471805573
176.0,0.06301918625831604
192.0,0.05999600887298584
208.0,0.05689985305070877
224.0,0.05470392107963562
240.0,0.05265501141548157
256.0,0.05050807446241379
288.0,0.04605709761381149
320.0,0.041034094989299774
352.0,0.03797002509236336
384.0,0.03590856492519379
416.0,0.033850062638521194
448.0,0.032578758895397186
480.0,0.031202690675854683
512.0,0.03060515783727169
576.0,0.030976569280028343
640.0,0.03217955306172371
704.0,0.031416889280080795
768.0,0.030029645189642906
832.0,0.027312062680721283
896.0,0.02355745993554592
960.0,0.02038862183690071
1024.0,0.016977423802018166
1152.0,0.009953265078365803
1280.0,0.006873160135000944
1408.0,0.0022280628327280283
1536.0,-0.0020039414521306753
1664.0,-0.006840341724455357
1792.0,-0.010836200788617134
1920.0,-0.015322310850024223
2048.0,-0.021625109016895294
2304.0,-0.026664167642593384
2560.0,-0.017151257023215294
2816.0,-0.015224792063236237
3072.0,-0.014480563811957836
3328.0,0.0011275081196799874
3584.0,0.004033292178064585
3840.0,-0.0032757464796304703
4096.0,0.0002665920474100858
4608.0,-0.007791161071509123
5120.0,-0.009013577364385128
5632.0,-0.0072944024577736855
6144.0,-0.010552802123129368
6656.0,-0.005467536393553019
7168.0,0.005973328370600939
7680.0,-0.014094410464167595
8192.0,-0.006516030989587307
9216.0,0.012993442825973034
10240.0,0.03423476219177246
11264.0,0.023020049557089806
12288.0,-0.013157805427908897
13312.0,-0.06250759959220886
14336.0,-0.07775136828422546
end
