version,3.0
numOfCh,1
type,point
parent_name,clean
ch_type,1_1
kcount,1
numberNandB,1
brightnessNandB,1
carpet pos,0
pc,0
Time (ms),CH1 Auto-Correlation
1.0,0.047596074640750885
2.0,0.04722984880208969
3.0,0.04687992110848427
4.0,0.04653371870517731
5.0,0.04619608819484711
6.0,0.04586691036820412
7.0,0.045539095997810364
8.0,0.04521196335554123
9.0,0.04489193111658096
10.0,0.04458203539252281
11.0,0.044283684343099594
12.0,0.04399019479751587
13.0,0.043698348104953766
14.0,0.04339875280857086
15.0,0.043106868863105774
16.0,0.042813096195459366
18.0,0.042253244668245316
20.0,0.041725192219018936
22.0,0.041220180690288544
24.0,0.04073035344481468
26.0,0.04025176167488098
28.0,0.039775144308805466
30.0,0.039279647171497345
32.0,0.03876592591404915
36.0,0.03776491805911064
40.0,0.03679192438721657
44.0,0.0358954593539238
48.0,0.03498455509543419
52.0,0.034078583121299744
56.0,0.03318173065781593
60.0,0.03231903910636902
64.0,0.031515803188085556
72.0,0.02995425835251808
80.0,0.02839101105928421
88.0,0.026914240792393684
96.0,0.02562735043466091
104.0,0.024421675130724907
112.0,0.02324049361050129
120.0,0.02212318405508995
128.0,0.021277209743857384
144.0,0.01957595907151699
160.0,0.017743125557899475
176.0,0.016006777063012123
192.0,0.014524957165122032
208.0,0.012969809584319592
224.0,0.01128949224948883
240.0,0.009664787910878658
256.0,0.008320172317326069
288.0,0.006975973024964333
320.0,0.005756191909313202
352.0,0.004899352323263884
384.0,0.004599002655595541
416.0,0.005024242214858532
448.0,0.004804751370102167
480.0,0.0040916139259934425
512.0,0.0030752550810575485
576.0,0.001816370990127325
640.0,0.0023970671463757753
704.0,0.005527207162231207
768.0,0.007258852012455463
832.0,0.008480814285576344
896.0,0.008618295192718506
960.0,0.006432604044675827
1024.0,0.005235655233263969
1152.0,0.0031887453515082598
1280.0,0.0029335324652493
1408.0,-7.508347334805876e-05
1536.0,0.0009525492787361145
1664.0,0.0006289550801739097
1792.0,9.626483370084316e-05
1920.0,-0.0006281413370743394
2048.0,0.0021461681462824345
2304.0,-0.0022761968430131674
2560.0,-0.0068520656786859035
2816.0,-0.001586018013767898
3072.0,-0.0006391025381162763
3328.0,0.0009412859217263758
3584.0,0.002526528900489211
3840.0,0.0015644589439034462
4096.0,-0.004824253264814615
4608.0,0.00395692465826869
5120.0,-0.0006800993578508496
5632.0,0.0013579865917563438
6144.0,-0.011264204047620296
6656.0,-0.003956216853111982
7168.0,-0.007704406511038542
7680.0,-0.007376610767096281
8192.0,-0.003229696536436677
9216.0,-0.0003845350001938641
10240.0,-0.0005490546463988721
11264.0,-0.0005323898512870073
12288.0,-0.0014911186881363392
13312.0,-0.004093684256076813
14336.0,-0.0022008148953318596
end
