version,3.0
numOfCh,1
type,point
parent_name,clean
ch_type,1_1
kcount,1
numberNandB,1
brightnessNandB,1
carpet pos,0
pc,0
Time (ms),CH1 Auto-Correlation
1.0,0.04267401993274689
2.0,0.042480405420064926
3.0,0.042286600917577744
4.0,0.0420989990234375
5.0,0.04191730543971062
6.0,0.041729602962732315
7.0,0.041544727981090546
8.0,0.04135941341519356
9.0,0.041174378246068954
10.0,0.040992990136146545
11.0,0.040810953825712204
12.0,0.04062526673078537
13.0,0.04043836146593094
14.0,0.04025173559784889
15.0,0.04006846994161606
16.0,0.03988989442586899
18.0,0.039527527987957
20.0,0.039164379239082336
22.0,0.038805656135082245
24.0,0.03844748064875603
26.0,0.03810512647032738
28.0,0.037772320210933685
30.0,0.03743840381503105
32.0,0.03710035979747772
36.0,0.03643162176012993
40.0,0.03577008470892906
44.0,0.03516799956560135
48.0,0.03458572179079056
52.0,0.03398939594626427
56.0,0.03339565172791481
60.0,0.03283931687474251
64.0,0.03229280561208725
72.0,0.031233232468366623
80.0,0.030248310416936874
88.0,0.029413532465696335
96.0,0.028649194166064262
104.0,0.027948956936597824
112.0,0.027294451370835304
120.0,0.02670564502477646
128.0,0.026173178106546402
144.0,0.025326725095510483
160.0,0.024640848860144615
176.0,0.023966224864125252
192.0,0.02334212139248848
208.0,0.02276451140642166
224.0,0.022221263498067856
240.0,0.021624138578772545
256.0,0.021279221400618553
288.0,0.02072584629058838
320.0,0.020537035539746284
352.0,0.020812509581446648
384.0,0.021070169284939766
416.0,0.020871439948678017
448.0,0.020327461883425713
480.0,0.019611898809671402
512.0,0.018743550404906273
576.0,0.016960525885224342
640.0,0.014268409460783005
704.0,0.013310483656823635
768.0,0.013794121332466602
832.0,0.013921044766902924
896.0,0.013622289523482323
960.0,0.013015851378440857
1024.0,0.012100573629140854
1152.0,0.007847195491194725
1280.0,0.005074701737612486
1408.0,0.004404967185109854
1536.0,0.002050945069640875
1664.0,-0.0006112433620728552
1792.0,-0.0001463536755181849
1920.0,0.0009801933774724603
2048.0,0.00015394917863886803
2304.0,-0.0024205928202718496
2560.0,-0.004202447831630707
2816.0,-0.0010633927304297686
3072.0,-3.768191163544543e-05
3328.0,-0.002973400754854083
3584.0,-0.0011350448476150632
3840.0,0.00041159288957715034
4096.0,-0.002884109504520893
4608.0,-0.004695159383118153
5120.0,-0.004076816141605377
5632.0,-0.006122239865362644
6144.0,-0.004998389165848494
6656.0,-0.0034958431497216225
7168.0,0.0008565068710595369
7680.0,0.003825095249339938
8192.0,0.004665654618293047
9216.0,0.0030057993717491627
10240.0,-0.014951410703361034
11264.0,-0.011932210996747017
12288.0,0.0028248175512999296
13312.0,-0.01577826403081417
14336.0,-0.020011993125081062
end
