version,3.0
numOfCh,1
type,point
parent_name,clean
ch_type,1_1
kcount,1
numberNandB,1
brightnessNandB,1
carpet pos,0
pc,0
Time (ms),CH1 Auto-Correlation
1.0,0.034901924431324005
2.0,0.03469688072800636
3.0,0.034494537860155106
4.0,0.034293510019779205
5.0,0.03409455716609955
6.0,0.03390057012438774
7.0,0.03370540961623192
8.0,0.033516284078359604
9.0,0.033327579498291016
10.0,0.03313712030649185
11.0,0.03295150399208069
12.0,0.032771818339824677
13.0,0.03259109705686569
14.0,0.03241005539894104
15.0,0.03223113715648651
16.0,0.032055728137493134
18.0,0.031725089997053146
20.0,0.03141838684678078
22.0,0.03112082928419113
24.0,0.030826587229967117
26.0,0.03052758425474167
28.0,0.030237887054681778
30.0,0.02995535172522068
32.0,0.029674289748072624
36.0,0.029119126498699188
40.0,0.02855655550956726
44.0,0.027983345091342926
48.0,0.027421217411756516
52.0,0.02690308354794979
56.0,0.026419498026371002
60.0,0.025960596278309822
64.0,0.025525536388158798
72.0,0.02465861663222313
80.0,0.023813076317310333
88.0,0.023011498153209686
96.0,0.02217273600399494
104.0,0.02135883830487728
112.0,0.020604439079761505
120.0,0.019897494465112686
128.0,0.019235530868172646
144.0,0.018152667209506035
160.0,0.01739995926618576
176.0,0.01676010712981224
192.0,0.01609135791659355
208.0,0.015528537333011627
224.0,0.015200738795101643
240.0,0.01496631745249033
256.0,0.014586778357625008
288.0,0.01400578860193491
320.0,0.0136417830362916
352.0,0.012834279797971249
384.0,0.011898788623511791
416.0,0.011163104325532913
448.0,0.0103726452216506
480.0,0.009380161762237549
512.0,0.008417732082307339
576.0,0.008081996813416481
640.0,0.008844654075801373
704.0,0.00840476993471384
768.0,0.00672939931973815
832.0,0.005704142153263092
896.0,0.005298984237015247
960.0,0.00512842508032918
1024.0,0.004206329584121704
1152.0,0.005686589982360601
1280.0,0.006339638493955135
1408.0,0.00653817318379879
1536.0,0.004832032136619091
1664.0,0.00322042522020638
1792.0,0.0019377393182367086
1920.0,-0.0011527151800692081
2048.0,-0.003544299863278866
2304.0,-0.005865820217877626
2560.0,-0.0045181321911513805
2816.0,-0.0028974309097975492
3072.0,0.0009547302033752203
3328.0,0.0009279930382035673
3584.0,-2.544771268730983e-05
3840.0,0.0009860651334747672
4096.0,0.003443509340286255
4608.0,0.006258419714868069
5120.0,0.005592502187937498
5632.0,0.0009337758528999984
6144.0,-0.0022182725369930267
6656.0,-0.004039782099425793
7168.0,-0.004940805025398731
7680.0,-0.005914102308452129
8192.0,-0.0010316880652680993
9216.0,-0.0023478898219764233
10240.0,-0.006127529311925173
11264.0,-0.010584775358438492
12288.0,-0.011417479254305363
13312.0,-0.006207652855664492
14336.0,0.002455522073432803
end
