version,3.0
numOfCh,1
type,point
parent_name,clean
ch_type,1_1
kcount,1
numberNandB,1
brightnessNandB,1
carpet pos,0
pc,0
Time (ms),CH1 Auto-Correlation
1.0,0.08582039922475815
2.0,0.0852559357881546
3.0,0.08470575511455536
4.0,0.08416514843702316
5.0,0.0836208313703537
6.0,0.083091139793396
7.0,0.08256272971630096
8.0,0.08204759657382965
9.0,0.08152642101049423
10.0,0.08102677017450333
11.0,0.08052807301282883
12.0,0.08004698902368546
13.0,0.07958290725946426
14.0,0.0791352316737175
15.0,0.07869068533182144
16.0,0.07824975997209549
18.0,0.07739283889532089
20.0,0.0765780434012413
22.0,0.07582541555166245
24.0,0.07509110122919083
26.0,0.07441115379333496
28.0,0.07373649626970291
30.0,0.07307722419500351
32.0,0.07242418080568314
36.0,0.0711766853928566
40.0,0.06996572017669678
44.0,0.06887385994195938
48.0,0.06781116127967834
52.0,0.06670162081718445
56.0,0.06556910276412964
60.0,0.06443814933300018
64.0,0.06333007663488388
72.0,0.061281394213438034
80.0,0.05942516773939133
88.0,0.05786626785993576
96.0,0.0563945509493351
104.0,0.05493536591529846
112.0,0.05341864377260208
120.0,0.051903754472732544
128.0,0.05055679753422737
144.0,0.04847166687250137
160.0,0.046573884785175323
176.0,0.044592976570129395
192.0,0.0427391491830349
208.0,0.0405031256377697
224.0,0.03828820958733559
240.0,0.03627536818385124
256.0,0.03435162082314491
288.0,0.030393127351999283
320.0,0.027197515591979027
352.0,0.024475134909152985
384.0,0.021835999563336372
416.0,0.020145965740084648
448.0,0.01905771531164646
480.0,0.018030820414423943
512.0,0.01764141023159027
576.0,0.01587548479437828
640.0,0.010692229494452477
704.0,0.006928122602403164
768.0,0.005295651499181986
832.0,0.0047836522571742535
896.0,0.001434274367056787
960.0,-0.00045392054016701877
1024.0,-0.003026898019015789
1152.0,-0.008565058931708336
1280.0,-0.01055819634348154
1408.0,-0.007411725353449583
1536.0,-0.00513894809409976
1664.0,-0.006502198986709118
1792.0,-0.006996701471507549
1920.0,-0.009338620118796825
2048.0,-0.007998478598892689
2304.0,-0.009676327928900719
2560.0,-0.017623314633965492
2816.0,-0.02479206956923008
3072.0,-0.017810313031077385
3328.0,-0.01484739687293768
3584.0,-0.012810242362320423
3840.0,-0.004255735315382481
4096.0,0.007228551432490349
4608.0,0.013777319341897964
5120.0,0.010401636362075806
5632.0,0.0034332212526351213
6144.0,0.0021043617743998766
6656.0,-0.00040668289875611663
7168.0,-0.020791711285710335
7680.0,-0.019481750205159187
8192.0,-0.010566864162683487
9216.0,0.004893284756690264
10240.0,0.01611284725368023
11264.0,0.002169296843931079
12288.0,-0.006703787483274937
13312.0,-0.007074960507452488
14336.0,0.000646487285848707
end
