version,3.0
numOfCh,1
type,point
parent_name,clean
ch_type,1_1
kcount,1
numberNandB,1
brightnessNandB,1
carpet pos,0
pc,0
Time (ms),CH1 Auto-Correlation
1.0,0.06955536454916
2.0,0.06908263266086578
3.0,0.06860706955194473
4.0,0.06812989711761475
5.0,0.06765075027942657
6.0,0.0671822726726532
7.0,0.06671560555696487
8.0,0.06624475121498108
9.0,0.06578698009252548
10.0,0.06534937769174576
11.0,0.06490970402956009
12.0,0.06445696204900742
13.0,0.06400269269943237
14.0,0.06356345862150192
15.0,0.06311243027448654
16.0,0.06267214566469193
18.0,0.06179066747426987
20.0,0.06093775853514671
22.0,0.06014122813940048
24.0,0.05938095599412918
26.0,0.05862271413207054
28.0,0.05787695571780205
30.0,0.057167135179042816
32.0,0.05645478144288063
36.0,0.05514606833457947
40.0,0.05388149991631508
44.0,0.05266885459423065
48.0,0.0515238456428051
52.0,0.05042748525738716
56.0,0.04934031516313553
60.0,0.048257406800985336
64.0,0.047180116176605225
72.0,0.04505039379000664
80.0,0.04294716939330101
88.0,0.04102659597992897
96.0,0.03932494297623634
104.0,0.03785201907157898
112.0,0.036502618342638016
120.0,0.03519439697265625
128.0,0.03403516113758087
144.0,0.03189390152692795
160.0,0.03007652796804905
176.0,0.028599059209227562
192.0,0.02772192470729351
208.0,0.027349958196282387
224.0,0.02673078514635563
240.0,0.026345914229750633
256.0,0.026226090267300606
288.0,0.02574762888252735
320.0,0.024634437635540962
352.0,0.02292110025882721
384.0,0.02058630809187889
416.0,0.017900625243782997
448.0,0.01603890210390091
480.0,0.014547033235430717
512.0,0.013249622657895088
576.0,0.011686191894114017
640.0,0.009378585033118725
704.0,0.009214724414050579
768.0,0.007661942392587662
832.0,0.005345457699149847
896.0,0.00303320842795074
960.0,0.0003362243005540222
1024.0,-0.0007604520651511848
1152.0,-0.003081818111240864
1280.0,-0.012195474468171597
1408.0,-0.016871990635991096
1536.0,-0.016452277079224586
1664.0,-0.021351272240281105
1792.0,-0.018606038764119148
1920.0,-0.015936344861984253
2048.0,-0.012550665996968746
2304.0,-0.0006214618915691972
2560.0,0.008869786746799946
2816.0,0.011074966751039028
3072.0,0.013026389293372631
3328.0,0.01611681841313839
3584.0,0.006655689794570208
3840.0,-0.0079916100949049
4096.0,-0.013134985230863094
4608.0,-0.012340507470071316
5120.0,-0.001634102431125939
5632.0,0.009601433761417866
6144.0,0.008888437412679195
6656.0,-0.00508745526894927
7168.0,-0.018499527126550674
7680.0,-0.011247553862631321
8192.0,-0.0047309077344834805
9216.0,0.001858691219240427
10240.0,-0.009678392671048641
11264.0,-0.0036348667927086353
12288.0,-0.000771365303080529
13312.0,0.0008588819182477891
14336.0,0.00969551969319582
end
