version,3.0
numOfCh,1
type,point
parent_name,clean
ch_type,1_1
kcount,1
numberNandB,1
brightnessNandB,1
carpet pos,0
pc,0
Time (ms),CH1 Auto-Correlation
1.0,0.08368905633687973
2.0,0.08323217183351517
3.0,0.08278060704469681
4.0,0.08233437687158585
5.0,0.08189061284065247
6.0,0.08144921064376831
7.0,0.08101960271596909
8.0,0.0805932953953743
9.0,0.08017128705978394
10.0,0.07976362854242325
11.0,0.07936234027147293
12.0,0.07895653694868088
13.0,0.078560970723629
14.0,0.0781809464097023
15.0,0.07778768986463547
16.0,0.07739393413066864
18.0,0.07661953568458557
20.0,0.07587117701768875
22.0,0.07514213025569916
24.0,0.07443655282258987
26.0,0.07375199347734451
28.0,0.07308044284582138
30.0,0.07242371886968613
32.0,0.07177993655204773
36.0,0.07049594074487686
40.0,0.0692492425441742
44.0,0.06809114664793015
48.0,0.06703567504882812
52.0,0.06603863090276718
56.0,0.06512364745140076
60.0,0.06423447281122208
64.0,0.06340179592370987
72.0,0.061872124671936035
80.0,0.0605071559548378
88.0,0.05933849513530731
96.0,0.058203138411045074
104.0,0.05697161704301834
112.0,0.055688124150037766
120.0,0.054397206753492355
128.0,0.0531444288790226
144.0,0.0506802573800087
160.0,0.04834798723459244
176.0,0.04642745852470398
192.0,0.04477692395448685
208.0,0.04361804947257042
224.0,0.04251625016331673
240.0,0.04151180386543274
256.0,0.040562137961387634
288.0,0.03875696286559105
320.0,0.037086620926856995
352.0,0.035857923328876495
384.0,0.03505047410726547
416.0,0.03391164913773537
448.0,0.033607300370931625
480.0,0.03396950289607048
512.0,0.03373277559876442
576.0,0.03322639316320419
640.0,0.03108510933816433
704.0,0.02820110321044922
768.0,0.026558252051472664
832.0,0.02748747356235981
896.0,0.02832978218793869
960.0,0.027582362294197083
1024.0,0.023571385070681572
1152.0,0.01673467643558979
1280.0,0.01038610190153122
1408.0,0.005899915937334299
1536.0,0.008984671905636787
1664.0,0.01111628208309412
1792.0,0.010134700685739517
1920.0,0.008858054876327515
2048.0,0.006966392043977976
2304.0,0.008286479860544205
2560.0,0.013272362761199474
2816.0,0.009618248790502548
3072.0,0.0051388670690357685
3328.0,0.006570813711732626
3584.0,0.004116304684430361
3840.0,-0.008038010448217392
4096.0,-0.01812061294913292
4608.0,-0.024223901331424713
5120.0,-0.020138787105679512
5632.0,-0.019947847351431847
6144.0,-0.01698475331068039
6656.0,-0.029148370027542114
7168.0,-0.029951808974146843
7680.0,-0.03688378259539604
8192.0,-0.034903306514024734
9216.0,0.002537598367780447
10240.0,0.003747020848095417
11264.0,0.01135216187685728
12288.0,0.01888292282819748
13312.0,0.008618906140327454
14336.0,0.019333623349666595
end
