version,3.0
numOfCh,1
type,point
parent_name,clean
ch_type,1_1
kcount,1
numberNandB,1
brightnessNandB,1
carpet pos,0
pc,0
Time (ms),CH1 Auto-Correlation
1.0,0.07751373946666718
2.0,0.07679399102926254
3.0,0.07607400417327881
4.0,0.07535183429718018
5.0,0.07463546097278595
6.0,0.07393737882375717
7.0,0.07324236631393433
8.0,0.07256121933460236
9.0,0.07189877331256866
10.0,0.07123938947916031
11.0,0.07059888541698456
12.0,0.06997416913509369
13.0,0.06936004012823105
14.0,0.06874185800552368
15.0,0.06812421977519989
16.0,0.06750496476888657
18.0,0.06626678258180618
20.0,0.06503123790025711
22.0,0.06376413255929947
24.0,0.06247813254594803
26.0,0.06120556220412254
28.0,0.05993711203336716
30.0,0.05874134600162506
32.0,0.057583242654800415
36.0,0.055293358862400055
40.0,0.053091902285814285
44.0,0.05101298168301582
48.0,0.04906124249100685
52.0,0.047313179820775986
56.0,0.04564556106925011
60.0,0.044048700481653214
64.0,0.042332764714956284
72.0,0.03921419382095337
80.0,0.03633677586913109
88.0,0.033777229487895966
96.0,0.03180926665663719
104.0,0.030070707201957703
112.0,0.02852535806596279
120.0,0.027101581916213036
128.0,0.025438033044338226
144.0,0.02276437357068062
160.0,0.020773697644472122
176.0,0.019610557705163956
192.0,0.01783914305269718
208.0,0.01534643117338419
224.0,0.012408331036567688
240.0,0.008872472681105137
256.0,0.00519933458417654
288.0,-0.001070102327503264
320.0,-0.004879220854490995
352.0,-0.004645713604986668
384.0,-0.004436569754034281
416.0,-0.004539530258625746
448.0,-0.004181390628218651
480.0,-0.004004865884780884
512.0,-0.0044380901381373405
576.0,-0.004268330987542868
640.0,5.854417395312339e-07
704.0,-0.0003139231994282454
768.0,-0.0023651719093322754
832.0,-0.004110714886337519
896.0,7.561049278592691e-05
960.0,0.0033035946544259787
1024.0,0.004402459599077702
1152.0,0.007436205167323351
1280.0,0.0040874239057302475
1408.0,0.001173663418740034
1536.0,-0.005048126447945833
1664.0,-0.005272313952445984
1792.0,-0.00861073937267065
1920.0,-0.010770559310913086
2048.0,-0.010361283086240292
2304.0,-0.003920701332390308
2560.0,-0.0027674888260662556
2816.0,-0.0021441327407956123
3072.0,-0.00654049776494503
3328.0,0.004746032413095236
3584.0,0.00721781188622117
3840.0,0.005827091634273529
4096.0,0.011475502513349056
4608.0,0.0035724337212741375
5120.0,-0.00022070074919611216
5632.0,-0.004237140063196421
6144.0,-0.009836599230766296
6656.0,0.0008733614231459796
7168.0,-0.0026277287397533655
7680.0,-0.0007985011325217783
8192.0,0.006990221794694662
9216.0,-0.0006018412532284856
10240.0,-0.006203859578818083
11264.0,-0.006619534455239773
12288.0,0.0023226761259138584
13312.0,0.005366212222725153
14336.0,-0.005421790760010481
end
