version,3.0
numOfCh,1
type,point
parent_name,clean
ch_type,1_1
kcount,1
numberNandB,1
brightnessNandB,1
carpet pos,0
pc,0
Time (ms),CH1 Auto-Correlation
1.0,0.038816772401332855
2.0,0.03863571584224701
3.0,0.03845908120274544
4.0,0.038282956928014755
5.0,0.03810486942529678
6.0,0.03792484477162361
7.0,0.037749409675598145
8.0,0.037578340619802475
9.0,0.03740902245044708
10.0,0.0372404046356678
11.0,0.03707525506615639
12.0,0.03691444545984268
13.0,0.03675244376063347
14.0,0.036593321710824966
15.0,0.036430783569812775
16.0,0.03626652806997299
18.0,0.03594401851296425
20.0,0.035630904138088226
22.0,0.03533081337809563
24.0,0.03503813222050667
26.0,0.034745000302791595
28.0,0.03445644676685333
30.0,0.03416970372200012
32.0,0.03389718383550644
36.0,0.03335082158446312
40.0,0.03280232474207878
44.0,0.0322733111679554
48.0,0.03177320212125778
52.0,0.03128976747393608
56.0,0.03083883225917816
60.0,0.030412258580327034
64.0,0.029987260699272156
72.0,0.029136376455426216
80.0,0.028252068907022476
88.0,0.027403496205806732
96.0,0.026630589738488197
104.0,0.025905001908540726
112.0,0.025198431685566902
120.0,0.02455202490091324
128.0,0.024013403803110123
144.0,0.022896427661180496
160.0,0.02180015668272972
176.0,0.020911289379000664
192.0,0.020163051784038544
208.0,0.01938837207853794
224.0,0.01850624941289425
240.0,0.017563750967383385
256.0,0.016592560335993767
288.0,0.014879235997796059
320.0,0.013928537257015705
352.0,0.013741197995841503
384.0,0.013618522323668003
416.0,0.013171314261853695
448.0,0.012688926421105862
480.0,0.01183958537876606
512.0,0.011109531857073307
576.0,0.011146454140543938
640.0,0.011190902441740036
704.0,0.01064942218363285
768.0,0.009962539188563824
832.0,0.010430920869112015
896.0,0.01016802154481411
960.0,0.009375655092298985
1024.0,0.009198041632771492
1152.0,0.008002608083188534
1280.0,0.00823101308196783
1408.0,0.008036135695874691
1536.0,0.0060106306336820126
1664.0,0.004739816300570965
1792.0,0.00569153530523181
1920.0,0.0061104921624064445
2048.0,0.0038769757375121117
2304.0,4.918163176625967e-05
2560.0,0.0002615304256323725
2816.0,0.0038827357348054647
3072.0,0.003090227022767067
3328.0,0.004695673007518053
3584.0,0.005621069576591253
3840.0,0.004589701537042856
4096.0,0.0027340706437826157
4608.0,0.0035382453352212906
5120.0,-0.005846050567924976
5632.0,-0.006180281285196543
6144.0,-0.00838309433311224
6656.0,-0.006400663405656815
7168.0,-0.005386857315897942
7680.0,-0.0030352978501468897
8192.0,0.0004853857681155205
9216.0,-0.00670456001535058
10240.0,-0.007233318407088518
11264.0,-0.0007159753004088998
12288.0,-0.007461791858077049
13312.0,-0.017735209316015244
14336.0,-0.026706987991929054
end
