version,3.0
numOfCh,1
type,point
parent_name,clean
ch_type,1_1
kcount,1
numberNandB,1
brightnessNandB,1
carpet pos,0
pc,0
Time (ms),CH1 Auto-Correlation
1.0,0.08139035850763321
2.0,0.08090462535619736
3.0,0.08042215555906296
4.0,0.07993505895137787
5.0,0.07944437116384506
6.0,0.07895608246326447
7.0,0.07847436517477036
8.0,0.0780031606554985
9.0,0.07754585891962051
10.0,0.07710635662078857
11.0,0.07667502760887146
12.0,0.07624372839927673
13.0,0.0758158415555954
14.0,0.07538934797048569
15.0,0.0749734565615654
16.0,0.07454953342676163
18.0,0.0737016350030899
20.0,0.07288563251495361
22.0,0.07209315896034241
24.0,0.07130446285009384
26.0,0.07049331068992615
28.0,0.06969893723726273
30.0,0.06892234086990356
32.0,0.06816604733467102
36.0,0.06666151434183121
40.0,0.06523716449737549
44.0,0.06394679844379425
48.0,0.06274844706058502
52.0,0.06165166199207306
56.0,0.06066907197237015
60.0,0.05972547456622124
64.0,0.05876568704843521
72.0,0.056976646184921265
80.0,0.05524280294775963
88.0,0.05355159565806389
96.0,0.05188058316707611
104.0,0.05022435262799263
112.0,0.04852859303355217
120.0,0.047020506113767624
128.0,0.04562767222523689
144.0,0.04290623962879181
160.0,0.040385887026786804
176.0,0.038485974073410034
192.0,0.03674611449241638
208.0,0.034979622811079025
224.0,0.03328993171453476
240.0,0.031728968024253845
256.0,0.030250493437051773
288.0,0.027676496654748917
320.0,0.02497064508497715
352.0,0.02197088487446308
384.0,0.01938004605472088
416.0,0.017814673483371735
448.0,0.016081076115369797
480.0,0.013951885513961315
512.0,0.01270463690161705
576.0,0.009019820019602776
640.0,0.005873895715922117
704.0,0.0021643727086484432
768.0,-0.001209272420965135
832.0,-0.007126203738152981
896.0,-0.011499854736030102
960.0,-0.011861694976687431
1024.0,-0.010882847011089325
1152.0,-0.01201111264526844
1280.0,-0.013848013244569302
1408.0,-0.01757011003792286
1536.0,-0.016173280775547028
1664.0,-0.008619318716228008
1792.0,-0.006101385224610567
1920.0,-0.006399775855243206
2048.0,-0.002569549484178424
2304.0,-0.00010750844376161695
2560.0,0.007292489055544138
2816.0,0.004554044920951128
3072.0,0.0010904337977990508
3328.0,-0.0027283066883683205
3584.0,-0.013712728396058083
3840.0,-0.010308841243386269
4096.0,-0.01601274311542511
4608.0,-0.023465262725949287
5120.0,-0.0028926183003932238
5632.0,0.017910132184624672
6144.0,0.011328309774398804
6656.0,-0.011874020099639893
7168.0,-0.017764968797564507
7680.0,0.009023873135447502
8192.0,0.02609087899327278
9216.0,0.01409089844673872
10240.0,-0.012046770192682743
11264.0,0.005429901648312807
12288.0,-0.01692095957696438
13312.0,-0.014319796115159988
14336.0,0.023976754397153854
end
