version,3.0
numOfCh,1
type,point
parent_name,clean
ch_type,1_1
kcount,1
numberNandB,1
brightnessNandB,1
carpet pos,0
pc,0
Time (ms),CH1 Auto-Correlation
1.0,0.05951360613107681
2.0,0.05910657346248627
3.0,0.05870231240987778
4.0,0.05830569565296173
5.0,0.05792476236820221
6.0,0.05755482614040375
7.0,0.057190246880054474
8.0,0.05682747811079025
9.0,0.05647120997309685
10.0,0.05611341446638107
11.0,0.055766455829143524
12.0,0.055428966879844666
13.0,0.05509089305996895
14.0,0.05475630983710289
15.0,0.05444001033902168
16.0,0.05413423478603363
18.0,0.05354061722755432
20.0,0.05298945680260658
22.0,0.052457865327596664
24.0,0.051924120634794235
26.0,0.051402244716882706
28.0,0.050885315984487534
30.0,0.05037880316376686
32.0,0.049875836819410324
36.0,0.04887637495994568
40.0,0.04787951335310936
44.0,0.04692203551530838
48.0,0.046025533229112625
52.0,0.04517320916056633
56.0,0.04434506222605705
60.0,0.043550215661525726
64.0,0.04272079840302467
72.0,0.04126819968223572
80.0,0.03996669501066208
88.0,0.03857850655913353
96.0,0.03724751994013786
104.0,0.03613024204969406
112.0,0.03528617322444916
120.0,0.03458240255713463
128.0,0.03401782736182213
144.0,0.03264579921960831
160.0,0.030768921598792076
176.0,0.028639107942581177
192.0,0.0267472080886364
208.0,0.025180965662002563
224.0,0.02344224415719509
240.0,0.02190352790057659
256.0,0.020504223182797432
288.0,0.01831868104636669
320.0,0.018049433827400208
352.0,0.018898507580161095
384.0,0.02000710740685463
416.0,0.020791195333003998
448.0,0.020749932155013084
480.0,0.019887136295437813
512.0,0.01931566745042801
576.0,0.019662966951727867
640.0,0.017574604600667953
704.0,0.015885503962635994
768.0,0.015735117718577385
832.0,0.01618923619389534
896.0,0.016718080267310143
960.0,0.017107339575886726
1024.0,0.015557555481791496
1152.0,0.009467539377510548
1280.0,0.005953100509941578
1408.0,0.004037127830088139
1536.0,1.1625517799984664e-05
1664.0,0.00023042720567900687
1792.0,0.0013551685260608792
1920.0,-0.0012263875687494874
2048.0,-0.002040173625573516
2304.0,-0.00490343663841486
2560.0,-0.008407589048147202
2816.0,-0.013080820441246033
3072.0,-0.00944463163614273
3328.0,-0.008224847726523876
3584.0,-0.005050912965089083
3840.0,-0.0038003227673470974
4096.0,-0.005958428606390953
4608.0,-0.006183503195643425
5120.0,-0.006867590826004744
5632.0,-0.009155569598078728
6144.0,-0.0152256079018116
6656.0,-0.016934577375650406
7168.0,-0.017670540139079094
7680.0,-0.009925312362611294
8192.0,-0.005724960006773472
9216.0,0.018394198268651962
10240.0,0.015407152473926544
11264.0,0.0029583657160401344
12288.0,-0.004253959283232689
13312.0,-0.0024674765300005674
14336.0,-0.002233786042779684
end
