version,3.0
numOfCh,1
type,point
parent_name,clean
ch_type,1_1
kcount,1
numberNandB,1
brightnessNandB,1
carpet pos,0
pc,0
Time (ms),CH1 Auto-Correlation
1.0,0.02531753107905388
2.0,0.025120576843619347
3.0,0.0249320138245821
4.0,0.02474469691514969
5.0,0.0245603509247303
6.0,0.024379748851060867
7.0,0.02419813722372055
8.0,0.024021513760089874
9.0,0.023842807859182358
10.0,0.02366434782743454
11.0,0.023486962541937828
12.0,0.023309241980314255
13.0,0.023131700232625008
14.0,0.02295667678117752
15.0,0.022783752530813217
16.0,0.022613678127527237
18.0,0.0222744420170784
20.0,0.02194809913635254
22.0,0.021638384088873863
24.0,0.021340427920222282
26.0,0.02104625478386879
28.0,0.020764337852597237
30.0,0.020477015525102615
32.0,0.02019679546356201
36.0,0.01963980309665203
40.0,0.019094813615083694
44.0,0.01857909746468067
48.0,0.018072187900543213
52.0,0.017560109496116638
56.0,0.017061706632375717
60.0,0.01659373752772808
64.0,0.01616588979959488
72.0,0.015405883081257343
80.0,0.01468757912516594
88.0,0.013998186215758324
96.0,0.013312902301549911
104.0,0.012656065635383129
112.0,0.012125222012400627
120.0,0.011683885008096695
128.0,0.01126139983534813
144.0,0.01033235527575016
160.0,0.009357002563774586
176.0,0.008446387015283108
192.0,0.007747262716293335
208.0,0.007099792826920748
224.0,0.006605082657188177
240.0,0.006162104196846485
256.0,0.00582115026190877
288.0,0.00534455943852663
320.0,0.004858041647821665
352.0,0.004467051476240158
384.0,0.00368233909830451
416.0,0.0025730940978974104
448.0,0.0015799414832144976
480.0,0.0013511794386431575
512.0,0.0017761896597221494
576.0,0.0020058881491422653
640.0,0.0020911586470901966
704.0,0.0019653632771223783
768.0,0.0006076988065615296
832.0,0.000496372755151242
896.0,0.0016041223425418139
960.0,0.0018972480902448297
1024.0,0.0013160244561731815
1152.0,0.0007742901798337698
1280.0,0.0010272630024701357
1408.0,-0.0004896411555819213
1536.0,0.00021066951740067452
1664.0,-0.0005089137121103704
1792.0,0.0002982889418490231
1920.0,-0.0001524627150502056
2048.0,-0.00015030255599413067
2304.0,0.0012523424811661243
2560.0,0.0005362596712075174
2816.0,-0.00014343204384204
3072.0,-0.0025205633137375116
3328.0,-0.000699442985933274
3584.0,-0.001978615764528513
3840.0,0.0012840342242270708
4096.0,0.0016251526540145278
4608.0,0.0015168858226388693
5120.0,-0.00030367641011253
5632.0,-0.0018157392041757703
6144.0,0.0006275695632211864
6656.0,-0.0022641518153250217
7168.0,0.000625452259555459
7680.0,5.032765693613328e-05
8192.0,0.0016230054898187518
9216.0,-0.005183745175600052
10240.0,-0.004791930317878723
11264.0,-0.003149530617520213
12288.0,-0.0012948826188221574
13312.0,0.0005351321888156235
14336.0,-0.000393328518839553
end
