version,3.0
numOfCh,1
type,point
parent_name,clean
ch_type,1_1
kcount,1
numberNandB,1
brightnessNandB,1
carpet pos,0
pc,0
Time (ms),CH1 Auto-Correlation
1.0,0.06499064713716507
2.0,0.06456831842660904
3.0,0.06414968520402908
4.0,0.06373073905706406
5.0,0.06331799924373627
6.0,0.06291500478982925
7.0,0.0625176727771759
8.0,0.0621345154941082
9.0,0.06174421310424805
10.0,0.061376169323921204
11.0,0.06101410835981369
12.0,0.06065496802330017
13.0,0.06030036881566048
14.0,0.05994065850973129
15.0,0.0595855712890625
16.0,0.0592319630086422
18.0,0.05852402374148369
20.0,0.0578334741294384
22.0,0.057203616946935654
24.0,0.05659622699022293
26.0,0.056006092578172684
28.0,0.055423080921173096
30.0,0.05487414821982384
32.0,0.05436112359166145
36.0,0.05336521193385124
40.0,0.052413780242204666
44.0,0.051509175449609756
48.0,0.05063428729772568
52.0,0.049710266292095184
56.0,0.048783235251903534
60.0,0.04788869619369507
64.0,0.047012001276016235
72.0,0.04536491632461548
80.0,0.04386726766824722
88.0,0.04249577969312668
96.0,0.041164182126522064
104.0,0.039887797087430954
112.0,0.03863042593002319
120.0,0.03731531649827957
128.0,0.03617873042821884
144.0,0.034065090119838715
160.0,0.03178875148296356
176.0,0.02957146428525448
192.0,0.027884820476174355
208.0,0.026869352906942368
224.0,0.02625589817762375
240.0,0.025683557614684105
256.0,0.02509608119726181
288.0,0.02372613735496998
320.0,0.02221381664276123
352.0,0.019853191450238228
384.0,0.016802920028567314
416.0,0.013538377359509468
448.0,0.009989079087972641
480.0,0.007071272935718298
512.0,0.0048039634712040424
576.0,0.0061761424876749516
640.0,0.00810349639505148
704.0,0.007220728322863579
768.0,0.0024059012066572905
832.0,8.039775275392458e-05
896.0,0.0008202593307942152
960.0,0.0018106565112248063
1024.0,-0.00034915038850158453
1152.0,-0.0049148197285830975
1280.0,-0.005810216069221497
1408.0,-0.011142322793602943
1536.0,-0.016572535037994385
1664.0,-0.01613510213792324
1792.0,-0.012690107338130474
1920.0,-0.009040934033691883
2048.0,-0.008623139001429081
2304.0,-0.009219985455274582
2560.0,-0.004479169845581055
2816.0,-0.001860804040916264
3072.0,0.0046395668759942055
3328.0,0.009154386818408966
3584.0,0.007695647422224283
3840.0,0.005976473446935415
4096.0,0.0019029475515708327
4608.0,0.002821421716362238
5120.0,-0.011613203212618828
5632.0,-0.012908129021525383
6144.0,-0.0024030418135225773
6656.0,0.000261350825894624
7168.0,0.004156848881393671
7680.0,-0.004185740370303392
8192.0,-0.018139949068427086
9216.0,-0.0012087973300367594
10240.0,0.022416476160287857
11264.0,-0.005187094211578369
12288.0,-0.01715598627924919
13312.0,0.0007204189896583557
14336.0,0.04841538146138191
end
