version,3.0
numOfCh,1
type,point
parent_name,clean
ch_type,1_1
kcount,1
numberNandB,1
brightnessNandB,1
carpet pos,0
pc,0
Time (ms),CH1 Auto-Correlation
1.0,0.025612423196434975
2.0,0.025414738804101944
3.0,0.02522093988955021
4.0,0.02503197453916073
5.0,0.024847213178873062
6.0,0.02466733753681183
7.0,0.024491602554917336
8.0,0.024312136694788933
9.0,0.024135559797286987
10.0,0.023958181962370872
11.0,0.023776737973093987
12.0,0.023598473519086838
13.0,0.02342689223587513
14.0,0.02326131984591484
15.0,0.02310117520391941
16.0,0.02294762432575226
18.0,0.022647639736533165
20.0,0.02235044352710247
22.0,0.022048577666282654
24.0,0.021743474528193474
26.0,0.02144540287554264
28.0,0.021146070212125778
30.0,0.020849185064435005
32.0,0.020556475967168808
36.0,0.019991140812635422
40.0,0.019449058920145035
44.0,0.01892753876745701
48.0,0.018460428342223167
52.0,0.018003739416599274
56.0,0.01755163073539734
60.0,0.017117507755756378
64.0,0.016732873395085335
72.0,0.01598442532122135
80.0,0.015257511287927628
88.0,0.014662071131169796
96.0,0.01409575529396534
104.0,0.0135189238935709
112.0,0.012901452369987965
120.0,0.012332340702414513
128.0,0.011876288801431656
144.0,0.011211210861802101
160.0,0.010751137509942055
176.0,0.01036610547453165
192.0,0.00993318110704422
208.0,0.00949082337319851
224.0,0.009031194262206554
240.0,0.008600890636444092
256.0,0.008007241412997246
288.0,0.0066873603500425816
320.0,0.005671159829944372
352.0,0.005087670404464006
384.0,0.004080940503627062
416.0,0.0034022063482552767
448.0,0.0027188591193407774
480.0,0.0022309820633381605
512.0,0.0018965635681524873
576.0,0.0009213421144522727
640.0,0.0008593196980655193
704.0,0.0008879140368662775
768.0,0.0012314141495153308
832.0,0.0012182729551568627
896.0,0.0006947966758161783
960.0,-0.00030918512493371964
1024.0,-5.5240299843717366e-05
1152.0,0.0010210999753326178
1280.0,-0.00016493747534696013
1408.0,-0.0019896854646503925
1536.0,-0.0029242411255836487
1664.0,-0.0022894178982824087
1792.0,-0.0007553364266641438
1920.0,-0.000874221499543637
2048.0,-0.0018541407771408558
2304.0,-0.003701920621097088
2560.0,-0.004477020353078842
2816.0,-0.0026521070394665003
3072.0,-0.004271373152732849
3328.0,-0.003987463656812906
3584.0,-0.0015580886974930763
3840.0,-0.0004786505305673927
4096.0,-0.00036644580541178584
4608.0,0.0040512364357709885
5120.0,0.0018915869295597076
5632.0,0.003110675374045968
6144.0,0.0030184409115463495
6656.0,0.0016105493996292353
7168.0,-0.004352246411144733
7680.0,-0.0055413381196558475
8192.0,-0.001288434024900198
9216.0,-0.0003119736793451011
10240.0,-0.00014598913548979908
11264.0,0.0006850115605629981
12288.0,-0.0016849383246153593
13312.0,-0.005285066086798906
14336.0,0.004626275040209293
end
