version,3.0
numOfCh,1
type,point
parent_name,clean
ch_type,1_1
kcount,1
numberNandB,1
brightnessNandB,1
carpet pos,0
pc,0
Time (ms),CH1 Auto-Correlation
1.0,0.07208942621946335
2.0,0.07160001248121262
3.0,0.07111787796020508
4.0,0.07063058018684387
5.0,0.07014691829681396
6.0,0.06967789679765701
7.0,0.06921312212944031
8.0,0.06876165419816971
9.0,0.06831319630146027
10.0,0.06786305457353592
11.0,0.06740498542785645
12.0,0.0669570043683052
13.0,0.06650645285844803
14.0,0.06607695668935776
15.0,0.06565862894058228
16.0,0.06523462384939194
18.0,0.06440185755491257
20.0,0.0635882094502449
22.0,0.06279314309358597
24.0,0.06203555315732956
26.0,0.06128436326980591
28.0,0.06051064655184746
30.0,0.05973050370812416
32.0,0.058949850499629974
36.0,0.057439226657152176
40.0,0.0560506246984005
44.0,0.05469668656587601
48.0,0.053393200039863586
52.0,0.05213981866836548
56.0,0.05091366916894913
60.0,0.04971184581518173
64.0,0.04861249402165413
72.0,0.046575792133808136
80.0,0.044533777981996536
88.0,0.042533453553915024
96.0,0.040833257138729095
104.0,0.03932127729058266
112.0,0.037882301956415176
120.0,0.036404144018888474
128.0,0.0350169911980629
144.0,0.03279555216431618
160.0,0.03101116046309471
176.0,0.02922513335943222
192.0,0.02699708566069603
208.0,0.02401415817439556
224.0,0.02148052304983139
240.0,0.01924493908882141
256.0,0.01741347834467888
288.0,0.014691760763525963
320.0,0.013395847752690315
352.0,0.012402073480188847
384.0,0.011301537044346333
416.0,0.010016065090894699
448.0,0.009653454646468163
480.0,0.008875585161149502
512.0,0.007576459087431431
576.0,0.0025263011921197176
640.0,-0.0013111911248415709
704.0,-0.0027659826446324587
768.0,-0.004276379477232695
832.0,-0.003127055475488305
896.0,-0.003895408008247614
960.0,-0.004779410548508167
1024.0,-0.00381068279966712
1152.0,-0.0020828344859182835
1280.0,-0.0027307067066431046
1408.0,-0.009111461229622364
1536.0,-0.012558544054627419
1664.0,-0.01078782882541418
1792.0,-0.007098849397152662
1920.0,-0.003205456305295229
2048.0,0.002002215478569269
2304.0,0.0010407539084553719
2560.0,0.0024408053141087294
2816.0,0.005863803438842297
3072.0,0.006781151983886957
3328.0,0.005399106070399284
3584.0,-0.00559071684256196
3840.0,-0.00949824694544077
4096.0,0.0006792175699956715
4608.0,0.002033927710726857
5120.0,0.002792252926155925
5632.0,-0.004927812609821558
6144.0,-0.00793428998440504
6656.0,-0.007390250451862812
7168.0,0.0010554927866905928
7680.0,0.008385292254388332
8192.0,-0.007294674403965473
9216.0,-0.01304531842470169
10240.0,0.016488680616021156
11264.0,-0.002152928849682212
12288.0,-0.011866467073559761
13312.0,-0.006473650224506855
14336.0,0.012653610669076443
end
