version,3.0
numOfCh,1
type,point
parent_name,clean
ch_type,1_1
kcount,1
numberNandB,1
brightnessNandB,1
carpet pos,0
pc,0
Time (ms),CH1 Auto-Correlation
1.0,0.04517345130443573
2.0,0.04477643221616745
3.0,0.04438289627432823
4.0,0.04400259256362915
5.0,0.04362832382321358
6.0,0.04325693100690842
7.0,0.04289820045232773
8.0,0.04254230111837387
9.0,0.04219168424606323
10.0,0.041838791221380234
11.0,0.04149568825960159
12.0,0.041149742901325226
13.0,0.04080857336521149
14.0,0.040472716093063354
15.0,0.04013589769601822
16.0,0.039799660444259644
18.0,0.03915804624557495
20.0,0.03855415806174278
22.0,0.037965867668390274
24.0,0.03738325461745262
26.0,0.036796361207962036
28.0,0.036221593618392944
30.0,0.035640109330415726
32.0,0.035062115639448166
36.0,0.033950336277484894
40.0,0.032805364578962326
44.0,0.031676460057497025
48.0,0.030636945739388466
52.0,0.029672114178538322
56.0,0.028751190751791
60.0,0.02785918302834034
64.0,0.026975035667419434
72.0,0.025205135345458984
80.0,0.023543618619441986
88.0,0.021961573511362076
96.0,0.020482271909713745
104.0,0.01901472918689251
112.0,0.0176438819617033
120.0,0.016299890354275703
128.0,0.014982106164097786
144.0,0.012757556512951851
160.0,0.011076531372964382
176.0,0.010055528953671455
192.0,0.009360264055430889
208.0,0.00907146092504263
224.0,0.009034638293087482
240.0,0.008923614397644997
256.0,0.008459136821329594
288.0,0.0073286397382617
320.0,0.0066739157773554325
352.0,0.006556961685419083
384.0,0.006483937613666058
416.0,0.006877027451992035
448.0,0.007395283784717321
480.0,0.007723676506429911
512.0,0.007825616747140884
576.0,0.0076324427500367165
640.0,0.008108890615403652
704.0,0.006419069599360228
768.0,0.0017393834423273802
832.0,-0.0025579079519957304
896.0,-0.005053973291069269
960.0,-0.006300687789916992
1024.0,-0.005442611873149872
1152.0,-0.00310840317979455
1280.0,-0.0030353390611708164
1408.0,-0.004755138419568539
1536.0,-0.0036726316902786493
1664.0,-0.004794816020876169
1792.0,-0.004256705287843943
1920.0,-0.003927260637283325
2048.0,-0.006164185702800751
2304.0,-0.0020188295748084784
2560.0,-0.0008871336467564106
2816.0,-0.0008305052760988474
3072.0,0.0009370677289552987
3328.0,-0.0014304466312751174
3584.0,-0.0008056950755417347
3840.0,5.652964773616986e-06
4096.0,0.00294867274351418
4608.0,-0.004335490055382252
5120.0,-0.0090696532279253
5632.0,0.00011534983786987141
6144.0,0.005113331135362387
6656.0,0.005053845699876547
7168.0,0.007905274629592896
7680.0,0.00515412911772728
8192.0,0.002557645319029689
9216.0,-0.010436685755848885
10240.0,0.0006884785834699869
11264.0,-0.00045868312008678913
12288.0,-0.012281717732548714
13312.0,0.007857708260416985
14336.0,0.01437846664339304
end
