version,3.0
numOfCh,1
type,point
parent_name,clean
ch_type,1_1
kcount,1
numberNandB,1
brightnessNandB,1
carpet pos,0
pc,0
Time (ms),CH1 Auto-Correlation
1.0,0.03245975822210312
2.0,0.03227338194847107
3.0,0.03208661451935768
4.0,0.03189976513385773
5.0,0.031710196286439896
6.0,0.031529493629932404
7.0,0.031349845230579376
8.0,0.031170673668384552
9.0,0.030992696061730385
10.0,0.030814025551080704
11.0,0.03063547983765602
12.0,0.030453357845544815
13.0,0.03027503192424774
14.0,0.030095547437667847
15.0,0.0299172755330801
16.0,0.02974184975028038
18.0,0.029405200853943825
20.0,0.02908213809132576
22.0,0.028765259310603142
24.0,0.028451506048440933
26.0,0.02813938446342945
28.0,0.027834827080368996
30.0,0.027535850182175636
32.0,0.027256883680820465
36.0,0.02672431617975235
40.0,0.02621852606534958
44.0,0.025740381330251694
48.0,0.025292236357927322
52.0,0.024871202185750008
56.0,0.0244622640311718
60.0,0.024065127596259117
64.0,0.023684393614530563
72.0,0.022964786738157272
80.0,0.02227918803691864
88.0,0.02166958898305893
96.0,0.021097689867019653
104.0,0.020481353625655174
112.0,0.019809875637292862
120.0,0.01913980394601822
128.0,0.018520904704928398
144.0,0.01743948459625244
160.0,0.016658850014209747
176.0,0.015941673889756203
192.0,0.015249042771756649
208.0,0.0146986348554492
224.0,0.014121625572443008
240.0,0.013491136021912098
256.0,0.012980589643120766
288.0,0.011798531748354435
320.0,0.01039927639067173
352.0,0.009323704987764359
384.0,0.008534971624612808
416.0,0.00820890162140131
448.0,0.007818448357284069
480.0,0.007028779946267605
512.0,0.0061164190992712975
576.0,0.004752608016133308
640.0,0.0031326785683631897
704.0,0.0023029225412756205
768.0,0.0008683350752107799
832.0,-0.0008106841705739498
896.0,-0.001565943588502705
960.0,-0.0027401510160416365
1024.0,-0.004247103352099657
1152.0,-0.005243829917162657
1280.0,-0.0038044475950300694
1408.0,-0.003394496161490679
1536.0,-0.002909482689574361
1664.0,-0.0021466498728841543
1792.0,0.0005883973790332675
1920.0,0.004546449054032564
2048.0,0.006439907010644674
2304.0,0.006483956705778837
2560.0,0.004054685588926077
2816.0,0.001952279475517571
3072.0,-0.0017351453425362706
3328.0,-0.0030016093514859676
3584.0,-0.0017159051494672894
3840.0,0.0005120141431689262
4096.0,0.002349102171137929
4608.0,0.0001815875293686986
5120.0,-0.004659253638237715
5632.0,-0.005461076740175486
6144.0,-0.001045072334818542
6656.0,-0.00023529367172159255
7168.0,-0.002876266837120056
7680.0,-0.00550771364942193
8192.0,-0.005413076374679804
9216.0,-0.0016148013528436422
10240.0,-0.0019630284514278173
11264.0,0.0004625320725608617
12288.0,-0.0026320379693061113
13312.0,-0.0014091901248320937
14336.0,-0.005150590557605028
end
