version,3.0
numOfCh,1
type,point
parent_name,clean
ch_type,1_1
kcount,1
numberNandB,1
brightnessNandB,1
carpet pos,0
pc,0
Time (ms),CH1 Auto-Correlation
1.0,0.06202854961156845
2.0,0.061599522829055786
3.0,0.06117519363760948
4.0,0.06073729321360588
5.0,0.06031541898846626
6.0,0.05990096926689148
7.0,0.05949923023581505
8.0,0.05910236015915871
9.0,0.058709245175123215
10.0,0.058320410549640656
11.0,0.05792650207877159
12.0,0.05753273144364357
13.0,0.05714837834239006
14.0,0.05677306279540062
15.0,0.05639968067407608
16.0,0.05603799968957901
18.0,0.05531982704997063
20.0,0.05459494888782501
22.0,0.053860776126384735
24.0,0.053118906915187836
26.0,0.05238216370344162
28.0,0.05165649950504303
30.0,0.05096247419714928
32.0,0.05029671639204025
36.0,0.04901445284485817
40.0,0.04776838794350624
44.0,0.046564605087041855
48.0,0.04542809724807739
52.0,0.04427507519721985
56.0,0.04322398453950882
60.0,0.04227132722735405
64.0,0.04138574004173279
72.0,0.03973866254091263
80.0,0.03815896064043045
88.0,0.036671411246061325
96.0,0.035276859998703
104.0,0.0340091846883297
112.0,0.03283229097723961
120.0,0.031693875789642334
128.0,0.03045315109193325
144.0,0.02797362394630909
160.0,0.0259250495582819
176.0,0.02433747984468937
192.0,0.023047368973493576
208.0,0.02225472964346409
224.0,0.02156258188188076
240.0,0.020705347880721092
256.0,0.019550971686840057
288.0,0.01739620976150036
320.0,0.015862710773944855
352.0,0.012996443547308445
384.0,0.009926768019795418
416.0,0.008121632970869541
448.0,0.008504750207066536
480.0,0.00836268812417984
512.0,0.0075024208053946495
576.0,0.0044451369903981686
640.0,0.0015222904039546847
704.0,0.0009244197863154113
768.0,0.0024408074095845222
832.0,0.006069336552172899
896.0,0.00843198411166668
960.0,0.010338119231164455
1024.0,0.011152224615216255
1152.0,0.008172085508704185
1280.0,0.006802019197493792
1408.0,0.0026578076649457216
1536.0,0.001953219762071967
1664.0,-0.0013961574295535684
1792.0,0.0018288561841472983
1920.0,0.005410784389823675
2048.0,0.011809169314801693
2304.0,0.008441700600087643
2560.0,0.006254550069570541
2816.0,0.002112108748406172
3072.0,-0.0007269610068760812
3328.0,-0.009833450429141521
3584.0,-0.011552361771464348
3840.0,-0.013038505800068378
4096.0,-0.011833267286419868
4608.0,-0.010444139130413532
5120.0,-0.008000297471880913
5632.0,-0.009129359386861324
6144.0,-0.008416715078055859
6656.0,-0.009632108733057976
7168.0,-0.0022720242850482464
7680.0,0.008147968910634518
8192.0,0.003542952239513397
9216.0,-0.001890363055281341
10240.0,0.005536358337849379
11264.0,-0.0025850168894976377
12288.0,0.0010373997502028942
13312.0,0.0029425390530377626
14336.0,-0.0037891874089837074
end
