version,3.0
numOfCh,1
type,point
parent_name,clean
ch_type,1_1
kcount,1
numberNandB,1
brightnessNandB,1
carpet pos,0
pc,0
Time (ms),CH1 Auto-Correlation
1.0,0.04084291309118271
2.0,0.04063745215535164
3.0,0.04043414071202278
4.0,0.04023365303874016
5.0,0.04003964364528656
6.0,0.0398503839969635
7.0,0.039665620774030685
8.0,0.03947771340608597
9.0,0.03929147124290466
10.0,0.0391094870865345
11.0,0.03892809525132179
12.0,0.03874759376049042
13.0,0.038570158183574677
14.0,0.038395337760448456
15.0,0.03822505474090576
16.0,0.03806030750274658
18.0,0.03773229569196701
20.0,0.03740188106894493
22.0,0.0370631217956543
24.0,0.03672792389988899
26.0,0.036403197795152664
28.0,0.03608659282326698
30.0,0.0357874259352684
32.0,0.03549715504050255
36.0,0.03491603583097458
40.0,0.03435622528195381
44.0,0.033826880156993866
48.0,0.033340662717819214
52.0,0.0328989252448082
56.0,0.03243239223957062
60.0,0.031938355416059494
64.0,0.03145073726773262
72.0,0.03052939660847187
80.0,0.029657745733857155
88.0,0.028804557397961617
96.0,0.027990378439426422
104.0,0.027197524905204773
112.0,0.02647406794130802
120.0,0.025691717863082886
128.0,0.02483201026916504
144.0,0.02321876399219036
160.0,0.02182880789041519
176.0,0.020610637962818146
192.0,0.019478613510727882
208.0,0.018373562023043633
224.0,0.017335547134280205
240.0,0.016413403674960136
256.0,0.015515843406319618
288.0,0.013670139946043491
320.0,0.012062842957675457
352.0,0.010755711235105991
384.0,0.010343288071453571
416.0,0.009778854437172413
448.0,0.009139223024249077
480.0,0.00891584437340498
512.0,0.008661461062729359
576.0,0.008004896342754364
640.0,0.005928974132984877
704.0,0.003966120537370443
768.0,0.002096284180879593
832.0,0.0007473723962903023
896.0,-0.0003793527721427381
960.0,-0.0014729747781530023
1024.0,-0.0027741396334022284
1152.0,-0.005102262366563082
1280.0,-0.007755297236144543
1408.0,-0.008383761160075665
1536.0,-0.0089588463306427
1664.0,-0.009533543139696121
1792.0,-0.009564219042658806
1920.0,-0.009554024785757065
2048.0,-0.007497746497392654
2304.0,-0.003411416430026293
2560.0,-0.0015647095860913396
2816.0,-0.0008767441031523049
3072.0,0.002225675620138645
3328.0,0.0007573214243166149
3584.0,-0.0013105453690513968
3840.0,-0.003533704439178109
4096.0,-0.0025180350057780743
4608.0,-0.002791691804304719
5120.0,0.005146667826920748
5632.0,0.001717104110866785
6144.0,0.0020361554343253374
6656.0,0.001447913353331387
7168.0,-0.004923390224575996
7680.0,-0.006553058046847582
8192.0,-0.004060124047100544
9216.0,0.006561844609677792
10240.0,0.0018930770456790924
11264.0,0.0026746513321995735
12288.0,-0.0015611951239407063
13312.0,-0.00635880371555686
14336.0,-0.007294487673789263
end
