version,3.0
numOfCh,1
type,point
parent_name,clean
ch_type,1_1
kcount,1
numberNandB,1
brightnessNandB,1
carpet pos,0
pc,0
Time (ms),CH1 Auto-Correlation
1.0,0.04475437104701996
2.0,0.04456246271729469
3.0,0.04436890780925751
4.0,0.04417695105075836
5.0,0.043989766389131546
6.0,0.04380451515316963
7.0,0.04362159222364426
8.0,0.04344101622700691
9.0,0.04326069355010986
10.0,0.04308376833796501
11.0,0.04290977492928505
12.0,0.04273641109466553
13.0,0.042563166469335556
14.0,0.042389124631881714
15.0,0.042220890522003174
16.0,0.042058128863573074
18.0,0.04173024371266365
20.0,0.04140443727374077
22.0,0.04108776897192001
24.0,0.04077380895614624
26.0,0.0404609777033329
28.0,0.040153805166482925
30.0,0.039855409413576126
32.0,0.03956063091754913
36.0,0.038976412266492844
40.0,0.03841973468661308
44.0,0.037884894758462906
48.0,0.03737717866897583
52.0,0.03689304739236832
56.0,0.0364425927400589
60.0,0.036031436175107956
64.0,0.03564784675836563
72.0,0.03486030548810959
80.0,0.03405974805355072
88.0,0.03325184807181358
96.0,0.03257891163229942
104.0,0.0320475809276104
112.0,0.031553685665130615
120.0,0.03112279810011387
128.0,0.030748113989830017
144.0,0.03006746992468834
160.0,0.029400380328297615
176.0,0.029013289138674736
192.0,0.028640707954764366
208.0,0.028383217751979828
224.0,0.028141573071479797
240.0,0.02796262875199318
256.0,0.027759501710534096
288.0,0.026912759989500046
320.0,0.02577420137822628
352.0,0.0248459093272686
384.0,0.02405885048210621
416.0,0.023375418037176132
448.0,0.02323615923523903
480.0,0.022934915497899055
512.0,0.021701494231820107
576.0,0.018503351137042046
640.0,0.01609422266483307
704.0,0.01405224297195673
768.0,0.012599512003362179
832.0,0.0114720668643713
896.0,0.009497439488768578
960.0,0.008221947588026524
1024.0,0.006082097068428993
1152.0,0.0025234692730009556
1280.0,-0.0017292432021349669
1408.0,-0.003233981551602483
1536.0,-0.006311149336397648
1664.0,-0.0074515934102237225
1792.0,-0.009749073535203934
1920.0,-0.010556264780461788
2048.0,-0.011034336872398853
2304.0,-0.013951711356639862
2560.0,-0.01785883866250515
2816.0,-0.022189902141690254
3072.0,-0.020752599462866783
3328.0,-0.02004885859787464
3584.0,-0.01596130058169365
3840.0,-0.011659796349704266
4096.0,-0.005061618052423
4608.0,0.0035566550213843584
5120.0,0.006626051384955645
5632.0,0.010571606457233429
6144.0,0.012284679338335991
6656.0,0.010581414215266705
7168.0,0.004759034141898155
7680.0,-0.0014400157378986478
8192.0,-0.003723071189597249
9216.0,-0.0004930281429551542
10240.0,-0.0057971421629190445
11264.0,-0.005329071078449488
12288.0,0.002652661642059684
13312.0,0.0036163674667477608
14336.0,0.000584521098062396
end
