version,3.0
numOfCh,1
type,point
parent_name,714af_0dot6-0dot1
ch_type,1_1
kcount,1
numberNandB,1
brightnessNandB,1
carpet pos,0
pc,0
Time (ms),CH1 Auto-Correlation
1.0,0.02182271145284176
2.0,0.020688341930508614
3.0,0.0196384284645319
4.0,0.018724944442510605
5.0,0.017902623862028122
6.0,0.01717585138976574
7.0,0.016499431803822517
8.0,0.01583794318139553
9.0,0.01521188672631979
10.0,0.014584115706384182
11.0,0.01401986088603735
12.0,0.013473986648023129
13.0,0.012930331751704216
14.0,0.01244286261498928
15.0,0.012030654586851597
16.0,0.011692901141941547
18.0,0.011068299412727356
20.0,0.01048121228814125
22.0,0.00997860822826624
24.0,0.009480361826717854
26.0,0.009007832035422325
28.0,0.0085005983710289
30.0,0.008002085611224174
32.0,0.007609057705849409
36.0,0.006993875373154879
40.0,0.006568939425051212
44.0,0.006138581782579422
48.0,0.005896897986531258
52.0,0.005720972549170256
56.0,0.005633559077978134
60.0,0.005432668142020702
64.0,0.005161714740097523
72.0,0.004498764872550964
80.0,0.0037514676805585623
88.0,0.0029572248458862305
96.0,0.002515277126803994
104.0,0.0022037236485630274
112.0,0.001838833442889154
120.0,0.0017753065330907702
128.0,0.001669622492045164
144.0,0.001412777928635478
160.0,0.0012981181498616934
176.0,0.0010776995914056897
192.0,0.0009617432369850576
208.0,0.000906523666344583
224.0,0.0011158216511830688
240.0,0.0013406557263806462
256.0,0.0011423751711845398
288.0,0.000743290816899389
320.0,0.001035859459079802
352.0,0.0005783000960946083
384.0,-0.00011041080870199949
416.0,-0.0010388136142864823
448.0,-0.0007155615603551269
480.0,-0.00038616685196757317
512.0,-0.00016832204710226506
576.0,9.056837734533474e-05
640.0,-0.001027906546369195
704.0,-0.002091360976919532
768.0,-0.0017293383134528995
832.0,-0.0009089100640267134
896.0,-0.000712638022378087
960.0,-0.0008751395507715642
1024.0,-0.0011386304395273328
1152.0,0.0014081425033509731
1280.0,0.00022310897475108504
1408.0,-0.0013920271303504705
1536.0,-0.0009252073359675705
1664.0,-0.00014767512038815767
1792.0,0.0004114139301236719
1920.0,1.7687909348751418e-05
2048.0,0.0007769050425849855
2304.0,0.0016185581916943192
2560.0,-0.0008168841595761478
2816.0,-0.001895062392577529
3072.0,-0.0014433161122724414
3328.0,5.1400162192294374e-05
3584.0,-0.0011906218715012074
3840.0,-0.0013617287622764707
4096.0,-0.00017223451868630946
4608.0,0.0006731438334099948
5120.0,-0.0012295355554670095
5632.0,0.0002563383895903826
6144.0,-1.3628207852889318e-05
6656.0,0.001125145354308188
7168.0,0.00027627989766187966
7680.0,-0.0002921004197560251
8192.0,-0.0005299300537444651
end
