version,3.0
numOfCh,1
type,point
parent_name,714af_0dot6-0dot1
ch_type,1_1
kcount,1
numberNandB,1
brightnessNandB,1
carpet pos,0
pc,0
Time (ms),CH1 Auto-Correlation
1.0,0.0234078262001276
2.0,0.022237615659832954
3.0,0.021170426160097122
4.0,0.02013452723622322
5.0,0.019161289557814598
6.0,0.018281809985637665
7.0,0.017457416281104088
8.0,0.016683043912053108
9.0,0.015986662358045578
10.0,0.015348232351243496
11.0,0.014726155437529087
12.0,0.01416049338877201
13.0,0.013651705347001553
14.0,0.01318118441849947
15.0,0.012738710269331932
16.0,0.012375595048069954
18.0,0.011701508425176144
20.0,0.011142702773213387
22.0,0.010569864884018898
24.0,0.009944375604391098
26.0,0.009375164285302162
28.0,0.008942067623138428
30.0,0.008560997433960438
32.0,0.008202750235795975
36.0,0.007591722533106804
40.0,0.007199661806225777
44.0,0.006739879958331585
48.0,0.0063201733864843845
52.0,0.0058610402047634125
56.0,0.0054321251809597015
60.0,0.0051304795779287815
64.0,0.005121374037116766
72.0,0.005248153582215309
80.0,0.005399137735366821
88.0,0.0052399346604943275
96.0,0.00476048095151782
104.0,0.0043908110819756985
112.0,0.004074806347489357
120.0,0.003512186696752906
128.0,0.002817276632413268
144.0,0.001880877185612917
160.0,0.0010650372132658958
176.0,0.0005700353067368269
192.0,0.00043343371362425387
208.0,0.0010989903239533305
224.0,0.0019865825306624174
240.0,0.0017361459322273731
256.0,0.0009158924804069102
288.0,-0.0001307460479438305
320.0,0.0007684414740651846
352.0,0.0018066460033878684
384.0,0.001991660799831152
416.0,0.0004442924400791526
448.0,-0.00043120927875861526
480.0,-0.0004450267006177455
512.0,-0.0014173577073961496
576.0,-0.0007049565901979804
640.0,-4.7820445615798235e-05
704.0,0.0006933434051461518
768.0,0.0013703546719625592
832.0,0.0009097387082874775
896.0,-0.0007719268905930221
960.0,-0.000980093376711011
1024.0,-0.0007041768403723836
1152.0,-0.0005029519088566303
1280.0,-0.000913891417440027
1408.0,-9.872460941551253e-05
1536.0,-0.00040516778244636953
1664.0,-0.0005824781837873161
1792.0,0.00025787760387174785
1920.0,0.0009401194984093308
2048.0,-0.0003191189025528729
2304.0,-0.00040178396739065647
2560.0,0.0005463531124405563
2816.0,0.0007414371357299387
3072.0,-0.00047560955863445997
3328.0,-0.001243939041160047
3584.0,-0.0005620837910100818
3840.0,-0.0003619575873017311
4096.0,-0.0015401097480207682
4608.0,-0.0005670302780345082
5120.0,-0.0011467018630355597
5632.0,0.001119354972615838
6144.0,0.0005460951942950487
6656.0,-0.0009003254235722125
7168.0,-1.055998382071266e-06
7680.0,0.002006158698350191
8192.0,0.0006566872471012175
end
