version,3.0
numOfCh,1
type,point
parent_name,714af_0dot6-0dot1
ch_type,1_1
kcount,1
numberNandB,1
brightnessNandB,1
carpet pos,0
pc,0
Time (ms),CH1 Auto-Correlation
1.0,0.026332346722483635
2.0,0.02516242302954197
3.0,0.024118827655911446
4.0,0.02314244955778122
5.0,0.02223423682153225
6.0,0.02139720879495144
7.0,0.02063564397394657
8.0,0.01997409574687481
9.0,0.01932976208627224
10.0,0.018740925937891006
11.0,0.018187878653407097
12.0,0.01766270399093628
13.0,0.017153866589069366
14.0,0.016705188900232315
15.0,0.016241703182458878
16.0,0.01577717252075672
18.0,0.014908748678863049
20.0,0.014122577384114265
22.0,0.01345200464129448
24.0,0.012912707403302193
26.0,0.01236487552523613
28.0,0.011838588863611221
30.0,0.011381086893379688
32.0,0.011016364209353924
36.0,0.010430042631924152
40.0,0.009779348969459534
44.0,0.009125827811658382
48.0,0.008673037402331829
52.0,0.008211992681026459
56.0,0.007663594093173742
60.0,0.007018683943897486
64.0,0.006570874247699976
72.0,0.006058312486857176
80.0,0.005697241984307766
88.0,0.005549811292439699
96.0,0.005510845221579075
104.0,0.005120409186929464
112.0,0.004607386887073517
120.0,0.003942107316106558
128.0,0.0033278358168900013
144.0,0.0021856960374861956
160.0,0.0022365848999470472
176.0,0.0021857554093003273
192.0,0.002130418084561825
208.0,0.0025040428154170513
224.0,0.002915623364970088
240.0,0.00315618934109807
256.0,0.00290093757212162
288.0,0.0025484648067504168
320.0,0.003449889598414302
352.0,0.0034303453285247087
384.0,0.002658348996192217
416.0,0.001437990227714181
448.0,0.0014012967003509402
480.0,0.0017154391389340162
512.0,0.0013872149866074324
576.0,0.0008960589184425771
640.0,0.0009495469857938588
704.0,0.002027675276622176
768.0,0.0016689725453034043
832.0,0.0005245433421805501
896.0,-0.001150823081843555
960.0,-0.0019439134048298001
1024.0,-0.0019811270758509636
1152.0,-0.0019175520865246654
1280.0,-0.002876123646274209
1408.0,-0.0009339392418041825
1536.0,-0.002227549208328128
1664.0,-0.0030867899768054485
1792.0,-0.00295890006236732
1920.0,-0.0006118568126112223
2048.0,-0.0002672094851732254
2304.0,-0.00022352556698024273
2560.0,-9.509229130344465e-05
2816.0,0.0011149320052936673
3072.0,0.0008074158686213195
3328.0,0.0015115116257220507
3584.0,0.0012740426464006305
3840.0,-0.000984952668659389
4096.0,-0.0006667532725259662
4608.0,-0.0013504193630069494
5120.0,0.0005981947178952396
5632.0,0.0002912671188823879
6144.0,-0.0022100999485701323
6656.0,-0.0008549047051928937
7168.0,-0.00022753527446184307
7680.0,8.433024777332321e-05
8192.0,-0.0011067251907661557
end
