version,3.0
numOfCh,1
type,point
parent_name,714af_0dot6-0dot1
ch_type,1_1
kcount,1
numberNandB,1
brightnessNandB,1
carpet pos,0
pc,0
Time (ms),CH1 Auto-Correlation
1.0,0.021711574867367744
2.0,0.020563893020153046
3.0,0.019528379663825035
4.0,0.018567297607660294
5.0,0.01768951490521431
6.0,0.016861533746123314
7.0,0.016101913526654243
8.0,0.015387451276183128
9.0,0.014718652702867985
10.0,0.014074491336941719
11.0,0.013458783738315105
12.0,0.01292161550372839
13.0,0.012442966923117638
14.0,0.011947129853069782
15.0,0.011483279056847095
16.0,0.011061352677643299
18.0,0.010265476070344448
20.0,0.009556387551128864
22.0,0.0089582409709692
24.0,0.008400917053222656
26.0,0.007842629216611385
28.0,0.007295201998203993
30.0,0.006827014498412609
32.0,0.006364978849887848
36.0,0.005765050183981657
40.0,0.00517830578610301
44.0,0.00445045530796051
48.0,0.003626047633588314
52.0,0.0028915575239807367
56.0,0.0023453794419765472
60.0,0.0019146354170516133
64.0,0.00145659688860178
72.0,0.0008481848053634167
80.0,0.0004585340793710202
88.0,0.0004663676954805851
96.0,0.0006145267398096621
104.0,0.0006490732193924487
112.0,0.00033998393337242305
120.0,0.00013846550427842885
128.0,-0.00010536619811318815
144.0,0.0003808691108133644
160.0,0.0010501971701160073
176.0,0.0013748474884778261
192.0,0.0014816249022260308
208.0,0.0017733544809743762
224.0,0.002125731436535716
240.0,0.002296720864251256
256.0,0.0018915354739874601
288.0,0.0014503960264846683
320.0,0.0012709767324849963
352.0,0.0013169149169698358
384.0,0.001324893208220601
416.0,0.00018226404790766537
448.0,-0.0003084148047491908
480.0,0.00034824979957193136
512.0,0.0012583668576553464
576.0,0.0005368072306737304
640.0,0.0003759845276363194
704.0,-0.00024892372312024236
768.0,-0.00019557619816623628
832.0,0.00010241031850455329
896.0,0.0006606971146538854
960.0,0.0003710565797518939
1024.0,-0.0007084691897034645
1152.0,-0.00026018405333161354
1280.0,-0.0004482181975618005
1408.0,-0.000751168467104435
1536.0,-0.00013148636207915843
1664.0,-0.0005608462379314005
1792.0,0.0005257536540739238
1920.0,-0.0007630332838743925
2048.0,-0.0007438933826051652
2304.0,-0.0005105560412630439
2560.0,0.0003339973627589643
2816.0,-0.0005248844972811639
3072.0,-0.0010583573020994663
3328.0,-0.0007141100359149277
3584.0,-6.357973325066268e-05
3840.0,-0.0008602492744103074
4096.0,-0.0004815879510715604
4608.0,0.00023868824064265937
5120.0,2.5764138626982458e-05
5632.0,0.00042984605534002185
6144.0,-0.00015873568190727383
6656.0,0.0006146484520286322
7168.0,0.0004768041835632175
7680.0,-0.00026944311684928834
8192.0,1.5410543710459024e-05
end
