version,3.0
numOfCh,1
type,point
parent_name,714af_0dot6-0dot1
ch_type,1_1
kcount,1
numberNandB,1
brightnessNandB,1
carpet pos,0
pc,0
Time (ms),CH1 Auto-Correlation
1.0,0.024518046528100967
2.0,0.023279178887605667
3.0,0.022144831717014313
4.0,0.021136416122317314
5.0,0.020171092823147774
6.0,0.01924837939441204
7.0,0.018411334604024887
8.0,0.017690297216176987
9.0,0.017028355970978737
10.0,0.016411839053034782
11.0,0.01581280678510666
12.0,0.01526529062539339
13.0,0.014770176261663437
14.0,0.014310508035123348
15.0,0.013888605870306492
16.0,0.013502859510481358
18.0,0.012811146676540375
20.0,0.012148733250796795
22.0,0.0115342503413558
24.0,0.010940894484519958
26.0,0.010409384034574032
28.0,0.009953303262591362
30.0,0.00953584536910057
32.0,0.009101743809878826
36.0,0.008267756551504135
40.0,0.007552715949714184
44.0,0.006954089272767305
48.0,0.0064859334379434586
52.0,0.00613815151154995
56.0,0.005925565958023071
60.0,0.005629802122712135
64.0,0.005405726842582226
72.0,0.004782980773597956
80.0,0.004245377611368895
88.0,0.004320207051932812
96.0,0.004326207563281059
104.0,0.004067965783178806
112.0,0.0037436680868268013
120.0,0.003404901595786214
128.0,0.0030890938360244036
144.0,0.002856113016605377
160.0,0.002669365843757987
176.0,0.0015585031360387802
192.0,0.0010788674699142575
208.0,0.0016970614669844508
224.0,0.0017034836346283555
240.0,0.001523860264569521
256.0,0.0012175814481452107
288.0,0.0008173083188012242
320.0,0.0005180927109904587
352.0,0.000527832075022161
384.0,-0.0004608961462508887
416.0,-0.00022565793187823147
448.0,-2.5596380055503687e-06
480.0,0.00035115168429911137
512.0,-0.00017828692216426134
576.0,0.0006004982278682292
640.0,0.0006135845906101167
704.0,-0.0005100234993733466
768.0,-0.0010674422373995185
832.0,0.0004703175800386816
896.0,0.0010862069902941585
960.0,0.0004694579401984811
1024.0,0.00016025270451791584
1152.0,6.704486440867186e-05
1280.0,9.910314111039042e-05
1408.0,0.000471368693979457
1536.0,0.000499781861435622
1664.0,-0.0005399869405664504
1792.0,-0.001346651348285377
1920.0,-0.001941160880960524
2048.0,-0.0008049831376411021
2304.0,-0.0001001018172246404
2560.0,-0.0014212761307135224
2816.0,-0.0023473529145121574
3072.0,-2.2346617697621696e-05
3328.0,0.0009682925301603973
3584.0,0.0009554621065035462
3840.0,0.0003950425307266414
4096.0,-0.00025663539418019354
4608.0,-0.00025956955505535007
5120.0,0.001728527364321053
5632.0,0.0002984586462844163
6144.0,-0.0014422080712392926
6656.0,0.00028651481261476874
7168.0,-0.001427969429641962
7680.0,-0.001571304863318801
8192.0,0.0001831056724768132
end
