version,3.0
numOfCh,1
type,point
parent_name,714af_0dot6-0dot1
ch_type,1_1
kcount,1
numberNandB,1
brightnessNandB,1
carpet pos,0
pc,0
Time (ms),CH1 Auto-Correlation
1.0,0.023447610437870026
2.0,0.022334570065140724
3.0,0.021323902532458305
4.0,0.020391082391142845
5.0,0.01948763243854046
6.0,0.018671846017241478
7.0,0.017909178510308266
8.0,0.017220284789800644
9.0,0.016561234369874
10.0,0.015918737277388573
11.0,0.015284269116818905
12.0,0.014682630077004433
13.0,0.014133852906525135
14.0,0.013621143996715546
15.0,0.013177785091102123
16.0,0.012780530378222466
18.0,0.0120455427095294
20.0,0.01133423950523138
22.0,0.010676730424165726
24.0,0.009989313781261444
26.0,0.009400585666298866
28.0,0.008848017081618309
30.0,0.008371521718800068
32.0,0.008021772839128971
36.0,0.007284586317837238
40.0,0.006633108947426081
44.0,0.006102932617068291
48.0,0.005538203287869692
52.0,0.004948196467012167
56.0,0.004443298559635878
60.0,0.004010628908872604
64.0,0.0037025839556008577
72.0,0.0028937363531440496
80.0,0.0020828561391681433
88.0,0.0016084462404251099
96.0,0.001388557138852775
104.0,0.0013227519812062383
112.0,0.0012013505911454558
120.0,0.0008309514378197491
128.0,0.00021277328778523952
144.0,-0.0005810108268633485
160.0,-0.0005845522391609848
176.0,-0.0003721773682627827
192.0,-0.0002481004921719432
208.0,1.3774621947959531e-05
224.0,0.0005136279505677521
240.0,0.001284841331653297
256.0,0.0017591218929737806
288.0,0.0014233357505872846
320.0,8.067362796282396e-05
352.0,-0.0008049506577663124
384.0,-0.0021417748648673296
416.0,-0.002378919394686818
448.0,-0.001736637786962092
480.0,-9.493500692769885e-05
512.0,0.0011478130472823977
576.0,0.0008288149256259203
640.0,0.0006613765144720674
704.0,-0.00031911360565572977
768.0,0.0015753478510305285
832.0,0.002963447477668524
896.0,0.0019027760718017817
960.0,8.138222619891167e-05
1024.0,0.00020326024969108403
1152.0,-0.0002481606788933277
1280.0,-0.001957107800990343
1408.0,0.0009410587954334915
1536.0,0.000942741462495178
1664.0,0.0003897944407071918
1792.0,-0.0006233244203031063
1920.0,-0.0012054459657520056
2048.0,-0.001733552897349
2304.0,-0.0004660510749090463
2560.0,-0.0003779043909162283
2816.0,-0.001929689315147698
3072.0,-0.0008662581676617265
3328.0,-0.0003440952568780631
3584.0,-0.0015698560746386647
3840.0,-0.00024868594482541084
4096.0,0.0011340818600729108
4608.0,8.703792263986543e-05
5120.0,0.0004974614130333066
5632.0,0.0014013858744874597
6144.0,0.00010876318265218288
6656.0,0.0002365338004892692
7168.0,-0.0002499648544471711
7680.0,-0.0012302413815632463
8192.0,-0.0004749621730297804
end
