version,3.0
numOfCh,1
type,point
parent_name,714af_0dot6-0dot1
ch_type,1_1
kcount,1
numberNandB,1
brightnessNandB,1
carpet pos,0
pc,0
Time (ms),CH1 Auto-Correlation
1.0,0.023125585168600082
2.0,0.02197684533894062
3.0,0.020972995087504387
4.0,0.020060556009411812
5.0,0.01923411339521408
6.0,0.018458403646945953
7.0,0.01774061657488346
8.0,0.01705183833837509
9.0,0.01644168049097061
10.0,0.015860047191381454
11.0,0.015295940451323986
12.0,0.014757891185581684
13.0,0.014284148812294006
14.0,0.013861252926290035
15.0,0.013459217734634876
16.0,0.013118644244968891
18.0,0.012399392202496529
20.0,0.01174559909850359
22.0,0.011185988783836365
24.0,0.010731548070907593
26.0,0.010219626128673553
28.0,0.009761213324964046
30.0,0.009397762827575207
32.0,0.009122568182647228
36.0,0.008642039261758327
40.0,0.008214494213461876
44.0,0.00784438755363226
48.0,0.007634895388036966
52.0,0.0073985084891319275
56.0,0.007093885913491249
60.0,0.006658646278083324
64.0,0.006147528998553753
72.0,0.005427690222859383
80.0,0.005176671780645847
88.0,0.005207747220993042
96.0,0.005191619507968426
104.0,0.005071483086794615
112.0,0.004931050352752209
120.0,0.0045403894037008286
128.0,0.004209297243505716
144.0,0.004124571103602648
160.0,0.0038208181504160166
176.0,0.003008218016475439
192.0,0.0021553828846663237
208.0,0.0022142331581562757
224.0,0.002315638354048133
240.0,0.0021407105959951878
256.0,0.0022486781235784292
288.0,0.0018938584253191948
320.0,0.0018151308177039027
352.0,0.0007156720967032015
384.0,0.00036653317511081696
416.0,0.000843256653752178
448.0,0.0012847952311858535
480.0,0.0008840516093187034
512.0,0.0001712402590783313
576.0,-0.000725991849321872
640.0,-0.0015714052133262157
704.0,-0.0013721608556807041
768.0,-0.0014254552079364657
832.0,-0.0014476212672889233
896.0,-0.0005336662288755178
960.0,-0.00017367313557770103
1024.0,0.0010618279920890927
1152.0,0.0007389426464214921
1280.0,0.0021633843425661325
1408.0,0.0020547891035676003
1536.0,0.0008636899292469025
1664.0,-0.0005687707453034818
1792.0,-0.000708877167198807
1920.0,-0.0008540302515029907
2048.0,-0.00025481500779278576
2304.0,-0.0006640909123234451
2560.0,0.00013846094952896237
2816.0,-0.0003706497373059392
3072.0,-0.0009575880831107497
3328.0,-0.0002319488557986915
3584.0,-0.0015044085448607802
3840.0,-0.0019210119498893619
4096.0,-0.0021561947651207447
4608.0,-0.0006487995269708335
5120.0,-0.0010361220920458436
5632.0,0.0009564706706441939
6144.0,0.0013087221886962652
6656.0,-0.0010628019226714969
7168.0,0.0028034162241965532
7680.0,0.0017242491012439132
8192.0,0.00019818340661004186
end
