version,3.0
numOfCh,1
type,point
parent_name,714af_0dot6-0dot1
ch_type,1_1
kcount,1
numberNandB,1
brightnessNandB,1
carpet pos,0
pc,0
Time (ms),CH1 Auto-Correlation
1.0,0.021113548427820206
2.0,0.019945155829191208
3.0,0.018894584849476814
4.0,0.017932001501321793
5.0,0.017077261582016945
6.0,0.016273563727736473
7.0,0.015530568547546864
8.0,0.014827392995357513
9.0,0.014163375832140446
10.0,0.013526896946132183
11.0,0.012958228588104248
12.0,0.012441087514162064
13.0,0.011951569467782974
14.0,0.011504060588777065
15.0,0.011081273667514324
16.0,0.010672375559806824
18.0,0.00995596032589674
20.0,0.009364509955048561
22.0,0.008851662278175354
24.0,0.008344518020749092
26.0,0.007833834737539291
28.0,0.007396678440272808
30.0,0.0069927335716784
32.0,0.0065692877396941185
36.0,0.00599475484341383
40.0,0.005479312501847744
44.0,0.004988993983715773
48.0,0.004552660975605249
52.0,0.0041625541634857655
56.0,0.0038520717062056065
60.0,0.003585937200114131
64.0,0.003301385324448347
72.0,0.0027254840824753046
80.0,0.002757866634055972
88.0,0.0030101218726485968
96.0,0.0028281284030526876
104.0,0.0023535818327218294
112.0,0.001949370838701725
120.0,0.0017738472670316696
128.0,0.0016456778394058347
144.0,0.0012346500298008323
160.0,0.0007131706806831062
176.0,0.0006059699226170778
192.0,0.0003125577059108764
208.0,-2.7415206204750575e-05
224.0,2.7392436095396988e-05
240.0,0.0004680399433709681
256.0,0.0007629579049535096
288.0,0.0008667911752127111
320.0,0.0004577517684083432
352.0,0.001125910202972591
384.0,0.0008844068506732583
416.0,-5.3521649533649907e-05
448.0,-0.0004434865841176361
480.0,-0.001517310505732894
512.0,-0.0012597688473761082
576.0,-0.0004097229684703052
640.0,4.9438924179412425e-05
704.0,-9.557396697346121e-05
768.0,-0.0004877934989053756
832.0,-0.00014307809760794044
896.0,2.747030976024689e-06
960.0,-0.00048720240010879934
1024.0,-0.0009021547739394009
1152.0,-0.0005193750257603824
1280.0,-0.00030401218100450933
1408.0,-0.0009980585891753435
1536.0,-0.0006982014165259898
1664.0,-0.0011067289160564542
1792.0,-0.0009134442079812288
1920.0,0.00026487233117222786
2048.0,0.0010301322909072042
2304.0,0.0010654128855094314
2560.0,-0.00040700260433368385
2816.0,-0.000818103551864624
3072.0,0.00011213586549274623
3328.0,-0.0004070080176461488
3584.0,-1.069095560524147e-05
3840.0,-6.29787245998159e-05
4096.0,-0.00042361431405879557
4608.0,-0.0008531365892849863
5120.0,-0.0001708036579657346
5632.0,-0.0004641265550162643
6144.0,0.0008490970358252525
6656.0,-0.0006851820508018136
7168.0,0.00026439616340212524
7680.0,0.00022927239479031414
8192.0,0.000894290569704026
end
