version,3.0
numOfCh,1
type,point
parent_name,714af_0dot6-0dot1
ch_type,1_1
kcount,1
numberNandB,1
brightnessNandB,1
carpet pos,0
pc,0
Time (ms),CH1 Auto-Correlation
1.0,0.024225400760769844
2.0,0.023031940683722496
3.0,0.021979304030537605
4.0,0.021054670214653015
5.0,0.020233752205967903
6.0,0.01947176456451416
7.0,0.018738126382231712
8.0,0.01810804381966591
9.0,0.01749022677540779
10.0,0.016883164644241333
11.0,0.016295840963721275
12.0,0.01570788584649563
13.0,0.01517868135124445
14.0,0.014688166789710522
15.0,0.014220131561160088
16.0,0.01379883661866188
18.0,0.013043954968452454
20.0,0.012348893098533154
22.0,0.011663881130516529
24.0,0.011126118712127209
26.0,0.010649374686181545
28.0,0.010127228684723377
30.0,0.00968015193939209
32.0,0.009404120966792107
36.0,0.009011116810142994
40.0,0.00857349019497633
44.0,0.008224695920944214
48.0,0.007962284609675407
52.0,0.007487763185054064
56.0,0.006973849609494209
60.0,0.006603302899748087
64.0,0.006321482826024294
72.0,0.005772325210273266
80.0,0.005320840049535036
88.0,0.005057568661868572
96.0,0.004674464464187622
104.0,0.00415869802236557
112.0,0.003426220966503024
120.0,0.002528412500396371
128.0,0.002093951217830181
144.0,0.001798368408344686
160.0,0.0017945560393854976
176.0,0.0016256124945357442
192.0,0.0011364647652953863
208.0,0.000193843268789351
224.0,-8.26825198601e-05
240.0,-0.0002247347729280591
256.0,-0.0001588171871844679
288.0,0.00019342672021593899
320.0,0.0006831226055510342
352.0,0.0018062165472656488
384.0,0.0008672112599015236
416.0,0.0003195506287738681
448.0,0.0003506769717205316
480.0,-0.0009934080298990011
512.0,-0.001696668448857963
576.0,-0.0009907808853313327
640.0,-0.0005359299248084426
704.0,-0.0008495450601913035
768.0,-0.0002764486998785287
832.0,-0.0008722581551410258
896.0,-0.0006853372906334698
960.0,-0.0004823531489819288
1024.0,-0.0009895657422021031
1152.0,-0.0007902549114078283
1280.0,0.0018239852506667376
1408.0,0.0008794487803243101
1536.0,1.9186536519555375e-05
1664.0,0.0012847932521253824
1792.0,-0.00023237823916133493
1920.0,-0.00140195747371763
2048.0,0.00019973228336311877
2304.0,0.0022561452351510525
2560.0,0.00101348920725286
2816.0,-0.002252846257761121
3072.0,4.795040877070278e-05
3328.0,-0.0006971669499762356
3584.0,-0.0005121899885125458
3840.0,0.0021687732078135014
4096.0,-0.0017191534861922264
4608.0,-0.0007405966753140092
5120.0,-0.0009854862000793219
5632.0,0.0007088510319590569
6144.0,-0.0009975259890779853
6656.0,-0.00030921350116841495
7168.0,-0.001296156900934875
7680.0,-0.0004866981762461364
8192.0,0.0010998338693752885
end
