version,3.0
numOfCh,1
type,point
parent_name,714af_0dot6-0dot1
ch_type,1_1
kcount,1
numberNandB,1
brightnessNandB,1
carpet pos,0
pc,0
Time (ms),CH1 Auto-Correlation
1.0,0.023638514801859856
2.0,0.022535255178809166
3.0,0.021516475826501846
4.0,0.0205718744546175
5.0,0.01974215731024742
6.0,0.019001655280590057
7.0,0.01830417290329933
8.0,0.01764318160712719
9.0,0.01701306737959385
10.0,0.0164331067353487
11.0,0.01584004983305931
12.0,0.015314845368266106
13.0,0.014809041284024715
14.0,0.01431044191122055
15.0,0.013798920437693596
16.0,0.013307001441717148
18.0,0.012374995276331902
20.0,0.011535541154444218
22.0,0.010802438482642174
24.0,0.010124104097485542
26.0,0.009514725767076015
28.0,0.008993558585643768
30.0,0.008480776101350784
32.0,0.00802295096218586
36.0,0.007123627234250307
40.0,0.006418230477720499
44.0,0.00598750077188015
48.0,0.005643509328365326
52.0,0.0052635339088737965
56.0,0.004827734548598528
60.0,0.004439867567270994
64.0,0.004046364687383175
72.0,0.003447153838351369
80.0,0.003330665873363614
88.0,0.0032591577619314194
96.0,0.0030451337806880474
104.0,0.0029660589061677456
112.0,0.002887337002903223
120.0,0.00278680631890893
128.0,0.00278636091388762
144.0,0.0024959761649370193
160.0,0.0017253500409424305
176.0,0.0009810439078137279
192.0,0.0006675104377791286
208.0,0.0005539206904359162
224.0,0.0006697467179037631
240.0,0.0009584175422787666
256.0,0.001303134486079216
288.0,0.001638601184822619
320.0,0.001414244412444532
352.0,0.0018476236145943403
384.0,0.003020903328433633
416.0,0.0037792623043060303
448.0,0.0037735316436737776
480.0,0.0017978176474571228
512.0,0.001728683477267623
576.0,0.0014086232986301184
640.0,0.0014398092171177268
704.0,0.0003788205503951758
768.0,-7.271043432410806e-05
832.0,0.0005419034860096872
896.0,-0.0008780229254625738
960.0,-0.0004901119391433895
1024.0,-0.0010193808702751994
1152.0,-0.002118645701557398
1280.0,-0.0030003199353814125
1408.0,-0.001265537110157311
1536.0,-0.0026333495043218136
1664.0,-0.0024852866772562265
1792.0,-0.00085452850908041
1920.0,-0.0008416278869844973
2048.0,-0.0023263616021722555
2304.0,0.0006758940871804953
2560.0,0.000981727847829461
2816.0,0.001986542483791709
3072.0,0.0012550702085718513
3328.0,0.001253387425094843
3584.0,0.0007148442091420293
3840.0,-0.0005613722023554146
4096.0,-0.00019010956748388708
4608.0,-0.0006463653407990932
5120.0,-5.2386458264663815e-05
5632.0,5.556960968533531e-05
6144.0,0.0004723490565083921
6656.0,-2.9211295782261004e-07
7168.0,-0.00035908393329009414
7680.0,-0.0002895752841141075
8192.0,-0.0005361948278732598
end
