version,3.0
numOfCh,1
type,point
parent_name,714af_0dot6-0dot1
ch_type,1_1
kcount,1
numberNandB,1
brightnessNandB,1
carpet pos,0
pc,0
Time (ms),CH1 Auto-Correlation
1.0,0.022772088646888733
2.0,0.0216322410851717
3.0,0.020581288263201714
4.0,0.019609060138463974
5.0,0.01871703378856182
6.0,0.017899859696626663
7.0,0.017168018966913223
8.0,0.016478518024086952
9.0,0.01587064191699028
10.0,0.01526775024831295
11.0,0.014690711162984371
12.0,0.014181437902152538
13.0,0.013711449690163136
14.0,0.013255706988275051
15.0,0.012848902493715286
16.0,0.012459568679332733
18.0,0.011685800738632679
20.0,0.010994276963174343
22.0,0.010419842787086964
24.0,0.009884490631520748
26.0,0.009312260895967484
28.0,0.008747418411076069
30.0,0.008257326669991016
32.0,0.007777951657772064
36.0,0.00699304835870862
40.0,0.00641085347160697
44.0,0.0059172892943024635
48.0,0.005581431556493044
52.0,0.00507311848923564
56.0,0.004475012421607971
60.0,0.003954076673835516
64.0,0.003676453372463584
72.0,0.003720651613548398
80.0,0.003899169620126486
88.0,0.003593835048377514
96.0,0.0032108817249536514
104.0,0.002907928777858615
112.0,0.002663232618942857
120.0,0.0024660234339535236
128.0,0.0022890528198331594
144.0,0.0016789494547992945
160.0,0.0012795641086995602
176.0,0.001276050927117467
192.0,0.0014067968586459756
208.0,0.0018418262479826808
224.0,0.0019925422966480255
240.0,0.0015626493841409683
256.0,0.00016719619452487677
288.0,-0.0004750133375637233
320.0,-0.00022382376482710242
352.0,-0.0003725007991306484
384.0,-0.0007934055756777525
416.0,-0.0015500125009566545
448.0,-0.001313051558099687
480.0,-0.001009521191008389
512.0,-0.0017903107218444347
576.0,-0.00019209460879210383
640.0,-0.00034534154110588133
704.0,6.083277548896149e-05
768.0,-0.0003311120381113142
832.0,-0.00048799399519339204
896.0,-0.00031578465132042766
960.0,0.0015160002512857318
1024.0,-5.010737731936388e-05
1152.0,-0.0013075288152322173
1280.0,-0.0007532889139838517
1408.0,-8.125315798679367e-05
1536.0,-0.000436933507444337
1664.0,0.001070107682608068
1792.0,0.0007976887281984091
1920.0,0.00033329171128571033
2048.0,-0.0008904968271963298
2304.0,0.00014155046665109694
2560.0,-0.0006651050643995404
2816.0,-0.00032930527231656015
3072.0,0.00010639345418894663
3328.0,-0.0005630027735605836
3584.0,0.00045020782272331417
3840.0,-0.0007440493209287524
4096.0,-0.00017367166583426297
4608.0,0.00045308101107366383
5120.0,0.0018869999330490828
5632.0,-0.0010108433198183775
6144.0,-0.0001454770826967433
6656.0,0.0003702986869029701
7168.0,-0.0007073390297591686
7680.0,-0.0005094673833809793
8192.0,-0.0008267636876553297
end
