version,3.0
numOfCh,1
type,point
parent_name,714af_0dot6-0dot1
ch_type,1_1
kcount,1
numberNandB,1
brightnessNandB,1
carpet pos,0
pc,0
Time (ms),CH1 Auto-Correlation
1.0,0.02400931343436241
2.0,0.022856969386339188
3.0,0.021815184503793716
4.0,0.02085067518055439
5.0,0.019973207265138626
6.0,0.01914030872285366
7.0,0.01835932955145836
8.0,0.017636064440011978
9.0,0.016985008493065834
10.0,0.016391361132264137
11.0,0.01584629714488983
12.0,0.015328651294112206
13.0,0.014834269881248474
14.0,0.014378323219716549
15.0,0.013944358564913273
16.0,0.013552717864513397
18.0,0.01287083700299263
20.0,0.01220791321247816
22.0,0.01157959084957838
24.0,0.011021584272384644
26.0,0.010544182732701302
28.0,0.010156919248402119
30.0,0.009810464456677437
32.0,0.00950032752007246
36.0,0.008886496536433697
40.0,0.008417047560214996
44.0,0.008027845062315464
48.0,0.007587776519358158
52.0,0.007199171930551529
56.0,0.006798559334129095
60.0,0.006485288497060537
64.0,0.0061475252732634544
72.0,0.0056600081734359264
80.0,0.005202834960073233
88.0,0.004745928104966879
96.0,0.004520293325185776
104.0,0.004207320045679808
112.0,0.003864849451929331
120.0,0.003407029202207923
128.0,0.0030582055915147066
144.0,0.0027069805655628443
160.0,0.002927171066403389
176.0,0.003038871567696333
192.0,0.003045572666451335
208.0,0.0025408065412193537
224.0,0.0026402235962450504
240.0,0.0021743106190115213
256.0,0.002087540924549103
288.0,0.002187752863392234
320.0,0.0015918328426778316
352.0,-0.00021775512141175568
384.0,-0.0007489019772037864
416.0,-0.0013525874819606543
448.0,-0.0010025821393355727
480.0,-0.00035177901736460626
512.0,-0.0001867324608610943
576.0,0.0015088763320818543
640.0,0.0015150890685617924
704.0,-7.613390607730253e-06
768.0,-0.00018338629161007702
832.0,0.0004176846705377102
896.0,-0.0006993305287323892
960.0,-0.0009420366841368377
1024.0,-0.0008621190791018307
1152.0,0.0003476488636806607
1280.0,9.277725621359423e-05
1408.0,-0.0003481029416434467
1536.0,-0.0015162822091951966
1664.0,-0.0011543063446879387
1792.0,-0.00026680316659621894
1920.0,0.0007817706209607422
2048.0,-0.00031505542574450374
2304.0,0.00010956280311802402
2560.0,0.00041881768265739083
2816.0,0.00038011057768017054
3072.0,0.0011006916174665093
3328.0,0.0016683461144566536
3584.0,0.0016657259548082948
3840.0,0.0012899646535515785
4096.0,-0.00043571009882725775
4608.0,-0.00040297533269040287
5120.0,0.0004482263175304979
5632.0,0.0008450365858152509
6144.0,0.0003770139592234045
6656.0,-0.0010906364768743515
7168.0,-0.0009597945027053356
7680.0,-0.0013982078526169062
8192.0,-0.0004697969707194716
end
