version,3.0
numOfCh,1
type,point
parent_name,714af_0dot6-0dot1
ch_type,1_1
kcount,1
numberNandB,1
brightnessNandB,1
carpet pos,0
pc,0
Time (ms),CH1 Auto-Correlation
1.0,0.02294183522462845
2.0,0.021770786494016647
3.0,0.020696468651294708
4.0,0.019719433039426804
5.0,0.018826616927981377
6.0,0.01800265535712242
7.0,0.017232082784175873
8.0,0.01652277633547783
9.0,0.0158376507461071
10.0,0.015237195417284966
11.0,0.014642016030848026
12.0,0.014097151346504688
13.0,0.013589436188340187
14.0,0.013052856549620628
15.0,0.012555996887385845
16.0,0.012084361165761948
18.0,0.011261816136538982
20.0,0.010519870556890965
22.0,0.009812845848500729
24.0,0.009155475534498692
26.0,0.008513828739523888
28.0,0.007891053333878517
30.0,0.007257223129272461
32.0,0.006651132833212614
36.0,0.005639542825520039
40.0,0.004789726808667183
44.0,0.004004846327006817
48.0,0.0032555328216403723
52.0,0.0027514114044606686
56.0,0.0023615157697349787
60.0,0.002142515266314149
64.0,0.001988341100513935
72.0,0.001539297983981669
80.0,0.0011612175730988383
88.0,0.001043836702592671
96.0,0.0010900154011324048
104.0,0.0009100274182856083
112.0,0.0006313211051747203
120.0,0.0003159164043609053
128.0,0.0003361969720572233
144.0,0.0008149919449351728
160.0,0.0005915119545534253
176.0,0.00023419596254825592
192.0,0.0009622173965908587
208.0,0.0018654196755960584
224.0,0.002376146614551544
240.0,0.0020929069723933935
256.0,0.0012248656712472439
288.0,0.001053338753990829
320.0,0.0008463938720524311
352.0,0.0009280280210077763
384.0,0.0010277751134708524
416.0,9.379161201650277e-05
448.0,-0.0006922889733687043
480.0,-0.0007757894927635789
512.0,0.00013544602552428842
576.0,-0.0002835053892340511
640.0,0.0013912071008235216
704.0,0.001676949323154986
768.0,0.0007208460592664778
832.0,-0.00038650038186460733
896.0,0.00011422498937463388
960.0,0.00048574936226941645
1024.0,0.0011870133457705379
1152.0,0.0005917456583119929
1280.0,-0.0006473524263128638
1408.0,0.001627206220291555
1536.0,-0.0010012316051870584
1664.0,-6.449736974900588e-05
1792.0,0.0006786709418520331
1920.0,7.727554475422949e-05
2048.0,0.0007469496340490878
2304.0,-0.00048325894749723375
2560.0,0.0006458178977482021
2816.0,-0.0012046777410432696
3072.0,-0.0010500219650566578
3328.0,0.0007309853681363165
3584.0,0.0004953171592205763
3840.0,-0.00047563022235408425
4096.0,-0.0004537008935585618
4608.0,0.00026874832110479474
5120.0,-0.0005336892791092396
5632.0,-0.0008857420179992914
6144.0,-0.0013911165297031403
6656.0,-0.0011938025709241629
7168.0,-3.1734572985442355e-05
7680.0,0.001376996748149395
8192.0,-0.0005662799230776727
end
