version,3.0
numOfCh,1
type,point
parent_name,714af_0dot6-0dot1
ch_type,1_1
kcount,1
numberNandB,1
brightnessNandB,1
carpet pos,0
pc,0
Time (ms),CH1 Auto-Correlation
1.0,0.022602355107665062
2.0,0.021436098963022232
3.0,0.0203762948513031
4.0,0.01938340812921524
5.0,0.018481610342860222
6.0,0.017682187259197235
7.0,0.016927240416407585
8.0,0.01621195860207081
9.0,0.015574169345200062
10.0,0.014975273050367832
11.0,0.01442150492221117
12.0,0.013917545787990093
13.0,0.013444965705275536
14.0,0.012989375740289688
15.0,0.012603196315467358
16.0,0.01225369330495596
18.0,0.011572068557143211
20.0,0.010896573774516582
22.0,0.010267466306686401
24.0,0.009741196408867836
26.0,0.00924314558506012
28.0,0.008813105523586273
30.0,0.008369559422135353
32.0,0.007863440550863743
36.0,0.007049265317618847
40.0,0.00631732540205121
44.0,0.0058371527120471
48.0,0.005383247043937445
52.0,0.00494063924998045
56.0,0.004557859152555466
60.0,0.004223810043185949
64.0,0.0040525998920202255
72.0,0.0034975362941622734
80.0,0.0032541160471737385
88.0,0.00323759694583714
96.0,0.003466410096734762
104.0,0.0034189096186310053
112.0,0.0033957920968532562
120.0,0.003340334864333272
128.0,0.0033308020792901516
144.0,0.004143563564866781
160.0,0.004659685306251049
176.0,0.004392318427562714
192.0,0.0035239867866039276
208.0,0.002400939119979739
224.0,0.0015630122506991029
240.0,0.0013590750750154257
256.0,0.0012726432178169489
288.0,0.0011066924780607224
320.0,0.0016437179874628782
352.0,0.0018986213253811002
384.0,0.0008770610438659787
416.0,0.00035682207089848816
448.0,0.0003195230383425951
480.0,2.425943785056006e-05
512.0,-0.0007252495852299035
576.0,-0.0016838539158925414
640.0,-0.0019481135532259941
704.0,-0.0014296419685706496
768.0,-0.0012956379214301705
832.0,-0.0017935498617589474
896.0,-0.0013063602382317185
960.0,-0.0014610947109758854
1024.0,-0.0011944376165047288
1152.0,-0.000621170096565038
1280.0,-0.00019511792925186455
1408.0,-0.00014803893282078207
1536.0,0.0004816403379663825
1664.0,0.000852983386721462
1792.0,0.00031950895208865404
1920.0,4.401276964927092e-05
2048.0,0.000931236136239022
2304.0,0.0008227722719311714
2560.0,5.5123604397522286e-05
2816.0,-0.000970152672380209
3072.0,0.00019019782484974712
3328.0,0.0007602220866829157
3584.0,0.0012238248018547893
3840.0,0.00048210943350568414
4096.0,-0.0009876212570816278
4608.0,-0.000727570615708828
5120.0,0.0001457331090932712
5632.0,0.0016790467780083418
6144.0,-0.00038917193887755275
6656.0,-0.0019085623789578676
7168.0,0.0009708719444461167
7680.0,-0.001551744295284152
8192.0,-0.0006164005026221275
end
