version,3.0
numOfCh,1
type,point
parent_name,714af_0dot6-0dot1
ch_type,1_1
kcount,1
numberNandB,1
brightnessNandB,1
carpet pos,0
pc,0
Time (ms),CH1 Auto-Correlation
1.0,0.02178100496530533
2.0,0.020635535940527916
3.0,0.01961120218038559
4.0,0.0186651311814785
5.0,0.017780326306819916
6.0,0.016960974782705307
7.0,0.016217807307839394
8.0,0.015524784103035927
9.0,0.01488627027720213
10.0,0.01430637389421463
11.0,0.013772904872894287
12.0,0.013262368738651276
13.0,0.012787179090082645
14.0,0.012364903464913368
15.0,0.011963709257543087
16.0,0.011607921682298183
18.0,0.010946041904389858
20.0,0.010351961478590965
22.0,0.009844244457781315
24.0,0.009412787854671478
26.0,0.009060344658792019
28.0,0.00867808610200882
30.0,0.008304312825202942
32.0,0.008027598261833191
36.0,0.00749295623973012
40.0,0.007069302722811699
44.0,0.006711690686643124
48.0,0.006459380965679884
52.0,0.006138725206255913
56.0,0.005693322047591209
60.0,0.005256202071905136
64.0,0.004924539010971785
72.0,0.0041823359206318855
80.0,0.003654011758044362
88.0,0.003021464217454195
96.0,0.0026071760803461075
104.0,0.0024676776956766844
112.0,0.002290918491780758
120.0,0.0020495611242949963
128.0,0.0017346128588542342
144.0,0.0010244606528431177
160.0,0.00046840799041092396
176.0,0.0002769439888652414
192.0,0.0004075002216268331
208.0,0.0003327190352138132
224.0,5.6122287787729874e-05
240.0,0.0008309640106745064
256.0,0.0009464930044487119
288.0,0.0001129345764638856
320.0,0.00020488721202127635
352.0,0.00017922066035680473
384.0,-0.000265173934167251
416.0,0.00011202687892364338
448.0,0.0008596335537731647
480.0,0.0012029416393488646
512.0,0.0006095424178056419
576.0,0.00018086007912643254
640.0,-0.000486578734125942
704.0,-8.293571227113716e-06
768.0,-0.000513773295097053
832.0,6.927081994945183e-05
896.0,0.0005131992511451244
960.0,0.0006681167869828641
1024.0,0.00030454015359282494
1152.0,0.0012127803638577461
1280.0,0.0014629779616370797
1408.0,-7.381479372270405e-05
1536.0,-0.0017469022423028946
1664.0,-0.0013726340839639306
1792.0,-0.001556113245896995
1920.0,-0.001438837731257081
2048.0,-0.0016436069272458553
2304.0,-3.006692713825032e-05
2560.0,0.001047848490998149
2816.0,-0.0018297977512702346
3072.0,-0.0009794463403522968
3328.0,0.0008704601787030697
3584.0,-3.632825973909348e-05
3840.0,-0.0005146486801095307
4096.0,-0.001078460831195116
4608.0,3.755640364033752e-06
5120.0,-0.0006292546750046313
5632.0,0.0008005529525689781
6144.0,0.0003044170734938234
6656.0,0.0006913197576068342
7168.0,-0.00038364744978025556
7680.0,-0.0001845905208028853
8192.0,0.00028909152024425566
end
