version,3.0
numOfCh,1
type,point
parent_name,714af_0dot6-0dot1
ch_type,1_1
kcount,1
numberNandB,1
brightnessNandB,1
carpet pos,0
pc,0
Time (ms),CH1 Auto-Correlation
1.0,0.02109191194176674
2.0,0.019953779876232147
3.0,0.018958568572998047
4.0,0.01801179349422455
5.0,0.0171451885253191
6.0,0.01638352870941162
7.0,0.01564417965710163
8.0,0.014973785728216171
9.0,0.014348093420267105
10.0,0.013749249279499054
11.0,0.013207832351326942
12.0,0.012708923779428005
13.0,0.012230335734784603
14.0,0.011798853985965252
15.0,0.011354244314134121
16.0,0.010917983949184418
18.0,0.01018416229635477
20.0,0.009506197646260262
22.0,0.00888347253203392
24.0,0.008289030753076077
26.0,0.007826760411262512
28.0,0.007450802251696587
30.0,0.007046656217426062
32.0,0.006661965977400541
36.0,0.005821818020194769
40.0,0.00508630508556962
44.0,0.004479092080146074
48.0,0.004117055796086788
52.0,0.003671586047858
56.0,0.0033805719576776028
60.0,0.0032991571351885796
64.0,0.0030954733956605196
72.0,0.0029323347844183445
80.0,0.0025706200394779444
88.0,0.0021527144126594067
96.0,0.0019016409059986472
104.0,0.001838155323639512
112.0,0.001592095009982586
120.0,0.001551813562400639
128.0,0.001054110238328576
144.0,0.0004690795612987131
160.0,0.0007365092169493437
176.0,0.0010492559522390366
192.0,0.0009261852828785777
208.0,0.0009839057456701994
224.0,0.0003738049417734146
240.0,0.000504801981151104
256.0,0.001254815491847694
288.0,0.0012721489183604717
320.0,0.0009201759239658713
352.0,0.0017410424770787358
384.0,0.0019509086851030588
416.0,0.0012100249296054244
448.0,-0.0004508338461164385
480.0,3.770080002141185e-05
512.0,8.522903226548806e-05
576.0,0.0009850352071225643
640.0,0.00046746499720029533
704.0,-0.0012628399999812245
768.0,-0.0016056568128988147
832.0,-0.0013792376266792417
896.0,-0.00012012945080641657
960.0,0.000884638458956033
1024.0,0.000912091345526278
1152.0,0.00046547187957912683
1280.0,-0.000619688828010112
1408.0,-0.00011832101154141128
1536.0,-5.3504074458032846e-05
1664.0,-0.00022203334083314985
1792.0,-0.000744693330489099
1920.0,0.00012016356777166948
2048.0,-0.0003939212765544653
2304.0,-0.0007982630049809813
2560.0,0.0003287116123829037
2816.0,0.0004240622220095247
3072.0,0.0015287474961951375
3328.0,-0.0005527600296773016
3584.0,0.00011755691230064258
3840.0,-0.0015637546312063932
4096.0,-0.0006919152801856399
4608.0,-0.0017377653857693076
5120.0,-0.0002618040016386658
5632.0,7.867135718697682e-05
6144.0,0.0005842034588567913
6656.0,0.00021565347560681403
7168.0,-0.0012810996267944574
7680.0,-1.8669596101972274e-05
8192.0,0.0014766434906050563
end
