version,3.0
numOfCh,1
type,point
parent_name,714af_0dot6-0dot1
ch_type,1_1
kcount,1
numberNandB,1
brightnessNandB,1
carpet pos,0
pc,0
Time (ms),CH1 Auto-Correlation
1.0,0.021682780236005783
2.0,0.020510336384177208
3.0,0.01940963976085186
4.0,0.018424132838845253
5.0,0.01750926673412323
6.0,0.016708139330148697
7.0,0.015963099896907806
8.0,0.015270794741809368
9.0,0.014635509811341763
10.0,0.014046140015125275
11.0,0.013509640470147133
12.0,0.01297764666378498
13.0,0.0124680045992136
14.0,0.01199661660939455
15.0,0.011574196629226208
16.0,0.011205428279936314
18.0,0.010572279803454876
20.0,0.00997785571962595
22.0,0.00951897818595171
24.0,0.009089717641472816
26.0,0.00873516034334898
28.0,0.00839417614042759
30.0,0.007988762110471725
32.0,0.007616877090185881
36.0,0.007059922907501459
40.0,0.00662275543436408
44.0,0.0062148128636181355
48.0,0.005910058040171862
52.0,0.0056095910258591175
56.0,0.005248244386166334
60.0,0.004768092650920153
64.0,0.004301253240555525
72.0,0.0037718694657087326
80.0,0.003302682191133499
88.0,0.0027948736678808928
96.0,0.0023216346744447947
104.0,0.0021145865321159363
112.0,0.0021523539908230305
120.0,0.0022201298270374537
128.0,0.0019252646015956998
144.0,0.0014563830336555839
160.0,0.0015804257709532976
176.0,0.0015524105401709676
192.0,0.001150050200521946
208.0,0.0009915551636368036
224.0,0.0005468354211188853
240.0,-0.00023388717090710998
256.0,-0.0009059252333827317
288.0,-0.000242001042352058
320.0,-9.681698429631069e-05
352.0,-0.000965424464084208
384.0,-0.0014535379596054554
416.0,-0.0016886466182768345
448.0,-0.0018427649047225714
480.0,-0.001642712508328259
512.0,-0.0018910134676843882
576.0,-0.0014419991057366133
640.0,-0.0008797879563644528
704.0,-0.0014293731655925512
768.0,-0.0006652732263319194
832.0,-0.00016124879766721278
896.0,0.0008951037307269871
960.0,0.0004809447273146361
1024.0,0.00036965624894946814
1152.0,-0.0002986785548273474
1280.0,-0.0002968983317259699
1408.0,0.0011137688998132944
1536.0,0.0012571506667882204
1664.0,0.0015998448943719268
1792.0,-6.863323505967855e-05
1920.0,-7.601700781378895e-05
2048.0,-0.0008251710096374154
2304.0,-0.0009743791306391358
2560.0,-0.00025055077276192605
2816.0,-0.001032292260788381
3072.0,-5.773827797384001e-05
3328.0,-4.972318038198864e-06
3584.0,0.00019551851437427104
3840.0,-0.0006969648529775441
4096.0,-0.00019676426018122584
4608.0,0.0004058687190990895
5120.0,-0.0006636263569816947
5632.0,0.00042550518992356956
6144.0,-0.0005738777690567076
6656.0,-0.00026147544849663973
7168.0,0.0009016317198984325
7680.0,-0.0001916872861329466
8192.0,0.00017956664669327438
end
