version,3.0
numOfCh,1
type,point
parent_name,714af_0dot6-0dot1
ch_type,1_1
kcount,1
numberNandB,1
brightnessNandB,1
carpet pos,0
pc,0
Time (ms),CH1 Auto-Correlation
1.0,0.022254209965467453
2.0,0.021108057349920273
3.0,0.020105917006731033
4.0,0.019178975373506546
5.0,0.018322352319955826
6.0,0.01750890165567398
7.0,0.016752880066633224
8.0,0.01603320613503456
9.0,0.015400579199194908
10.0,0.014813329093158245
11.0,0.014267602004110813
12.0,0.013770921155810356
13.0,0.013317408040165901
14.0,0.012864043936133385
15.0,0.012406413443386555
16.0,0.011977706104516983
18.0,0.011235922574996948
20.0,0.010581680573523045
22.0,0.009977404959499836
24.0,0.00942885410040617
26.0,0.008949520997703075
28.0,0.008528328500688076
30.0,0.008113475516438484
32.0,0.007805380038917065
36.0,0.0073878346011042595
40.0,0.007043028250336647
44.0,0.006536729168146849
48.0,0.006056585349142551
52.0,0.005758623126894236
56.0,0.00552331143990159
60.0,0.0053249141201376915
64.0,0.004998691845685244
72.0,0.0042070080526173115
80.0,0.0035422607325017452
88.0,0.003187701106071472
96.0,0.0027622587513178587
104.0,0.0024120898451656103
112.0,0.0022552444133907557
120.0,0.0021300450898706913
128.0,0.002072273986414075
144.0,0.002056404482573271
160.0,0.001859748736023903
176.0,0.0015270378207787871
192.0,0.000858638493809849
208.0,0.0007269664783962071
224.0,0.0009909707587212324
240.0,0.0007079644710756838
256.0,0.00038315163692459464
288.0,-0.0003641341463662684
320.0,-0.0002551695506554097
352.0,0.000622910971287638
384.0,0.0011055686045438051
416.0,0.0005486608715727925
448.0,-1.8073759520120802e-06
480.0,0.000434487039456144
512.0,0.0005173974204808474
576.0,0.0015926960622891784
640.0,0.0011461364338174462
704.0,0.0002679327444639057
768.0,0.001239319215528667
832.0,0.0010107633424922824
896.0,0.00040325222653336823
960.0,0.000488433928694576
1024.0,0.0009482300374656916
1152.0,0.00021120514429640025
1280.0,-1.9222707123844884e-05
1408.0,0.0014328740071505308
1536.0,0.0010063099907711148
1664.0,-0.0002694565919227898
1792.0,-0.00039054645458236337
1920.0,0.0005315123125910759
2048.0,0.0009950746316462755
2304.0,0.00048189563676714897
2560.0,7.607044244650751e-05
2816.0,0.0006730721215717494
3072.0,5.5795062507968396e-05
3328.0,-0.00014449564332608134
3584.0,-6.516827124869451e-05
3840.0,-0.0004031079006381333
4096.0,-0.0004206437151879072
4608.0,0.00036323710810393095
5120.0,0.00038278443389572203
5632.0,0.0006224074168130755
6144.0,-0.0006798783433623612
6656.0,0.0001516450138296932
7168.0,-0.00029796711169183254
7680.0,-0.0009997733868658543
8192.0,-0.0011938570532947779
end
