version,3.0
numOfCh,1
type,point
parent_name,714af_0dot6-0dot1
ch_type,1_1
kcount,1
numberNandB,1
brightnessNandB,1
carpet pos,0
pc,0
Time (ms),CH1 Auto-Correlation
1.0,0.023366816341876984
2.0,0.022179068997502327
3.0,0.021090006455779076
4.0,0.020123613998293877
5.0,0.019265994429588318
6.0,0.01848732866346836
7.0,0.0177737008780241
8.0,0.01715155877172947
9.0,0.01658821851015091
10.0,0.01607251912355423
11.0,0.015562489628791809
12.0,0.015112072229385376
13.0,0.014662335626780987
14.0,0.014232673682272434
15.0,0.013823285698890686
16.0,0.013427700847387314
18.0,0.012707647867500782
20.0,0.012140420265495777
22.0,0.01167412381619215
24.0,0.011233799159526825
26.0,0.010868179611861706
28.0,0.010507223196327686
30.0,0.01019859965890646
32.0,0.009914280846714973
36.0,0.009370296262204647
40.0,0.008747968822717667
44.0,0.008188208565115929
48.0,0.00772773427888751
52.0,0.0072414930909872055
56.0,0.006681395228952169
60.0,0.0062436372973024845
64.0,0.005761091131716967
72.0,0.004650897346436977
80.0,0.003626203630119562
88.0,0.00285617308691144
96.0,0.002681990386918187
104.0,0.0026213291566818953
112.0,0.0028077184688299894
120.0,0.0024157424923032522
128.0,0.0018272378947585821
144.0,0.0018754057819023728
160.0,0.001900554052554071
176.0,0.0019439758034422994
192.0,0.001767542795278132
208.0,0.0008865908021107316
224.0,0.001199037884362042
240.0,0.0007420983747579157
256.0,0.0005298038013279438
288.0,-0.00017734168795868754
320.0,0.00018299008661415428
352.0,0.0005859265220351517
384.0,0.0006125171785242856
416.0,0.0002522554132156074
448.0,-0.0002678071614354849
480.0,-0.0011659584706649184
512.0,-0.001315412693656981
576.0,-0.00039235237636603415
640.0,0.00034345476888120174
704.0,6.652345473412424e-05
768.0,0.0008746756939217448
832.0,0.0007743313326500356
896.0,-0.0010081594809889793
960.0,-0.00099001859780401
1024.0,-0.0005706205265596509
1152.0,0.0005959533737041056
1280.0,-0.000305891502648592
1408.0,-0.0006016817060299218
1536.0,-0.0006971784750930965
1664.0,-0.002366097643971443
1792.0,-0.0010194897186011076
1920.0,0.0003035475383512676
2048.0,-0.0009027600754052401
2304.0,-0.00032809522235766053
2560.0,0.0008327956893481314
2816.0,-0.0008366903639398515
3072.0,0.0012053060345351696
3328.0,0.0009351157350465655
3584.0,0.000274064892437309
3840.0,0.0004958724603056908
4096.0,0.0006741653196513653
4608.0,-0.0005617573042400181
5120.0,-0.0008664308697916567
5632.0,0.0004685920721385628
6144.0,0.0008264065836556256
6656.0,-0.0015847235918045044
7168.0,-0.00020646450866479427
7680.0,-0.0024070278741419315
8192.0,6.950589158805087e-05
end
