version,3.0
numOfCh,1
type,point
parent_name,714af_0dot6-0dot1
ch_type,1_1
kcount,1
numberNandB,1
brightnessNandB,1
carpet pos,0
pc,0
Time (ms),CH1 Auto-Correlation
1.0,0.025121299549937248
2.0,0.02394617535173893
3.0,0.022857751697301865
4.0,0.021854998543858528
5.0,0.020951280370354652
6.0,0.020145097747445107
7.0,0.01940339244902134
8.0,0.018733158707618713
9.0,0.018092045560479164
10.0,0.017491528764367104
11.0,0.016899961978197098
12.0,0.016339566558599472
13.0,0.015816617757081985
14.0,0.01535405870527029
15.0,0.014912660233676434
16.0,0.014519819989800453
18.0,0.013749412260949612
20.0,0.013061043806374073
22.0,0.012482989579439163
24.0,0.011919369921088219
26.0,0.011395920999348164
28.0,0.010931091383099556
30.0,0.010555984452366829
32.0,0.010241947136819363
36.0,0.009564599022269249
40.0,0.008765132166445255
44.0,0.008215885609388351
48.0,0.007836325094103813
52.0,0.007618551142513752
56.0,0.0073897154070436954
60.0,0.007073467597365379
64.0,0.006803332827985287
72.0,0.006199297960847616
80.0,0.005407026037573814
88.0,0.005008358042687178
96.0,0.00491378316655755
104.0,0.0049623833037912846
112.0,0.004939038306474686
120.0,0.0046938443556427956
128.0,0.004165675491094589
144.0,0.0032087559811770916
160.0,0.002747316611930728
176.0,0.0025339771527796984
192.0,0.0020770933479070663
208.0,0.0016512216534465551
224.0,0.0017365810927003622
240.0,0.0017014604527503252
256.0,0.0020404031965881586
288.0,0.0011363642988726497
320.0,0.00027175561990588903
352.0,-0.0012923008762300014
384.0,-0.0010469318367540836
416.0,-0.0005329959676600993
448.0,-0.0003000977449119091
480.0,-0.00062137795612216
512.0,-0.0016246795421466231
576.0,-0.0020253744442015886
640.0,-0.001268163905479014
704.0,-0.0007712827064096928
768.0,-0.0003837391850538552
832.0,-0.0013239580439403653
896.0,-0.0008262329502031207
960.0,-0.001693108817562461
1024.0,-0.0015394879737868905
1152.0,-0.00029400252969935536
1280.0,-0.000824446848127991
1408.0,0.0022455332800745964
1536.0,0.002073898445814848
1664.0,0.002354932250455022
1792.0,-0.0001291068911086768
1920.0,-0.0011853501200675964
2048.0,-0.0018527209758758545
2304.0,-0.0010505684185773134
2560.0,0.0009138826280832291
2816.0,0.0008001581882126629
3072.0,0.000404758146032691
3328.0,-0.0003857312840409577
3584.0,-0.0005789131391793489
3840.0,0.0005141159635968506
4096.0,0.0015704781981185079
4608.0,-0.0021139932796359062
5120.0,0.00016913595027290285
5632.0,0.0010006550000980496
6144.0,-0.0026166574098169804
6656.0,0.0018855558009818196
7168.0,0.0008304974180646241
7680.0,-1.9348819478182122e-05
8192.0,-0.0002216724242316559
end
