version,3.0
numOfCh,1
type,point
parent_name,714af_0dot6-0dot1
ch_type,1_1
kcount,1
numberNandB,1
brightnessNandB,1
carpet pos,0
pc,0
Time (ms),CH1 Auto-Correlation
1.0,0.020960474386811256
2.0,0.019834371283650398
3.0,0.018793191760778427
4.0,0.01785791665315628
5.0,0.016987795010209084
6.0,0.0161751601845026
7.0,0.015446598641574383
8.0,0.014760774560272694
9.0,0.014134442433714867
10.0,0.013537661172449589
11.0,0.012977033853530884
12.0,0.01246124878525734
13.0,0.011984990909695625
14.0,0.011562452651560307
15.0,0.011155816726386547
16.0,0.01076269056648016
18.0,0.010026396252214909
20.0,0.009385242126882076
22.0,0.00883461069315672
24.0,0.008427439257502556
26.0,0.007998480461537838
28.0,0.007593464571982622
30.0,0.007257465738803148
32.0,0.006984333973377943
36.0,0.006271428894251585
40.0,0.005516910459846258
44.0,0.004805121570825577
48.0,0.004289023578166962
52.0,0.004010339733213186
56.0,0.003868813393637538
60.0,0.0036547756753861904
64.0,0.00341941905207932
72.0,0.0027793864719569683
80.0,0.0022530676797032356
88.0,0.002282273257151246
96.0,0.002514398656785488
104.0,0.00241573853418231
112.0,0.002162047429010272
120.0,0.0018598224269226193
128.0,0.0019040766637772322
144.0,0.0016966445837169886
160.0,0.0009945898782461882
176.0,0.0011097596725448966
192.0,0.001772915362380445
208.0,0.00220375694334507
224.0,0.0015629123663529754
240.0,0.001302325283177197
256.0,0.0012539951130747795
288.0,0.0012595714069902897
320.0,0.0012224279344081879
352.0,0.001548295491375029
384.0,0.0017011347226798534
416.0,0.002306228270754218
448.0,0.0011942265555262566
480.0,5.038420931668952e-05
512.0,-0.0007123913383111358
576.0,-0.0004624618450179696
640.0,0.0011845845729112625
704.0,0.0007562238606624305
768.0,0.00038344718632288277
832.0,-0.00015640656056348234
896.0,0.0008742962381802499
960.0,0.0012184769148007035
1024.0,0.002491967985406518
1152.0,0.00017113554349634796
1280.0,0.00040236994391307235
1408.0,0.0005417398642748594
1536.0,-0.0006647997070103884
1664.0,-0.00019758126290980726
1792.0,-0.00011599181016208604
1920.0,-0.0005703659262508154
2048.0,-0.0006482057506218553
2304.0,-0.001021440140902996
2560.0,-0.00044506764970719814
2816.0,0.00023903737019281834
3072.0,-0.0005329708219505847
3328.0,0.00026114980573765934
3584.0,0.0008016443462111056
3840.0,0.001188959227874875
4096.0,-0.0003798104007728398
4608.0,-0.000793958141002804
5120.0,-0.0005191967939026654
5632.0,-0.001442927634343505
6144.0,0.00014719757018610835
6656.0,0.000411465298384428
7168.0,0.0005808516871184111
7680.0,0.0004331276868470013
8192.0,-0.0004750295775011182
end
