version,3.0
numOfCh,1
type,point
parent_name,714af_0dot6-0dot1
ch_type,1_1
kcount,1
numberNandB,1
brightnessNandB,1
carpet pos,0
pc,0
Time (ms),CH1 Auto-Correlation
1.0,0.02477407082915306
2.0,0.023610349744558334
3.0,0.022528721019625664
4.0,0.021551603451371193
5.0,0.020652515813708305
6.0,0.01982802338898182
7.0,0.019029518589377403
8.0,0.018326228484511375
9.0,0.017674645408988
10.0,0.017056021839380264
11.0,0.016482137143611908
12.0,0.01593145914375782
13.0,0.015414763242006302
14.0,0.01488274522125721
15.0,0.014321167953312397
16.0,0.013859492726624012
18.0,0.013113394379615784
20.0,0.012415648438036442
22.0,0.011816411279141903
24.0,0.01127978041768074
26.0,0.010754123330116272
28.0,0.010254764929413795
30.0,0.009831455536186695
32.0,0.009496886283159256
36.0,0.00891080405563116
40.0,0.00841482263058424
44.0,0.007887421175837517
48.0,0.0074335080571472645
52.0,0.006963711231946945
56.0,0.006667104084044695
60.0,0.006430489476770163
64.0,0.00612308643758297
72.0,0.0050052921287715435
80.0,0.004342495463788509
88.0,0.004182560835033655
96.0,0.004197636619210243
104.0,0.0041418117471039295
112.0,0.0039440966211259365
120.0,0.0036237668246030807
128.0,0.0033787433058023453
144.0,0.003024430014193058
160.0,0.0027867425233125687
176.0,0.0028765907045453787
192.0,0.0029384561348706484
208.0,0.0034396452829241753
224.0,0.003667280310764909
240.0,0.0029699786100536585
256.0,0.002739165909588337
288.0,0.0019343042513355613
320.0,0.0008260423201136291
352.0,-0.00034539253101684153
384.0,-0.0007750985096208751
416.0,-0.0002449009334668517
448.0,-0.00020747283997479826
480.0,-0.0007724913302809
512.0,-0.0014702165499329567
576.0,-0.0026415155734866858
640.0,-0.002069933107122779
704.0,-0.0024662301875650883
768.0,-0.0018264291575178504
832.0,-0.0014044432900846004
896.0,0.00013287436740938574
960.0,0.0003368351608514786
1024.0,-9.376321395393461e-05
1152.0,-0.0009017183328978717
1280.0,-0.00042756248149089515
1408.0,-0.0007987592834979296
1536.0,-0.0007241132552735507
1664.0,-0.0008193859248422086
1792.0,-0.001059410977177322
1920.0,-0.00041937935748137534
2048.0,0.0002041612024186179
2304.0,0.0015567417722195387
2560.0,0.0006916443235240877
2816.0,-0.0013052569702267647
3072.0,-0.0010555540211498737
3328.0,2.9161850761738606e-05
3584.0,0.0003751798940356821
3840.0,0.0003740444080904126
4096.0,0.00017540667613502592
4608.0,-0.0005076780216768384
5120.0,-0.0011325367959216237
5632.0,0.0006177265313453972
6144.0,0.00031308745383284986
6656.0,0.001135566970333457
7168.0,-0.0010342253372073174
7680.0,-0.0003787031164392829
8192.0,0.0013926784740760922
end
