version,3.0
numOfCh,1
type,point
parent_name,714af_0dot6-0dot1
ch_type,1_1
kcount,1
numberNandB,1
brightnessNandB,1
carpet pos,0
pc,0
Time (ms),CH1 Auto-Correlation
1.0,0.022626586258411407
2.0,0.02148924022912979
3.0,0.020482586696743965
4.0,0.019548650830984116
5.0,0.018665429204702377
6.0,0.017871852964162827
7.0,0.01714504137635231
8.0,0.016478074714541435
9.0,0.015854105353355408
10.0,0.015291588380932808
11.0,0.014738459140062332
12.0,0.01419838983565569
13.0,0.013742930255830288
14.0,0.013310201466083527
15.0,0.012871777638792992
16.0,0.01244698278605938
18.0,0.011684602126479149
20.0,0.010965435765683651
22.0,0.010372558608651161
24.0,0.009873835369944572
26.0,0.009409423917531967
28.0,0.00893558468669653
30.0,0.008528551086783409
32.0,0.008204088546335697
36.0,0.007661019451916218
40.0,0.006986909545958042
44.0,0.006228231359273195
48.0,0.005623779259622097
52.0,0.005188465118408203
56.0,0.004718685057014227
60.0,0.004316824954003096
64.0,0.0041014663875103
72.0,0.0038423133082687855
80.0,0.003390546888113022
88.0,0.00308434315957129
96.0,0.00306582055054605
104.0,0.0029167798347771168
112.0,0.0028104877565056086
120.0,0.0026966913137584925
128.0,0.002381757600232959
144.0,0.0021759856026619673
160.0,0.0023253276012837887
176.0,0.0023904999252408743
192.0,0.0027077083941549063
208.0,0.003295289818197489
224.0,0.003939058165997267
240.0,0.003903950797393918
256.0,0.0029505277052521706
288.0,0.0021102894097566605
320.0,0.001322561176493764
352.0,0.0014572476502507925
384.0,0.0019603059627115726
416.0,0.0020798298064619303
448.0,0.0011443246621638536
480.0,0.0005017514922656119
512.0,0.0008027642033994198
576.0,0.0002760413917712867
640.0,0.0009636445320211351
704.0,0.0007821600884199142
768.0,0.0005730027914978564
832.0,0.0007575321360491216
896.0,0.001225637854076922
960.0,-0.000497078406624496
1024.0,-0.0007516981568187475
1152.0,-0.00011933696077903733
1280.0,0.00014414801262319088
1408.0,-0.0009193405276164412
1536.0,-0.0019102607620880008
1664.0,-0.0012919725850224495
1792.0,-0.0011527843307703733
1920.0,0.0004036217578686774
2048.0,0.00013086386024951935
2304.0,0.0014856266789138317
2560.0,0.0010707932524383068
2816.0,0.0005344795645214617
3072.0,0.00024309199943672866
3328.0,-0.00029975539655424654
3584.0,-0.0009921734454110265
3840.0,-0.001672576880082488
4096.0,-0.0017954619834199548
4608.0,-0.0008372590527869761
5120.0,-0.00042495920206420124
5632.0,-0.00019022217020392418
6144.0,-0.00019751478976104409
6656.0,-0.0009177778847515583
7168.0,-0.0030055539682507515
7680.0,-0.001475745695643127
8192.0,-0.0013034709263592958
end
