version,3.0
numOfCh,1
type,point
parent_name,714af_0dot6-0dot1
ch_type,1_1
kcount,1
numberNandB,1
brightnessNandB,1
carpet pos,0
pc,0
Time (ms),CH1 Auto-Correlation
1.0,0.022407731041312218
2.0,0.021227894350886345
3.0,0.02013036049902439
4.0,0.019132619723677635
5.0,0.01819501258432865
6.0,0.017360230907797813
7.0,0.01654357649385929
8.0,0.015790248289704323
9.0,0.015099928714334965
10.0,0.01446338277310133
11.0,0.013837389647960663
12.0,0.013211271725594997
13.0,0.012623371556401253
14.0,0.012058133259415627
15.0,0.011515122838318348
16.0,0.010996381752192974
18.0,0.010099951177835464
20.0,0.009389455430209637
22.0,0.008731771260499954
24.0,0.008203535340726376
26.0,0.007707564625889063
28.0,0.0072323912754654884
30.0,0.006748481187969446
32.0,0.00634378707036376
36.0,0.005653122439980507
40.0,0.005063502583652735
44.0,0.004577069543302059
48.0,0.004267288371920586
52.0,0.004073326475918293
56.0,0.003923035692423582
60.0,0.003892983542755246
64.0,0.0038309607189148664
72.0,0.0034869229421019554
80.0,0.003312611486762762
88.0,0.0031338538974523544
96.0,0.002804748248308897
104.0,0.0026945690624415874
112.0,0.002904905006289482
120.0,0.003024834441021085
128.0,0.0028334329836070538
144.0,0.0017182668671011925
160.0,0.0008327726391144097
176.0,0.0003075874992646277
192.0,0.00025484792422503233
208.0,2.5202807591995224e-05
224.0,-0.00024337049399036914
240.0,-5.5375025112880394e-05
256.0,0.0005118469707667828
288.0,0.0011815441539511085
320.0,0.0016238519456237555
352.0,0.0012405859306454659
384.0,0.0012904999312013388
416.0,0.0007453024736605585
448.0,0.00010148218279937282
480.0,-0.00046935808495618403
512.0,-9.508396760793403e-05
576.0,0.0018197079189121723
640.0,0.0018374993233010173
704.0,0.0026910866145044565
768.0,0.0010710936039686203
832.0,0.0009946062928065658
896.0,0.0012049443321302533
960.0,0.0004784325137734413
1024.0,0.00011912601621588692
1152.0,-0.0005245341453701258
1280.0,-4.1976400098064914e-06
1408.0,0.0012913892278447747
1536.0,0.0012713954783976078
1664.0,0.0011157862609252334
1792.0,0.0006602798239327967
1920.0,0.001077601802535355
2048.0,0.000756904948502779
2304.0,0.0019390389788895845
2560.0,-0.0001010932755889371
2816.0,0.0003039441944565624
3072.0,-2.9939908472442767e-06
3328.0,-0.0010354723781347275
3584.0,-0.0010763455647975206
3840.0,3.3175023418152705e-05
4096.0,-0.0007222273852676153
4608.0,0.0007174280472099781
5120.0,0.0003606081590987742
5632.0,-0.0014119748957455158
6144.0,-0.0004692432703450322
6656.0,0.0009213148150593042
7168.0,-0.0008748903637751937
7680.0,-0.0016855411231517792
8192.0,-0.0012098943116143346
end
