version,3.0
numOfCh,1
type,point
parent_name,dirty_0dot2-0dot1
ch_type,1_1
kcount,1
numberNandB,1
brightnessNandB,1
carpet pos,0
pc,0
Time (ms),CH1 Auto-Correlation
1.0,0.852544367313385
2.0,0.8449223637580872
3.0,0.8371449112892151
4.0,0.8290534019470215
5.0,0.8208174705505371
6.0,0.812673807144165
7.0,0.8048068284988403
8.0,0.797352135181427
9.0,0.790387749671936
10.0,0.7836130261421204
11.0,0.7765399217605591
12.0,0.7699406743049622
13.0,0.7631802558898926
14.0,0.7573472261428833
15.0,0.7511799335479736
16.0,0.7452211380004883
18.0,0.7340418696403503
20.0,0.7237569689750671
22.0,0.7135088443756104
24.0,0.7034364938735962
26.0,0.6924241781234741
28.0,0.6810453534126282
30.0,0.6704965233802795
32.0,0.6613837480545044
36.0,0.6456180810928345
40.0,0.6300838589668274
44.0,0.6166177988052368
48.0,0.6054681539535522
52.0,0.5952280759811401
56.0,0.5833948254585266
60.0,0.5683420896530151
64.0,0.5540599226951599
72.0,0.5310332775115967
80.0,0.5008140802383423
88.0,0.4732414186000824
96.0,0.4474155008792877
104.0,0.4202936589717865
112.0,0.3929379880428314
120.0,0.3640387952327728
128.0,0.33670878410339355
144.0,0.28850820660591125
160.0,0.25128018856048584
176.0,0.23065945506095886
192.0,0.21379613876342773
208.0,0.19377705454826355
224.0,0.1785193681716919
240.0,0.1730968952178955
256.0,0.17694595456123352
288.0,0.19173195958137512
320.0,0.20376044511795044
352.0,0.22668208181858063
384.0,0.23599925637245178
416.0,0.23705925047397614
448.0,0.23009753227233887
480.0,0.22291259467601776
512.0,0.2089531421661377
576.0,0.1529446542263031
640.0,0.10907556116580963
704.0,0.0770045667886734
768.0,0.07501088827848434
832.0,0.08140681684017181
896.0,0.056694839149713516
960.0,0.02179180271923542
1024.0,0.010347644798457623
1152.0,0.013162823393940926
1280.0,-0.033180274069309235
1408.0,-0.0498458594083786
1536.0,-0.03241493180394173
1664.0,-0.007225578650832176
1792.0,-0.11453491449356079
1920.0,-0.13374702632427216
2048.0,-0.045256346464157104
2304.0,-0.07212613523006439
2560.0,-0.017257191240787506
2816.0,-0.06314709782600403
3072.0,-0.03751300647854805
3328.0,-0.04590492695569992
3584.0,-0.0862601101398468
3840.0,-0.07826030999422073
4096.0,-0.0906672552227974
4608.0,-0.0023856298066675663
5120.0,-0.02054258994758129
5632.0,-0.07023534178733826
6144.0,-0.026430413126945496
6656.0,0.10148647427558899
7168.0,0.1330648958683014
7680.0,0.11105775833129883
8192.0,-0.0017423119861632586
9216.0,-0.0708240270614624
10240.0,-0.10756184905767441
11264.0,-0.05138364061713219
12288.0,0.044300198554992676
13312.0,-0.029274187982082367
14336.0,0.0014462705003097653
end
