version,3.0
numOfCh,1
type,point
parent_name,dirty_0dot2-0dot1
ch_type,1_1
kcount,1
numberNandB,1
brightnessNandB,1
carpet pos,0
pc,0
Time (ms),CH1 Auto-Correlation
1.0,0.7322918176651001
2.0,0.722798764705658
3.0,0.7148001194000244
4.0,0.7071567177772522
5.0,0.6996710300445557
6.0,0.6926934719085693
7.0,0.6866342425346375
8.0,0.6811921000480652
9.0,0.6758500933647156
10.0,0.6708799004554749
11.0,0.6663062572479248
12.0,0.6608704328536987
13.0,0.6549012660980225
14.0,0.649401843547821
15.0,0.643304705619812
16.0,0.6370070576667786
18.0,0.6254476308822632
20.0,0.6152681708335876
22.0,0.6057515740394592
24.0,0.5978597402572632
26.0,0.5910851955413818
28.0,0.5836584568023682
30.0,0.5755213499069214
32.0,0.5669170618057251
36.0,0.5486236214637756
40.0,0.533918023109436
44.0,0.5187558531761169
48.0,0.5021783709526062
52.0,0.48437508940696716
56.0,0.4694525897502899
60.0,0.45320647954940796
64.0,0.4364948570728302
72.0,0.4103439450263977
80.0,0.3861435651779175
88.0,0.3641767203807831
96.0,0.34125080704689026
104.0,0.3185395896434784
112.0,0.2939053773880005
120.0,0.2753496468067169
128.0,0.26087674498558044
144.0,0.24360884726047516
160.0,0.23665766417980194
176.0,0.2298528254032135
192.0,0.22287966310977936
208.0,0.22079920768737793
224.0,0.21802844107151031
240.0,0.21727535128593445
256.0,0.20624978840351105
288.0,0.19339749217033386
320.0,0.20588859915733337
352.0,0.20868894457817078
384.0,0.1912805438041687
416.0,0.1619681566953659
448.0,0.1198185384273529
480.0,0.06583726406097412
512.0,0.026232600212097168
576.0,0.010816226713359356
640.0,-0.0010971326846629381
704.0,-0.021637070924043655
768.0,-0.010908174328505993
832.0,-0.0023360836785286665
896.0,-0.010114224627614021
960.0,-0.044825173914432526
1024.0,-0.043314531445503235
1152.0,-0.011572932824492455
1280.0,-0.015549656003713608
1408.0,-0.016237426549196243
1536.0,-0.04725233465433121
1664.0,-0.08372718840837479
1792.0,-0.09492888301610947
1920.0,-0.11283790320158005
2048.0,-0.09387744963169098
2304.0,-0.028188999742269516
2560.0,-0.04602723941206932
2816.0,-0.03690294548869133
3072.0,-0.029428785666823387
3328.0,0.051405169069767
3584.0,0.16453225910663605
3840.0,0.14940765500068665
4096.0,0.0936218798160553
4608.0,-0.0143301822245121
5120.0,-0.010390929877758026
5632.0,-0.0459095798432827
6144.0,-0.03537323325872421
6656.0,-0.01959923654794693
7168.0,-0.03655640408396721
7680.0,-0.06071081385016441
8192.0,-0.10207001864910126
9216.0,-0.025620155036449432
10240.0,0.012817946262657642
11264.0,0.018510181456804276
12288.0,-0.09357355535030365
13312.0,-0.09517663717269897
14336.0,0.07755626738071442
end
