version,3.0
numOfCh,1
type,point
parent_name,dirty_0dot2-0dot1
ch_type,1_1
kcount,1
numberNandB,1
brightnessNandB,1
carpet pos,0
pc,0
Time (ms),CH1 Auto-Correlation
1.0,1.0194231271743774
2.0,1.0106077194213867
3.0,1.0010896921157837
4.0,0.9919769763946533
5.0,0.9824885129928589
6.0,0.9734152555465698
7.0,0.964591920375824
8.0,0.9561529755592346
9.0,0.9484010934829712
10.0,0.9404173493385315
11.0,0.9325095415115356
12.0,0.9238078594207764
13.0,0.9149563908576965
14.0,0.9065225124359131
15.0,0.8979787826538086
16.0,0.8897666335105896
18.0,0.8736173510551453
20.0,0.8588385581970215
22.0,0.8456774950027466
24.0,0.8339799642562866
26.0,0.8239952325820923
28.0,0.8159915208816528
30.0,0.8088181614875793
32.0,0.8031871914863586
36.0,0.7943990230560303
40.0,0.789829671382904
44.0,0.784856915473938
48.0,0.7778799533843994
52.0,0.7687265276908875
56.0,0.7547510862350464
60.0,0.737850546836853
64.0,0.7223978638648987
72.0,0.6953228116035461
80.0,0.6714432239532471
88.0,0.6480323672294617
96.0,0.6208286881446838
104.0,0.5941913723945618
112.0,0.567827045917511
120.0,0.5469580888748169
128.0,0.5328211188316345
144.0,0.5045843124389648
160.0,0.47593778371810913
176.0,0.448079913854599
192.0,0.3969424366950989
208.0,0.3573808968067169
224.0,0.34195107221603394
240.0,0.3297915756702423
256.0,0.3241623640060425
288.0,0.33519622683525085
320.0,0.3401561677455902
352.0,0.3183537721633911
384.0,0.29137855768203735
416.0,0.27124303579330444
448.0,0.25429853796958923
480.0,0.23602823913097382
512.0,0.21843722462654114
576.0,0.20757897198200226
640.0,0.20989476144313812
704.0,0.14157891273498535
768.0,0.0877622738480568
832.0,0.05355178937315941
896.0,0.02396557666361332
960.0,0.016924872994422913
1024.0,-0.0006569590186700225
1152.0,-0.014863412827253342
1280.0,-0.014459417201578617
1408.0,0.024738866835832596
1536.0,0.006229104474186897
1664.0,0.018995216116309166
1792.0,0.04199446737766266
1920.0,0.06959021091461182
2048.0,0.17774789035320282
2304.0,0.1665070503950119
2560.0,0.18309085071086884
2816.0,0.1327356994152069
3072.0,-0.006898305378854275
3328.0,-0.11528661102056503
3584.0,-0.1444951891899109
3840.0,-0.1691586673259735
4096.0,-0.14922888576984406
4608.0,-0.13105793297290802
5120.0,-0.034701988101005554
5632.0,-0.05182763189077377
6144.0,-0.2578771710395813
6656.0,-0.3036627471446991
7168.0,-0.16414526104927063
7680.0,-0.10119660943746567
8192.0,-0.11679707467556
9216.0,-0.1006440594792366
10240.0,0.07631239295005798
11264.0,0.06432341039180756
12288.0,0.09178132563829422
13312.0,0.13761548697948456
14336.0,0.14922359585762024
end
