version,3.0
numOfCh,1
type,point
parent_name,dirty_0dot2-0dot1
ch_type,1_1
kcount,1
numberNandB,1
brightnessNandB,1
carpet pos,0
pc,0
Time (ms),CH1 Auto-Correlation
1.0,0.16941940784454346
2.0,0.16656267642974854
3.0,0.1639459878206253
4.0,0.1613098531961441
5.0,0.1586914360523224
6.0,0.15614929795265198
7.0,0.15380670130252838
8.0,0.15132397413253784
9.0,0.14873750507831573
10.0,0.14631251990795135
11.0,0.14383606612682343
12.0,0.14148665964603424
13.0,0.1393464207649231
14.0,0.13723166286945343
15.0,0.1354512721300125
16.0,0.13373729586601257
18.0,0.13010917603969574
20.0,0.12672539055347443
22.0,0.1232624426484108
24.0,0.1201348826289177
26.0,0.1172037124633789
28.0,0.11448268592357635
30.0,0.11197628080844879
32.0,0.10927769541740417
36.0,0.10476891696453094
40.0,0.10135532915592194
44.0,0.09830381721258163
48.0,0.09717492014169693
52.0,0.09767608344554901
56.0,0.09825588017702103
60.0,0.09704247117042542
64.0,0.09499093890190125
72.0,0.0920620784163475
80.0,0.08656524866819382
88.0,0.08084308356046677
96.0,0.07458080351352692
104.0,0.06848244369029999
112.0,0.06297992914915085
120.0,0.058660779148340225
128.0,0.05659957975149155
144.0,0.04539428651332855
160.0,0.03846675157546997
176.0,0.035296447575092316
192.0,0.0325566865503788
208.0,0.029111413285136223
224.0,0.02820654585957527
240.0,0.025703180581331253
256.0,0.023773623630404472
288.0,0.02439582720398903
320.0,0.025630056858062744
352.0,0.02823549695312977
384.0,0.025994574651122093
416.0,0.02318166382610798
448.0,0.021885665133595467
480.0,0.019137876108288765
512.0,0.015815533697605133
576.0,0.01275840774178505
640.0,0.01498949434608221
704.0,0.01354522816836834
768.0,0.018258096650242805
832.0,0.02320176176726818
896.0,0.014022013172507286
960.0,0.004334161523729563
1024.0,-0.0033545424230396748
1152.0,3.610948260757141e-05
1280.0,-0.0041914745233953
1408.0,-0.009094718843698502
1536.0,-0.011751418933272362
1664.0,-0.008586948737502098
1792.0,-0.003670942736789584
1920.0,-0.00020921244868077338
2048.0,0.0035898906644433737
2304.0,0.005560633260756731
2560.0,0.008708116598427296
2816.0,0.009729865938425064
3072.0,0.011400804854929447
3328.0,0.001531265559606254
3584.0,0.0014931148616597056
3840.0,-0.006374055054038763
4096.0,-0.00886125210672617
4608.0,-0.0003012067754752934
5120.0,0.00834274385124445
5632.0,0.007443311158567667
6144.0,0.010160287842154503
6656.0,-0.015875209122896194
7168.0,-0.02075626701116562
7680.0,-0.024236971512436867
8192.0,-0.0004815370193682611
9216.0,-0.015369018539786339
10240.0,0.00351103488355875
11264.0,-0.016316229477524757
12288.0,-0.033799342811107635
13312.0,0.0058497535064816475
14336.0,0.005269527900964022
end
