version,3.0
numOfCh,1
type,point
parent_name,dirty_0dot2-0dot1
ch_type,1_1
kcount,1
numberNandB,1
brightnessNandB,1
carpet pos,0
pc,0
Time (ms),CH1 Auto-Correlation
1.0,0.6820471286773682
2.0,0.675666332244873
3.0,0.6694051027297974
4.0,0.6633690595626831
5.0,0.6576173901557922
6.0,0.6520766615867615
7.0,0.6469147205352783
8.0,0.6416287422180176
9.0,0.6360786557197571
10.0,0.630696713924408
11.0,0.6251323819160461
12.0,0.6200152635574341
13.0,0.6148077845573425
14.0,0.6096735596656799
15.0,0.6051585078239441
16.0,0.6009528636932373
18.0,0.5924116969108582
20.0,0.5839477777481079
22.0,0.5766239166259766
24.0,0.5697067379951477
26.0,0.5627922415733337
28.0,0.5555281043052673
30.0,0.5478766560554504
32.0,0.540560781955719
36.0,0.5267162322998047
40.0,0.5152594447135925
44.0,0.5030829310417175
48.0,0.49239984154701233
52.0,0.4815050959587097
56.0,0.47160398960113525
60.0,0.4641530513763428
64.0,0.45824873447418213
72.0,0.4452861547470093
80.0,0.43183276057243347
88.0,0.41292285919189453
96.0,0.39198917150497437
104.0,0.37279465794563293
112.0,0.3602701425552368
120.0,0.35151949524879456
128.0,0.3392573893070221
144.0,0.3038581311702728
160.0,0.27193352580070496
176.0,0.2465691864490509
192.0,0.22985203564167023
208.0,0.22149962186813354
224.0,0.20503360033035278
240.0,0.18454967439174652
256.0,0.1684815138578415
288.0,0.15361613035202026
320.0,0.12583580613136292
352.0,0.09570319205522537
384.0,0.06701620668172836
416.0,0.0302170030772686
448.0,0.006220261100679636
480.0,-0.010371371172368526
512.0,-0.015460245311260223
576.0,-0.014945930801331997
640.0,-0.017009636387228966
704.0,-0.02594614587724209
768.0,-0.031712938100099564
832.0,-0.027927465736865997
896.0,-0.013918079435825348
960.0,0.02372337318956852
1024.0,0.019597992300987244
1152.0,0.06551875174045563
1280.0,0.1370244324207306
1408.0,0.06891600042581558
1536.0,0.007933152839541435
1664.0,-0.04827602580189705
1792.0,-0.07683686167001724
1920.0,-0.094712033867836
2048.0,-0.10414345562458038
2304.0,-0.018700582906603813
2560.0,-0.035440146923065186
2816.0,-0.05034542828798294
3072.0,-0.04493866488337517
3328.0,-0.04827738180756569
3584.0,0.16414740681648254
3840.0,0.22609291970729828
4096.0,0.08195063471794128
4608.0,0.0350201316177845
5120.0,0.05382002145051956
5632.0,-0.016887109726667404
6144.0,-0.04254554212093353
6656.0,-0.07757052779197693
7168.0,-0.08231145143508911
7680.0,-0.08723165094852448
8192.0,-0.06711677461862564
9216.0,-0.009600258432328701
10240.0,0.0028592674061656
11264.0,-0.07827414572238922
12288.0,-0.1321619600057602
13312.0,-0.03162765875458717
14336.0,0.030439838767051697
end
