version,3.0
numOfCh,1
type,point
parent_name,dirty_0dot2-0dot1
ch_type,1_1
kcount,1
numberNandB,1
brightnessNandB,1
carpet pos,0
pc,0
Time (ms),CH1 Auto-Correlation
1.0,0.6920126676559448
2.0,0.6847456693649292
3.0,0.6777486205101013
4.0,0.6709328889846802
5.0,0.6644597053527832
6.0,0.6580614447593689
7.0,0.6520261168479919
8.0,0.6453359723091125
9.0,0.6389879584312439
10.0,0.6327259540557861
11.0,0.6264713406562805
12.0,0.6204044222831726
13.0,0.6144631505012512
14.0,0.6087549328804016
15.0,0.6029351949691772
16.0,0.5974491238594055
18.0,0.5861955881118774
20.0,0.5753244161605835
22.0,0.5648440718650818
24.0,0.5549899935722351
26.0,0.5456578135490417
28.0,0.5366500020027161
30.0,0.5286976099014282
32.0,0.5212518572807312
36.0,0.506040096282959
40.0,0.48865213990211487
44.0,0.4683075547218323
48.0,0.4493936598300934
52.0,0.4338199198246002
56.0,0.42056092619895935
60.0,0.4094129502773285
64.0,0.4007667601108551
72.0,0.3878094255924225
80.0,0.37428513169288635
88.0,0.359155535697937
96.0,0.34859105944633484
104.0,0.33891555666923523
112.0,0.33193403482437134
120.0,0.32563599944114685
128.0,0.3188740313053131
144.0,0.30739787220954895
160.0,0.29388943314552307
176.0,0.2783779203891754
192.0,0.2663973271846771
208.0,0.25746628642082214
224.0,0.23293620347976685
240.0,0.2056436538696289
256.0,0.18599949777126312
288.0,0.15290413796901703
320.0,0.13810516893863678
352.0,0.12315890192985535
384.0,0.10064194351434708
416.0,0.08863825350999832
448.0,0.0726189985871315
480.0,0.06371689587831497
512.0,0.0423978753387928
576.0,0.02691294252872467
640.0,0.010312414728105068
704.0,-0.004418908152729273
768.0,-0.01045966986566782
832.0,-0.0030916996765881777
896.0,-0.008609844371676445
960.0,0.03510230407118797
1024.0,0.009389911778271198
1152.0,-0.04023459926247597
1280.0,-0.0707126259803772
1408.0,-0.0682653859257698
1536.0,-0.07026055455207825
1664.0,-0.07475141435861588
1792.0,-0.07069718837738037
1920.0,-0.059812840074300766
2048.0,-0.06408172100782394
2304.0,-0.06904327869415283
2560.0,-0.06954070925712585
2816.0,-0.057062387466430664
3072.0,-0.04341169446706772
3328.0,-0.03168197348713875
3584.0,0.0429704524576664
3840.0,0.06511607766151428
4096.0,-0.03221229091286659
4608.0,-0.07397430390119553
5120.0,-0.0636577159166336
5632.0,-0.029823772609233856
6144.0,0.009085257537662983
6656.0,0.16803757846355438
7168.0,0.006285213865339756
7680.0,0.08783815801143646
8192.0,-0.015486693009734154
9216.0,-0.028116682544350624
10240.0,-0.00839712843298912
11264.0,0.000693466339726001
12288.0,0.017282230779528618
13312.0,-0.0019221680704504251
14336.0,-0.06155409291386604
end
