version,3.0
numOfCh,1
type,point
parent_name,dirty_0dot2-0dot1
ch_type,1_1
kcount,1
numberNandB,1
brightnessNandB,1
carpet pos,0
pc,0
Time (ms),CH1 Auto-Correlation
1.0,0.6640129089355469
2.0,0.6573437452316284
3.0,0.6501867771148682
4.0,0.643074095249176
5.0,0.6368046402931213
6.0,0.6314485669136047
7.0,0.6259112358093262
8.0,0.6206133365631104
9.0,0.6152591109275818
10.0,0.6100504398345947
11.0,0.6053078174591064
12.0,0.6014153361320496
13.0,0.5975022315979004
14.0,0.5936008095741272
15.0,0.5901250243186951
16.0,0.5865437984466553
18.0,0.5791640877723694
20.0,0.5724635124206543
22.0,0.5654770731925964
24.0,0.5589520335197449
26.0,0.5530140995979309
28.0,0.546978235244751
30.0,0.5411680936813354
32.0,0.5354669094085693
36.0,0.5269510746002197
40.0,0.5190511345863342
44.0,0.5126806497573853
48.0,0.506162166595459
52.0,0.4996824562549591
56.0,0.49280914664268494
60.0,0.4891049861907959
64.0,0.4840913712978363
72.0,0.4747077226638794
80.0,0.47210806608200073
88.0,0.47215747833251953
96.0,0.46936777234077454
104.0,0.46144556999206543
112.0,0.4504731297492981
120.0,0.4361543655395508
128.0,0.41420039534568787
144.0,0.3819754123687744
160.0,0.3577313721179962
176.0,0.3699890375137329
192.0,0.37911146879196167
208.0,0.3798545002937317
224.0,0.3613177239894867
240.0,0.33400386571884155
256.0,0.3105173110961914
288.0,0.28729715943336487
320.0,0.26022931933403015
352.0,0.22083799540996552
384.0,0.19049827754497528
416.0,0.16588571667671204
448.0,0.12359282374382019
480.0,0.09925607591867447
512.0,0.07639674842357635
576.0,0.04320312663912773
640.0,0.022130342200398445
704.0,0.007079560309648514
768.0,-0.007852843962609768
832.0,-0.01059160940349102
896.0,-0.008369101211428642
960.0,-0.010176794603466988
1024.0,-0.016724932938814163
1152.0,-0.01274019479751587
1280.0,0.0015988218365237117
1408.0,0.008610178716480732
1536.0,0.011828512884676456
1664.0,0.005642775911837816
1792.0,-0.0026477735955268145
1920.0,-0.012710994109511375
2048.0,-0.018012944608926773
2304.0,-0.01475218404084444
2560.0,-0.0027633707504719496
2816.0,0.009414429776370525
3072.0,0.01063750870525837
3328.0,-0.012473718263208866
3584.0,-0.037465762346982956
3840.0,-0.04672422260046005
4096.0,-0.03937091678380966
4608.0,-0.011683579534292221
5120.0,-0.008545261807739735
5632.0,-0.00853773858398199
6144.0,-0.0119697954505682
6656.0,-0.02956879325211048
7168.0,0.020191462710499763
7680.0,0.045435551553964615
8192.0,0.014430470764636993
9216.0,-0.05913100764155388
10240.0,-0.057731930166482925
11264.0,-0.07335557043552399
12288.0,-0.015881936997175217
13312.0,-0.12187794595956802
14336.0,-0.1400051862001419
end
