version,3.0
numOfCh,1
type,point
parent_name,dirty_0dot2-0dot1
ch_type,1_1
kcount,1
numberNandB,1
brightnessNandB,1
carpet pos,0
pc,0
Time (ms),CH1 Auto-Correlation
1.0,0.7977979779243469
2.0,0.7916337847709656
3.0,0.7853034734725952
4.0,0.7794478535652161
5.0,0.7734135389328003
6.0,0.7678984999656677
7.0,0.7626299262046814
8.0,0.7572442293167114
9.0,0.7516992688179016
10.0,0.7461351156234741
11.0,0.7399789094924927
12.0,0.7332097887992859
13.0,0.7265052795410156
14.0,0.7198566794395447
15.0,0.7132218480110168
16.0,0.706356942653656
18.0,0.692424476146698
20.0,0.6787400841712952
22.0,0.6655158400535583
24.0,0.651709258556366
26.0,0.637527346611023
28.0,0.6236355304718018
30.0,0.6099725365638733
32.0,0.5975616574287415
36.0,0.5735747814178467
40.0,0.5523377656936646
44.0,0.5300706028938293
48.0,0.5128678679466248
52.0,0.4983345866203308
56.0,0.48420387506484985
60.0,0.47011497616767883
64.0,0.45788800716400146
72.0,0.4336411654949188
80.0,0.41195106506347656
88.0,0.39124786853790283
96.0,0.3737771809101105
104.0,0.35991910099983215
112.0,0.35028624534606934
120.0,0.3412952125072479
128.0,0.3336508870124817
144.0,0.32317519187927246
160.0,0.3252427279949188
176.0,0.33849242329597473
192.0,0.3506603538990021
208.0,0.3526996076107025
224.0,0.3384263217449188
240.0,0.30929940938949585
256.0,0.2757611870765686
288.0,0.20938259363174438
320.0,0.1676890105009079
352.0,0.1343204528093338
384.0,0.112766332924366
416.0,0.10307945311069489
448.0,0.07988090068101883
480.0,0.052800774574279785
512.0,0.026460561901330948
576.0,0.019455399364233017
640.0,0.005804496351629496
704.0,0.0031159715726971626
768.0,0.006030613090842962
832.0,-0.001042508753016591
896.0,-0.00955635029822588
960.0,-0.0014143302105367184
1024.0,0.007325691636651754
1152.0,0.019397951662540436
1280.0,0.012889913283288479
1408.0,0.006714522372931242
1536.0,0.003480860497802496
1664.0,-0.014680296182632446
1792.0,0.0002778536290861666
1920.0,0.003490736009553075
2048.0,-0.00236848765052855
2304.0,0.04371744021773338
2560.0,0.09148756414651871
2816.0,0.05829542875289917
3072.0,0.06261816620826721
3328.0,0.047673046588897705
3584.0,0.021686801686882973
3840.0,-0.0024908827617764473
4096.0,-0.010889556258916855
4608.0,-0.00217132898978889
5120.0,-0.005117373540997505
5632.0,0.00625018822029233
6144.0,-0.04856705665588379
6656.0,-0.07426317781209946
7168.0,-0.08645348995923996
7680.0,-0.008487515151500702
8192.0,-0.04321955889463425
9216.0,-0.11897352337837219
10240.0,-0.08315739780664444
11264.0,-0.10345713794231415
12288.0,-0.07442014664411545
13312.0,-0.06107281520962715
14336.0,-0.2845076024532318
end
