version,3.0
numOfCh,1
type,point
parent_name,dirty_0dot2-0dot1
ch_type,1_1
kcount,1
numberNandB,1
brightnessNandB,1
carpet pos,0
pc,0
Time (ms),CH1 Auto-Correlation
1.0,0.9808026552200317
2.0,0.9709258079528809
3.0,0.9607492089271545
4.0,0.9514254927635193
5.0,0.9422858953475952
6.0,0.9344478249549866
7.0,0.9270192384719849
8.0,0.9197529554367065
9.0,0.9145006537437439
10.0,0.9106780886650085
11.0,0.9071047306060791
12.0,0.903628408908844
13.0,0.8997313380241394
14.0,0.8957480788230896
15.0,0.8915621638298035
16.0,0.8877649307250977
18.0,0.8811885714530945
20.0,0.8715338110923767
22.0,0.8641566038131714
24.0,0.8546689748764038
26.0,0.8439017534255981
28.0,0.8318867683410645
30.0,0.8238362073898315
32.0,0.8193042874336243
36.0,0.8057339191436768
40.0,0.7878708839416504
44.0,0.769046425819397
48.0,0.7488511204719543
52.0,0.7280228734016418
56.0,0.7095191478729248
60.0,0.6927409768104553
64.0,0.6745927929878235
72.0,0.63149094581604
80.0,0.5884915590286255
88.0,0.5424436926841736
96.0,0.5000677704811096
104.0,0.4617149233818054
112.0,0.4212390184402466
120.0,0.38457363843917847
128.0,0.3488183915615082
144.0,0.27574604749679565
160.0,0.22089053690433502
176.0,0.17749276757240295
192.0,0.15397700667381287
208.0,0.1479731649160385
224.0,0.15227298438549042
240.0,0.16135472059249878
256.0,0.17102789878845215
288.0,0.20011046528816223
320.0,0.23887871205806732
352.0,0.2918388247489929
384.0,0.3508216142654419
416.0,0.37655162811279297
448.0,0.378854364156723
480.0,0.3462199866771698
512.0,0.2771718502044678
576.0,0.09499628096818924
640.0,-0.014850333333015442
704.0,-0.02173341065645218
768.0,-0.003599550575017929
832.0,-0.01447815541177988
896.0,-0.03856869786977768
960.0,-0.0611683651804924
1024.0,-0.06939054280519485
1152.0,-0.05181112885475159
1280.0,-0.03880010172724724
1408.0,-0.05248697102069855
1536.0,-0.03952460363507271
1664.0,-0.028489133343100548
1792.0,-0.04881995916366577
1920.0,-0.05905727297067642
2048.0,-0.033751923590898514
2304.0,-0.0528670959174633
2560.0,-0.056586604565382004
2816.0,-0.0811133086681366
3072.0,-0.09050778299570084
3328.0,-0.09247015416622162
3584.0,-0.07938604801893234
3840.0,-0.06057332828640938
4096.0,-0.04877309501171112
4608.0,0.009544678963720798
5120.0,-0.0016403310000896454
5632.0,-0.001500756829045713
6144.0,-0.022332295775413513
6656.0,-0.04849771410226822
7168.0,0.0009972545085474849
7680.0,0.04151520878076553
8192.0,-0.010617741383612156
9216.0,-0.020175661891698837
10240.0,-0.0101223299279809
11264.0,0.0036875063087791204
12288.0,0.017543889582157135
13312.0,0.015486943535506725
14336.0,0.012615595944225788
end
