version,3.0
numOfCh,1
type,point
parent_name,dirty_0dot2-0dot1
ch_type,1_1
kcount,1
numberNandB,1
brightnessNandB,1
carpet pos,0
pc,0
Time (ms),CH1 Auto-Correlation
1.0,1.2437679767608643
2.0,1.228895664215088
3.0,1.214264988899231
4.0,1.199945330619812
5.0,1.1856437921524048
6.0,1.1722466945648193
7.0,1.158821702003479
8.0,1.1454237699508667
9.0,1.1328362226486206
10.0,1.1205387115478516
11.0,1.1080787181854248
12.0,1.0951166152954102
13.0,1.0832123756408691
14.0,1.072004795074463
15.0,1.0610685348510742
16.0,1.0507981777191162
18.0,1.0303566455841064
20.0,1.0102746486663818
22.0,0.9910812377929688
24.0,0.9733467102050781
26.0,0.9565377235412598
28.0,0.9400485754013062
30.0,0.9249850511550903
32.0,0.9104236960411072
36.0,0.8815937638282776
40.0,0.8512802124023438
44.0,0.8236388564109802
48.0,0.7941250801086426
52.0,0.7600398063659668
56.0,0.7283686995506287
60.0,0.7029322981834412
64.0,0.6821878552436829
72.0,0.6469697952270508
80.0,0.6082656383514404
88.0,0.5678080916404724
96.0,0.5251724123954773
104.0,0.4890427589416504
112.0,0.4672301113605499
120.0,0.4439132511615753
128.0,0.4035601317882538
144.0,0.3389497697353363
160.0,0.31383073329925537
176.0,0.2780059278011322
192.0,0.251077800989151
208.0,0.2266937494277954
224.0,0.21076557040214539
240.0,0.20395751297473907
256.0,0.18220768868923187
288.0,0.17247776687145233
320.0,0.16927789151668549
352.0,0.13363076746463776
384.0,0.13433599472045898
416.0,0.16517682373523712
448.0,0.16731934249401093
480.0,0.1631048619747162
512.0,0.15021580457687378
576.0,0.07544655352830887
640.0,0.04774400591850281
704.0,0.09931834042072296
768.0,0.06923539191484451
832.0,0.1302495002746582
896.0,0.1806684285402298
960.0,0.23136110603809357
1024.0,0.1761423647403717
1152.0,0.10868638753890991
1280.0,0.052886962890625
1408.0,0.09097340703010559
1536.0,0.13438601791858673
1664.0,0.08831481635570526
1792.0,0.05638348311185837
1920.0,0.048909712582826614
2048.0,-0.007589947432279587
2304.0,0.006507448852062225
2560.0,0.020529957488179207
2816.0,0.0008515428635291755
3072.0,-0.06159419193863869
3328.0,-0.07651574164628983
3584.0,-0.07727652788162231
3840.0,-0.07303465902805328
4096.0,-0.09399790316820145
4608.0,-0.04727751016616821
5120.0,-0.12410052865743637
5632.0,-0.08484892547130585
6144.0,-0.11253038793802261
6656.0,-0.061039999127388
7168.0,-0.024146126583218575
7680.0,-0.08692629635334015
8192.0,-0.03183272108435631
9216.0,0.13277342915534973
10240.0,0.12516699731349945
11264.0,0.0012795175425708294
12288.0,-0.08960241079330444
13312.0,-0.28721633553504944
14336.0,-0.41783350706100464
end
