version,3.0
numOfCh,1
type,point
parent_name,dirty_0dot2-0dot1
ch_type,1_1
kcount,1
numberNandB,1
brightnessNandB,1
carpet pos,0
pc,0
Time (ms),CH1 Auto-Correlation
1.0,0.7253482341766357
2.0,0.7168683409690857
3.0,0.7087267637252808
4.0,0.7004547715187073
5.0,0.6919323205947876
6.0,0.6837401986122131
7.0,0.6756291389465332
8.0,0.6680447459220886
9.0,0.6606217622756958
10.0,0.6532821655273438
11.0,0.6454606056213379
12.0,0.6376181244850159
13.0,0.6299998760223389
14.0,0.6225511431694031
15.0,0.6155866384506226
16.0,0.6086734533309937
18.0,0.5946698188781738
20.0,0.5814856290817261
22.0,0.5683622360229492
24.0,0.5563008785247803
26.0,0.5449960231781006
28.0,0.5330498218536377
30.0,0.5207047462463379
32.0,0.5075895190238953
36.0,0.4825488328933716
40.0,0.45679160952568054
44.0,0.4315827488899231
48.0,0.4075220227241516
52.0,0.383247971534729
56.0,0.3594680428504944
60.0,0.3378651738166809
64.0,0.3195760250091553
72.0,0.2882096767425537
80.0,0.26801642775535583
88.0,0.25303059816360474
96.0,0.2395045906305313
104.0,0.22773733735084534
112.0,0.2147950679063797
120.0,0.20754148066043854
128.0,0.20469054579734802
144.0,0.1891406625509262
160.0,0.1610776036977768
176.0,0.14452557265758514
192.0,0.13138973712921143
208.0,0.14030617475509644
224.0,0.16143572330474854
240.0,0.18840470910072327
256.0,0.20601709187030792
288.0,0.21082328259944916
320.0,0.2039419710636139
352.0,0.1742645651102066
384.0,0.13668866455554962
416.0,0.11663509160280228
448.0,0.1016848012804985
480.0,0.11851965636014938
512.0,0.1401245892047882
576.0,0.15453357994556427
640.0,0.15952186286449432
704.0,0.12560468912124634
768.0,0.16886860132217407
832.0,0.16091254353523254
896.0,0.08376997709274292
960.0,0.03084452822804451
1024.0,0.003421607194468379
1152.0,0.043146491050720215
1280.0,0.0188895296305418
1408.0,0.038130983710289
1536.0,0.05324534699320793
1664.0,0.03164719417691231
1792.0,0.014375904574990273
1920.0,-0.03478670120239258
2048.0,-0.038047924637794495
2304.0,-0.04334243759512901
2560.0,-0.031890496611595154
2816.0,-0.05242369696497917
3072.0,-0.042227908968925476
3328.0,-0.07696737349033356
3584.0,-0.11261093616485596
3840.0,-0.12537087500095367
4096.0,-0.13469953835010529
4608.0,-0.0476934015750885
5120.0,-0.028338272124528885
5632.0,-0.008410723879933357
6144.0,0.05075770989060402
6656.0,0.04526866227388382
7168.0,0.0676841214299202
7680.0,0.10120578855276108
8192.0,0.03302498906850815
9216.0,-0.10153570026159286
10240.0,-0.06636356562376022
11264.0,-0.05108635872602463
12288.0,-0.04888635873794556
13312.0,0.012377385050058365
14336.0,0.058030880987644196
end
