version,3.0
numOfCh,1
type,point
parent_name,dirty_0dot2-0dot1
ch_type,1_1
kcount,1
numberNandB,1
brightnessNandB,1
carpet pos,0
pc,0
Time (ms),CH1 Auto-Correlation
1.0,0.525200366973877
2.0,0.5197883248329163
3.0,0.5145639181137085
4.0,0.5090017318725586
5.0,0.5033369660377502
6.0,0.4980342984199524
7.0,0.49363452196121216
8.0,0.48956164717674255
9.0,0.4860076308250427
10.0,0.48236459493637085
11.0,0.4789973497390747
12.0,0.4748448133468628
13.0,0.47018370032310486
14.0,0.46555495262145996
15.0,0.4608304500579834
16.0,0.45600250363349915
18.0,0.44665440917015076
20.0,0.43750762939453125
22.0,0.42941275238990784
24.0,0.421642929315567
26.0,0.4128405749797821
28.0,0.4041718542575836
30.0,0.3952833116054535
32.0,0.3863687515258789
36.0,0.3660108745098114
40.0,0.34539198875427246
44.0,0.32581788301467896
48.0,0.3064676523208618
52.0,0.29029107093811035
56.0,0.27582255005836487
60.0,0.25865602493286133
64.0,0.2409735918045044
72.0,0.2104557901620865
80.0,0.18246270716190338
88.0,0.1577853262424469
96.0,0.13784754276275635
104.0,0.11765526235103607
112.0,0.10401810705661774
120.0,0.09375298768281937
128.0,0.09002376347780228
144.0,0.07842539995908737
160.0,0.06480950117111206
176.0,0.05514378100633621
192.0,0.05049530789256096
208.0,0.05250735953450203
224.0,0.05472850799560547
240.0,0.0661691278219223
256.0,0.07888761907815933
288.0,0.0945550724864006
320.0,0.09179268032312393
352.0,0.06134531646966934
384.0,0.036009471863508224
416.0,0.03046644665300846
448.0,0.03473862260580063
480.0,0.03162511810660362
512.0,0.024161549285054207
576.0,0.01471107080578804
640.0,0.0037339816335588694
704.0,-0.003676314139738679
768.0,-0.01053834892809391
832.0,-0.005194788798689842
896.0,-0.0022067080717533827
960.0,0.00994621217250824
1024.0,0.010676349513232708
1152.0,-0.007155595347285271
1280.0,-0.013237874023616314
1408.0,-0.019127031788229942
1536.0,-0.013373591005802155
1664.0,-0.012226760387420654
1792.0,-0.013065960258245468
1920.0,-0.01973145455121994
2048.0,-0.03171708434820175
2304.0,-0.03161165118217468
2560.0,-0.030531685799360275
2816.0,-0.030452856793999672
3072.0,-0.03318622335791588
3328.0,-0.027549415826797485
3584.0,-0.022457679733633995
3840.0,-0.01928103156387806
4096.0,-0.03408680111169815
4608.0,-0.022476211190223694
5120.0,0.027695562690496445
5632.0,0.024916239082813263
6144.0,0.036344073712825775
6656.0,0.024903755635023117
7168.0,-0.0019929022528231144
7680.0,-0.014291985891759396
8192.0,-0.03530742600560188
9216.0,-0.021986130625009537
10240.0,-0.0048878975212574005
11264.0,0.004384918604046106
12288.0,0.013548742979764938
13312.0,0.016639437526464462
14336.0,0.009552923031151295
end
