version,3.0
numOfCh,1
type,point
parent_name,dirty_0dot2-0dot1
ch_type,1_1
kcount,1
numberNandB,1
brightnessNandB,1
carpet pos,0
pc,0
Time (ms),CH1 Auto-Correlation
1.0,1.7450026273727417
2.0,1.731824517250061
3.0,1.7183822393417358
4.0,1.7051299810409546
5.0,1.6911780834197998
6.0,1.677777886390686
7.0,1.6638237237930298
8.0,1.6496641635894775
9.0,1.635538101196289
10.0,1.621872901916504
11.0,1.6083570718765259
12.0,1.5947133302688599
13.0,1.5813884735107422
14.0,1.568573236465454
15.0,1.556569218635559
16.0,1.5465184450149536
18.0,1.524116039276123
20.0,1.5046378374099731
22.0,1.4879283905029297
24.0,1.4725579023361206
26.0,1.4588690996170044
28.0,1.4475963115692139
30.0,1.4391345977783203
32.0,1.4318277835845947
36.0,1.4211174249649048
40.0,1.4103782176971436
44.0,1.401967167854309
48.0,1.3924318552017212
52.0,1.380865216255188
56.0,1.3696448802947998
60.0,1.3541115522384644
64.0,1.3353654146194458
72.0,1.3099523782730103
80.0,1.2879283428192139
88.0,1.2498291730880737
96.0,1.2136616706848145
104.0,1.1765376329421997
112.0,1.1314035654067993
120.0,1.097877860069275
128.0,1.0808794498443604
144.0,1.1037046909332275
160.0,1.0973438024520874
176.0,1.0934401750564575
192.0,1.0759382247924805
208.0,1.0391545295715332
224.0,1.0279039144515991
240.0,1.0141760110855103
256.0,0.9468125104904175
288.0,0.8156211972236633
320.0,0.7318546772003174
352.0,0.6471863985061646
384.0,0.5997146964073181
416.0,0.5920959711074829
448.0,0.5568276047706604
480.0,0.5680546164512634
512.0,0.5794441103935242
576.0,0.6590290069580078
640.0,0.7273247241973877
704.0,0.7640318870544434
768.0,0.8481833338737488
832.0,0.86775803565979
896.0,0.7454006671905518
960.0,0.6465339064598083
1024.0,0.557074785232544
1152.0,0.2304823100566864
1280.0,0.12918569147586823
1408.0,0.09159404039382935
1536.0,0.16858597099781036
1664.0,0.15925978124141693
1792.0,0.05893552675843239
1920.0,-0.03643842414021492
2048.0,-0.17639407515525818
2304.0,-0.18801824748516083
2560.0,-0.18594200909137726
2816.0,-0.23611129820346832
3072.0,-0.22273413836956024
3328.0,-0.22968250513076782
3584.0,-0.33444204926490784
3840.0,-0.3160293400287628
4096.0,-0.28344663977622986
4608.0,-0.3437328636646271
5120.0,-0.235902339220047
5632.0,-0.14681515097618103
6144.0,-0.10088491439819336
6656.0,-0.11089503765106201
7168.0,-0.11532089859247208
7680.0,-0.17083585262298584
8192.0,-0.1314145177602768
9216.0,-0.1551140397787094
10240.0,-0.14638353884220123
11264.0,0.06683987379074097
12288.0,0.15590552985668182
13312.0,0.14335589110851288
14336.0,0.12830445170402527
end
