version,3.0
numOfCh,1
type,point
parent_name,dirty_0dot2-0dot1
ch_type,1_1
kcount,1
numberNandB,1
brightnessNandB,1
carpet pos,0
pc,0
Time (ms),CH1 Auto-Correlation
1.0,0.8787128925323486
2.0,0.8709922432899475
3.0,0.863021731376648
4.0,0.8551874756813049
5.0,0.8477669358253479
6.0,0.8409855365753174
7.0,0.8344584703445435
8.0,0.8274989724159241
9.0,0.820302426815033
10.0,0.8137301206588745
11.0,0.8070316314697266
12.0,0.8002669811248779
13.0,0.7939477562904358
14.0,0.7876911163330078
15.0,0.7814002633094788
16.0,0.7755723595619202
18.0,0.7638086080551147
20.0,0.7513559460639954
22.0,0.7400732040405273
24.0,0.7304355502128601
26.0,0.7213279008865356
28.0,0.710844874382019
30.0,0.6998339295387268
32.0,0.689411997795105
36.0,0.6687485575675964
40.0,0.6473438143730164
44.0,0.6259797215461731
48.0,0.6052890419960022
52.0,0.584545910358429
56.0,0.5674248933792114
60.0,0.5532561540603638
64.0,0.5411196947097778
72.0,0.5111919045448303
80.0,0.4841724634170532
88.0,0.47075140476226807
96.0,0.46416330337524414
104.0,0.45913320779800415
112.0,0.4520546495914459
120.0,0.4499076008796692
128.0,0.4500657320022583
144.0,0.45210275053977966
160.0,0.447613924741745
176.0,0.43760162591934204
192.0,0.4189509153366089
208.0,0.39326608180999756
224.0,0.34809261560440063
240.0,0.3042619824409485
256.0,0.2643809914588928
288.0,0.2006927728652954
320.0,0.20009998977184296
352.0,0.2146514654159546
384.0,0.17966914176940918
416.0,0.12626545131206512
448.0,0.08615012466907501
480.0,0.07664565742015839
512.0,0.083976611495018
576.0,0.07500185072422028
640.0,0.032865945249795914
704.0,0.005592165980488062
768.0,-0.0033777570351958275
832.0,-0.010760696604847908
896.0,0.0029705772176384926
960.0,0.00817579124122858
1024.0,5.527426037588157e-05
1152.0,0.0014776219613850117
1280.0,-0.0012074689147993922
1408.0,-0.014080247841775417
1536.0,0.0048621115274727345
1664.0,0.010720382444560528
1792.0,0.020745864138007164
1920.0,0.0263123270124197
2048.0,0.01240357756614685
2304.0,0.00897898618131876
2560.0,0.024059191346168518
2816.0,0.002952846232801676
3072.0,-0.002987530082464218
3328.0,-0.009393920190632343
3584.0,0.0036178412847220898
3840.0,-0.0033280730713158846
4096.0,-0.0004464610246941447
4608.0,-0.02494756132364273
5120.0,-0.05971252918243408
5632.0,-0.04503258690237999
6144.0,-0.03563086688518524
6656.0,-0.04129394516348839
7168.0,-0.04197675734758377
7680.0,-0.08944249153137207
8192.0,-0.07223598659038544
9216.0,-0.11089083552360535
10240.0,-0.11223145574331284
11264.0,-0.13291820883750916
12288.0,0.004340421408414841
13312.0,0.45937907695770264
14336.0,-0.1614740490913391
end
