version,3.0
numOfCh,1
type,point
parent_name,dirty_0dot2-0dot1
ch_type,1_1
kcount,1
numberNandB,1
brightnessNandB,1
carpet pos,0
pc,0
Time (ms),CH1 Auto-Correlation
1.0,0.26560431718826294
2.0,0.2617466449737549
3.0,0.25786757469177246
4.0,0.253726601600647
5.0,0.24918538331985474
6.0,0.24534554779529572
7.0,0.24121445417404175
8.0,0.23743866384029388
9.0,0.23433245718479156
10.0,0.23168151080608368
11.0,0.22869236767292023
12.0,0.22582422196865082
13.0,0.22267258167266846
14.0,0.21962226927280426
15.0,0.21643808484077454
16.0,0.2132306843996048
18.0,0.2069714069366455
20.0,0.20127423107624054
22.0,0.19710786640644073
24.0,0.19452199339866638
26.0,0.1925589144229889
28.0,0.19100722670555115
30.0,0.18942029774188995
32.0,0.1872449368238449
36.0,0.18101507425308228
40.0,0.17518378794193268
44.0,0.16876208782196045
48.0,0.1626170426607132
52.0,0.15763752162456512
56.0,0.15202924609184265
60.0,0.14441688358783722
64.0,0.1361091583967209
72.0,0.11926179379224777
80.0,0.10931745916604996
88.0,0.10457174479961395
96.0,0.09728686511516571
104.0,0.08573745936155319
112.0,0.0765969306230545
120.0,0.06798466295003891
128.0,0.061365921050310135
144.0,0.05418877676129341
160.0,0.050552234053611755
176.0,0.051803696900606155
192.0,0.0595070905983448
208.0,0.07259611785411835
224.0,0.08310437202453613
240.0,0.08725935220718384
256.0,0.09606164693832397
288.0,0.089728944003582
320.0,0.07366099953651428
352.0,0.05452261120080948
384.0,0.03063725121319294
416.0,0.017737669870257378
448.0,0.024228911846876144
480.0,0.03536767512559891
512.0,0.03725174814462662
576.0,0.027881916612386703
640.0,0.011812656186521053
704.0,0.008724797517061234
768.0,0.01607366092503071
832.0,0.007122294045984745
896.0,-0.01116978283971548
960.0,-0.0008594212122261524
1024.0,0.007165635470300913
1152.0,0.004396784119307995
1280.0,-0.0023351539857685566
1408.0,0.0026364910881966352
1536.0,0.016315022483468056
1664.0,0.03892146050930023
1792.0,0.024432972073554993
1920.0,0.016027620062232018
2048.0,0.015187280252575874
2304.0,0.012473701499402523
2560.0,0.007672758772969246
2816.0,0.00570287648588419
3072.0,0.006162893492728472
3328.0,0.010002431459724903
3584.0,0.0017431480810046196
3840.0,0.0034961358178406954
4096.0,0.010942427441477776
4608.0,-0.000988244661130011
5120.0,-0.0061005838215351105
5632.0,-0.004508766811341047
6144.0,-0.007109848782420158
6656.0,-0.013113428838551044
7168.0,-0.015022898092865944
7680.0,-0.012690928764641285
8192.0,-0.021547885611653328
9216.0,-0.02556082420051098
10240.0,-0.01903686486184597
11264.0,-0.019705597311258316
12288.0,-0.023815570399165154
13312.0,-0.037154972553253174
14336.0,-0.03533982113003731
end
