version,3.0
numOfCh,1
type,point
parent_name,dirty_0dot2-0dot1
ch_type,1_1
kcount,1
numberNandB,1
brightnessNandB,1
carpet pos,0
pc,0
Time (ms),CH1 Auto-Correlation
1.0,0.7663227319717407
2.0,0.758053183555603
3.0,0.749413788318634
4.0,0.7410860061645508
5.0,0.7330943942070007
6.0,0.7253643274307251
7.0,0.7178996205329895
8.0,0.7109383940696716
9.0,0.704118549823761
10.0,0.6980841159820557
11.0,0.6925382018089294
12.0,0.6871032118797302
13.0,0.6820967197418213
14.0,0.6770591735839844
15.0,0.671105682849884
16.0,0.6658791899681091
18.0,0.6558251976966858
20.0,0.6455021500587463
22.0,0.6365799307823181
24.0,0.6294116973876953
26.0,0.623127281665802
28.0,0.6153594851493835
30.0,0.6065482497215271
32.0,0.5978739261627197
36.0,0.5814078450202942
40.0,0.5684588551521301
44.0,0.5569726228713989
48.0,0.5460031032562256
52.0,0.5363415479660034
56.0,0.5254360437393188
60.0,0.5163582563400269
64.0,0.5060606598854065
72.0,0.4850499927997589
80.0,0.4608248174190521
88.0,0.4361903667449951
96.0,0.4159265458583832
104.0,0.4023270606994629
112.0,0.3896801173686981
120.0,0.37268874049186707
128.0,0.35233449935913086
144.0,0.3221305012702942
160.0,0.30062204599380493
176.0,0.286609947681427
192.0,0.26631850004196167
208.0,0.24208305776119232
224.0,0.22126644849777222
240.0,0.19862151145935059
256.0,0.182622030377388
288.0,0.16281135380268097
320.0,0.13756369054317474
352.0,0.10706491768360138
384.0,0.07727735489606857
416.0,0.054652150720357895
448.0,0.03516978770494461
480.0,0.016231434419751167
512.0,0.01239071600139141
576.0,0.06073322892189026
640.0,0.11546587198972702
704.0,0.15383724868297577
768.0,0.20268788933753967
832.0,0.2028150111436844
896.0,0.21438811719417572
960.0,0.21808816492557526
1024.0,0.18409551680088043
1152.0,0.09027129411697388
1280.0,0.002405378734692931
1408.0,-0.0790228396654129
1536.0,-0.06580003350973129
1664.0,0.00249049486592412
1792.0,0.03698991239070892
1920.0,0.01926744356751442
2048.0,-0.0042857700027525425
2304.0,-0.028104545548558235
2560.0,-0.02717750146985054
2816.0,-0.03333863243460655
3072.0,-0.0240606851875782
3328.0,-0.02719229646027088
3584.0,-0.06238608434796333
3840.0,-0.03624637797474861
4096.0,-0.038559719920158386
4608.0,-0.03115135245025158
5120.0,-0.042400140315294266
5632.0,-0.08178544789552689
6144.0,-0.02346397563815117
6656.0,-0.06571073085069656
7168.0,-0.07305654138326645
7680.0,-0.09981369227170944
8192.0,-0.0850825086236
9216.0,-0.06514377146959305
10240.0,-0.07059833407402039
11264.0,0.017010822892189026
12288.0,0.08662136644124985
13312.0,0.06606516987085342
14336.0,0.07660704851150513
end
