version,3.0
numOfCh,1
type,point
parent_name,dirty_0dot2-0dot1
ch_type,1_1
kcount,1
numberNandB,1
brightnessNandB,1
carpet pos,0
pc,0
Time (ms),CH1 Auto-Correlation
1.0,1.290629506111145
2.0,1.2784628868103027
3.0,1.265579342842102
4.0,1.2529771327972412
5.0,1.2403274774551392
6.0,1.2279146909713745
7.0,1.2141120433807373
8.0,1.2000912427902222
9.0,1.1854928731918335
10.0,1.170754313468933
11.0,1.1560226678848267
12.0,1.141899585723877
13.0,1.1282672882080078
14.0,1.114555835723877
15.0,1.1018856763839722
16.0,1.0894804000854492
18.0,1.06635582447052
20.0,1.0446465015411377
22.0,1.022457480430603
24.0,1.0006884336471558
26.0,0.9805763959884644
28.0,0.9613077044487
30.0,0.942596971988678
32.0,0.9236820936203003
36.0,0.8847773671150208
40.0,0.850016176700592
44.0,0.8181054592132568
48.0,0.7890574932098389
52.0,0.7628213763237
56.0,0.7393949627876282
60.0,0.7151346802711487
64.0,0.6954728960990906
72.0,0.6665054559707642
80.0,0.6455026865005493
88.0,0.6222984790802002
96.0,0.5913220047950745
104.0,0.5634473562240601
112.0,0.5428186655044556
120.0,0.5287014245986938
128.0,0.5162771940231323
144.0,0.47942861914634705
160.0,0.4486209750175476
176.0,0.40979692339897156
192.0,0.3842270076274872
208.0,0.38960766792297363
224.0,0.41665932536125183
240.0,0.44429802894592285
256.0,0.46413853764533997
288.0,0.4712475836277008
320.0,0.43327438831329346
352.0,0.37309473752975464
384.0,0.31010422110557556
416.0,0.26433753967285156
448.0,0.22025802731513977
480.0,0.161223903298378
512.0,0.10999952256679535
576.0,0.13274963200092316
640.0,0.08555638790130615
704.0,0.054208092391490936
768.0,-0.007489844225347042
832.0,-0.03485709801316261
896.0,-0.05848950520157814
960.0,-0.0953594446182251
1024.0,-0.13873924314975739
1152.0,-0.14732404053211212
1280.0,-0.15364642441272736
1408.0,-0.15145152807235718
1536.0,-0.17131778597831726
1664.0,-0.17389234900474548
1792.0,-0.12730452418327332
1920.0,-0.08606074005365372
2048.0,0.056945908814668655
2304.0,0.11212244629859924
2560.0,0.1494205892086029
2816.0,0.12804970145225525
3072.0,0.042365409433841705
3328.0,-0.0823952853679657
3584.0,-0.13504435122013092
3840.0,-0.13913388550281525
4096.0,-0.09807612001895905
4608.0,-0.104191854596138
5120.0,-0.1677783727645874
5632.0,-0.17329664528369904
6144.0,0.013466941192746162
6656.0,0.050676003098487854
7168.0,0.09239847958087921
7680.0,-0.027857981622219086
8192.0,-0.1117066964507103
9216.0,-0.014962766319513321
10240.0,0.013740504160523415
11264.0,0.020307745784521103
12288.0,-0.009931430220603943
13312.0,0.11018659919500351
14336.0,-0.10070282220840454
end
