version,3.0
numOfCh,1
type,point
parent_name,dirty_0dot2-0dot1
ch_type,1_1
kcount,1
numberNandB,1
brightnessNandB,1
carpet pos,0
pc,0
Time (ms),CH1 Auto-Correlation
1.0,1.1278586387634277
2.0,1.1159710884094238
3.0,1.1033982038497925
4.0,1.090348482131958
5.0,1.077417254447937
6.0,1.064152479171753
7.0,1.0511071681976318
8.0,1.0386276245117188
9.0,1.0257498025894165
10.0,1.0134865045547485
11.0,1.0012973546981812
12.0,0.9893999695777893
13.0,0.9772104620933533
14.0,0.9648343920707703
15.0,0.9525980949401855
16.0,0.9404101967811584
18.0,0.9169296622276306
20.0,0.894447922706604
22.0,0.8742453455924988
24.0,0.8544243574142456
26.0,0.8340624570846558
28.0,0.8140919804573059
30.0,0.7942150831222534
32.0,0.7743902802467346
36.0,0.7353209257125854
40.0,0.7011831998825073
44.0,0.6696350574493408
48.0,0.6394979953765869
52.0,0.6113759875297546
56.0,0.5861241221427917
60.0,0.5644333362579346
64.0,0.5455164909362793
72.0,0.5159180760383606
80.0,0.49506011605262756
88.0,0.4891279637813568
96.0,0.48954394459724426
104.0,0.48970893025398254
112.0,0.49070385098457336
120.0,0.49106666445732117
128.0,0.4876730740070343
144.0,0.46318501234054565
160.0,0.4299195408821106
176.0,0.4243796765804291
192.0,0.42876797914505005
208.0,0.41446104645729065
224.0,0.3787049949169159
240.0,0.33279508352279663
256.0,0.2976512610912323
288.0,0.24235868453979492
320.0,0.1891089826822281
352.0,0.16470465064048767
384.0,0.07971005886793137
416.0,0.02565096691250801
448.0,0.004616036545485258
480.0,0.021589133888483047
512.0,-0.018134737387299538
576.0,-0.06439068913459778
640.0,-0.06161301210522652
704.0,-0.0772400051355362
768.0,-0.0847790390253067
832.0,-0.08646742254495621
896.0,-0.08790617436170578
960.0,-0.0839429572224617
1024.0,-0.08078084141016006
1152.0,-0.05811166763305664
1280.0,-0.02081182971596718
1408.0,0.00858302041888237
1536.0,0.0014575114473700523
1664.0,-0.013159762136638165
1792.0,-0.04464853182435036
1920.0,-0.062254875898361206
2048.0,-0.0653049424290657
2304.0,-0.10993817448616028
2560.0,-0.07848131656646729
2816.0,0.10091783851385117
3072.0,0.18301792442798615
3328.0,-0.007089954800903797
3584.0,-0.061422646045684814
3840.0,0.014881374314427376
4096.0,-0.04752224311232567
4608.0,-0.06483285129070282
5120.0,-0.07426054030656815
5632.0,0.0993453860282898
6144.0,-0.03473269194364548
6656.0,0.012913894839584827
7168.0,-0.023027775809168816
7680.0,-0.09005600959062576
8192.0,-0.09233683347702026
9216.0,0.09544821083545685
10240.0,-0.1037786528468132
11264.0,-0.0901620164513588
12288.0,0.46018874645233154
13312.0,-0.1839136779308319
14336.0,-0.31826791167259216
end
