version,3.0
numOfCh,1
type,point
parent_name,dirty_0dot2-0dot1
ch_type,1_1
kcount,1
numberNandB,1
brightnessNandB,1
carpet pos,0
pc,0
Time (ms),CH1 Auto-Correlation
1.0,0.3552502393722534
2.0,0.34687718749046326
3.0,0.3390634059906006
4.0,0.33166810870170593
5.0,0.32407498359680176
6.0,0.31609222292900085
7.0,0.3088681101799011
8.0,0.30162104964256287
9.0,0.2944035828113556
10.0,0.2873075008392334
11.0,0.28014126420021057
12.0,0.27254927158355713
13.0,0.2654999792575836
14.0,0.25800853967666626
15.0,0.2503812611103058
16.0,0.24219630658626556
18.0,0.22671352326869965
20.0,0.2131652534008026
22.0,0.20152875781059265
24.0,0.19359053671360016
26.0,0.18777485191822052
28.0,0.18366385996341705
30.0,0.1793384701013565
32.0,0.17549458146095276
36.0,0.16657370328903198
40.0,0.1589219868183136
44.0,0.15236753225326538
48.0,0.14478926360607147
52.0,0.1372355818748474
56.0,0.13138654828071594
60.0,0.12692023813724518
64.0,0.12253833562135696
72.0,0.11333681643009186
80.0,0.10521656274795532
88.0,0.09169973433017731
96.0,0.07365984469652176
104.0,0.06138845160603523
112.0,0.056912604719400406
120.0,0.05218413472175598
128.0,0.04285243898630142
144.0,0.023802299052476883
160.0,0.01810597814619541
176.0,0.015614323318004608
192.0,0.012455141171813011
208.0,0.007494776044040918
224.0,0.003512610914185643
240.0,-0.00021200730407144874
256.0,-0.0003420408465899527
288.0,0.005466542672365904
320.0,-0.004291126038879156
352.0,-0.013183929957449436
384.0,-0.015290657058358192
416.0,-0.016860488802194595
448.0,-0.02020714245736599
480.0,-0.016647055745124817
512.0,-0.019978025928139687
576.0,-0.02185186743736267
640.0,-0.019850490614771843
704.0,-0.019269516691565514
768.0,-0.012204180471599102
832.0,0.006035189609974623
896.0,0.025087328627705574
960.0,0.02184283919632435
1024.0,0.031246989965438843
1152.0,0.017803609371185303
1280.0,0.010483767837285995
1408.0,0.0004318688588682562
1536.0,-0.007895861752331257
1664.0,-0.01454655360430479
1792.0,-0.00676774000748992
1920.0,0.0023910782765597105
2048.0,-0.017622213810682297
2304.0,-0.023302271962165833
2560.0,-0.0085854297503829
2816.0,-0.010603267699480057
3072.0,-0.0043653459288179874
3328.0,-0.006542552728205919
3584.0,-0.017766324803233147
3840.0,-0.01334740687161684
4096.0,0.019461290910840034
4608.0,0.004498056601732969
5120.0,0.0285438671708107
5632.0,-0.006917821709066629
6144.0,0.0010796354617923498
6656.0,-0.006297622807323933
7168.0,-0.026389578357338905
7680.0,0.02288711443543434
8192.0,-0.013863570988178253
9216.0,-0.003910368774086237
10240.0,0.004225730895996094
11264.0,0.0007822512416169047
12288.0,-0.0017505467403680086
13312.0,-0.012694614939391613
14336.0,-0.009824068285524845
end
