version,3.0
numOfCh,1
type,point
parent_name,dirty_0dot2-0dot1
ch_type,1_1
kcount,1
numberNandB,1
brightnessNandB,1
carpet pos,0
pc,0
Time (ms),CH1 Auto-Correlation
1.0,0.6405029296875
2.0,0.6333678960800171
3.0,0.6267815232276917
4.0,0.620225191116333
5.0,0.6134024262428284
6.0,0.6069179773330688
7.0,0.600290834903717
8.0,0.5941789746284485
9.0,0.5881094932556152
10.0,0.5822128057479858
11.0,0.5764838457107544
12.0,0.5708451271057129
13.0,0.5652831196784973
14.0,0.5598338842391968
15.0,0.5546810030937195
16.0,0.5492732524871826
18.0,0.5398099422454834
20.0,0.5307227969169617
22.0,0.521145761013031
24.0,0.5122707486152649
26.0,0.5033104419708252
28.0,0.4940733015537262
30.0,0.4854309856891632
32.0,0.4770318269729614
36.0,0.4632839262485504
40.0,0.4521729648113251
44.0,0.4397520422935486
48.0,0.426340252161026
52.0,0.41440102458000183
56.0,0.4032147228717804
60.0,0.3931720554828644
64.0,0.3843909800052643
72.0,0.3627978563308716
80.0,0.33872726559638977
88.0,0.3195152282714844
96.0,0.30538472533226013
104.0,0.2968694567680359
112.0,0.29095593094825745
120.0,0.2820327877998352
128.0,0.2710341811180115
144.0,0.25654399394989014
160.0,0.24320323765277863
176.0,0.22786563634872437
192.0,0.20447595417499542
208.0,0.17823486030101776
224.0,0.1733221560716629
240.0,0.18771961331367493
256.0,0.1977996528148651
288.0,0.20652443170547485
320.0,0.2019166350364685
352.0,0.16730055212974548
384.0,0.12444248795509338
416.0,0.09582125395536423
448.0,0.0788930281996727
480.0,0.07366473972797394
512.0,0.08606363832950592
576.0,0.12038947641849518
640.0,0.13903704285621643
704.0,0.12795165181159973
768.0,0.09336590021848679
832.0,0.05308856815099716
896.0,0.02377258986234665
960.0,0.001410004566423595
1024.0,0.0009862962178885937
1152.0,-0.039306577295064926
1280.0,-0.048084236681461334
1408.0,-0.015692580491304398
1536.0,-0.04065168276429176
1664.0,-0.02862739749252796
1792.0,-0.020047789439558983
1920.0,-0.010165004059672356
2048.0,0.006606447044759989
2304.0,0.09021974354982376
2560.0,0.08888676017522812
2816.0,0.10033424943685532
3072.0,0.07856482267379761
3328.0,0.016179444268345833
3584.0,-0.022142937406897545
3840.0,-0.0753350630402565
4096.0,-0.10102509707212448
4608.0,-0.057376205921173096
5120.0,0.013026626780629158
5632.0,-0.048433005809783936
6144.0,-0.07154207676649094
6656.0,-0.10500359535217285
7168.0,-0.1273900270462036
7680.0,-0.07435335218906403
8192.0,-0.07042552530765533
9216.0,-0.015733627602458
10240.0,-0.017547857016324997
11264.0,0.0027790218591690063
12288.0,0.015892384573817253
13312.0,0.024075988680124283
14336.0,0.04317252337932587
end
