version,3.0
numOfCh,1
type,point
parent_name,34a6d_1dot0-0dot1
ch_type,1_1
kcount,1
numberNandB,1
brightnessNandB,1
carpet pos,0
pc,0
Time (ms),CH1 Auto-Correlation
1.0,0.11279282718896866
2.0,0.10610644519329071
3.0,0.10015073418617249
4.0,0.09508241713047028
5.0,0.09037671983242035
6.0,0.08619643747806549
7.0,0.08245691657066345
8.0,0.07897531241178513
9.0,0.07589323073625565
10.0,0.07317046076059341
11.0,0.07060585170984268
12.0,0.06811516731977463
13.0,0.06599069386720657
14.0,0.06404642760753632
15.0,0.06220560893416405
16.0,0.06041768565773964
18.0,0.057520780712366104
20.0,0.05495644733309746
22.0,0.05267076566815376
24.0,0.05063571780920029
26.0,0.04875761270523071
28.0,0.046737246215343475
30.0,0.04497385025024414
32.0,0.042830001562833786
36.0,0.04082304239273071
40.0,0.038785286247730255
44.0,0.0369485504925251
48.0,0.03588232398033142
52.0,0.03631066158413887
56.0,0.03513890132308006
60.0,0.03378238528966904
64.0,0.032724637538194656
72.0,0.03154873847961426
80.0,0.028647080063819885
88.0,0.025485055521130562
96.0,0.024233657866716385
104.0,0.02398201823234558
112.0,0.023996815085411072
120.0,0.02124113216996193
128.0,0.018619930371642113
144.0,0.01698383130133152
160.0,0.01835038512945175
176.0,0.02006376162171364
192.0,0.01555071584880352
208.0,0.010649628937244415
224.0,0.007365632802248001
240.0,0.005045419093221426
256.0,0.005749766249209642
288.0,0.010400703176856041
320.0,0.010683435015380383
352.0,0.01238637138158083
384.0,0.015025443397462368
416.0,0.013283812440931797
448.0,0.015134116634726524
480.0,0.017122717574238777
512.0,0.015379399061203003
576.0,0.016250528395175934
640.0,0.012692813761532307
704.0,0.011534495279192924
768.0,0.017422745004296303
832.0,0.012546684592962265
896.0,0.011356852017343044
960.0,0.0110941706225276
1024.0,0.00796305388212204
1152.0,0.011111035011708736
1280.0,0.006263164337724447
1408.0,0.011987456120550632
1536.0,0.011101922951638699
1664.0,0.010252566076815128
1792.0,0.008120838552713394
1920.0,0.014594399370253086
2048.0,0.007090800441801548
2304.0,0.014728904701769352
2560.0,0.011433529667556286
2816.0,0.006532180588692427
3072.0,0.001018798560835421
3328.0,-0.004439580254256725
3584.0,-0.007182361092418432
3840.0,-0.005247344728559256
4096.0,-0.008932000957429409
4608.0,-0.0094240577891469
5120.0,-0.009425735101103783
5632.0,-0.01828947104513645
6144.0,-0.01763559691607952
6656.0,-0.017092514783143997
7168.0,-0.012628871947526932
7680.0,-0.011661827564239502
8192.0,-0.013871402479708195
end
