version,3.0
numOfCh,1
type,point
parent_name,34a6d_1dot0-0dot1
ch_type,1_1
kcount,1
numberNandB,1
brightnessNandB,1
carpet pos,0
pc,0
Time (ms),CH1 Auto-Correlation
1.0,0.08756009489297867
2.0,0.0810435339808464
3.0,0.0756630003452301
4.0,0.07114940881729126
5.0,0.06715579330921173
6.0,0.06370922923088074
7.0,0.06059545651078224
8.0,0.05773771181702614
9.0,0.05536734685301781
10.0,0.05325470119714737
11.0,0.05136096850037575
12.0,0.04943133145570755
13.0,0.04756947606801987
14.0,0.045911870896816254
15.0,0.04431912302970886
16.0,0.0429907962679863
18.0,0.040483418852090836
20.0,0.038203027099370956
22.0,0.03629010543227196
24.0,0.03425920382142067
26.0,0.032295968383550644
28.0,0.03084421344101429
30.0,0.029562929645180702
32.0,0.028542613610625267
36.0,0.026294942945241928
40.0,0.023948518559336662
44.0,0.021985353901982307
48.0,0.02076055482029915
52.0,0.019943732768297195
56.0,0.019790202379226685
60.0,0.018533220514655113
64.0,0.016932208091020584
72.0,0.014811272732913494
80.0,0.012919067405164242
88.0,0.01058803591877222
96.0,0.00887430738657713
104.0,0.00783277116715908
112.0,0.008102817460894585
120.0,0.007491894531995058
128.0,0.006722285877913237
144.0,0.0070894150994718075
160.0,0.006932350806891918
176.0,0.0053259930573403835
192.0,0.0038740388117730618
208.0,0.003739965381100774
224.0,0.007068457081913948
240.0,0.008915205486118793
256.0,0.007319112773984671
288.0,0.004288169555366039
320.0,0.0027869227342307568
352.0,0.0009604647057130933
384.0,0.0026466732379049063
416.0,0.004933474585413933
448.0,0.007658884860575199
480.0,0.009000078774988651
512.0,0.006545500364154577
576.0,0.0005323485238477588
640.0,0.005817655939608812
704.0,0.0051604644395411015
768.0,0.0023905287962406874
832.0,-0.0005403971881605685
896.0,0.0008280680631287396
960.0,0.0018663895316421986
1024.0,0.0008022013353183866
1152.0,0.0019407902145758271
1280.0,-0.00674311351031065
1408.0,0.0018275994807481766
1536.0,-0.0022435649298131466
1664.0,-0.004604247864335775
1792.0,-0.0054828813299536705
1920.0,-0.0062524802051484585
2048.0,-0.005485389847308397
2304.0,-0.0034823694732040167
2560.0,-0.0014025093987584114
2816.0,-0.00334375211969018
3072.0,-0.0015648871194571257
3328.0,-0.0030192560516297817
3584.0,-0.0027933199889957905
3840.0,-0.0017196375411003828
4096.0,0.0011819609208032489
4608.0,0.00029087316943332553
5120.0,0.0048815165646374226
5632.0,0.0036617727018892765
6144.0,0.0021965058986097574
6656.0,-0.004833012819290161
7168.0,-0.005539550445973873
7680.0,-0.008813724853098392
8192.0,-0.0021582182962447405
end
