version,3.0
numOfCh,1
type,point
parent_name,34a6d_1dot0-0dot1
ch_type,1_1
kcount,1
numberNandB,1
brightnessNandB,1
carpet pos,0
pc,0
Time (ms),CH1 Auto-Correlation
1.0,0.10763731598854065
2.0,0.10041458904743195
3.0,0.09411632269620895
4.0,0.08892876654863358
5.0,0.08457918465137482
6.0,0.08070250600576401
7.0,0.07709595561027527
8.0,0.07400330156087875
9.0,0.07091295719146729
10.0,0.06779590249061584
11.0,0.06492578238248825
12.0,0.062338024377822876
13.0,0.05985204130411148
14.0,0.057660412043333054
15.0,0.055626098066568375
16.0,0.05352218449115753
18.0,0.050309713929891586
20.0,0.04781560227274895
22.0,0.04552416130900383
24.0,0.04303758218884468
26.0,0.04051566496491432
28.0,0.03797362372279167
30.0,0.035815224051475525
32.0,0.03364921361207962
36.0,0.03063477762043476
40.0,0.028579970821738243
44.0,0.026654282584786415
48.0,0.024883395060896873
52.0,0.02241254784166813
56.0,0.020643847063183784
60.0,0.01874358393251896
64.0,0.017665036022663116
72.0,0.015862924978137016
80.0,0.015172483399510384
88.0,0.012146728113293648
96.0,0.01055655162781477
104.0,0.010361907072365284
112.0,0.011401912197470665
120.0,0.013468530960381031
128.0,0.013926239684224129
144.0,0.012332119047641754
160.0,0.011549759656190872
176.0,0.010489044710993767
192.0,0.009459131397306919
208.0,0.008600832894444466
224.0,0.008165931329131126
240.0,0.007258064579218626
256.0,0.007054554298520088
288.0,0.005607538856565952
320.0,-0.00030992573010735214
352.0,-0.0008783716475591063
384.0,0.004340930376201868
416.0,0.0036623820196837187
448.0,0.003665849333629012
480.0,0.007817459292709827
512.0,0.007440691813826561
576.0,0.006730606313794851
640.0,0.003132585668936372
704.0,-0.00282041123136878
768.0,-0.0007180406828410923
832.0,-0.001545347971841693
896.0,-0.0028674956411123276
960.0,-0.005913315340876579
1024.0,-0.002653743140399456
1152.0,-0.0017867558635771275
1280.0,0.002002290915697813
1408.0,0.0034136930480599403
1536.0,0.0025381287559866905
1664.0,0.001902328454889357
1792.0,0.0007344882469624281
1920.0,0.0019514847081154585
2048.0,-0.0005735408049076796
2304.0,-0.0025556455366313457
2560.0,0.0002397053176537156
2816.0,0.0008047601440921426
3072.0,-0.007410143967717886
3328.0,0.0019176392816007137
3584.0,-0.002880835672840476
3840.0,0.0009573128190822899
4096.0,-0.0021291791927069426
4608.0,-0.003609813516959548
5120.0,0.0007740251021459699
5632.0,0.0004666753229685128
6144.0,-0.008179050870239735
6656.0,-0.0059531270526349545
7168.0,0.00702163390815258
7680.0,0.005972335580736399
8192.0,-0.0007726302137598395
end
