version,3.0
numOfCh,1
type,point
parent_name,34a6d_1dot0-0dot1
ch_type,1_1
kcount,1
numberNandB,1
brightnessNandB,1
carpet pos,0
pc,0
Time (ms),CH1 Auto-Correlation
1.0,0.09424378722906113
2.0,0.08663684129714966
3.0,0.08054772764444351
4.0,0.07502083480358124
5.0,0.06999994069337845
6.0,0.06561384350061417
7.0,0.06194191053509712
8.0,0.05862981081008911
9.0,0.05579301714897156
10.0,0.053353697061538696
11.0,0.050891902297735214
12.0,0.048796217888593674
13.0,0.046574462205171585
14.0,0.04456782713532448
15.0,0.0426643081009388
16.0,0.04115890711545944
18.0,0.03798718377947807
20.0,0.034513723105192184
22.0,0.03131662309169769
24.0,0.02757689543068409
26.0,0.024743223562836647
28.0,0.02222892828285694
30.0,0.020269708707928658
32.0,0.01833144575357437
36.0,0.014050391502678394
40.0,0.010305098257958889
44.0,0.007942765951156616
48.0,0.006500824820250273
52.0,0.005451628472656012
56.0,0.002867246512323618
60.0,0.0012905164621770382
64.0,0.0015478848945349455
72.0,0.0029132242780178785
80.0,0.0022148520220071077
88.0,0.001708128023892641
96.0,0.001499571488238871
104.0,0.000615504861343652
112.0,-4.377786535769701e-05
120.0,-0.0013010360999032855
128.0,-0.0007681745337322354
144.0,-0.0023438490461558104
160.0,-0.001274251495487988
176.0,0.002110318746417761
192.0,0.0025148962158709764
208.0,0.001603181124664843
224.0,0.0020045824348926544
240.0,0.001527394400909543
256.0,0.0024874177761375904
288.0,0.004964709747582674
320.0,0.0030087491031736135
352.0,-0.0005300045013427734
384.0,0.0009412328945472836
416.0,0.003442907240241766
448.0,0.008037746883928776
480.0,0.007297137286514044
512.0,0.00044837623136118054
576.0,0.0018794472562149167
640.0,0.0014813434099778533
704.0,0.002704621059820056
768.0,0.002918546786531806
832.0,0.0029647634364664555
896.0,0.0038637060206383467
960.0,0.0011401965748518705
1024.0,-0.00038131934707053006
1152.0,-0.00076811428880319
1280.0,0.0017592209624126554
1408.0,-0.0032246308401226997
1536.0,0.001684175687842071
1664.0,0.0009019780554808676
1792.0,-0.003251549554988742
1920.0,-0.0012403379660099745
2048.0,-0.0017069005407392979
2304.0,0.00039263127837330103
2560.0,4.936552431900054e-05
2816.0,-0.0025681566912680864
3072.0,-0.0013773193350061774
3328.0,0.0012967651709914207
3584.0,-0.0011095494264736772
3840.0,-7.165952411014587e-06
4096.0,-0.0019274639198556542
4608.0,0.0011561887804418802
5120.0,0.002272392623126507
5632.0,0.0014863944379612803
6144.0,-0.0037885024212300777
6656.0,-0.004338917322456837
7168.0,-0.004020311404019594
7680.0,-0.004295621998608112
8192.0,-0.001151358475908637
end
