version,3.0
numOfCh,1
type,point
parent_name,34a6d_1dot0-0dot1
ch_type,1_1
kcount,1
numberNandB,1
brightnessNandB,1
carpet pos,0
pc,0
Time (ms),CH1 Auto-Correlation
1.0,0.08613361418247223
2.0,0.07958925515413284
3.0,0.07406363636255264
4.0,0.06964288651943207
5.0,0.0657074823975563
6.0,0.062168315052986145
7.0,0.0590289831161499
8.0,0.0563068762421608
9.0,0.053881511092185974
10.0,0.051915645599365234
11.0,0.04991477355360985
12.0,0.04822602868080139
13.0,0.046627890318632126
14.0,0.045155543833971024
15.0,0.04364002123475075
16.0,0.04211031273007393
18.0,0.039220236241817474
20.0,0.03654109314084053
22.0,0.034130845218896866
24.0,0.03223865106701851
26.0,0.030472731217741966
28.0,0.02908751368522644
30.0,0.027719249948859215
32.0,0.026327364146709442
36.0,0.023413512855768204
40.0,0.020777054131031036
44.0,0.018055379390716553
48.0,0.016706431284546852
52.0,0.015338018536567688
56.0,0.014599678106606007
60.0,0.013769297860562801
64.0,0.01266101561486721
72.0,0.010449718683958054
80.0,0.007960471324622631
88.0,0.006376597099006176
96.0,0.005752143450081348
104.0,0.004841836169362068
112.0,0.005126771982759237
120.0,0.0055489554069936275
128.0,0.004196572583168745
144.0,0.0031461925245821476
160.0,0.0012641262728720903
176.0,3.2612344512017444e-05
192.0,0.000983390025794506
208.0,0.0014980545965954661
224.0,0.0003931718529202044
240.0,-0.0008465375285595655
256.0,-0.002653450472280383
288.0,-0.0005391011363826692
320.0,0.001029076287522912
352.0,0.0020422767847776413
384.0,0.0020909428130835295
416.0,0.000979902222752571
448.0,0.0015711627202108502
480.0,0.0015921458834782243
512.0,0.0017503766575828195
576.0,0.0005056366208009422
640.0,0.00013225336442701519
704.0,0.002454752568155527
768.0,6.510336970677599e-05
832.0,-0.005292602349072695
896.0,-0.003339777234941721
960.0,-0.0044845109805464745
1024.0,-0.0035210885107517242
1152.0,0.0031963686924427748
1280.0,-0.0006668757414445281
1408.0,-0.0004704001185018569
1536.0,0.004047982394695282
1664.0,0.0016089770942926407
1792.0,0.003996259532868862
1920.0,0.004006621893495321
2048.0,0.0002205132768722251
2304.0,0.002132813911885023
2560.0,-0.0018733508186414838
2816.0,-0.0029332542326301336
3072.0,0.00039368990110233426
3328.0,-0.0018398400861769915
3584.0,0.0024625947698950768
3840.0,4.048152550240047e-05
4096.0,-0.0009620205382816494
4608.0,0.0007102223462425172
5120.0,-0.0023802390787750483
5632.0,0.001011828426271677
6144.0,0.0033645681105554104
6656.0,0.0006990409456193447
7168.0,-0.0018189279362559319
7680.0,0.0019360536243766546
8192.0,-0.006683107931166887
end
