version,3.0
numOfCh,1
type,point
parent_name,34a6d_1dot0-0dot1
ch_type,1_1
kcount,1
numberNandB,1
brightnessNandB,1
carpet pos,0
pc,0
Time (ms),CH1 Auto-Correlation
1.0,0.08153096586465836
2.0,0.07449803501367569
3.0,0.06848011165857315
4.0,0.06366779655218124
5.0,0.05935888737440109
6.0,0.05553067475557327
7.0,0.052073489874601364
8.0,0.0489807091653347
9.0,0.04624677076935768
10.0,0.04417658969759941
11.0,0.04239295795559883
12.0,0.040639478713274
13.0,0.03877285495400429
14.0,0.03718436136841774
15.0,0.035629067569971085
16.0,0.03426937758922577
18.0,0.03139260411262512
20.0,0.02866060473024845
22.0,0.026592398062348366
24.0,0.02502518519759178
26.0,0.02344837598502636
28.0,0.022399887442588806
30.0,0.020887183025479317
32.0,0.019618364050984383
36.0,0.017439719289541245
40.0,0.01620674319565296
44.0,0.014767513610422611
48.0,0.013382776640355587
52.0,0.01203672681003809
56.0,0.011394831351935863
60.0,0.011400463990867138
64.0,0.011256405152380466
72.0,0.009615615010261536
80.0,0.008444736711680889
88.0,0.008216860704123974
96.0,0.0066703613847494125
104.0,0.0039575546979904175
112.0,0.002097802935168147
120.0,0.0017336963210254908
128.0,0.003292669542133808
144.0,0.004081214312463999
160.0,0.004141238983720541
176.0,0.004408127162605524
192.0,0.006155756767839193
208.0,0.0076393745839595795
224.0,0.008084923028945923
240.0,0.005578343290835619
256.0,0.00450888741761446
288.0,0.00260178348980844
320.0,7.88290926720947e-05
352.0,-0.0004325036134105176
384.0,-0.004338379018008709
416.0,-0.0008495317888446152
448.0,-0.0017127575119957328
480.0,0.0024285903200507164
512.0,-0.00042012156336568296
576.0,-0.00487124640494585
640.0,-0.004064425826072693
704.0,-0.005568629130721092
768.0,-0.003898520953953266
832.0,-0.004658585414290428
896.0,-0.0021528310608118773
960.0,-0.003518364392220974
1024.0,-0.004104770720005035
1152.0,-0.00010119364014826715
1280.0,-0.0030431202612817287
1408.0,-0.0029391837306320667
1536.0,-0.003548390232026577
1664.0,0.00034901456092484295
1792.0,0.0035589030012488365
1920.0,0.004173250403255224
2048.0,0.0032733336556702852
2304.0,0.002697983291000128
2560.0,-0.0017888618167489767
2816.0,-0.004141932353377342
3072.0,-0.0010624941205605865
3328.0,0.0038257380947470665
3584.0,0.002920442959293723
3840.0,-0.002153059234842658
4096.0,-0.0006700702360831201
4608.0,-0.001438681036233902
5120.0,1.330599479842931e-05
5632.0,0.0031220291275531054
6144.0,-0.0019964617677032948
6656.0,-0.0038012678269296885
7168.0,0.0025791097432374954
7680.0,-0.0012916396372020245
8192.0,-0.000986787723377347
end
