version,3.0
numOfCh,1
type,point
parent_name,34a6d_1dot0-0dot1
ch_type,1_1
kcount,1
numberNandB,1
brightnessNandB,1
carpet pos,0
pc,0
Time (ms),CH1 Auto-Correlation
1.0,0.11780015379190445
2.0,0.10987203568220139
3.0,0.10287534445524216
4.0,0.09688609093427658
5.0,0.09191359579563141
6.0,0.08784312754869461
7.0,0.08409643918275833
8.0,0.08076488226652145
9.0,0.07777244597673416
10.0,0.07484260946512222
11.0,0.07209090143442154
12.0,0.0695863887667656
13.0,0.06711386889219284
14.0,0.0645364299416542
15.0,0.06237577274441719
16.0,0.0605245865881443
18.0,0.05741038918495178
20.0,0.054571960121393204
22.0,0.05148949474096298
24.0,0.04830058291554451
26.0,0.04543143883347511
28.0,0.04293087497353554
30.0,0.04066284000873566
32.0,0.038387198001146317
36.0,0.03468873351812363
40.0,0.03205813094973564
44.0,0.02988109178841114
48.0,0.027214903384447098
52.0,0.025456052273511887
56.0,0.023646829649806023
60.0,0.022053342312574387
64.0,0.020523440092802048
72.0,0.015912579372525215
80.0,0.011281074024736881
88.0,0.00796564482152462
96.0,0.0077626463025808334
104.0,0.00393677968531847
112.0,0.0006769351311959326
120.0,-0.0021791034378111362
128.0,-0.003811625996604562
144.0,-0.00447640847414732
160.0,-0.0010785205522552133
176.0,0.0027960503939539194
192.0,0.006701314356178045
208.0,0.008547506295144558
224.0,0.006768989376723766
240.0,0.007236928679049015
256.0,0.005764876026660204
288.0,0.005907445680350065
320.0,0.00827194843441248
352.0,0.006443793419748545
384.0,0.008276852779090405
416.0,0.0008507129969075322
448.0,-0.0037148718256503344
480.0,-0.006318699102848768
512.0,-0.0025857645086944103
576.0,0.005612567532807589
640.0,0.011995457112789154
704.0,0.005407970864325762
768.0,0.012156616896390915
832.0,0.014363201335072517
896.0,0.011672751978039742
960.0,0.0023241464514285326
1024.0,-0.00122747546993196
1152.0,-0.001570862834341824
1280.0,-0.0034336834214627743
1408.0,-0.0012830839259549975
1536.0,0.0007941204239614308
1664.0,-0.003555170027539134
1792.0,-0.0009293971234001219
1920.0,-0.006452592555433512
2048.0,0.002676763106137514
2304.0,-0.006225248333066702
2560.0,-0.008544879034161568
2816.0,0.007424506824463606
3072.0,-0.003202273277565837
3328.0,-0.009024113416671753
3584.0,0.001788704888895154
3840.0,-0.004734771326184273
4096.0,-0.0022576996125280857
4608.0,-0.0025936365127563477
5120.0,-0.0005869793822057545
5632.0,0.004238147288560867
6144.0,0.0016082165529951453
6656.0,0.002079926198348403
7168.0,-0.0023229324724525213
7680.0,-0.0038548875600099564
8192.0,-0.011182378977537155
end
