version,3.0
numOfCh,1
type,point
parent_name,34a6d_1dot0-0dot1
ch_type,1_1
kcount,1
numberNandB,1
brightnessNandB,1
carpet pos,0
pc,0
Time (ms),CH1 Auto-Correlation
1.0,0.08737761527299881
2.0,0.0806981772184372
3.0,0.075026735663414
4.0,0.07004262506961823
5.0,0.06564051657915115
6.0,0.06191175803542137
7.0,0.058766208589076996
8.0,0.05579246208071709
9.0,0.053234200924634933
10.0,0.050953738391399384
11.0,0.04880287125706673
12.0,0.0468687042593956
13.0,0.044947218149900436
14.0,0.043210841715335846
15.0,0.04148000851273537
16.0,0.039942674338817596
18.0,0.03705268353223801
20.0,0.034512508660554886
22.0,0.032403528690338135
24.0,0.030869318172335625
26.0,0.029068244621157646
28.0,0.026938898488879204
30.0,0.02547443099319935
32.0,0.02457776851952076
36.0,0.02384163998067379
40.0,0.022296316921710968
44.0,0.021123142912983894
48.0,0.02031604014337063
52.0,0.019094623625278473
56.0,0.018078064545989037
60.0,0.017473243176937103
64.0,0.016640329733490944
72.0,0.013949064537882805
80.0,0.010899185203015804
88.0,0.009170694276690483
96.0,0.009967484511435032
104.0,0.010171822272241116
112.0,0.009466883726418018
120.0,0.007960457354784012
128.0,0.006970066577196121
144.0,0.006863645277917385
160.0,0.004475411027669907
176.0,0.0034958766773343086
192.0,0.003480766201391816
208.0,0.0037389316130429506
224.0,0.0017991226632148027
240.0,-0.00034020727616734803
256.0,0.0006463205209001899
288.0,0.0038326543290168047
320.0,0.0004366509092506021
352.0,-6.256940105231479e-05
384.0,-0.0008353182929567993
416.0,-0.0026395097374916077
448.0,-0.002255874453112483
480.0,-0.0019791601225733757
512.0,-0.0010227387538179755
576.0,-0.003867631545290351
640.0,0.00032104470301419497
704.0,0.0014804414240643382
768.0,0.005158394109457731
832.0,0.003796546021476388
896.0,0.001938443398103118
960.0,0.0008307664538733661
1024.0,0.004480275791138411
1152.0,-0.0006031364318914711
1280.0,-0.001091161509975791
1408.0,-0.0027204493526369333
1536.0,-0.0033315815962851048
1664.0,-0.0018237496260553598
1792.0,-0.0008336289320141077
1920.0,0.0010969708673655987
2048.0,-0.0003311144537292421
2304.0,-0.0009630583226680756
2560.0,-0.001134080346673727
2816.0,-0.0018270568689331412
3072.0,-0.0005030740867368877
3328.0,-0.00019031325064133853
3584.0,-0.0007475881720893085
3840.0,-0.003917509689927101
4096.0,-0.0020358299370855093
4608.0,-0.005578058306127787
5120.0,0.001987796975299716
5632.0,-0.0008277559536509216
6144.0,0.00017148219922091812
6656.0,-0.0030807515140622854
7168.0,0.003529804991558194
7680.0,0.0030664578080177307
8192.0,0.004378810524940491
end
