version,3.0
numOfCh,1
type,point
parent_name,34a6d_1dot0-0dot1
ch_type,1_1
kcount,1
numberNandB,1
brightnessNandB,1
carpet pos,0
pc,0
Time (ms),CH1 Auto-Correlation
1.0,0.09298758953809738
2.0,0.0859244242310524
3.0,0.07999210059642792
4.0,0.07503117620944977
5.0,0.07036668807268143
6.0,0.0664876252412796
7.0,0.06272515654563904
8.0,0.05955638363957405
9.0,0.056666307151317596
10.0,0.05416843295097351
11.0,0.051954012364149094
12.0,0.050083961337804794
13.0,0.04822384566068649
14.0,0.04644564166665077
15.0,0.04469722509384155
16.0,0.043039146810770035
18.0,0.04027926176786423
20.0,0.037772443145513535
22.0,0.03562817722558975
24.0,0.03378414362668991
26.0,0.03219715505838394
28.0,0.030284447595477104
30.0,0.02799317054450512
32.0,0.02637045457959175
36.0,0.023595279082655907
40.0,0.022495444864034653
44.0,0.02142987959086895
48.0,0.02041105553507805
52.0,0.019740987569093704
56.0,0.019308360293507576
60.0,0.018939131870865822
64.0,0.018036620691418648
72.0,0.017099495977163315
80.0,0.014628955163061619
88.0,0.012085715308785439
96.0,0.009836051613092422
104.0,0.008319740183651447
112.0,0.007137637585401535
120.0,0.006626196205615997
128.0,0.007812220137566328
144.0,0.008916204795241356
160.0,0.006819500122219324
176.0,0.005876515991985798
192.0,0.006184717640280724
208.0,0.00904479157179594
224.0,0.009718005545437336
240.0,0.008336102589964867
256.0,0.005140415392816067
288.0,0.006053816992789507
320.0,0.0018829148029908538
352.0,0.0002581397711765021
384.0,-0.0007386901415884495
416.0,0.0004681400314439088
448.0,0.0007621213444508612
480.0,0.004603949841111898
512.0,0.0051420265808701515
576.0,0.00808748323470354
640.0,0.0037398042622953653
704.0,0.0013401758624240756
768.0,0.001091686892323196
832.0,-0.0028088996186852455
896.0,-0.0029192061629146338
960.0,-0.00398078141734004
1024.0,-0.0004941931110806763
1152.0,0.0021170880645513535
1280.0,0.004861530382186174
1408.0,0.004345590248703957
1536.0,0.002085232175886631
1664.0,0.0010686034802347422
1792.0,-0.0008224835619330406
1920.0,-0.0014363628579303622
2048.0,-0.002001485787332058
2304.0,0.0008252624538727105
2560.0,-0.00013344651961233467
2816.0,0.0019545454997569323
3072.0,0.0008028943557292223
3328.0,-0.006876017432659864
3584.0,-0.0029121176339685917
3840.0,-0.005087157245725393
4096.0,-0.004093751311302185
4608.0,-0.004718342795968056
5120.0,-0.003304913640022278
5632.0,-0.0015497280983254313
6144.0,-0.004541115369647741
6656.0,-0.002605097834020853
7168.0,0.001965447561815381
7680.0,0.00036688728141598403
8192.0,-0.00022589518630411476
end
