version,3.0
numOfCh,1
type,point
parent_name,34a6d_1dot0-0dot1
ch_type,1_1
kcount,1
numberNandB,1
brightnessNandB,1
carpet pos,0
pc,0
Time (ms),CH1 Auto-Correlation
1.0,0.10833977162837982
2.0,0.10130757838487625
3.0,0.09525883197784424
4.0,0.0900505781173706
5.0,0.08570811152458191
6.0,0.08150343596935272
7.0,0.07745318859815598
8.0,0.07382115721702576
9.0,0.07037317752838135
10.0,0.06752427667379379
11.0,0.06490635126829147
12.0,0.0624350905418396
13.0,0.05981135368347168
14.0,0.05740019679069519
15.0,0.055234190076589584
16.0,0.05342782661318779
18.0,0.05017685145139694
20.0,0.04751109331846237
22.0,0.044710930436849594
24.0,0.04202255979180336
26.0,0.04010563716292381
28.0,0.03864285722374916
30.0,0.03745453059673309
32.0,0.03621022403240204
36.0,0.03420935198664665
40.0,0.033177513629198074
44.0,0.03152981400489807
48.0,0.03035818226635456
52.0,0.030084069818258286
56.0,0.02968687191605568
60.0,0.029393181204795837
64.0,0.0277984831482172
72.0,0.025424985215067863
80.0,0.023601138964295387
88.0,0.020725559443235397
96.0,0.01927887462079525
104.0,0.015938080847263336
112.0,0.013918105512857437
120.0,0.014751043170690536
128.0,0.014656088314950466
144.0,0.011250336654484272
160.0,0.008498333394527435
176.0,0.006141896825283766
192.0,0.004957552067935467
208.0,0.0026351071428507566
224.0,0.0007910506101325154
240.0,0.0018766607390716672
256.0,0.0033414450008422136
288.0,0.003570407163351774
320.0,0.004823413677513599
352.0,0.005060057621449232
384.0,0.003284837817773223
416.0,0.006438300479203463
448.0,0.008878814987838268
480.0,0.0038952904287725687
512.0,0.001684314338490367
576.0,0.003992085345089436
640.0,0.0011970453197136521
704.0,-0.0007701645372435451
768.0,-0.0014447314897552133
832.0,-0.004746347665786743
896.0,-0.00292845512740314
960.0,-0.00843298714607954
1024.0,-0.004949373193085194
1152.0,-0.002774944994598627
1280.0,-0.003349240403622389
1408.0,-0.004088830202817917
1536.0,-0.005015239119529724
1664.0,-0.00484045036137104
1792.0,0.0011474329512566328
1920.0,0.004203885328024626
2048.0,0.006063051521778107
2304.0,-0.0034758595284074545
2560.0,-0.0037203487008810043
2816.0,0.0006669547874480486
3072.0,-0.004493216052651405
3328.0,-0.0023827282711863518
3584.0,-0.005154247395694256
3840.0,-0.00012409413466230035
4096.0,0.0005970795173197985
4608.0,0.011356482282280922
5120.0,0.0068805767223238945
5632.0,-0.006332820281386375
6144.0,-0.010716605931520462
6656.0,-0.004713702481240034
7168.0,0.002646805252879858
7680.0,-0.0017270303796976805
8192.0,-0.011984451673924923
end
