version,3.0
numOfCh,1
type,point
parent_name,34a6d_1dot0-0dot1
ch_type,1_1
kcount,1
numberNandB,1
brightnessNandB,1
carpet pos,0
pc,0
Time (ms),CH1 Auto-Correlation
1.0,0.09723560512065887
2.0,0.09013892710208893
3.0,0.08403037488460541
4.0,0.07871285825967789
5.0,0.0742427185177803
6.0,0.07011520117521286
7.0,0.06653741002082825
8.0,0.06320369988679886
9.0,0.060350723564624786
10.0,0.05787157639861107
11.0,0.05586239695549011
12.0,0.05400693789124489
13.0,0.052322644740343094
14.0,0.05091023072600365
15.0,0.04944192245602608
16.0,0.048101119697093964
18.0,0.04570242390036583
20.0,0.043504901230335236
22.0,0.041128966957330704
24.0,0.038691528141498566
26.0,0.036517541855573654
28.0,0.03475867584347725
30.0,0.03257400169968605
32.0,0.030977504327893257
36.0,0.029274020344018936
40.0,0.02841903455555439
44.0,0.028633391484618187
48.0,0.02777816168963909
52.0,0.027126485481858253
56.0,0.026351988315582275
60.0,0.025656815618276596
64.0,0.025162717327475548
72.0,0.02325058914721012
80.0,0.02215477265417576
88.0,0.02056155912578106
96.0,0.018843671306967735
104.0,0.01667477749288082
112.0,0.015590916387736797
120.0,0.014636934734880924
128.0,0.01504476647824049
144.0,0.015347386710345745
160.0,0.014067576266825199
176.0,0.01061836164444685
192.0,0.00867124367505312
208.0,0.008432137779891491
224.0,0.007677227258682251
240.0,0.006814349442720413
256.0,0.005491997580975294
288.0,0.008112648501992226
320.0,0.005881779827177525
352.0,0.005488805938512087
384.0,0.0033082207664847374
416.0,0.0034989379346370697
448.0,0.0015884299064055085
480.0,0.0018746863352134824
512.0,0.002234936226159334
576.0,-0.0014579115668311715
640.0,0.002421920420601964
704.0,-0.0006770789623260498
768.0,-0.004649217706173658
832.0,-0.005150505807250738
896.0,-0.006723459344357252
960.0,-0.008350305259227753
1024.0,-0.006907405331730843
1152.0,-0.006088689435273409
1280.0,-0.0025411895476281643
1408.0,-0.00045258025056682527
1536.0,0.0016209939494729042
1664.0,0.00650310143828392
1792.0,0.010270513594150543
1920.0,0.0022454613354057074
2048.0,0.0015489772194996476
2304.0,0.001341437455266714
2560.0,-0.000996329472400248
2816.0,-0.005814243108034134
3072.0,-0.006149385590106249
3328.0,9.800108091440052e-05
3584.0,0.004757239017635584
3840.0,0.004938905593007803
4096.0,0.004149260465055704
4608.0,-0.0031482609920203686
5120.0,-0.004811698105186224
5632.0,-0.005732853431254625
6144.0,0.006617325358092785
6656.0,0.0016258560353890061
7168.0,-0.005299466196447611
7680.0,-0.00020878243958577514
8192.0,-0.003297438146546483
end
