version,3.0
numOfCh,1
type,point
parent_name,34a6d_1dot0-0dot1
ch_type,1_1
kcount,1
numberNandB,1
brightnessNandB,1
carpet pos,0
pc,0
Time (ms),CH1 Auto-Correlation
1.0,0.08492542058229446
2.0,0.07840385288000107
3.0,0.07293739914894104
4.0,0.06817920506000519
5.0,0.0638706311583519
6.0,0.06016705557703972
7.0,0.05682302638888359
8.0,0.05364881828427315
9.0,0.05077165365219116
10.0,0.048061054199934006
11.0,0.045690737664699554
12.0,0.04359705373644829
13.0,0.04175448790192604
14.0,0.040077075362205505
15.0,0.03855482116341591
16.0,0.03711533546447754
18.0,0.03392025828361511
20.0,0.030533265322446823
22.0,0.027416212484240532
24.0,0.024738412350416183
26.0,0.022602567449212074
28.0,0.020819077268242836
30.0,0.019061973318457603
32.0,0.017735296860337257
36.0,0.016121352091431618
40.0,0.015327698551118374
44.0,0.014922651462256908
48.0,0.014777585864067078
52.0,0.013968669809401035
56.0,0.012422953732311726
60.0,0.011264022439718246
64.0,0.010270043276250362
72.0,0.007360550109297037
80.0,0.005842835176736116
88.0,0.005431063938885927
96.0,0.004229667596518993
104.0,0.0030041676945984364
112.0,0.0015741984825581312
120.0,-0.00015629232802893966
128.0,-0.0007210257463157177
144.0,-0.0009884245228022337
160.0,0.0004618977545760572
176.0,0.0003486027999315411
192.0,-0.000549754302483052
208.0,-0.00176257046405226
224.0,-0.0003391264472156763
240.0,0.0028148742858320475
256.0,0.0025183011312037706
288.0,0.0025432207621634007
320.0,0.002107438398525119
352.0,-0.0022311373613774776
384.0,0.0007315294351428747
416.0,0.0005868434673175216
448.0,0.0037349199410527945
480.0,0.0034754688385874033
512.0,0.0033603159245103598
576.0,-0.0003706984280142933
640.0,-0.004095536656677723
704.0,0.0012558001326397061
768.0,0.0014312060084193945
832.0,-0.0011141696013510227
896.0,0.0009862255537882447
960.0,-0.0016285157762467861
1024.0,-0.002688359236344695
1152.0,0.0034100315533578396
1280.0,-0.00027598958695307374
1408.0,-0.0065515004098415375
1536.0,7.523374370066449e-05
1664.0,-0.00017204620235133916
1792.0,-0.0012928766664117575
1920.0,-0.00547909177839756
2048.0,0.005660159979015589
2304.0,-0.0020395570900291204
2560.0,-0.0016410024836659431
2816.0,0.0023241383023560047
3072.0,0.0014984856825321913
3328.0,0.001623242744244635
3584.0,0.0032772093545645475
3840.0,0.00030679680639877915
4096.0,0.000951381167396903
4608.0,-0.0025870022363960743
5120.0,-0.00416048476472497
5632.0,-0.0010107752168551087
6144.0,0.00042611712706275284
6656.0,-0.00026721591711975634
7168.0,0.00027145404601469636
7680.0,0.0016991076990962029
8192.0,-0.006061998661607504
end
