version,3.0
numOfCh,1
type,point
parent_name,34a6d_1dot0-0dot1
ch_type,1_1
kcount,1
numberNandB,1
brightnessNandB,1
carpet pos,0
pc,0
Time (ms),CH1 Auto-Correlation
1.0,0.09343121200799942
2.0,0.08633137494325638
3.0,0.0800459086894989
4.0,0.07425818592309952
5.0,0.06906428188085556
6.0,0.06442248821258545
7.0,0.06030162423849106
8.0,0.05668303743004799
9.0,0.053302109241485596
10.0,0.05012202262878418
11.0,0.04714321717619896
12.0,0.04449194669723511
13.0,0.04237079247832298
14.0,0.040574029088020325
15.0,0.03925219178199768
16.0,0.03792776167392731
18.0,0.03502826765179634
20.0,0.03278626501560211
22.0,0.030832014977931976
24.0,0.02939368225634098
26.0,0.02746903896331787
28.0,0.025847988203167915
30.0,0.024102700874209404
32.0,0.022974785417318344
36.0,0.021033888682723045
40.0,0.01998971588909626
44.0,0.019331010058522224
48.0,0.019074000418186188
52.0,0.018834130838513374
56.0,0.018233969807624817
60.0,0.017354950308799744
64.0,0.016679488122463226
72.0,0.01535789854824543
80.0,0.01409944798797369
88.0,0.013218916952610016
96.0,0.013107258826494217
104.0,0.011930588632822037
112.0,0.010877939872443676
120.0,0.009332972578704357
128.0,0.008573248982429504
144.0,0.009376668371260166
160.0,0.009209363721311092
176.0,0.0071543557569384575
192.0,0.00675739673897624
208.0,0.007506891619414091
224.0,0.005066013894975185
240.0,0.0026884963735938072
256.0,0.0006315766368061304
288.0,0.0027889234479516745
320.0,0.0027554298285394907
352.0,0.002307760063558817
384.0,0.0022737085819244385
416.0,0.0002543396258261055
448.0,-0.0017324736109003425
480.0,-0.0007556784548796713
512.0,0.0014533719513565302
576.0,0.002353143412619829
640.0,0.005031472537666559
704.0,0.00736957835033536
768.0,0.007199096027761698
832.0,0.0045304368250072
896.0,0.0050880624912679195
960.0,0.0045270295813679695
1024.0,0.0016811494715511799
1152.0,0.000210099620744586
1280.0,0.0033920316491276026
1408.0,0.004390057176351547
1536.0,0.002983751939609647
1664.0,-0.00019726844038814306
1792.0,0.0014650627272203565
1920.0,-4.0245802665594965e-05
2048.0,0.003273882670328021
2304.0,-0.0015302794054150581
2560.0,-0.005048417951911688
2816.0,-0.0005722547066397965
3072.0,-0.0033398980740457773
3328.0,-0.0038602519780397415
3584.0,-0.005661854054778814
3840.0,-0.0033921925351023674
4096.0,-0.002939583035185933
4608.0,-0.006573689170181751
5120.0,-0.00302154291421175
5632.0,-0.0015152826672419906
6144.0,-0.0022178173530846834
6656.0,-0.0044014030136168
7168.0,-0.0011594832176342607
7680.0,0.002497142180800438
8192.0,0.0038719812873750925
end
