version,3.0
numOfCh,1
type,point
parent_name,34a6d_1dot0-0dot1
ch_type,1_1
kcount,1
numberNandB,1
brightnessNandB,1
carpet pos,0
pc,0
Time (ms),CH1 Auto-Correlation
1.0,0.09754622727632523
2.0,0.09050227701663971
3.0,0.08444720506668091
4.0,0.07926285266876221
5.0,0.07455235719680786
6.0,0.07081939280033112
7.0,0.06743786484003067
8.0,0.06419949978590012
9.0,0.06142048165202141
10.0,0.058689817786216736
11.0,0.05606687813997269
12.0,0.05372554808855057
13.0,0.05139510706067085
14.0,0.04952996224164963
15.0,0.04751028120517731
16.0,0.04553084075450897
18.0,0.042414549738168716
20.0,0.04001854732632637
22.0,0.03809289261698723
24.0,0.03624895215034485
26.0,0.03467422351241112
28.0,0.03315208852291107
30.0,0.03151162713766098
32.0,0.030210964381694794
36.0,0.028577692806720734
40.0,0.027132846415042877
44.0,0.02448161691427231
48.0,0.021769704297184944
52.0,0.019895993173122406
56.0,0.018282169476151466
60.0,0.016654815524816513
64.0,0.013661711476743221
72.0,0.009024692699313164
80.0,0.007778096478432417
88.0,0.00813597347587347
96.0,0.008704369887709618
104.0,0.007206585258245468
112.0,0.005994283594191074
120.0,0.004888191819190979
128.0,0.0039947666227817535
144.0,0.0024379706010222435
160.0,0.003372990759089589
176.0,0.003623462747782469
192.0,0.004100876394659281
208.0,0.0032097415532916784
224.0,0.003531703259795904
240.0,0.003089007455855608
256.0,0.0030288102570921183
288.0,0.0008615207043476403
320.0,0.0042717186734080315
352.0,0.0012982094194740057
384.0,-0.0004040596541017294
416.0,0.0013365255435928702
448.0,-0.0035026390105485916
480.0,-0.005775307305157185
512.0,-0.004647849127650261
576.0,0.0016418761806562543
640.0,0.0044936202466487885
704.0,0.004984653554856777
768.0,0.002735818736255169
832.0,0.0007598667871206999
896.0,-0.002936543431133032
960.0,0.00027979863807559013
1024.0,-0.004797584842890501
1152.0,-0.004766102414578199
1280.0,-0.006514325737953186
1408.0,-0.0006443578749895096
1536.0,-0.0013261813437566161
1664.0,-0.0029365969821810722
1792.0,0.0005895373760722578
1920.0,-0.004809205420315266
2048.0,-0.0026889003347605467
2304.0,0.0031108709517866373
2560.0,0.001771695795468986
2816.0,-0.007322710007429123
3072.0,0.00399432796984911
3328.0,0.003529754700139165
3584.0,-0.00250737345777452
3840.0,0.0035794072318822145
4096.0,0.004063212312757969
4608.0,-0.0003063674084842205
5120.0,-0.004903651308268309
5632.0,0.004185102880001068
6144.0,-0.0013195605715736747
6656.0,-0.004295762628316879
7168.0,-0.002156902104616165
7680.0,-0.0012627092655748129
8192.0,0.0036499369889497757
end
