version,3.0
numOfCh,1
type,point
parent_name,34a6d_1dot0-0dot1
ch_type,1_1
kcount,1
numberNandB,1
brightnessNandB,1
carpet pos,0
pc,0
Time (ms),CH1 Auto-Correlation
1.0,0.08834008872509003
2.0,0.08150743693113327
3.0,0.07562877982854843
4.0,0.07032513618469238
5.0,0.06574974954128265
6.0,0.06165231391787529
7.0,0.058080386370420456
8.0,0.05478993058204651
9.0,0.05168033391237259
10.0,0.04906966909766197
11.0,0.046768542379140854
12.0,0.04446690157055855
13.0,0.04208090156316757
14.0,0.04000602290034294
15.0,0.03810160979628563
16.0,0.036393553018569946
18.0,0.03411092236638069
20.0,0.03183230385184288
22.0,0.029732609167695045
24.0,0.02756107598543167
26.0,0.0255795419216156
28.0,0.023936713114380836
30.0,0.022791925817728043
32.0,0.021467799320816994
36.0,0.019167842343449593
40.0,0.018154313787817955
44.0,0.01753174513578415
48.0,0.016693012788891792
52.0,0.015702402219176292
56.0,0.014454073272645473
60.0,0.013051302172243595
64.0,0.010842942632734776
72.0,0.00880157295614481
80.0,0.008281667716801167
88.0,0.006751162000000477
96.0,0.003153720870614052
104.0,0.002061686012893915
112.0,0.002268053824082017
120.0,0.0016281771240755916
128.0,0.0020011879969388247
144.0,-0.000508402066770941
160.0,-0.000630426628049463
176.0,0.0006279111257754266
192.0,0.000560922606382519
208.0,0.0006997484597377479
224.0,-0.0005468419985845685
240.0,-0.0008296101004816592
256.0,-0.00011181787704117596
288.0,0.0014782550279051065
320.0,-0.0002763467200566083
352.0,0.0030187920201569796
384.0,0.0010142381070181727
416.0,0.0009161726338788867
448.0,-0.001702117850072682
480.0,-0.0006634565652348101
512.0,-0.0029895943589508533
576.0,-0.0038504162803292274
640.0,-0.002680292120203376
704.0,-0.0007509482093155384
768.0,-0.0026030936278402805
832.0,-0.0005907086306251585
896.0,-0.0002819109649863094
960.0,-0.00177483051083982
1024.0,0.0017151281936094165
1152.0,0.0010458023753017187
1280.0,-0.0003114636056125164
1408.0,0.0029829100240021944
1536.0,2.9337339583435096e-05
1664.0,-0.0008510658517479897
1792.0,-0.002570590004324913
1920.0,0.0022223906125873327
2048.0,0.00032268764334730804
2304.0,-7.396916771540418e-05
2560.0,-0.0035846498794853687
2816.0,0.000770522456150502
3072.0,0.00045650670654140413
3328.0,-0.0011022118851542473
3584.0,-0.0018286987906321883
3840.0,-0.000512046623043716
4096.0,-5.4250202083494514e-05
4608.0,-1.8366979929851368e-05
5120.0,-0.000997705850750208
5632.0,-0.0044144620187580585
6144.0,0.0019829878583550453
6656.0,0.001006424194201827
7168.0,-0.003883915487676859
7680.0,-0.0017244565533474088
8192.0,0.0005734535516239703
end
