version,3.0
numOfCh,1
type,point
parent_name,34a6d_1dot0-0dot1
ch_type,1_1
kcount,1
numberNandB,1
brightnessNandB,1
carpet pos,0
pc,0
Time (ms),CH1 Auto-Correlation
1.0,0.10665000975131989
2.0,0.0989585667848587
3.0,0.09257673472166061
4.0,0.0867086723446846
5.0,0.08156736195087433
6.0,0.07734046876430511
7.0,0.0733439177274704
8.0,0.06966860592365265
9.0,0.06653207540512085
10.0,0.06348972767591476
11.0,0.06085370481014252
12.0,0.058309510350227356
13.0,0.055884089320898056
14.0,0.053663138300180435
15.0,0.05191642418503761
16.0,0.05045917630195618
18.0,0.047877661883831024
20.0,0.04547926038503647
22.0,0.04364416003227234
24.0,0.04198319837450981
26.0,0.040989186614751816
28.0,0.04008690267801285
30.0,0.03912554308772087
32.0,0.03748824819922447
36.0,0.033713217824697495
40.0,0.031683530658483505
44.0,0.029085617512464523
48.0,0.02710643783211708
52.0,0.02620883285999298
56.0,0.025389250367879868
60.0,0.0247940756380558
64.0,0.023067431524395943
72.0,0.020373551174998283
80.0,0.017931152135133743
88.0,0.016785306856036186
96.0,0.012838050723075867
104.0,0.012383188121020794
112.0,0.011803118512034416
120.0,0.011668534018099308
128.0,0.010851046070456505
144.0,0.01146618276834488
160.0,0.008652936667203903
176.0,0.006760189309716225
192.0,0.0069040278904139996
208.0,0.003776154713705182
224.0,0.0011393806198611856
240.0,-0.0002040570689132437
256.0,-0.00015997861919458956
288.0,-0.003624631790444255
320.0,-0.005212093237787485
352.0,-0.004769640509039164
384.0,-0.0016371312085539103
416.0,-0.0011725921649485826
448.0,-0.002233402105048299
480.0,-0.003470407333225012
512.0,-0.0022077348548918962
576.0,-0.008914191275835037
640.0,-0.007380800787359476
704.0,-0.005030819680541754
768.0,-0.010485688224434853
832.0,-0.005776610691100359
896.0,-0.003923401236534119
960.0,-0.0010796015849336982
1024.0,0.0027213715948164463
1152.0,0.0013046846725046635
1280.0,-0.00431748665869236
1408.0,-0.0008066544542089105
1536.0,0.0045265634544193745
1664.0,0.0010824432829394937
1792.0,-0.004931965377181768
1920.0,-0.009391690604388714
2048.0,-0.005294253118336201
2304.0,0.0009351958287879825
2560.0,0.0051511358469724655
2816.0,-0.00576619990170002
3072.0,-0.004376096185296774
3328.0,-0.005343439057469368
3584.0,0.0033752601593732834
3840.0,-0.00033968102070502937
4096.0,0.0061085959896445274
4608.0,0.004467695951461792
5120.0,-0.0011933032656088471
5632.0,0.0010869894176721573
6144.0,0.003221224993467331
6656.0,-0.004590928554534912
7168.0,-0.0040495628491044044
7680.0,-0.0024330727756023407
8192.0,0.0039035442750900984
end
