version,3.0
numOfCh,1
type,point
parent_name,34a6d_1dot0-0dot1
ch_type,1_1
kcount,1
numberNandB,1
brightnessNandB,1
carpet pos,0
pc,0
Time (ms),CH1 Auto-Correlation
1.0,0.0886339470744133
2.0,0.08167217671871185
3.0,0.07542777806520462
4.0,0.07001866400241852
5.0,0.0654083713889122
6.0,0.061402395367622375
7.0,0.05772826448082924
8.0,0.054405730217695236
9.0,0.05130450055003166
10.0,0.04863360896706581
11.0,0.04618699848651886
12.0,0.043859537690877914
13.0,0.04190638288855553
14.0,0.04015957936644554
15.0,0.03828297555446625
16.0,0.03652346879243851
18.0,0.033642906695604324
20.0,0.03150730952620506
22.0,0.030024535953998566
24.0,0.028490349650382996
26.0,0.026911210268735886
28.0,0.025279922410845757
30.0,0.02379334717988968
32.0,0.022641733288764954
36.0,0.02186640165746212
40.0,0.021216923370957375
44.0,0.02012481540441513
48.0,0.019058862701058388
52.0,0.017960557714104652
56.0,0.01705232821404934
60.0,0.015964560210704803
64.0,0.014753486029803753
72.0,0.013573096133768559
80.0,0.012432747520506382
88.0,0.010884611867368221
96.0,0.01114980224519968
104.0,0.01147438120096922
112.0,0.01156096812337637
120.0,0.010821035131812096
128.0,0.009572860784828663
144.0,0.006411254871636629
160.0,0.00586408656090498
176.0,0.006798477843403816
192.0,0.004689047113060951
208.0,0.0035676825791597366
224.0,0.0019004984060302377
240.0,-0.0001649544428801164
256.0,5.5248696298804134e-05
288.0,0.0007527009001933038
320.0,0.0009062070748768747
352.0,0.001465044217184186
384.0,0.0008063249988481402
416.0,-0.0027105738408863544
448.0,-0.004011332057416439
480.0,-0.003653760300949216
512.0,-0.0009473172831349075
576.0,0.0007727115298621356
640.0,0.0018694340251386166
704.0,0.0004979403456673026
768.0,-0.001984233036637306
832.0,-0.0022254090290516615
896.0,-0.0032581749837845564
960.0,-0.005357627756893635
1024.0,-0.004741468001157045
1152.0,-0.004420903977006674
1280.0,-0.001543283462524414
1408.0,-0.002252238569781184
1536.0,0.0022717807441949844
1664.0,0.0005957628018222749
1792.0,0.001655938453041017
1920.0,0.002062529092654586
2048.0,-0.0009567217202857137
2304.0,0.0005968387704342604
2560.0,-0.0012954913545399904
2816.0,-0.002487025922164321
3072.0,-0.0011016157222911716
3328.0,-0.000455035682534799
3584.0,0.004347022622823715
3840.0,0.0001775996934156865
4096.0,0.0038630743511021137
4608.0,0.0005677592707797885
5120.0,-0.0019822060130536556
5632.0,-5.654484994011e-05
6144.0,-0.0013192463666200638
6656.0,-0.004273948259651661
7168.0,-0.002427108818665147
7680.0,0.004336340818554163
8192.0,0.0014944950817152858
end
