version,3.0
numOfCh,1
type,point
parent_name,34a6d_1dot0-0dot1
ch_type,1_1
kcount,1
numberNandB,1
brightnessNandB,1
carpet pos,0
pc,0
Time (ms),CH1 Auto-Correlation
1.0,0.09353010356426239
2.0,0.08616273105144501
3.0,0.0801515206694603
4.0,0.07477301359176636
5.0,0.06991943717002869
6.0,0.06585212051868439
7.0,0.06229131296277046
8.0,0.059044286608695984
9.0,0.056100018322467804
10.0,0.05349893495440483
11.0,0.05130494758486748
12.0,0.049304258078336716
13.0,0.04757878556847572
14.0,0.045945003628730774
15.0,0.04443631321191788
16.0,0.04289878159761429
18.0,0.03950829431414604
20.0,0.036577850580215454
22.0,0.033802419900894165
24.0,0.03139429911971092
26.0,0.029144898056983948
28.0,0.026997121050953865
30.0,0.024519426748156548
32.0,0.022100990638136864
36.0,0.019221674650907516
40.0,0.017012864351272583
44.0,0.015318875201046467
48.0,0.013543767854571342
52.0,0.01207711175084114
56.0,0.010585952550172806
60.0,0.00998870562762022
64.0,0.009723406285047531
72.0,0.006937732920050621
80.0,0.0058267624117434025
88.0,0.005916189402341843
96.0,0.0056494842283427715
104.0,0.003772827098146081
112.0,0.0011067974846810102
120.0,0.0002813611936289817
128.0,-0.0012164423242211342
144.0,-0.003750264411792159
160.0,-0.0028959037736058235
176.0,-0.001682482659816742
192.0,0.0003963068302255124
208.0,0.002543063135817647
224.0,-0.0002024831046583131
240.0,-0.0007214059005491436
256.0,0.0033132892567664385
288.0,0.0028211907483637333
320.0,0.0010189344175159931
352.0,0.0028703263960778713
384.0,-0.00010529247811064124
416.0,-0.00010780231968965381
448.0,0.0013146385317668319
480.0,0.0012521040625870228
512.0,0.0018664547242224216
576.0,0.0001950726000359282
640.0,-0.0002119803975801915
704.0,-0.0032124745193868876
768.0,-0.0006453042733483016
832.0,0.004970511421561241
896.0,0.0010000140173360705
960.0,-0.0007666120072826743
1024.0,0.002428551437333226
1152.0,0.0017011372838169336
1280.0,0.0008725300431251526
1408.0,-0.0011922079138457775
1536.0,0.002186737023293972
1664.0,0.004033789969980717
1792.0,-0.003666836768388748
1920.0,-0.002696327166631818
2048.0,0.004335300996899605
2304.0,0.0007872206042520702
2560.0,-0.0012622546637430787
2816.0,0.0014562761643901467
3072.0,0.00281046936288476
3328.0,0.0021637575700879097
3584.0,-0.0019146213307976723
3840.0,-0.000626295106485486
4096.0,0.005476331803947687
4608.0,0.00039770815055817366
5120.0,-0.0009700501686893404
5632.0,-0.0019607513677328825
6144.0,-0.00034941674675792456
6656.0,-0.004036456346511841
7168.0,-0.001979945693165064
7680.0,-0.0014339276822283864
8192.0,-0.004950960166752338
end
