version,3.0
numOfCh,1
type,point
parent_name,34a6d_1dot0-0dot1
ch_type,1_1
kcount,1
numberNandB,1
brightnessNandB,1
carpet pos,0
pc,0
Time (ms),CH1 Auto-Correlation
1.0,0.095351941883564
2.0,0.08847449719905853
3.0,0.08255042135715485
4.0,0.07728545367717743
5.0,0.07283120602369308
6.0,0.06870798021554947
7.0,0.06498311460018158
8.0,0.06159051135182381
9.0,0.05854928120970726
10.0,0.05575253441929817
11.0,0.053275082260370255
12.0,0.05099455639719963
13.0,0.04895235225558281
14.0,0.047060269862413406
15.0,0.045360762625932693
16.0,0.043875545263290405
18.0,0.04140378534793854
20.0,0.038831550627946854
22.0,0.03632627800107002
24.0,0.03432545065879822
26.0,0.03239835053682327
28.0,0.03064708039164543
30.0,0.029197733849287033
32.0,0.027737880125641823
36.0,0.025406207889318466
40.0,0.023053068667650223
44.0,0.02073448710143566
48.0,0.018801767379045486
52.0,0.016256820410490036
56.0,0.014495695009827614
60.0,0.013281766325235367
64.0,0.011354997754096985
72.0,0.008123657666146755
80.0,0.00568441953510046
88.0,0.0023223019670695066
96.0,-4.599662497639656e-05
104.0,-0.002465469529852271
112.0,-0.003354898188263178
120.0,-0.0022920032497495413
128.0,-0.0016718877013772726
144.0,0.00041260887519456446
160.0,0.0027866691816598177
176.0,0.00421290984377265
192.0,0.005834266077727079
208.0,0.006300542037934065
224.0,0.005525223910808563
240.0,0.004875598009675741
256.0,0.004925242159515619
288.0,0.0016659341054037213
320.0,0.0013845071662217379
352.0,0.002913437085226178
384.0,0.0038348156958818436
416.0,0.0031146311666816473
448.0,0.0031423745676875114
480.0,0.005122768692672253
512.0,0.003114677732810378
576.0,0.0017915833741426468
640.0,0.0055783698335289955
704.0,0.0035294215194880962
768.0,-0.001276522409170866
832.0,-0.004202534444630146
896.0,-0.0013884955551475286
960.0,0.004184677265584469
1024.0,-0.004922816995531321
1152.0,0.0003209354472346604
1280.0,-0.0025679031386971474
1408.0,-0.00035105081042274833
1536.0,-0.0020225639455020428
1664.0,-0.0033626521471887827
1792.0,-0.0008387541165575385
1920.0,0.001543607097119093
2048.0,0.0034248565789312124
2304.0,0.004118461161851883
2560.0,0.004850307945162058
2816.0,0.0033499859273433685
3072.0,-0.0019599618390202522
3328.0,0.002356837037950754
3584.0,-0.0014967562165111303
3840.0,-0.0013832186814397573
4096.0,-0.001782334060408175
4608.0,-0.00248496001586318
5120.0,-0.0024482093285769224
5632.0,-0.0008621641900390387
6144.0,0.0027793871704488993
6656.0,-0.0025670169852674007
7168.0,-0.002861862303689122
7680.0,-0.0016240243567153811
8192.0,-0.002588128438219428
end
