version,3.0
numOfCh,1
type,point
parent_name,34a6d_1dot0-0dot1
ch_type,1_1
kcount,1
numberNandB,1
brightnessNandB,1
carpet pos,0
pc,0
Time (ms),CH1 Auto-Correlation
1.0,0.09611818194389343
2.0,0.08899810910224915
3.0,0.0829741358757019
4.0,0.07802117615938187
5.0,0.07380996644496918
6.0,0.07022518664598465
7.0,0.06714919209480286
8.0,0.06412146240472794
9.0,0.06144652143120766
10.0,0.05900765582919121
11.0,0.056735843420028687
12.0,0.054326239973306656
13.0,0.0521634966135025
14.0,0.05023064464330673
15.0,0.0484159030020237
16.0,0.04669011011719704
18.0,0.04383772239089012
20.0,0.04106392711400986
22.0,0.038546446710824966
24.0,0.03615451604127884
26.0,0.03433641791343689
28.0,0.03295092657208443
30.0,0.03169650956988335
32.0,0.030642904341220856
36.0,0.02897799387574196
40.0,0.02751760184764862
44.0,0.026700062677264214
48.0,0.02527177706360817
52.0,0.02363823726773262
56.0,0.021743519231677055
60.0,0.020717186853289604
64.0,0.019502628594636917
72.0,0.015988925471901894
80.0,0.01303310040384531
88.0,0.012107131071388721
96.0,0.010069522075355053
104.0,0.009602993726730347
112.0,0.009851411916315556
120.0,0.00877701211720705
128.0,0.006499555427581072
144.0,0.006871976424008608
160.0,0.008485466241836548
176.0,0.00814630277454853
192.0,0.01019408367574215
208.0,0.010287267155945301
224.0,0.010239120572805405
240.0,0.01195981539785862
256.0,0.011844968423247337
288.0,0.011137918569147587
320.0,0.006653732154518366
352.0,0.001624313648790121
384.0,0.0019976627081632614
416.0,0.0012929692165926099
448.0,0.002714382018893957
480.0,0.0023575376253575087
512.0,-0.0010209258180111647
576.0,-0.004500975366681814
640.0,-0.004274220671504736
704.0,-0.003573349677026272
768.0,-0.0021530156955122948
832.0,-0.004183838609606028
896.0,-0.0034523485228419304
960.0,0.001619232352823019
1024.0,0.001892849919386208
1152.0,-0.004238561727106571
1280.0,-0.0003390858764760196
1408.0,-0.006134715396910906
1536.0,-0.0032686376944184303
1664.0,-0.0016210428439080715
1792.0,-0.0009974873391911387
1920.0,0.00025364369503222406
2048.0,0.003683623159304261
2304.0,0.003987462725490332
2560.0,0.001969152595847845
2816.0,0.002940066857263446
3072.0,-0.002315313322469592
3328.0,-0.00826955121010542
3584.0,-0.006582073401659727
3840.0,-0.0018295671325176954
4096.0,0.00632109772413969
4608.0,0.003460114123299718
5120.0,-0.0036188028752803802
5632.0,-0.003370359307155013
6144.0,-0.0035554622299969196
6656.0,0.006744510494172573
7168.0,0.00215881853364408
7680.0,-0.010473320260643959
8192.0,-0.003080107271671295
end
