version,3.0
numOfCh,1
type,point
parent_name,34a6d_1dot0-0dot1
ch_type,1_1
kcount,1
numberNandB,1
brightnessNandB,1
carpet pos,0
pc,0
Time (ms),CH1 Auto-Correlation
1.0,0.09258873015642166
2.0,0.08574559539556503
3.0,0.0798434317111969
4.0,0.07459800690412521
5.0,0.07014795392751694
6.0,0.06643005460500717
7.0,0.06305024027824402
8.0,0.05983028933405876
9.0,0.05692785978317261
10.0,0.05422880873084068
11.0,0.051719292998313904
12.0,0.04937565699219704
13.0,0.047285858541727066
14.0,0.045348986983299255
15.0,0.04351460188627243
16.0,0.04181833937764168
18.0,0.03832617774605751
20.0,0.03524678573012352
22.0,0.03287089988589287
24.0,0.030918123200535774
26.0,0.02923053503036499
28.0,0.02793836034834385
30.0,0.026965120807290077
32.0,0.025473855435848236
36.0,0.023341208696365356
40.0,0.02143862657248974
44.0,0.019105779007077217
48.0,0.016244517639279366
52.0,0.014237693510949612
56.0,0.013042998500168324
60.0,0.011527739465236664
64.0,0.010395790450274944
72.0,0.011164812371134758
80.0,0.010574555024504662
88.0,0.00892815925180912
96.0,0.007175718434154987
104.0,0.007466354873031378
112.0,0.006989642512053251
120.0,0.004910420626401901
128.0,0.004786503966897726
144.0,0.006291222758591175
160.0,0.006349340081214905
176.0,0.0021178300958126783
192.0,-0.0017263017361983657
208.0,0.000621178129222244
224.0,0.0016142111271619797
240.0,0.0006419872515834868
256.0,8.312879799632356e-05
288.0,-0.0008503735880367458
320.0,-0.0021078726276755333
352.0,-0.0017658504657447338
384.0,-0.0006828369223512709
416.0,0.001258461968973279
448.0,0.0010212539928033948
480.0,0.0008022402762435377
512.0,0.0024709843564778566
576.0,0.002586581278592348
640.0,0.0004155732458457351
704.0,0.0011252928525209427
768.0,0.0009568998939357698
832.0,0.0015579060418531299
896.0,0.00044132673065178096
960.0,-0.0030221238266676664
1024.0,-0.006258306559175253
1152.0,-0.002953566610813141
1280.0,-0.004846383351832628
1408.0,-0.008363270200788975
1536.0,-0.004007493145763874
1664.0,-0.0016082687070593238
1792.0,-0.0027851001359522343
1920.0,0.002980228513479233
2048.0,-0.002585225272923708
2304.0,-0.002156866481527686
2560.0,-0.002308483934029937
2816.0,0.0010135462507605553
3072.0,0.0026001769583672285
3328.0,0.0035586697049438953
3584.0,0.006285692565143108
3840.0,0.00544336810708046
4096.0,-0.0005415166961029172
4608.0,-0.0018760954262688756
5120.0,-0.0012969120871275663
5632.0,-0.0037609434220939875
6144.0,-0.0015538131119683385
6656.0,0.005255469121038914
7168.0,0.002676905132830143
7680.0,-0.0022132934536784887
8192.0,-0.0011826734989881516
end
