version,3.0
numOfCh,1
type,point
parent_name,34a6d_1dot0-0dot1
ch_type,1_1
kcount,1
numberNandB,1
brightnessNandB,1
carpet pos,0
pc,0
Time (ms),CH1 Auto-Correlation
1.0,0.0764462873339653
2.0,0.06997852027416229
3.0,0.06454800069332123
4.0,0.059752266854047775
5.0,0.055451564490795135
6.0,0.05201365426182747
7.0,0.04862995818257332
8.0,0.04542624205350876
9.0,0.04277144372463226
10.0,0.04054804518818855
11.0,0.03830958902835846
12.0,0.03634277358651161
13.0,0.0345693938434124
14.0,0.03281811252236366
15.0,0.031112151220440865
16.0,0.029464727267622948
18.0,0.026506032794713974
20.0,0.024125657975673676
22.0,0.021583817899227142
24.0,0.019267885014414787
26.0,0.01741810142993927
28.0,0.016014164313673973
30.0,0.01489976141601801
32.0,0.013912382535636425
36.0,0.012887880206108093
40.0,0.011989939957857132
44.0,0.010437527671456337
48.0,0.009173838421702385
52.0,0.009212183766067028
56.0,0.009307043626904488
60.0,0.008877146989107132
64.0,0.008409129455685616
72.0,0.0079903369769454
80.0,0.005607726518064737
88.0,0.004546913783997297
96.0,0.004460990894585848
104.0,0.00497368723154068
112.0,0.004551714286208153
120.0,0.0031081081833690405
128.0,0.003924942575395107
144.0,0.004097947385162115
160.0,0.005047894082963467
176.0,0.002356232376769185
192.0,0.001462304382584989
208.0,0.0023131580092012882
224.0,-0.0002862724650185555
240.0,-0.00043351625208742917
256.0,0.0011386380065232515
288.0,0.003511793212965131
320.0,0.004050579387694597
352.0,0.002503268886357546
384.0,0.003632985521107912
416.0,0.0029415814206004143
448.0,0.002435659058392048
480.0,0.0046440367586910725
512.0,0.004226870369166136
576.0,0.002324011642485857
640.0,-0.00022973174054641277
704.0,0.001359979622066021
768.0,-0.000973767600953579
832.0,0.0002589962095953524
896.0,-0.0012635182356461883
960.0,0.0006940171588212252
1024.0,0.003241240046918392
1152.0,0.0007261104765348136
1280.0,-0.0011932144407182932
1408.0,-0.0005590648506768048
1536.0,-0.001966511830687523
1664.0,-0.0033712780568748713
1792.0,-0.0018883508164435625
1920.0,-0.0008700912585482001
2048.0,-0.004062270745635033
2304.0,-0.001828646520152688
2560.0,0.00013435819710139185
2816.0,0.001537861186079681
3072.0,-4.7885056119412184e-05
3328.0,0.0008498207898810506
3584.0,-0.0007542730891145766
3840.0,-0.00021999159071128815
4096.0,-0.00028682203264907
4608.0,-0.0008074773941189051
5120.0,-3.657431807368994e-05
5632.0,0.0008762270445004106
6144.0,-0.001403388218022883
6656.0,-0.0018248576670885086
7168.0,-0.0024603838101029396
7680.0,-0.0009941087337210774
8192.0,0.000481230701552704
end
