version,3.0
numOfCh,1
type,point
parent_name,34a6d_1dot0-0dot1
ch_type,1_1
kcount,1
numberNandB,1
brightnessNandB,1
carpet pos,0
pc,0
Time (ms),CH1 Auto-Correlation
1.0,0.10008638352155685
2.0,0.09365243464708328
3.0,0.0880485326051712
4.0,0.08326400071382523
5.0,0.0788973793387413
6.0,0.07485741376876831
7.0,0.0713333785533905
8.0,0.06813818961381912
9.0,0.06521804630756378
10.0,0.06271445006132126
11.0,0.06046508252620697
12.0,0.058501988649368286
13.0,0.05655580759048462
14.0,0.054851386696100235
15.0,0.053231775760650635
16.0,0.05171646550297737
18.0,0.04875286668539047
20.0,0.04608716443181038
22.0,0.04392336308956146
24.0,0.04207458719611168
26.0,0.04023510962724686
28.0,0.038404449820518494
30.0,0.03640999644994736
32.0,0.034709542989730835
36.0,0.03193376213312149
40.0,0.029815755784511566
44.0,0.028331443667411804
48.0,0.026520103216171265
52.0,0.024568630382418633
56.0,0.02307104505598545
60.0,0.021631581708788872
64.0,0.019603408873081207
72.0,0.015315006487071514
80.0,0.012655289843678474
88.0,0.01137186586856842
96.0,0.00918820034712553
104.0,0.008213350549340248
112.0,0.007926237769424915
120.0,0.007302786223590374
128.0,0.007320866454392672
144.0,0.007218611892312765
160.0,0.007543322630226612
176.0,0.00965223740786314
192.0,0.007626799400895834
208.0,0.007403668016195297
224.0,0.007119872607290745
240.0,0.005069227423518896
256.0,0.0053008305840194225
288.0,0.005355990491807461
320.0,0.004005777649581432
352.0,0.0036063804291188717
384.0,0.0029660987202078104
416.0,0.0012972260592505336
448.0,-0.004835222847759724
480.0,-0.006879371125251055
512.0,-0.005609662272036076
576.0,-0.00026666291523724794
640.0,0.0032538387458771467
704.0,-0.005351796746253967
768.0,-0.0052644917741417885
832.0,-0.002835883991792798
896.0,-0.002578901359811425
960.0,-0.004315386060625315
1024.0,-0.002433499088510871
1152.0,-3.129736796836369e-05
1280.0,-0.00154547905549407
1408.0,-0.00325178075581789
1536.0,0.0014854457695037127
1664.0,-0.0017865435220301151
1792.0,0.002757938578724861
1920.0,-0.0026139349211007357
2048.0,-0.0011209730291739106
2304.0,0.007096962537616491
2560.0,0.004983462858945131
2816.0,-0.0010618597734719515
3072.0,-0.005737601313740015
3328.0,-0.004521042108535767
3584.0,0.00010417178418720141
3840.0,0.0015484471805393696
4096.0,-0.0036705490201711655
4608.0,-0.0012353449128568172
5120.0,-5.21611436852254e-05
5632.0,-0.00046011985978111625
6144.0,0.0019110024441033602
6656.0,-0.0035565062426030636
7168.0,0.0009846985340118408
7680.0,-0.0008483974961563945
8192.0,-0.0021447702310979366
end
