version,3.0
numOfCh,1
type,point
parent_name,34a6d_1dot0-0dot1
ch_type,1_1
kcount,1
numberNandB,1
brightnessNandB,1
carpet pos,0
pc,0
Time (ms),CH1 Auto-Correlation
1.0,0.1089329719543457
2.0,0.10181194543838501
3.0,0.09565839171409607
4.0,0.09022155404090881
5.0,0.08562425523996353
6.0,0.0813099816441536
7.0,0.0772700384259224
8.0,0.07373891770839691
9.0,0.07045156508684158
10.0,0.06768903881311417
11.0,0.06521196663379669
12.0,0.06277531385421753
13.0,0.060456532984972
14.0,0.05842476710677147
15.0,0.05645895376801491
16.0,0.054655540734529495
18.0,0.05153782293200493
20.0,0.04834841936826706
22.0,0.045757316052913666
24.0,0.04360063001513481
26.0,0.04182557389140129
28.0,0.040411707013845444
30.0,0.039033159613609314
32.0,0.03774569183588028
36.0,0.035049449652433395
40.0,0.03215351700782776
44.0,0.03088715486228466
48.0,0.03018580563366413
52.0,0.029407184571027756
56.0,0.02764923870563507
60.0,0.025716440752148628
64.0,0.024625234305858612
72.0,0.022053539752960205
80.0,0.01883460208773613
88.0,0.01565116085112095
96.0,0.014457005076110363
104.0,0.015118901617825031
112.0,0.014846877194941044
120.0,0.01457354798913002
128.0,0.016353435814380646
144.0,0.017854886129498482
160.0,0.0175846666097641
176.0,0.01847035624086857
192.0,0.019069528207182884
208.0,0.01849261298775673
224.0,0.017417998984456062
240.0,0.01772274635732174
256.0,0.019229814410209656
288.0,0.016022400930523872
320.0,0.014581144787371159
352.0,0.015290630050003529
384.0,0.010341309010982513
416.0,0.00956329982727766
448.0,0.010085695423185825
480.0,0.015275162644684315
512.0,0.010479274205863476
576.0,0.0059555633924901485
640.0,0.0023913381155580282
704.0,0.0013712298823520541
768.0,0.006386464461684227
832.0,0.0036803046241402626
896.0,0.004405873827636242
960.0,0.0062200818210840225
1024.0,0.0005020882235839963
1152.0,-0.0012898074928671122
1280.0,-0.0006884987815283239
1408.0,0.001414658036082983
1536.0,-0.0016517865005880594
1664.0,-0.001494638156145811
1792.0,0.001895740395411849
1920.0,0.0017361834179610014
2048.0,0.0038780849426984787
2304.0,-0.0009639764321036637
2560.0,-0.0037600344512611628
2816.0,-0.0033470888156443834
3072.0,0.00018610295956023037
3328.0,0.0007210911717265844
3584.0,-0.005832693539559841
3840.0,-0.0043635587207973
4096.0,-0.0018153779674321413
4608.0,-0.003503077430650592
5120.0,-0.0005290218978188932
5632.0,-0.007241100538522005
6144.0,-0.005941621493548155
6656.0,-0.007040906697511673
7168.0,-0.0027178700547665358
7680.0,-0.010487864725291729
8192.0,-0.008315518498420715
end
