version,3.0
numOfCh,1
type,point
parent_name,34a6d_1dot0-0dot1
ch_type,1_1
kcount,1
numberNandB,1
brightnessNandB,1
carpet pos,0
pc,0
Time (ms),CH1 Auto-Correlation
1.0,0.08433572202920914
2.0,0.07720086723566055
3.0,0.07137500494718552
4.0,0.06649448722600937
5.0,0.062292423099279404
6.0,0.05858924612402916
7.0,0.05530817434191704
8.0,0.052526719868183136
9.0,0.04994967579841614
10.0,0.04772694781422615
11.0,0.04538322985172272
12.0,0.0433088019490242
13.0,0.04164761304855347
14.0,0.040139611810445786
15.0,0.03873315826058388
16.0,0.03742850571870804
18.0,0.03530757501721382
20.0,0.03366328775882721
22.0,0.032031115144491196
24.0,0.030713601037859917
26.0,0.029127834364771843
28.0,0.027493473142385483
30.0,0.02564430981874466
32.0,0.024400217458605766
36.0,0.023952243849635124
40.0,0.023575516417622566
44.0,0.021805033087730408
48.0,0.019373415037989616
52.0,0.016633670777082443
56.0,0.01524854451417923
60.0,0.014489279128611088
64.0,0.014922755770385265
72.0,0.015514746308326721
80.0,0.014597938396036625
88.0,0.012449541129171848
96.0,0.009525066241621971
104.0,0.008585824631154537
112.0,0.007786622270941734
120.0,0.007087897043675184
128.0,0.006125422660261393
144.0,0.004593200050294399
160.0,0.003328937804326415
176.0,0.0009515878045931458
192.0,0.0008593648672103882
208.0,0.001536636846140027
224.0,0.0019631008617579937
240.0,0.0007338251452893019
256.0,-0.00036584027111530304
288.0,-0.0004064326349180192
320.0,-3.8806516386102885e-05
352.0,-0.0018419557018205523
384.0,-0.0017754021100699902
416.0,-0.002262761816382408
448.0,0.0024525492917746305
480.0,0.0014903828268870711
512.0,0.0032070125453174114
576.0,0.00273432326503098
640.0,0.0027522381860762835
704.0,0.0004314396355766803
768.0,-0.00035914662294089794
832.0,-0.004827016964554787
896.0,-0.0061541954055428505
960.0,-0.009328875690698624
1024.0,-0.00800024252384901
1152.0,-0.006784189958125353
1280.0,-0.0037193966563791037
1408.0,-0.001835593138821423
1536.0,-0.0003165817470289767
1664.0,-0.002343886997550726
1792.0,-0.004473960027098656
1920.0,0.000866056012455374
2048.0,-0.0022649632301181555
2304.0,-0.00018673059821594507
2560.0,0.0013641337864100933
2816.0,0.00133835943415761
3072.0,0.0038944510743021965
3328.0,0.005669596139341593
3584.0,-0.0028353449888527393
3840.0,-0.000938079843763262
4096.0,-0.0009809329640120268
4608.0,-0.0012441170401871204
5120.0,-0.00022467380040325224
5632.0,0.001761278952471912
6144.0,0.0014610342914238572
6656.0,-0.0010351825039833784
7168.0,-0.0005350046558305621
7680.0,0.0005445362185128033
8192.0,-0.004696868825703859
end
