version,3.0
numOfCh,1
type,point
parent_name,34a6d_1dot0-0dot1
ch_type,1_1
kcount,1
numberNandB,1
brightnessNandB,1
carpet pos,0
pc,0
Time (ms),CH1 Auto-Correlation
1.0,0.09346665441989899
2.0,0.08668433129787445
3.0,0.08095090836286545
4.0,0.07595109939575195
5.0,0.07146920263767242
6.0,0.06767123937606812
7.0,0.06403671950101852
8.0,0.06108095496892929
9.0,0.05844602733850479
10.0,0.055915623903274536
11.0,0.0535091906785965
12.0,0.05136057361960411
13.0,0.049101680517196655
14.0,0.047057606279850006
15.0,0.04547688737511635
16.0,0.043983832001686096
18.0,0.04136684909462929
20.0,0.03902008384466171
22.0,0.03659893572330475
24.0,0.034196801483631134
26.0,0.031854841858148575
28.0,0.029615527018904686
30.0,0.027807585895061493
32.0,0.026067769154906273
36.0,0.02331027388572693
40.0,0.020772993564605713
44.0,0.017784954980015755
48.0,0.015368117019534111
52.0,0.013830815441906452
56.0,0.012663157656788826
60.0,0.01102724950760603
64.0,0.009972662664949894
72.0,0.006849907338619232
80.0,0.004327971022576094
88.0,0.0029039504006505013
96.0,0.0030531673692166805
104.0,0.003308340208604932
112.0,0.004382062237709761
120.0,0.005210770759731531
128.0,0.005797101184725761
144.0,0.008218399249017239
160.0,0.01086241565644741
176.0,0.013464173302054405
192.0,0.010689274407923222
208.0,0.008944804780185223
224.0,0.008676482364535332
240.0,0.005743378773331642
256.0,0.0011909062741324306
288.0,-0.0021216205786913633
320.0,-0.005309214349836111
352.0,-0.001168338698334992
384.0,0.005218276288360357
416.0,0.00203626393340528
448.0,-0.0028055496513843536
480.0,-0.0028424598276615143
512.0,-0.0018367224838584661
576.0,0.0020618292037397623
640.0,0.0019214388448745012
704.0,-0.002034170087426901
768.0,0.0027511378284543753
832.0,0.0007489241543225944
896.0,-0.0027021807618439198
960.0,0.0023927269503474236
1024.0,0.0020896021742373705
1152.0,-0.0013618816155940294
1280.0,-0.0011952297063544393
1408.0,0.0014326062519103289
1536.0,0.0017985517624765635
1664.0,-0.003102595452219248
1792.0,-0.0012773283524438739
1920.0,0.0013399084564298391
2048.0,-0.0028771059587597847
2304.0,-0.005303671583533287
2560.0,0.00019058302859775722
2816.0,0.002438846044242382
3072.0,-0.00022169052681419998
3328.0,-0.0008248943486250937
3584.0,-0.0005867971340194345
3840.0,-0.0005181425367482007
4096.0,0.0017482354305684566
4608.0,0.0011033884948119521
5120.0,0.00016655982472002506
5632.0,0.0006573562859557569
6144.0,-0.0030641714110970497
6656.0,-0.0048429458402097225
7168.0,-0.0031647025607526302
7680.0,-0.0009255195036530495
8192.0,-0.002041393658146262
end
