version,3.0
numOfCh,1
type,point
parent_name,34a6d_1dot0-0dot1
ch_type,1_1
kcount,1
numberNandB,1
brightnessNandB,1
carpet pos,0
pc,0
Time (ms),CH1 Auto-Correlation
1.0,0.09222257882356644
2.0,0.08532658219337463
3.0,0.07967831939458847
4.0,0.07474679499864578
5.0,0.07029715180397034
6.0,0.0664057806134224
7.0,0.06296203285455704
8.0,0.059841033071279526
9.0,0.05711977928876877
10.0,0.05456311255693436
11.0,0.052195776253938675
12.0,0.05018499121069908
13.0,0.04832828789949417
14.0,0.046644993126392365
15.0,0.04492684081196785
16.0,0.04347924515604973
18.0,0.04130592569708824
20.0,0.039333757013082504
22.0,0.037542007863521576
24.0,0.03595729544758797
26.0,0.03439817577600479
28.0,0.032742343842983246
30.0,0.03142191842198372
32.0,0.030750317499041557
36.0,0.029551086947321892
40.0,0.029300661757588387
44.0,0.027894433587789536
48.0,0.02568647637963295
52.0,0.024335917085409164
56.0,0.02313646860420704
60.0,0.02232488989830017
64.0,0.021106747910380363
72.0,0.019456742331385612
80.0,0.017542392015457153
88.0,0.016516277566552162
96.0,0.01639382541179657
104.0,0.016263647004961967
112.0,0.015367593616247177
120.0,0.01339348591864109
128.0,0.010868964716792107
144.0,0.009138441644608974
160.0,0.009217738173902035
176.0,0.009023334830999374
192.0,0.0070671928115189075
208.0,0.006410775240510702
224.0,0.007027077954262495
240.0,0.008161256089806557
256.0,0.008369142189621925
288.0,0.005378102883696556
320.0,0.003957563079893589
352.0,0.001035351655445993
384.0,-0.0015011023497208953
416.0,-0.0020609749481081963
448.0,-0.002868903800845146
480.0,-0.0054750568233430386
512.0,-0.005926907528191805
576.0,-0.005530495662242174
640.0,-0.0072940620593726635
704.0,-0.006272671744227409
768.0,-0.004096884746104479
832.0,-0.0005751729477196932
896.0,-0.0011493125930428505
960.0,0.0022321464493870735
1024.0,-0.0018883792217820883
1152.0,0.00040585765964351594
1280.0,-0.0010153679177165031
1408.0,0.0006196429603733122
1536.0,0.0014919276582077146
1664.0,0.00478709302842617
1792.0,0.003478084923699498
1920.0,0.008956559002399445
2048.0,0.0030952421948313713
2304.0,0.001524326391518116
2560.0,-0.0015001988504081964
2816.0,-0.000111837696749717
3072.0,-0.004094595089554787
3328.0,-0.0036508305929601192
3584.0,0.003969052340835333
3840.0,0.0008089453331194818
4096.0,-0.006153275724500418
4608.0,-0.006301410496234894
5120.0,0.0027553383260965347
5632.0,-0.002278174739331007
6144.0,-0.003999452106654644
6656.0,-0.001733538112603128
7168.0,0.0031209494918584824
7680.0,-0.00016521764337085187
8192.0,-0.0011651524109765887
end
