version,3.0
numOfCh,1
type,point
parent_name,34a6d_1dot0-0dot1
ch_type,1_1
kcount,1
numberNandB,1
brightnessNandB,1
carpet pos,0
pc,0
Time (ms),CH1 Auto-Correlation
1.0,0.09564397484064102
2.0,0.08893799781799316
3.0,0.0832100361585617
4.0,0.07833798974752426
5.0,0.07400872558355331
6.0,0.07022850960493088
7.0,0.06686809659004211
8.0,0.0638657733798027
9.0,0.06114599481225014
10.0,0.058714210987091064
11.0,0.05645284056663513
12.0,0.054184507578611374
13.0,0.051966842263936996
14.0,0.05005519837141037
15.0,0.0481833852827549
16.0,0.0465235635638237
18.0,0.04374556243419647
20.0,0.04146956652402878
22.0,0.03962073102593422
24.0,0.03790554404258728
26.0,0.036099620163440704
28.0,0.03440772369503975
30.0,0.032991208136081696
32.0,0.0316983237862587
36.0,0.028893303126096725
40.0,0.02659372054040432
44.0,0.024865711107850075
48.0,0.023456741124391556
52.0,0.022690340876579285
56.0,0.02148495987057686
60.0,0.019868455827236176
64.0,0.018334886059165
72.0,0.016041819006204605
80.0,0.013520997017621994
88.0,0.012166761793196201
96.0,0.011656513437628746
104.0,0.010434390977025032
112.0,0.010446755215525627
120.0,0.011449444107711315
128.0,0.010829743929207325
144.0,0.011923407204449177
160.0,0.014137686230242252
176.0,0.014476186595857143
192.0,0.015307794325053692
208.0,0.016108067706227303
224.0,0.013312057591974735
240.0,0.010537853464484215
256.0,0.008820288814604282
288.0,0.006100424565374851
320.0,0.006347735412418842
352.0,0.005438432563096285
384.0,0.007977981120347977
416.0,0.005380312446504831
448.0,0.005327395163476467
480.0,0.0056984918192029
512.0,0.0060532731004059315
576.0,0.005044000688940287
640.0,0.003579184878617525
704.0,0.0037383821327239275
768.0,0.0002740630297921598
832.0,-0.0021476694382727146
896.0,-0.0022676370572298765
960.0,-0.004095927346497774
1024.0,-0.007613847963511944
1152.0,-0.0030160017777234316
1280.0,-0.004377568606287241
1408.0,-0.0010372995166108012
1536.0,-0.003808313747867942
1664.0,-0.0014093756908550858
1792.0,-0.002440174575895071
1920.0,-0.0017613221425563097
2048.0,-0.006097405217587948
2304.0,-0.004143295809626579
2560.0,-0.0004967446438968182
2816.0,-0.004159821197390556
3072.0,-0.004188957158476114
3328.0,-0.002657746197655797
3584.0,-0.0036430922336876392
3840.0,0.000369643239537254
4096.0,-0.002632277784869075
4608.0,0.0014080562395974994
5120.0,-0.0004271572979632765
5632.0,0.0022842264734208584
6144.0,0.003222477389499545
6656.0,0.005871475674211979
7168.0,0.003046416910365224
7680.0,-0.0049417573027312756
8192.0,-0.0006435586255975068
end
