version,3.0
numOfCh,1
type,point
parent_name,10-cuts
ch_type,1_1
kcount,1
numberNandB,1
brightnessNandB,1
carpet pos,0
pc,0
Time (ms),CH1 Auto-Correlation
1.0,0.02910759299993515
2.0,0.028884300962090492
3.0,0.028664259240031242
4.0,0.028448784723877907
5.0,0.028237175196409225
6.0,0.028031814843416214
7.0,0.02782149612903595
8.0,0.02761203795671463
9.0,0.027406850829720497
10.0,0.027207184582948685
11.0,0.027006644755601883
12.0,0.026805272325873375
13.0,0.026610298082232475
14.0,0.026411965489387512
15.0,0.026217155158519745
16.0,0.02602480910718441
18.0,0.02566189505159855
20.0,0.02531828172504902
22.0,0.02498597651720047
24.0,0.024659793823957443
26.0,0.024338414892554283
28.0,0.024029560387134552
30.0,0.02372713014483452
32.0,0.023426799103617668
36.0,0.022893372923135757
40.0,0.02239125967025757
44.0,0.021905403584241867
48.0,0.021443704143166542
52.0,0.020987236872315407
56.0,0.02053726091980934
60.0,0.02011542022228241
64.0,0.01973780058324337
72.0,0.019009876996278763
80.0,0.018428588286042213
88.0,0.01790042035281658
96.0,0.01732710376381874
104.0,0.016753820702433586
112.0,0.016156259924173355
120.0,0.015554627403616905
128.0,0.014975198544561863
144.0,0.013998066075146198
160.0,0.013171841390430927
176.0,0.012525014579296112
192.0,0.01174552645534277
208.0,0.011055667884647846
224.0,0.010379885323345661
240.0,0.009822739288210869
256.0,0.009482468478381634
288.0,0.009102973155677319
320.0,0.00852133333683014
352.0,0.007769203744828701
384.0,0.007298553362488747
416.0,0.006802394054830074
448.0,0.006651699542999268
480.0,0.0072935521602630615
512.0,0.007936016656458378
576.0,0.008186312392354012
640.0,0.0068815527483820915
704.0,0.0052301050163805485
768.0,0.004107549320906401
832.0,0.004626663401722908
896.0,0.005301483906805515
960.0,0.005323972087353468
1024.0,0.005377406720072031
1152.0,0.004508470185101032
1280.0,0.0023601490538567305
1408.0,0.0011947185266762972
1536.0,0.0009457755950279534
1664.0,0.0018351718317717314
1792.0,0.0019983211532235146
1920.0,0.001444722875021398
2048.0,0.0003167161485180259
2304.0,-0.0024371377658098936
2560.0,-0.00391734391450882
2816.0,-0.002664618892595172
3072.0,-0.002307391259819269
3328.0,-0.005089421756565571
3584.0,-0.00851353071630001
3840.0,-0.008506229147315025
4096.0,-0.007001821883022785
4608.0,-0.003477572463452816
5120.0,-0.0030476143583655357
5632.0,-0.005194759927690029
6144.0,-0.0010796174174174666
6656.0,0.00037638124194927514
7168.0,0.007860061712563038
7680.0,0.010111140087246895
8192.0,0.008724179118871689
9216.0,0.0009650945430621505
10240.0,-0.0002586389018688351
11264.0,-0.00785208959132433
12288.0,-0.006696624681353569
13312.0,-0.008470895700156689
14336.0,-0.0010977803030982614
end
