version,3.0
numOfCh,1
type,point
parent_name,10-cuts
ch_type,1_1
kcount,1
numberNandB,1
brightnessNandB,1
carpet pos,0
pc,0
Time (ms),CH1 Auto-Correlation
1.0,0.11447999626398087
2.0,0.11390169709920883
3.0,0.11334215104579926
4.0,0.11278541386127472
5.0,0.11225131154060364
6.0,0.11173440515995026
7.0,0.11122486740350723
8.0,0.1107119768857956
9.0,0.11021684110164642
10.0,0.10973231494426727
11.0,0.10925942659378052
12.0,0.10878152400255203
13.0,0.10830871015787125
14.0,0.10784424841403961
15.0,0.1073799803853035
16.0,0.1069098636507988
18.0,0.10601188987493515
20.0,0.10513759404420853
22.0,0.10427401959896088
24.0,0.103428915143013
26.0,0.10260673612356186
28.0,0.10178614407777786
30.0,0.10095423460006714
32.0,0.1001327857375145
36.0,0.09858875721693039
40.0,0.0972074642777443
44.0,0.09586434811353683
48.0,0.09453994035720825
52.0,0.09333743155002594
56.0,0.0922655463218689
60.0,0.09126896411180496
64.0,0.09023280441761017
72.0,0.08830423653125763
80.0,0.08665214478969574
88.0,0.08527539670467377
96.0,0.08392982184886932
104.0,0.08238930255174637
112.0,0.08073758333921432
120.0,0.07907885313034058
128.0,0.07745645940303802
144.0,0.07487135380506516
160.0,0.0724484920501709
176.0,0.06941307336091995
192.0,0.0660601481795311
208.0,0.06351392716169357
224.0,0.06135256588459015
240.0,0.05931594967842102
256.0,0.05804302543401718
288.0,0.054896168410778046
320.0,0.051591213792562485
352.0,0.04943843558430672
384.0,0.048002853989601135
416.0,0.04644991457462311
448.0,0.0464823842048645
480.0,0.046136755496263504
512.0,0.044996969401836395
576.0,0.04075895994901657
640.0,0.03822445869445801
704.0,0.03752877190709114
768.0,0.03888094052672386
832.0,0.03689427301287651
896.0,0.034349583089351654
960.0,0.03174668923020363
1024.0,0.03125106170773506
1152.0,0.030403653159737587
1280.0,0.03169640526175499
1408.0,0.029084796085953712
1536.0,0.026906104758381844
1664.0,0.01991436257958412
1792.0,0.01305537298321724
1920.0,0.006598549894988537
2048.0,0.0014654690166935325
2304.0,-0.005527186673134565
2560.0,-0.007593875750899315
2816.0,-0.011334197595715523
3072.0,-0.008742551319301128
3328.0,-0.0044793481938540936
3584.0,-0.007720064837485552
3840.0,-0.013970155268907547
4096.0,-0.014539179392158985
4608.0,-0.020469289273023605
5120.0,-0.0312778577208519
5632.0,-0.029715251177549362
6144.0,-0.029808463528752327
6656.0,-0.017140859737992287
7168.0,-0.005024131387472153
7680.0,0.013401893898844719
8192.0,0.01596873253583908
9216.0,0.004337029065936804
10240.0,0.02023341692984104
11264.0,0.02450275421142578
12288.0,-0.02657281421124935
13312.0,-0.08485397696495056
14336.0,-0.09360577166080475
end
