version,3.0
numOfCh,1
type,point
parent_name,10-cuts
ch_type,1_1
kcount,1
numberNandB,1
brightnessNandB,1
carpet pos,0
pc,0
Time (ms),CH1 Auto-Correlation
1.0,0.0735616385936737
2.0,0.07311804592609406
3.0,0.0726759135723114
4.0,0.07222917675971985
5.0,0.07178791612386703
6.0,0.07134054601192474
7.0,0.07089795917272568
8.0,0.07044947892427444
9.0,0.07000481337308884
10.0,0.06956003606319427
11.0,0.06913236528635025
12.0,0.06871449947357178
13.0,0.0683009922504425
14.0,0.06788990646600723
15.0,0.06747383624315262
16.0,0.06706509739160538
18.0,0.06628596782684326
20.0,0.06552001088857651
22.0,0.0647636204957962
24.0,0.06402396410703659
26.0,0.06329718232154846
28.0,0.06255809962749481
30.0,0.06183430179953575
32.0,0.0611531026661396
36.0,0.05988199636340141
40.0,0.05867495387792587
44.0,0.05751228332519531
48.0,0.05643145740032196
52.0,0.05545034259557724
56.0,0.05455116927623749
60.0,0.05372799187898636
64.0,0.05293097719550133
72.0,0.05135544762015343
80.0,0.04988245666027069
88.0,0.0486433245241642
96.0,0.047390565276145935
104.0,0.046033553779125214
112.0,0.044686708599328995
120.0,0.04332710802555084
128.0,0.04217583313584328
144.0,0.0401153564453125
160.0,0.038177721202373505
176.0,0.03629989176988602
192.0,0.03503454476594925
208.0,0.034051936119794846
224.0,0.03297829627990723
240.0,0.03162740170955658
256.0,0.030622383579611778
288.0,0.02801024168729782
320.0,0.0249912291765213
352.0,0.02256452664732933
384.0,0.019755922257900238
416.0,0.01636916771531105
448.0,0.013603698462247849
480.0,0.01248318050056696
512.0,0.011881480924785137
576.0,0.009099842049181461
640.0,0.005510109476745129
704.0,0.003135670442134142
768.0,0.003436981001868844
832.0,0.0011123961303383112
896.0,-0.0003029188374057412
960.0,-0.001451405812986195
1024.0,-0.0017969673499464989
1152.0,-0.004840042442083359
1280.0,-0.0022946330718696117
1408.0,0.0036876783706247807
1536.0,0.008972835727036
1664.0,0.009966149926185608
1792.0,0.008029831573367119
1920.0,0.002211234997957945
2048.0,-0.0004402728518471122
2304.0,-0.0014729970134794712
2560.0,-0.007540178019553423
2816.0,-0.011332186870276928
3072.0,-0.007779946085065603
3328.0,-0.000697955721989274
3584.0,-0.001222411054186523
3840.0,0.00291956914588809
4096.0,0.0024056686088442802
4608.0,-0.00717788003385067
5120.0,0.007100061979144812
5632.0,0.010517640970647335
6144.0,-0.01038725208491087
6656.0,-0.010476835072040558
7168.0,-0.014597496017813683
7680.0,-0.015100205317139626
8192.0,-0.010626436211168766
9216.0,-0.0036053070798516273
10240.0,0.009138817898929119
11264.0,0.012703599408268929
12288.0,-0.011460131034255028
13312.0,-0.016724947839975357
14336.0,0.006183811463415623
end
