version,3.0
numOfCh,1
type,point
parent_name,10-cuts
ch_type,1_1
kcount,1
numberNandB,1
brightnessNandB,1
carpet pos,0
pc,0
Time (ms),CH1 Auto-Correlation
1.0,0.02757653035223484
2.0,0.027358263731002808
3.0,0.027134040370583534
4.0,0.026915431022644043
5.0,0.026695720851421356
6.0,0.026473497971892357
7.0,0.026253608986735344
8.0,0.026037033647298813
9.0,0.02582721970975399
10.0,0.025614745914936066
11.0,0.025403272360563278
12.0,0.02519414946436882
13.0,0.024985188618302345
14.0,0.02477724850177765
15.0,0.02457108348608017
16.0,0.024369072169065475
18.0,0.02397821471095085
20.0,0.023603320121765137
22.0,0.023236094042658806
24.0,0.022884465754032135
26.0,0.02255805768072605
28.0,0.022237729281187057
30.0,0.021927664056420326
32.0,0.021622996777296066
36.0,0.021050048992037773
40.0,0.020528724417090416
44.0,0.02004295401275158
48.0,0.01958332769572735
52.0,0.019145578145980835
56.0,0.018702151253819466
60.0,0.018254773691296577
64.0,0.01783466711640358
72.0,0.017036158591508865
80.0,0.016316145658493042
88.0,0.015666205435991287
96.0,0.015052475035190582
104.0,0.014426358044147491
112.0,0.013848595321178436
120.0,0.01338513009250164
128.0,0.012960839085280895
144.0,0.012288633733987808
160.0,0.011822070926427841
176.0,0.011381902731955051
192.0,0.01086941733956337
208.0,0.010315832681953907
224.0,0.009717387147247791
240.0,0.00905315950512886
256.0,0.008299131877720356
288.0,0.00748214777559042
320.0,0.006917733233422041
352.0,0.006616233382374048
384.0,0.006586434319615364
416.0,0.006559969857335091
448.0,0.006115207448601723
480.0,0.005931188352406025
512.0,0.005748969968408346
576.0,0.005672365427017212
640.0,0.00533756148070097
704.0,0.004783460404723883
768.0,0.004624157678335905
832.0,0.003832080867141485
896.0,0.0024033947847783566
960.0,0.002483103424310684
1024.0,0.00403858395293355
1152.0,0.0033513426315039396
1280.0,0.0021386295557022095
1408.0,0.0008464754209853709
1536.0,0.0014833317836746573
1664.0,0.0025207563303411007
1792.0,0.004000057000666857
1920.0,0.0026222094893455505
2048.0,6.592833960894495e-05
2304.0,-0.0030072173103690147
2560.0,-0.0042583816684782505
2816.0,-0.004655223805457354
3072.0,-0.006426747422665358
3328.0,-0.0046603744849562645
3584.0,-0.0022915173321962357
3840.0,-0.0032181935384869576
4096.0,-0.00601767236366868
4608.0,-0.0018547334475442767
5120.0,-1.3465658412314951e-05
5632.0,0.0011628484353423119
6144.0,0.00015328041627071798
6656.0,0.0036579484585672617
7168.0,0.007278871722519398
7680.0,0.0015325736021623015
8192.0,0.0015358295058831573
9216.0,-0.0013671043561771512
10240.0,-0.0017618014244362712
11264.0,-0.006898179650306702
12288.0,-0.002351221162825823
13312.0,-0.006313761696219444
14336.0,0.003683984512463212
end
