version,3.0
numOfCh,1
type,point
parent_name,10-cuts
ch_type,1_1
kcount,1
numberNandB,1
brightnessNandB,1
carpet pos,0
pc,0
Time (ms),CH1 Auto-Correlation
1.0,0.0617297925055027
2.0,0.06125996261835098
3.0,0.06079317256808281
4.0,0.06032799184322357
5.0,0.05985700339078903
6.0,0.059388577938079834
7.0,0.05891723930835724
8.0,0.05845166742801666
9.0,0.057990480214357376
10.0,0.057551756501197815
11.0,0.05711682513356209
12.0,0.056682512164115906
13.0,0.05625997856259346
14.0,0.05584351718425751
15.0,0.055437590926885605
16.0,0.055035386234521866
18.0,0.05425494164228439
20.0,0.05347916856408119
22.0,0.05271138995885849
24.0,0.051960743963718414
26.0,0.05122395232319832
28.0,0.05050096660852432
30.0,0.049808528274297714
32.0,0.04911186918616295
36.0,0.0477653406560421
40.0,0.04646693542599678
44.0,0.0452328622341156
48.0,0.044064901769161224
52.0,0.04291960597038269
56.0,0.041783593595027924
60.0,0.04062493517994881
64.0,0.03951166942715645
72.0,0.037360064685344696
80.0,0.035302355885505676
88.0,0.03332173451781273
96.0,0.03152326121926308
104.0,0.029946904629468918
112.0,0.02868577092885971
120.0,0.02779034525156021
128.0,0.027087224647402763
144.0,0.02583586983382702
160.0,0.02429458685219288
176.0,0.022768020629882812
192.0,0.021444329991936684
208.0,0.02053944021463394
224.0,0.019479194656014442
240.0,0.018041199073195457
256.0,0.016753096133470535
288.0,0.015193941071629524
320.0,0.013985962606966496
352.0,0.0130559541285038
384.0,0.011872502975165844
416.0,0.010518268682062626
448.0,0.010220592841506004
480.0,0.009519967250525951
512.0,0.008839295245707035
576.0,0.00924206804484129
640.0,0.010194763541221619
704.0,0.011458376422524452
768.0,0.013054379262030125
832.0,0.01627587527036667
896.0,0.01719161868095398
960.0,0.01689506322145462
1024.0,0.014261262491345406
1152.0,0.01205447781831026
1280.0,0.01174742542207241
1408.0,0.007604985497891903
1536.0,0.004030840005725622
1664.0,0.00604659179225564
1792.0,0.007522670552134514
1920.0,0.00713728554546833
2048.0,0.006689181551337242
2304.0,0.0019613138865679502
2560.0,0.0005460579413920641
2816.0,0.004120263736695051
3072.0,-0.0006954485434107482
3328.0,-0.002486108336597681
3584.0,-0.004916200879961252
3840.0,-0.012618803419172764
4096.0,-0.008330983109772205
4608.0,-0.01465034019201994
5120.0,-0.017670609056949615
5632.0,-0.012954570353031158
6144.0,-0.012505502440035343
6656.0,-0.011170752346515656
7168.0,-0.008983668871223927
7680.0,-0.0063630579970777035
8192.0,-0.003919985610991716
9216.0,0.0022874590940773487
10240.0,0.005143404472619295
11264.0,0.00542956730350852
12288.0,0.006832627113908529
13312.0,0.0038397302851080894
14336.0,0.003550187684595585
end
