version,3.0
numOfCh,1
type,point
parent_name,10-cuts
ch_type,1_1
kcount,1
numberNandB,1
brightnessNandB,1
carpet pos,0
pc,0
Time (ms),CH1 Auto-Correlation
1.0,0.03467155620455742
2.0,0.03445856645703316
3.0,0.034245848655700684
4.0,0.034032806754112244
5.0,0.03381563723087311
6.0,0.03359666094183922
7.0,0.03337600827217102
8.0,0.03315548226237297
9.0,0.03294254466891289
10.0,0.03273072466254234
11.0,0.03252130746841431
12.0,0.03231501951813698
13.0,0.03211195766925812
14.0,0.03190818056464195
15.0,0.031709399074316025
16.0,0.03150482848286629
18.0,0.03110865131020546
20.0,0.030721968039870262
22.0,0.030339596793055534
24.0,0.029957637190818787
26.0,0.02959519624710083
28.0,0.02924829162657261
30.0,0.028909869492053986
32.0,0.028581025078892708
36.0,0.027947107329964638
40.0,0.02735794708132744
44.0,0.026815570890903473
48.0,0.026298251003026962
52.0,0.025798790156841278
56.0,0.025338497012853622
60.0,0.024881135672330856
64.0,0.024414289742708206
72.0,0.02354017086327076
80.0,0.022761676460504532
88.0,0.02202768623828888
96.0,0.02133733034133911
104.0,0.020774660632014275
112.0,0.020290924236178398
120.0,0.019821826368570328
128.0,0.019317345693707466
144.0,0.01834660954773426
160.0,0.017682388424873352
176.0,0.01712372526526451
192.0,0.01663808710873127
208.0,0.016138002276420593
224.0,0.015727411955595016
240.0,0.015521836467087269
256.0,0.015252288430929184
288.0,0.014403140172362328
320.0,0.013550926931202412
352.0,0.012879328802227974
384.0,0.012296357192099094
416.0,0.011723456904292107
448.0,0.011480787768959999
480.0,0.01088765449821949
512.0,0.009867344982922077
576.0,0.00832931324839592
640.0,0.007273396011441946
704.0,0.0062455772422254086
768.0,0.00481925904750824
832.0,0.0035754339769482613
896.0,0.0030266200192272663
960.0,0.0015866252360865474
1024.0,-0.0010054269805550575
1152.0,-0.003542341059073806
1280.0,-0.003911122214049101
1408.0,-0.005219852086156607
1536.0,-0.00553580978885293
1664.0,-0.006279031280428171
1792.0,-0.004765528254210949
1920.0,-0.003098087152466178
2048.0,-0.003603119170293212
2304.0,-0.003548586741089821
2560.0,-0.00626139622181654
2816.0,-0.00422975979745388
3072.0,-0.0034541217610239983
3328.0,-0.0028392993845045567
3584.0,-4.148905645706691e-05
3840.0,0.0015937720891088247
4096.0,0.003936734050512314
4608.0,0.004034209530800581
5120.0,0.0035866929683834314
5632.0,0.001118988380767405
6144.0,-0.002626399975270033
6656.0,-0.004431403707712889
7168.0,-0.005342749413102865
7680.0,-0.005266878288239241
8192.0,-0.0021395592484623194
9216.0,-0.0010179131058976054
10240.0,-0.0005070511833764613
11264.0,-0.006472775246948004
12288.0,-0.009917959570884705
13312.0,0.012036253698170185
14336.0,0.01697728782892227
end
