version,3.0
numOfCh,1
type,point
parent_name,10-cuts
ch_type,1_1
kcount,1
numberNandB,1
brightnessNandB,1
carpet pos,0
pc,0
Time (ms),CH1 Auto-Correlation
1.0,0.047266457229852676
2.0,0.046824295073747635
3.0,0.046386707574129105
4.0,0.04594583809375763
5.0,0.04550158232450485
6.0,0.04508163779973984
7.0,0.04466691240668297
8.0,0.044267088174819946
9.0,0.04387527331709862
10.0,0.04347459599375725
11.0,0.04308214411139488
12.0,0.042701415717601776
13.0,0.04232184961438179
14.0,0.041940271854400635
15.0,0.04157428815960884
16.0,0.04120263829827309
18.0,0.04050321504473686
20.0,0.03980966657400131
22.0,0.03913797065615654
24.0,0.03849373012781143
26.0,0.03788912668824196
28.0,0.03732947260141373
30.0,0.036794353276491165
32.0,0.036296408623456955
36.0,0.03539254516363144
40.0,0.03452455997467041
44.0,0.03371385484933853
48.0,0.032916076481342316
52.0,0.032140541821718216
56.0,0.031443171203136444
60.0,0.030800310894846916
64.0,0.030208667740225792
72.0,0.02910044603049755
80.0,0.027964234352111816
88.0,0.026822878047823906
96.0,0.025798805058002472
104.0,0.02491641975939274
112.0,0.02432909421622753
120.0,0.023880744352936745
128.0,0.023330040276050568
144.0,0.022170746698975563
160.0,0.020918363705277443
176.0,0.019729923456907272
192.0,0.018965421244502068
208.0,0.018065107986330986
224.0,0.016642114147543907
240.0,0.015414641238749027
256.0,0.014636886306107044
288.0,0.012137331999838352
320.0,0.010873822495341301
352.0,0.009733814746141434
384.0,0.008545001037418842
416.0,0.007922914810478687
448.0,0.007950198836624622
480.0,0.007326062303036451
512.0,0.006833305116742849
576.0,0.005443786270916462
640.0,0.004805534612387419
704.0,0.005471664946526289
768.0,0.005831806920468807
832.0,0.004557922948151827
896.0,0.001922729890793562
960.0,-0.0001461776118958369
1024.0,-0.0015445784665644169
1152.0,-0.0017543990397825837
1280.0,-0.0008783754892647266
1408.0,-0.0029627929907292128
1536.0,-0.006002024281769991
1664.0,-0.009271634742617607
1792.0,-0.010426380671560764
1920.0,-0.009226586669683456
2048.0,-0.01022982969880104
2304.0,-0.00944694597274065
2560.0,-0.007443115580826998
2816.0,-0.005109820514917374
3072.0,-0.0050138686783611774
3328.0,-0.004722006153315306
3584.0,-0.0014749992405995727
3840.0,0.003820674028247595
4096.0,0.004435351584106684
4608.0,-0.0006000949651934206
5120.0,0.0031157953198999166
5632.0,0.0012170005356892943
6144.0,-0.0002013450430240482
6656.0,-0.0018599064787849784
7168.0,0.0017778909532353282
7680.0,-0.00226728362031281
8192.0,-0.0023198495618999004
9216.0,0.009178376756608486
10240.0,0.0012748207664117217
11264.0,-0.008442681282758713
12288.0,-0.011294030584394932
13312.0,0.00908354576677084
14336.0,0.004628910683095455
end
