version,3.0
numOfCh,1
type,point
parent_name,10-cuts
ch_type,1_1
kcount,1
numberNandB,1
brightnessNandB,1
carpet pos,0
pc,0
Time (ms),CH1 Auto-Correlation
1.0,0.024711092934012413
2.0,0.024477096274495125
3.0,0.024241967126727104
4.0,0.024013403803110123
5.0,0.023791935294866562
6.0,0.023572152480483055
7.0,0.02334919013082981
8.0,0.023124590516090393
9.0,0.022903291508555412
10.0,0.022684814408421516
11.0,0.02247079648077488
12.0,0.022262737154960632
13.0,0.022059503942728043
14.0,0.02186460793018341
15.0,0.02167494408786297
16.0,0.021491188555955887
18.0,0.021137846633791924
20.0,0.02079356089234352
22.0,0.020448599010705948
24.0,0.02011053077876568
26.0,0.01977745071053505
28.0,0.019458098337054253
30.0,0.01915682852268219
32.0,0.01886170171201229
36.0,0.018317420035600662
40.0,0.017795659601688385
44.0,0.017312945798039436
48.0,0.016857799142599106
52.0,0.016440149396657944
56.0,0.016021886840462685
60.0,0.015589520335197449
64.0,0.015174111351370811
72.0,0.014444070868194103
80.0,0.01381740253418684
88.0,0.013249266892671585
96.0,0.012696237303316593
104.0,0.012149347923696041
112.0,0.011769291944801807
120.0,0.011416219174861908
128.0,0.01106675248593092
144.0,0.010310056619346142
160.0,0.009466101415455341
176.0,0.008656084537506104
192.0,0.007835572585463524
208.0,0.007218035403639078
224.0,0.006864701397716999
240.0,0.006635261233896017
256.0,0.006512438878417015
288.0,0.006145473103970289
320.0,0.005640625953674316
352.0,0.005559147335588932
384.0,0.005408845376223326
416.0,0.005488245282322168
448.0,0.004935223609209061
480.0,0.004072089213877916
512.0,0.0028860692400485277
576.0,0.0003528281522449106
640.0,-0.0008802496595308185
704.0,-0.0011630564695224166
768.0,-0.0018330970779061317
832.0,-0.002140618860721588
896.0,-0.0022385618649423122
960.0,-0.002153666689991951
1024.0,-0.0017605986213311553
1152.0,-0.0004809546226169914
1280.0,-0.0011202347232028842
1408.0,-0.0007009080145508051
1536.0,-0.0005530159687623382
1664.0,-0.0007748784846626222
1792.0,-0.0003913166292477399
1920.0,0.0004382092447485775
2048.0,0.0001354152918793261
2304.0,2.7866000891663134e-05
2560.0,-0.00014939060201868415
2816.0,-0.0015682436060160398
3072.0,-3.9719911001157016e-05
3328.0,0.001099043875001371
3584.0,0.0014676483115181327
3840.0,-0.0012256285408511758
4096.0,-0.003198114689439535
4608.0,-0.004464383702725172
5120.0,-0.00010504554666113108
5632.0,-0.0019401205936446786
6144.0,-0.0009136633016169071
6656.0,-0.001525726169347763
7168.0,-0.0016045578522607684
7680.0,-0.000858246348798275
8192.0,-0.0009080536547116935
9216.0,-0.0008596464758738875
10240.0,0.006637348793447018
11264.0,-0.0033834963105618954
12288.0,0.006542734801769257
13312.0,0.0018728619907051325
14336.0,-0.018436249345541
end
