version,3.0
numOfCh,1
type,point
parent_name,10-cuts
ch_type,1_1
kcount,1
numberNandB,1
brightnessNandB,1
carpet pos,0
pc,0
Time (ms),CH1 Auto-Correlation
1.0,0.025584101676940918
2.0,0.025358106940984726
3.0,0.02513681910932064
4.0,0.024921828880906105
5.0,0.024711137637495995
6.0,0.024504411965608597
7.0,0.024304188787937164
8.0,0.024100232869386673
9.0,0.023900754749774933
10.0,0.023702124133706093
11.0,0.023496678099036217
12.0,0.023294765502214432
13.0,0.023099133744835854
14.0,0.02291162684559822
15.0,0.022729573771357536
16.0,0.022556710988283157
18.0,0.02222481369972229
20.0,0.021892821416258812
22.0,0.021558333188295364
24.0,0.021220708265900612
26.0,0.02089114487171173
28.0,0.020557429641485214
30.0,0.020232487469911575
32.0,0.019910700619220734
36.0,0.01928689517080784
40.0,0.01870502531528473
44.0,0.018166089430451393
48.0,0.017667919397354126
52.0,0.017177119851112366
56.0,0.016650762408971786
60.0,0.016132859513163567
64.0,0.01567087136209011
72.0,0.014821707271039486
80.0,0.014062493108212948
88.0,0.013455736450850964
96.0,0.012850526720285416
104.0,0.012189830653369427
112.0,0.011473668739199638
120.0,0.010802356526255608
128.0,0.010257822461426258
144.0,0.009511771611869335
160.0,0.008989192545413971
176.0,0.008568871766328812
192.0,0.008135282434523106
208.0,0.0076055084355175495
224.0,0.007177698891609907
240.0,0.006760912947356701
256.0,0.006121245212852955
288.0,0.004606353584676981
320.0,0.003965327050536871
352.0,0.0041565741412341595
384.0,0.003914884757250547
416.0,0.00401926226913929
448.0,0.0039021060802042484
480.0,0.0037904067430645227
512.0,0.0039478871040046215
576.0,0.003911792766302824
640.0,0.004457150585949421
704.0,0.0041518434882164
768.0,0.003613400738686323
832.0,0.0028763138689100742
896.0,0.0012588995741680264
960.0,-0.0007218383834697306
1024.0,-0.0006778528331778944
1152.0,-0.0001653020444791764
1280.0,-6.865512841613963e-05
1408.0,-0.0018097489373758435
1536.0,-0.004368219058960676
1664.0,-0.004877245053648949
1792.0,-0.0036824217531830072
1920.0,-0.002384781837463379
2048.0,-0.0029670814983546734
2304.0,-0.005801834166049957
2560.0,-0.0034046764485538006
2816.0,-0.002728339983150363
3072.0,-0.00016222729755099863
3328.0,1.2383571856844355e-06
3584.0,-0.0011784821981564164
3840.0,0.0022282435093075037
4096.0,2.5795479814405553e-05
4608.0,0.0009541959152556956
5120.0,-0.002900373889133334
5632.0,-4.0450286178383976e-05
6144.0,0.0007540885708294809
6656.0,0.0029408736154437065
7168.0,0.0007183091365732253
7680.0,0.0030853012576699257
8192.0,-0.004282595589756966
9216.0,-0.0022911694832146168
10240.0,0.001129184034653008
11264.0,0.00201616995036602
12288.0,-0.0004392002592794597
13312.0,-0.003939778544008732
14336.0,0.0023208470083773136
end
