version,3.0
numOfCh,1
type,point
parent_name,10-cuts
ch_type,1_1
kcount,1
numberNandB,1
brightnessNandB,1
carpet pos,0
pc,0
Time (ms),CH1 Auto-Correlation
1.0,0.09450243413448334
2.0,0.0939059779047966
3.0,0.09329923242330551
4.0,0.09269263595342636
5.0,0.09209179133176804
6.0,0.09151097387075424
7.0,0.09093131870031357
8.0,0.09036986529827118
9.0,0.0898141860961914
10.0,0.08927948772907257
11.0,0.08874515444040298
12.0,0.08821485191583633
13.0,0.08768417686223984
14.0,0.08716601133346558
15.0,0.0866636261343956
16.0,0.08616862446069717
18.0,0.08518539369106293
20.0,0.08423114567995071
22.0,0.08332394063472748
24.0,0.08243432641029358
26.0,0.0815802663564682
28.0,0.0807594582438469
30.0,0.07996950298547745
32.0,0.07925333082675934
36.0,0.07785238325595856
40.0,0.07654565572738647
44.0,0.07529792189598083
48.0,0.07409496605396271
52.0,0.07298356294631958
56.0,0.07199794054031372
60.0,0.0711093544960022
64.0,0.07025419175624847
72.0,0.06855419278144836
80.0,0.06696576625108719
88.0,0.06555389612913132
96.0,0.06420503556728363
104.0,0.06296882033348083
112.0,0.061754778027534485
120.0,0.06070489436388016
128.0,0.059942226856946945
144.0,0.058512553572654724
160.0,0.05710092559456825
176.0,0.055756211280822754
192.0,0.05433839187026024
208.0,0.052534524351358414
224.0,0.050583578646183014
240.0,0.04895991086959839
256.0,0.047458238899707794
288.0,0.04404713213443756
320.0,0.04025113955140114
352.0,0.03644149377942085
384.0,0.0328180305659771
416.0,0.030333906412124634
448.0,0.02745320461690426
480.0,0.0243719182908535
512.0,0.021890807896852493
576.0,0.018876174464821815
640.0,0.01646212302148342
704.0,0.01406597625464201
768.0,0.010259074158966541
832.0,0.007892965339124203
896.0,0.006158794276416302
960.0,0.005644091870635748
1024.0,0.003734746016561985
1152.0,0.003089655889198184
1280.0,-0.0018928771605715156
1408.0,-0.003942543640732765
1536.0,-0.005668854806572199
1664.0,-0.008576164953410625
1792.0,-0.016414273530244827
1920.0,-0.021848395466804504
2048.0,-0.026976047083735466
2304.0,-0.022566085681319237
2560.0,-0.015815990045666695
2816.0,-0.014232860878109932
3072.0,-0.005229050759226084
3328.0,0.013095473870635033
3584.0,0.021365631371736526
3840.0,0.01760789006948471
4096.0,0.016163066029548645
4608.0,0.01575489714741707
5120.0,0.003424355061724782
5632.0,-0.012255574576556683
6144.0,-0.028424302116036415
6656.0,-0.011915195733308792
7168.0,0.011096721515059471
7680.0,0.006608400959521532
8192.0,0.02231721766293049
9216.0,-0.023838602006435394
10240.0,-0.03213578835129738
11264.0,-0.010564086027443409
12288.0,0.013282283209264278
13312.0,-0.031221063807606697
14336.0,-0.0013047364773228765
end
