version,3.0
numOfCh,1
type,point
parent_name,10-cuts
ch_type,1_1
kcount,1
numberNandB,1
brightnessNandB,1
carpet pos,0
pc,0
Time (ms),CH1 Auto-Correlation
1.0,0.0454137809574604
2.0,0.04494013264775276
3.0,0.04447733238339424
4.0,0.04401742294430733
5.0,0.043556082993745804
6.0,0.04309804365038872
7.0,0.042647670954465866
8.0,0.042188603430986404
9.0,0.041741639375686646
10.0,0.04129842668771744
11.0,0.04085943102836609
12.0,0.040431082248687744
13.0,0.04001132398843765
14.0,0.03959910199046135
15.0,0.039197392761707306
16.0,0.0388067252933979
18.0,0.03806249052286148
20.0,0.037345368415117264
22.0,0.03665066510438919
24.0,0.035968415439128876
26.0,0.0353112667798996
28.0,0.0346672423183918
30.0,0.03402433171868324
32.0,0.03340551257133484
36.0,0.03228117898106575
40.0,0.031236743554472923
44.0,0.0302507895976305
48.0,0.029320549219846725
52.0,0.028387753292918205
56.0,0.027478700503706932
60.0,0.026622876524925232
64.0,0.025869587436318398
72.0,0.02457442134618759
80.0,0.023335875943303108
88.0,0.02217932604253292
96.0,0.021223101764917374
104.0,0.02033941261470318
112.0,0.01950567588210106
120.0,0.018634717911481857
128.0,0.017764713615179062
144.0,0.016156138852238655
160.0,0.01438345666974783
176.0,0.012897743843495846
192.0,0.012133649550378323
208.0,0.011562244966626167
224.0,0.010783637873828411
240.0,0.010191363282501698
256.0,0.009798026643693447
288.0,0.008072027005255222
320.0,0.007094599772244692
352.0,0.006979838944971561
384.0,0.0063863396644592285
416.0,0.007035029120743275
448.0,0.008763796649873257
480.0,0.010148130357265472
512.0,0.010271092876791954
576.0,0.009125237353146076
640.0,0.006643181201070547
704.0,0.0033885182347148657
768.0,0.00043881128658540547
832.0,-0.0012072795070707798
896.0,-0.0019159943331032991
960.0,-0.0025902411434799433
1024.0,-0.0015729975420981646
1152.0,-0.0008736232994124293
1280.0,-0.004234107211232185
1408.0,-0.006614907179027796
1536.0,-0.006598394364118576
1664.0,0.0012446767650544643
1792.0,0.0008281331975013018
1920.0,0.002045014640316367
2048.0,-0.0016544345999136567
2304.0,-0.0005635932320728898
2560.0,-0.004409394692629576
2816.0,-0.0032425327226519585
3072.0,-0.00700958538800478
3328.0,-0.003514966694638133
3584.0,-0.006368581205606461
3840.0,-0.0022718568798154593
4096.0,-0.0008333501755259931
4608.0,-0.0043949889950454235
5120.0,-0.004179046023637056
5632.0,0.0015567239606752992
6144.0,0.0018503243336454034
6656.0,-0.0034222695976495743
7168.0,-0.0002700998156797141
7680.0,-0.0005604312755167484
8192.0,0.0015942641766741872
9216.0,0.006765967234969139
10240.0,0.005618391092866659
11264.0,-0.0031920697074383497
12288.0,-0.009920126758515835
13312.0,-0.003839026438072324
14336.0,-0.021944789215922356
end
