version,3.0
numOfCh,1
type,point
parent_name,10-cuts
ch_type,1_1
kcount,1
numberNandB,1
brightnessNandB,1
carpet pos,0
pc,0
Time (ms),CH1 Auto-Correlation
1.0,0.05746348574757576
2.0,0.05701921135187149
3.0,0.056565750390291214
4.0,0.05610307678580284
5.0,0.055631123483181
6.0,0.05515969544649124
7.0,0.054709870368242264
8.0,0.054279666393995285
9.0,0.05384833365678787
10.0,0.05342291295528412
11.0,0.05299891158938408
12.0,0.052575793117284775
13.0,0.05215567722916603
14.0,0.051746632903814316
15.0,0.051326997578144073
16.0,0.05091133341193199
18.0,0.05009130388498306
20.0,0.04928828775882721
22.0,0.048495691269636154
24.0,0.04771455377340317
26.0,0.04695703089237213
28.0,0.046227630227804184
30.0,0.045510370284318924
32.0,0.04480249434709549
36.0,0.04335850104689598
40.0,0.04202672839164734
44.0,0.04072863608598709
48.0,0.03945457935333252
52.0,0.03826706483960152
56.0,0.037083595991134644
60.0,0.03591259941458702
64.0,0.03477444872260094
72.0,0.032691892236471176
80.0,0.03074757568538189
88.0,0.02910497784614563
96.0,0.02774188667535782
104.0,0.02645036019384861
112.0,0.025145379826426506
120.0,0.023837868124246597
128.0,0.022627003490924835
144.0,0.020535068586468697
160.0,0.018574904650449753
176.0,0.01649811863899231
192.0,0.014833340421319008
208.0,0.013270234689116478
224.0,0.011479677632451057
240.0,0.009941051714122295
256.0,0.008666087873280048
288.0,0.005546362139284611
320.0,0.0031299281399697065
352.0,0.0012861443683505058
384.0,0.001013871980831027
416.0,0.0016677852254360914
448.0,0.0014143328880891204
480.0,0.0016910883132368326
512.0,0.0012049856595695019
576.0,-0.0005526802269741893
640.0,-0.0013256263919174671
704.0,-0.0039324150420725346
768.0,-0.008482205681502819
832.0,-0.009377731010317802
896.0,-0.007994027808308601
960.0,-0.006685897242277861
1024.0,-0.004535229876637459
1152.0,-0.00037967684329487383
1280.0,-0.00035773072158917785
1408.0,-0.002193971537053585
1536.0,-0.002491325605660677
1664.0,-0.0008263518684543669
1792.0,-0.002001739339902997
1920.0,-0.001697226776741445
2048.0,-0.0020371016580611467
2304.0,-0.002245937241241336
2560.0,-0.008312549442052841
2816.0,-0.004341471940279007
3072.0,-0.009052945300936699
3328.0,-0.0005872251931577921
3584.0,0.0018738540820777416
3840.0,-0.00436027254909277
4096.0,0.0006879216525703669
4608.0,0.00037684201379306614
5120.0,0.014765040017664433
5632.0,0.004950603935867548
6144.0,-0.0006206089165061712
6656.0,8.073088974924758e-05
7168.0,-0.007410168182104826
7680.0,-0.0016176615608856082
8192.0,-0.007590400520712137
9216.0,0.0028173080645501614
10240.0,0.0032410251442342997
11264.0,0.00019265009905211627
12288.0,-0.004972630180418491
13312.0,0.00016811414388939738
14336.0,0.0033416899386793375
end
