version,3.0
numOfCh,1
type,point
parent_name,10-cuts
ch_type,1_1
kcount,1
numberNandB,1
brightnessNandB,1
carpet pos,0
pc,0
Time (ms),CH1 Auto-Correlation
1.0,0.053402166813611984
2.0,0.05299048125743866
3.0,0.05258048698306084
4.0,0.05218050628900528
5.0,0.051782529801130295
6.0,0.0513845719397068
7.0,0.05099640041589737
8.0,0.050620485097169876
9.0,0.050253864377737045
10.0,0.0498884879052639
11.0,0.049530524760484695
12.0,0.04917498677968979
13.0,0.04881685972213745
14.0,0.04845890402793884
15.0,0.04810343310236931
16.0,0.04775706306099892
18.0,0.04708734154701233
20.0,0.04642632603645325
22.0,0.04577792435884476
24.0,0.04514603316783905
26.0,0.04450759291648865
28.0,0.0438627153635025
30.0,0.043220214545726776
32.0,0.04258991405367851
36.0,0.04142710939049721
40.0,0.04034434258937836
44.0,0.03928361460566521
48.0,0.038248006254434586
52.0,0.03723698481917381
56.0,0.03626909852027893
60.0,0.03533461317420006
64.0,0.034454431384801865
72.0,0.03282582759857178
80.0,0.0313245952129364
88.0,0.029897894710302353
96.0,0.02857905998826027
104.0,0.027323124930262566
112.0,0.026276545599102974
120.0,0.025362374261021614
128.0,0.024452123790979385
144.0,0.023036524653434753
160.0,0.021893996745347977
176.0,0.021100515499711037
192.0,0.020551243796944618
208.0,0.02037726156413555
224.0,0.01977202668786049
240.0,0.019091369584202766
256.0,0.018950434401631355
288.0,0.017874065786600113
320.0,0.016333894804120064
352.0,0.01598009467124939
384.0,0.015405247919261456
416.0,0.013929330743849277
448.0,0.011684566736221313
480.0,0.010378754697740078
512.0,0.009719924069941044
576.0,0.009282856248319149
640.0,0.00775644788518548
704.0,0.006660973187536001
768.0,0.004663337487727404
832.0,0.0013158733490854502
896.0,-0.00268783001229167
960.0,-0.0012579866452142596
1024.0,0.002020296175032854
1152.0,0.00424405001103878
1280.0,0.005898003466427326
1408.0,0.008623167872428894
1536.0,0.005731255281716585
1664.0,0.00289746280759573
1792.0,0.0023796074092388153
1920.0,-0.0004229920159559697
2048.0,-0.0011612266534939408
2304.0,-0.007258791476488113
2560.0,-0.006166012492030859
2816.0,-0.007249173708260059
3072.0,-0.003355745691806078
3328.0,-0.0033724848181009293
3584.0,-0.004988908302038908
3840.0,-0.0036863682325929403
4096.0,-0.006873542908579111
4608.0,-0.00825415924191475
5120.0,0.0037585918325930834
5632.0,0.003182266606017947
6144.0,0.0014687280636280775
6656.0,0.00573125621303916
7168.0,0.004250834695994854
7680.0,-0.00477717025205493
8192.0,-0.002935684286057949
9216.0,0.009968987666070461
10240.0,0.003671340411528945
11264.0,-0.008944423869252205
12288.0,-0.006633527111262083
13312.0,-0.02482115849852562
14336.0,-0.00753809092566371
end
