version,3.0
numOfCh,1
type,point
parent_name,10-cuts
ch_type,1_1
kcount,1
numberNandB,1
brightnessNandB,1
carpet pos,0
pc,0
Time (ms),CH1 Auto-Correlation
1.0,0.09836460649967194
2.0,0.09777803719043732
3.0,0.097202830016613
4.0,0.09665510058403015
5.0,0.0961202085018158
6.0,0.09556858986616135
7.0,0.09501621127128601
8.0,0.09448469430208206
9.0,0.09396203607320786
10.0,0.09344246983528137
11.0,0.09292595833539963
12.0,0.09240374714136124
13.0,0.09189624339342117
14.0,0.09139754623174667
15.0,0.09091305732727051
16.0,0.09043780714273453
18.0,0.08949800580739975
20.0,0.08859409391880035
22.0,0.08772902190685272
24.0,0.08691146224737167
26.0,0.08613143116235733
28.0,0.08534139394760132
30.0,0.08458413183689117
32.0,0.08385500311851501
36.0,0.08248783648014069
40.0,0.08124127238988876
44.0,0.08006425201892853
48.0,0.07893887162208557
52.0,0.07787130773067474
56.0,0.07681217789649963
60.0,0.075724758207798
64.0,0.07459141314029694
72.0,0.07232999056577682
80.0,0.07000105082988739
88.0,0.06776811927556992
96.0,0.06566710025072098
104.0,0.06372659653425217
112.0,0.0616755448281765
120.0,0.059700459241867065
128.0,0.05775538086891174
144.0,0.05393083766102791
160.0,0.050354402512311935
176.0,0.04746130853891373
192.0,0.04456409811973572
208.0,0.041412901133298874
224.0,0.03893957659602165
240.0,0.03688511624932289
256.0,0.03437016159296036
288.0,0.02912762761116028
320.0,0.02405586838722229
352.0,0.019268903881311417
384.0,0.01507531013339758
416.0,0.01117849349975586
448.0,0.006732650566846132
480.0,0.0036827728617936373
512.0,0.0018452908843755722
576.0,-0.0039247688837349415
640.0,-0.010025863535702229
704.0,-0.013263585977256298
768.0,-0.014114712364971638
832.0,-0.012530933134257793
896.0,-0.008043518289923668
960.0,-0.003921356983482838
1024.0,-0.001082677743397653
1152.0,0.0025483823847025633
1280.0,0.005316498689353466
1408.0,0.007932507432997227
1536.0,0.009062539786100388
1664.0,0.008389120921492577
1792.0,-0.000935542571824044
1920.0,-0.007353053893893957
2048.0,-0.016471022740006447
2304.0,-0.015003434382379055
2560.0,-0.007209029048681259
2816.0,-0.0033570798113942146
3072.0,-0.004470970015972853
3328.0,-0.005892919842153788
3584.0,0.009509142488241196
3840.0,0.023014910519123077
4096.0,0.008142729289829731
4608.0,-0.02951391041278839
5120.0,-0.0097277220338583
5632.0,2.5557383196428418e-05
6144.0,-0.021743830293416977
6656.0,-0.002160127041861415
7168.0,0.007423081435263157
7680.0,0.012740918435156345
8192.0,-0.000841642904561013
9216.0,0.008007761090993881
10240.0,-0.006347863003611565
11264.0,0.005700843408703804
12288.0,0.0033190527465194464
13312.0,-0.006658199243247509
14336.0,-0.014040187001228333
end
