version,3.0
numOfCh,1
type,point
parent_name,10-cuts
ch_type,1_1
kcount,1
numberNandB,1
brightnessNandB,1
carpet pos,0
pc,0
Time (ms),CH1 Auto-Correlation
1.0,0.024652356281876564
2.0,0.02443680167198181
3.0,0.02422371320426464
4.0,0.02401333674788475
5.0,0.02381165884435177
6.0,0.023614851757884026
7.0,0.02342521771788597
8.0,0.02324129268527031
9.0,0.023058976978063583
10.0,0.022876372560858727
11.0,0.022696642205119133
12.0,0.022521821781992912
13.0,0.022351402789354324
14.0,0.022187210619449615
15.0,0.02203238010406494
16.0,0.021881839260458946
18.0,0.02158992365002632
20.0,0.02130911685526371
22.0,0.02104461006820202
24.0,0.020784905180335045
26.0,0.02052731066942215
28.0,0.020268186926841736
30.0,0.020009048283100128
32.0,0.01974939927458763
36.0,0.019258251413702965
40.0,0.018806571140885353
44.0,0.0183499064296484
48.0,0.01788371242582798
52.0,0.017419839277863503
56.0,0.016953445971012115
60.0,0.016504434868693352
64.0,0.016071515157818794
72.0,0.015255413018167019
80.0,0.014431292191147804
88.0,0.01364394836127758
96.0,0.012917015701532364
104.0,0.012247235514223576
112.0,0.011589158326387405
120.0,0.010984956286847591
128.0,0.01030207984149456
144.0,0.009016482159495354
160.0,0.008178815245628357
176.0,0.007624362595379353
192.0,0.006940929219126701
208.0,0.006366975139826536
224.0,0.00598786398768425
240.0,0.005701365880668163
256.0,0.005528316833078861
288.0,0.005081809125840664
320.0,0.004791185259819031
352.0,0.004261266440153122
384.0,0.0034194975160062313
416.0,0.002217791276052594
448.0,0.0010930955177173018
480.0,-2.122518708347343e-06
512.0,-0.000757063739001751
576.0,-0.0027156397700309753
640.0,-0.004290928598493338
704.0,-0.005900304764509201
768.0,-0.006436692550778389
832.0,-0.005515668075531721
896.0,-0.00407047476619482
960.0,-0.0034022119361907244
1024.0,-0.0020885239355266094
1152.0,0.0019240810070186853
1280.0,0.003225562162697315
1408.0,0.0033628279343247414
1536.0,0.004067099187523127
1664.0,0.0034177934285253286
1792.0,0.0020874226465821266
1920.0,0.0006494827102869749
2048.0,-0.0004864601942244917
2304.0,-0.00045138236600905657
2560.0,-0.0010499495547264814
2816.0,0.0010872865095734596
3072.0,0.001082389266230166
3328.0,0.0004062647058162838
3584.0,0.0005385991535149515
3840.0,0.0005405565025284886
4096.0,0.001005907659418881
4608.0,-8.072223863564432e-05
5120.0,0.0012015474494546652
5632.0,-0.0016376730054616928
6144.0,0.0006506959325633943
6656.0,-0.0013575321063399315
7168.0,-0.002691048663109541
7680.0,-0.0019527337281033397
8192.0,-0.0010415589204058051
9216.0,-0.003500795690342784
10240.0,0.0017511784099042416
11264.0,-0.001597516005858779
12288.0,-0.0061059147119522095
13312.0,-0.0011402844684198499
14336.0,0.0032105848658829927
end
