version,3.0
numOfCh,1
type,point
parent_name,10-cuts
ch_type,1_1
kcount,1
numberNandB,1
brightnessNandB,1
carpet pos,0
pc,0
Time (ms),CH1 Auto-Correlation
1.0,0.03244858980178833
2.0,0.03225134685635567
3.0,0.032052453607320786
4.0,0.03185426443815231
5.0,0.03165217861533165
6.0,0.03145639970898628
7.0,0.031262870877981186
8.0,0.031071381643414497
9.0,0.030880512669682503
10.0,0.030688749626278877
11.0,0.030496329069137573
12.0,0.0303002018481493
13.0,0.030111558735370636
14.0,0.029922639951109886
15.0,0.029735304415225983
16.0,0.029551314190030098
18.0,0.029198113828897476
20.0,0.028861379250884056
22.0,0.028534362092614174
24.0,0.028209533542394638
26.0,0.027891263365745544
28.0,0.02757743000984192
30.0,0.02727293223142624
32.0,0.026988815516233444
36.0,0.02644442394375801
40.0,0.02593686245381832
44.0,0.02545810677111149
48.0,0.025014881044626236
52.0,0.024590734392404556
56.0,0.024188872426748276
60.0,0.023799311369657516
64.0,0.02343873493373394
72.0,0.022759441286325455
80.0,0.02212178148329258
88.0,0.02152256853878498
96.0,0.02098444476723671
104.0,0.020362576469779015
112.0,0.01968473196029663
120.0,0.019003506749868393
128.0,0.01836554706096649
144.0,0.017272837460041046
160.0,0.01645621657371521
176.0,0.01570183038711548
192.0,0.015016027726233006
208.0,0.014450084418058395
224.0,0.01390163041651249
240.0,0.013362035155296326
256.0,0.012768372893333435
288.0,0.01143088098615408
320.0,0.010321573354303837
352.0,0.009484095498919487
384.0,0.008874338120222092
416.0,0.008320201188325882
448.0,0.007665360812097788
480.0,0.0068638259544968605
512.0,0.005740514025092125
576.0,0.003659120760858059
640.0,0.0022967630065977573
704.0,0.0013859490863978863
768.0,0.0011130889179185033
832.0,0.0009604967199265957
896.0,0.0009053864632733166
960.0,-7.967666169861332e-05
1024.0,-0.002138325711712241
1152.0,-0.00318075530230999
1280.0,-0.0015585740329697728
1408.0,-0.001757231424562633
1536.0,-0.0008099550032056868
1664.0,-0.0009472228121012449
1792.0,-0.0005848863511346281
1920.0,0.0004282277950551361
2048.0,0.000950918416492641
2304.0,0.0014160794671624899
2560.0,0.0016570319421589375
2816.0,0.0014631510712206364
3072.0,-0.0007769088260829449
3328.0,-0.0011673604603856802
3584.0,-0.00026531543699093163
3840.0,0.0003520448808558285
4096.0,9.82108322205022e-05
4608.0,-0.00046040923916734755
5120.0,-0.0005789432907477021
5632.0,-0.0008765149395912886
6144.0,0.00010887580720009282
6656.0,0.0014866688288748264
7168.0,-0.00020930358732584864
7680.0,-0.005037721712142229
8192.0,-0.003120757406577468
9216.0,8.8999375293497e-05
10240.0,-0.003962366376072168
11264.0,-0.00505770742893219
12288.0,0.005031782668083906
13312.0,0.005853527225553989
14336.0,-0.017724985256791115
end
