version,3.0
numOfCh,1
type,point
parent_name,10-cuts
ch_type,1_1
kcount,1
numberNandB,1
brightnessNandB,1
carpet pos,0
pc,0
Time (ms),CH1 Auto-Correlation
1.0,0.07683968544006348
2.0,0.07628899812698364
3.0,0.0757574588060379
4.0,0.07522379606962204
5.0,0.07469271868467331
6.0,0.07415515929460526
7.0,0.0736236646771431
8.0,0.07309729605913162
9.0,0.07258559763431549
10.0,0.07208514958620071
11.0,0.07159154117107391
12.0,0.07111406326293945
13.0,0.07063822448253632
14.0,0.07017545402050018
15.0,0.06971750408411026
16.0,0.06927020102739334
18.0,0.06838393211364746
20.0,0.0675225704908371
22.0,0.06666459888219833
24.0,0.06580275297164917
26.0,0.06495174020528793
28.0,0.06411975622177124
30.0,0.0633416473865509
32.0,0.06255631148815155
36.0,0.060966912657022476
40.0,0.059457313269376755
44.0,0.05795037001371384
48.0,0.05643207207322121
52.0,0.054916344583034515
56.0,0.05354642868041992
60.0,0.052356548607349396
64.0,0.051178205758333206
72.0,0.04856649041175842
80.0,0.04605597257614136
88.0,0.043855272233486176
96.0,0.042019471526145935
104.0,0.040459707379341125
112.0,0.03904856741428375
120.0,0.03774498403072357
128.0,0.036590900272130966
144.0,0.03419607877731323
160.0,0.03214079886674881
176.0,0.03046272322535515
192.0,0.02896731346845627
208.0,0.02738082781434059
224.0,0.025864489376544952
240.0,0.02414744533598423
256.0,0.022094780579209328
288.0,0.018108610063791275
320.0,0.013972793705761433
352.0,0.011518505401909351
384.0,0.008960261940956116
416.0,0.005825393833220005
448.0,0.0026909078005701303
480.0,0.0012218125630170107
512.0,0.0005583594320341945
576.0,-0.0023525904398411512
640.0,-0.0054445089772343636
704.0,-0.006155922077596188
768.0,-0.009103137068450451
832.0,-0.009197226725518703
896.0,-0.009189989417791367
960.0,-0.008848793804645538
1024.0,-0.010684413835406303
1152.0,-0.008870408870279789
1280.0,-0.002292331075295806
1408.0,0.001120304106734693
1536.0,-0.0023269702214747667
1664.0,-0.004978948272764683
1792.0,-0.003506210632622242
1920.0,0.0006939233280718327
2048.0,0.0041780052706599236
2304.0,0.005732506513595581
2560.0,0.005358676891773939
2816.0,0.003230670467019081
3072.0,-0.012406492605805397
3328.0,-0.02243201620876789
3584.0,-0.014107071794569492
3840.0,-0.00449360441416502
4096.0,-0.0008736760937608778
4608.0,0.002733102533966303
5120.0,0.0048231203109025955
5632.0,-0.008003083057701588
6144.0,-0.008679011836647987
6656.0,-0.0023482434917241335
7168.0,0.011673931032419205
7680.0,0.00801024679094553
8192.0,-0.011905936524271965
9216.0,0.005208885297179222
10240.0,-0.007560683414340019
11264.0,-0.008151368238031864
12288.0,0.007561422418802977
13312.0,-0.0073352111503481865
14336.0,0.019985726103186607
end
