version,3.0
numOfCh,1
type,point
parent_name,10-cuts
ch_type,1_1
kcount,1
numberNandB,1
brightnessNandB,1
carpet pos,0
pc,0
Time (ms),CH1 Auto-Correlation
1.0,0.027601031586527824
2.0,0.027383610606193542
3.0,0.02716265246272087
4.0,0.0269443541765213
5.0,0.026723356917500496
6.0,0.026511745527386665
7.0,0.02629760652780533
8.0,0.02608398348093033
9.0,0.02587467059493065
10.0,0.02567250281572342
11.0,0.025472303852438927
12.0,0.025276940315961838
13.0,0.025085363537073135
14.0,0.024900613352656364
15.0,0.024720540270209312
16.0,0.024539515376091003
18.0,0.024187900125980377
20.0,0.02384723722934723
22.0,0.02351902797818184
24.0,0.02320391684770584
26.0,0.022899042814970016
28.0,0.02259681187570095
30.0,0.022288557142019272
32.0,0.021988224238157272
36.0,0.021384859457612038
40.0,0.020800000056624413
44.0,0.02023429423570633
48.0,0.019700657576322556
52.0,0.019231542944908142
56.0,0.018800150603055954
60.0,0.018408162519335747
64.0,0.01802162453532219
72.0,0.017288094386458397
80.0,0.016589930281043053
88.0,0.015933606773614883
96.0,0.01533461268991232
104.0,0.014726354740560055
112.0,0.014096450991928577
120.0,0.013513915240764618
128.0,0.01301455870270729
144.0,0.011847201734781265
160.0,0.010713632218539715
176.0,0.009649937972426414
192.0,0.008531969971954823
208.0,0.0075902994722127914
224.0,0.006814878433942795
240.0,0.006142609287053347
256.0,0.005690452642738819
288.0,0.004672628361731768
320.0,0.0034742236603051424
352.0,0.00238763983361423
384.0,0.0021658579353243113
416.0,0.0017697251169010997
448.0,0.0012375598307698965
480.0,0.00128136295825243
512.0,0.001564216217957437
576.0,0.0005721012130379677
640.0,9.072623652173206e-05
704.0,-0.00038547127041965723
768.0,-0.0010177050717175007
832.0,-0.0005021817050874233
896.0,-0.0001648570178076625
960.0,-6.199048948474228e-05
1024.0,0.00036500542773865163
1152.0,0.0017124913865700364
1280.0,0.0015167142264544964
1408.0,0.0008276651496998966
1536.0,-0.00035751317045651376
1664.0,0.001894884160719812
1792.0,0.001125330338254571
1920.0,-0.0006940423045307398
2048.0,-0.001884467783384025
2304.0,0.00178331951610744
2560.0,0.004473024979233742
2816.0,0.002892617369070649
3072.0,-0.0010858153691515326
3328.0,-0.00013115527690388262
3584.0,0.0004846805240958929
3840.0,-0.0022233750205487013
4096.0,-0.0030298943165689707
4608.0,-0.0005854072514921427
5120.0,0.004416272044181824
5632.0,-0.001256671384908259
6144.0,0.0006069981027394533
6656.0,-0.0011293445713818073
7168.0,0.0015011292416602373
7680.0,0.0008930321782827377
8192.0,-0.004536731168627739
9216.0,0.00022493544383905828
10240.0,0.0005365560646168888
11264.0,-0.002785363234579563
12288.0,-0.002826985903084278
13312.0,-0.01024242676794529
14336.0,-0.011982081457972527
end
