version,3.0
numOfCh,1
type,point
parent_name,10-cuts
ch_type,1_1
kcount,1
numberNandB,1
brightnessNandB,1
carpet pos,0
pc,0
Time (ms),CH1 Auto-Correlation
1.0,0.022843487560749054
2.0,0.02263646014034748
3.0,0.02243121899664402
4.0,0.022228552028536797
5.0,0.02203250303864479
6.0,0.021839749068021774
7.0,0.021652214229106903
8.0,0.021467987447977066
9.0,0.02128262259066105
10.0,0.02109702117741108
11.0,0.020916366949677467
12.0,0.020737512037158012
13.0,0.020559635013341904
14.0,0.020385323092341423
15.0,0.020214902237057686
16.0,0.02004299871623516
18.0,0.01969163492321968
20.0,0.019341954961419106
22.0,0.018997279927134514
24.0,0.01867244578897953
26.0,0.018366806209087372
28.0,0.0180658046156168
30.0,0.017772329971194267
32.0,0.01749146729707718
36.0,0.016947977244853973
40.0,0.016432296484708786
44.0,0.015956128016114235
48.0,0.015497981570661068
52.0,0.015036589466035366
56.0,0.014554554596543312
60.0,0.014086536131799221
64.0,0.01364901103079319
72.0,0.012813372537493706
80.0,0.012041003443300724
88.0,0.01134635042399168
96.0,0.010751849971711636
104.0,0.010209484025835991
112.0,0.00978356134146452
120.0,0.009385218843817711
128.0,0.009045304730534554
144.0,0.008621850050985813
160.0,0.008343399502336979
176.0,0.00802461989223957
192.0,0.007830611430108547
208.0,0.007595496717840433
224.0,0.007137711625546217
240.0,0.006450168788433075
256.0,0.005853037815541029
288.0,0.005371154751628637
320.0,0.005176664795726538
352.0,0.00531903887167573
384.0,0.005167188122868538
416.0,0.004599928855895996
448.0,0.0037828681524842978
480.0,0.0030248600523918867
512.0,0.0024821069091558456
576.0,0.001618139329366386
640.0,0.0005545687745325267
704.0,0.0002721803029999137
768.0,0.0010201726108789444
832.0,0.001008185907267034
896.0,0.0006271161255426705
960.0,0.0011517700040712953
1024.0,0.0010804346529766917
1152.0,0.0002120897261193022
1280.0,-0.0019913867581635714
1408.0,-0.0009088319493457675
1536.0,-0.0005556207615882158
1664.0,0.0016592101892456412
1792.0,0.0028622818645089865
1920.0,0.003948585595935583
2048.0,0.003072046209126711
2304.0,0.004270629491657019
2560.0,-0.00040600160718895495
2816.0,-0.0014023638796061277
3072.0,-0.002396975876763463
3328.0,-0.0028634443879127502
3584.0,-0.004480195231735706
3840.0,-0.0035348031669855118
4096.0,0.0008584015304222703
4608.0,0.0007951448787935078
5120.0,-0.001409574644640088
5632.0,-0.0026136022061109543
6144.0,-0.0015283313114196062
6656.0,0.0011732142884284258
7168.0,0.0004110921290703118
7680.0,-0.0014921914553269744
8192.0,-0.003211965784430504
9216.0,0.0013647618470713496
10240.0,-0.004112941212952137
11264.0,0.0037520783953368664
12288.0,6.555059371748939e-05
13312.0,0.0026946335565298796
14336.0,-0.002508806064724922
end
