version,3.0
numOfCh,1
type,point
parent_name,10-cuts
ch_type,1_1
kcount,1
numberNandB,1
brightnessNandB,1
carpet pos,0
pc,0
Time (ms),CH1 Auto-Correlation
1.0,0.06432128697633743
2.0,0.06378644704818726
3.0,0.06326140463352203
4.0,0.06274787336587906
5.0,0.06225045397877693
6.0,0.061764173209667206
7.0,0.06127862259745598
8.0,0.06079861521720886
9.0,0.060322292149066925
10.0,0.05983768031001091
11.0,0.05936294421553612
12.0,0.058881230652332306
13.0,0.058415383100509644
14.0,0.05795380100607872
15.0,0.05748051032423973
16.0,0.05701568350195885
18.0,0.05613240599632263
20.0,0.0552947074174881
22.0,0.0544816255569458
24.0,0.05369599536061287
26.0,0.05288466066122055
28.0,0.052070800215005875
30.0,0.05126093700528145
32.0,0.05046751722693443
36.0,0.04891906678676605
40.0,0.04734914004802704
44.0,0.04578542709350586
48.0,0.044199977070093155
52.0,0.042652927339076996
56.0,0.04117570072412491
60.0,0.039791788905858994
64.0,0.03846364840865135
72.0,0.03607936203479767
80.0,0.0340336337685585
88.0,0.03213169053196907
96.0,0.030256863683462143
104.0,0.02862032875418663
112.0,0.02719818614423275
120.0,0.02566886879503727
128.0,0.02411769889295101
144.0,0.02151334658265114
160.0,0.01939079351723194
176.0,0.01763203740119934
192.0,0.016324657946825027
208.0,0.015035255812108517
224.0,0.01346438005566597
240.0,0.012077459134161472
256.0,0.011173966340720654
288.0,0.009623680263757706
320.0,0.00753426318988204
352.0,0.006706418469548225
384.0,0.0058366586454212666
416.0,0.005448709242045879
448.0,0.005444217473268509
480.0,0.005084993317723274
512.0,0.004246782977133989
576.0,0.0008495611255057156
640.0,-0.0023374243173748255
704.0,-0.004016002640128136
768.0,-0.004903880879282951
832.0,-0.004360875114798546
896.0,7.447927055181935e-05
960.0,0.002387405838817358
1024.0,0.0010334663093090057
1152.0,0.0032785360235720873
1280.0,0.0030175228603184223
1408.0,0.005778765771538019
1536.0,-0.000461497635114938
1664.0,-0.008126193657517433
1792.0,-0.006213521119207144
1920.0,-0.005160954315215349
2048.0,-0.007613657973706722
2304.0,-0.00030667107785120606
2560.0,-0.002538759494200349
2816.0,-0.0007261313730850816
3072.0,-0.005753339268267155
3328.0,-0.0019180920207872987
3584.0,0.004037352744489908
3840.0,-0.005771728698164225
4096.0,-0.010400594212114811
4608.0,0.0028804659377783537
5120.0,-0.002410369459539652
5632.0,0.0030867087189108133
6144.0,0.0024317181669175625
6656.0,-0.0022099707275629044
7168.0,0.003997356165200472
7680.0,-0.0045016915537416935
8192.0,0.003081667935475707
9216.0,-0.004328911658376455
10240.0,-0.0007425966905429959
11264.0,0.0005871061002835631
12288.0,0.004020161926746368
13312.0,-0.0002534631348680705
14336.0,-0.00402110954746604
end
