version,3.0
numOfCh,1
type,point
parent_name,10-cuts
ch_type,1_1
kcount,1
numberNandB,1
brightnessNandB,1
carpet pos,0
pc,0
Time (ms),CH1 Auto-Correlation
1.0,0.07206165045499802
2.0,0.07154713571071625
3.0,0.07103855907917023
4.0,0.07051846385002136
5.0,0.07000775635242462
6.0,0.06951077282428741
7.0,0.06901682913303375
8.0,0.06853713095188141
9.0,0.06805988401174545
10.0,0.06758388876914978
11.0,0.06710227578878403
12.0,0.06663031131029129
13.0,0.06615638732910156
14.0,0.06570365279912949
15.0,0.06525841355323792
16.0,0.0648045465350151
18.0,0.063910111784935
20.0,0.06303037703037262
22.0,0.06218024715781212
24.0,0.06137923523783684
26.0,0.0605945959687233
28.0,0.05979999154806137
30.0,0.05899406224489212
32.0,0.05819502845406532
36.0,0.05663616582751274
40.0,0.05522735416889191
44.0,0.05383137986063957
48.0,0.05250275135040283
52.0,0.05126068741083145
56.0,0.05002877488732338
60.0,0.04883222654461861
64.0,0.047709871083498
72.0,0.04557877779006958
80.0,0.04343722015619278
88.0,0.041253138333559036
96.0,0.03940997272729874
104.0,0.03778517246246338
112.0,0.03630506619811058
120.0,0.03481782600283623
128.0,0.0334881991147995
144.0,0.03152024373412132
160.0,0.030037451535463333
176.0,0.028528792783617973
192.0,0.02669602818787098
208.0,0.02409328706562519
224.0,0.021761922165751457
240.0,0.019713645800948143
256.0,0.01775614358484745
288.0,0.013985062018036842
320.0,0.011633112095296383
352.0,0.009466776624321938
384.0,0.007729584351181984
416.0,0.006062519736588001
448.0,0.005069881211966276
480.0,0.004038505256175995
512.0,0.0023538516834378242
576.0,-0.00271589495241642
640.0,-0.007257662247866392
704.0,-0.0107197817414999
768.0,-0.013341457583010197
832.0,-0.015295267105102539
896.0,-0.017251502722501755
960.0,-0.020003709942102432
1024.0,-0.019464552402496338
1152.0,-0.01632073149085045
1280.0,-0.01160586066544056
1408.0,-0.011602694168686867
1536.0,-0.007233473937958479
1664.0,-0.004992200061678886
1792.0,-0.0007171811303123832
1920.0,0.002200526650995016
2048.0,0.004984364844858646
2304.0,0.0053514475002884865
2560.0,0.004251537844538689
2816.0,0.0007382116746157408
3072.0,-0.003776753321290016
3328.0,-0.0055059767328202724
3584.0,-0.00269743287935853
3840.0,0.00023085933935362846
4096.0,-0.0014679926680400968
4608.0,0.0005102130235172808
5120.0,0.004561929032206535
5632.0,0.005372054409235716
6144.0,0.006584206596016884
6656.0,-0.011335701681673527
7168.0,-0.0056995609775185585
7680.0,0.0051780929788947105
8192.0,0.0007276572869159281
9216.0,-0.0031836393754929304
10240.0,0.00976501777768135
11264.0,-0.008815573528409004
12288.0,0.004258838482201099
13312.0,-0.004681686870753765
14336.0,0.0076590850949287415
end
