version,3.0
numOfCh,1
type,point
parent_name,10-cuts
ch_type,1_1
kcount,1
numberNandB,1
brightnessNandB,1
carpet pos,0
pc,0
Time (ms),CH1 Auto-Correlation
1.0,0.054522864520549774
2.0,0.054094795137643814
3.0,0.053665321320295334
4.0,0.05324099585413933
5.0,0.05281507223844528
6.0,0.05240653455257416
7.0,0.05200561508536339
8.0,0.0516074001789093
9.0,0.05120210349559784
10.0,0.05079854279756546
11.0,0.050412990152835846
12.0,0.05002272501587868
13.0,0.0496414415538311
14.0,0.04926285892724991
15.0,0.04889744520187378
16.0,0.048531483858823776
18.0,0.04783548787236214
20.0,0.047139137983322144
22.0,0.046440742909908295
24.0,0.045745667070150375
26.0,0.04504523053765297
28.0,0.04431929811835289
30.0,0.04360710829496384
32.0,0.04292771965265274
36.0,0.04167171195149422
40.0,0.040460340678691864
44.0,0.039287079125642776
48.0,0.038137439638376236
52.0,0.03702816367149353
56.0,0.03593286871910095
60.0,0.03486108407378197
64.0,0.03378123417496681
72.0,0.03173639252781868
80.0,0.029897022992372513
88.0,0.02830573357641697
96.0,0.026786651462316513
104.0,0.025224594399333
112.0,0.02373459003865719
120.0,0.02232433669269085
128.0,0.021015843376517296
144.0,0.018429553136229515
160.0,0.01579945534467697
176.0,0.013820328749716282
192.0,0.01225519273430109
208.0,0.010680164210498333
224.0,0.009299245662987232
240.0,0.008290184661746025
256.0,0.007966864854097366
288.0,0.00828989502042532
320.0,0.007807661779224873
352.0,0.006667240988463163
384.0,0.005179853644222021
416.0,0.003032759064808488
448.0,0.000536884821485728
480.0,0.000127662206068635
512.0,-0.00014119892148301005
576.0,-1.538099786557723e-05
640.0,0.00032098355586640537
704.0,-0.001273329951800406
768.0,-0.0033247251994907856
832.0,-0.004269752651453018
896.0,-0.00281544029712677
960.0,0.00038183858850970864
1024.0,0.00039361536619253457
1152.0,0.0006798806134611368
1280.0,0.005289827007800341
1408.0,0.0036784179974347353
1536.0,0.00015865216846577823
1664.0,-0.0034076704178005457
1792.0,-0.004608124028891325
1920.0,-0.005476505495607853
2048.0,-0.008291638456285
2304.0,0.003880920587107539
2560.0,8.290068944916129e-05
2816.0,-0.005730109289288521
3072.0,-0.0066980356350541115
3328.0,-0.007570031099021435
3584.0,0.002780276583507657
3840.0,0.0020186426118016243
4096.0,-0.004131512716412544
4608.0,-0.002124192425981164
5120.0,-0.0013030983973294497
5632.0,-0.005197464022785425
6144.0,0.0032678209245204926
6656.0,0.0010342443129047751
7168.0,0.00045035628136247396
7680.0,-0.005574596580117941
8192.0,0.004341905005276203
9216.0,0.008419942110776901
10240.0,0.005045540165156126
11264.0,-0.007249675691127777
12288.0,-0.008259412832558155
13312.0,-0.005334523040801287
14336.0,0.0010749190114438534
end
