version,3.0
numOfCh,1
type,point
parent_name,10-cuts
ch_type,1_1
kcount,1
numberNandB,1
brightnessNandB,1
carpet pos,0
pc,0
Time (ms),CH1 Auto-Correlation
1.0,0.028726624324917793
2.0,0.028530938550829887
3.0,0.028336573392152786
4.0,0.028147386386990547
5.0,0.027957098558545113
6.0,0.027773024514317513
7.0,0.027588319033384323
8.0,0.027405349537730217
9.0,0.027225345373153687
10.0,0.027049735188484192
11.0,0.02687031589448452
12.0,0.026693005114793777
13.0,0.026515664532780647
14.0,0.02634284272789955
15.0,0.026172984391450882
16.0,0.0260065495967865
18.0,0.02567404881119728
20.0,0.025344118475914
22.0,0.025035293772816658
24.0,0.024737250059843063
26.0,0.024436820298433304
28.0,0.02413179725408554
30.0,0.02383337914943695
32.0,0.02354665845632553
36.0,0.02300700731575489
40.0,0.02249329350888729
44.0,0.02198648639023304
48.0,0.021478325128555298
52.0,0.021013708785176277
56.0,0.020577555522322655
60.0,0.020146911963820457
64.0,0.019718365743756294
72.0,0.018867716193199158
80.0,0.018023235723376274
88.0,0.017234379425644875
96.0,0.016486724838614464
104.0,0.015814833343029022
112.0,0.01518045924603939
120.0,0.014569563791155815
128.0,0.013976221904158592
144.0,0.01292092353105545
160.0,0.012032147496938705
176.0,0.011316245421767235
192.0,0.010673516429960728
208.0,0.010059557855129242
224.0,0.009612741880118847
240.0,0.00918849091976881
256.0,0.008605755865573883
288.0,0.007079058792442083
320.0,0.005908747669309378
352.0,0.00483884010463953
384.0,0.00395040912553668
416.0,0.0029472792521119118
448.0,0.0017540294211357832
480.0,0.000803664734121412
512.0,0.00041247010813094676
576.0,0.00021774320339318365
640.0,-0.0005941419512964785
704.0,-0.001627126825042069
768.0,-0.0018871334614232183
832.0,-0.0019675700459629297
896.0,-0.0027411538176238537
960.0,-0.0028047310188412666
1024.0,-0.0023905455600470304
1152.0,-0.0024694863241165876
1280.0,-0.0016502873040735722
1408.0,-0.001032983185723424
1536.0,0.00029718305449932814
1664.0,-0.002388815628364682
1792.0,-0.00457013351842761
1920.0,-0.00701415678486228
2048.0,-0.004855162929743528
2304.0,0.00031696990481577814
2560.0,0.0003315610229037702
2816.0,0.0016552703455090523
3072.0,0.0025712260976433754
3328.0,1.4806447325099725e-05
3584.0,-0.003212611423805356
3840.0,-0.0009459065040573478
4096.0,0.0013204833958297968
4608.0,0.004791103303432465
5120.0,0.00222404720261693
5632.0,0.003379756584763527
6144.0,-0.00210359413176775
6656.0,-0.004686614964157343
7168.0,-1.0789992302306928e-05
7680.0,-0.00031893764389678836
8192.0,-0.0037817275151610374
9216.0,0.0010331503581255674
10240.0,0.0015416474780067801
11264.0,-0.006354126613587141
12288.0,0.0002717844909057021
13312.0,-0.0006490926025435328
14336.0,-0.003754429752007127
end
