version,3.0
numOfCh,1
type,point
parent_name,10-cuts
ch_type,1_1
kcount,1
numberNandB,1
brightnessNandB,1
carpet pos,0
pc,0
Time (ms),CH1 Auto-Correlation
1.0,0.08573785424232483
2.0,0.08509113639593124
3.0,0.08445797115564346
4.0,0.08384661376476288
5.0,0.08324069529771805
6.0,0.08264818787574768
7.0,0.08206189423799515
8.0,0.08148866146802902
9.0,0.08091410249471664
10.0,0.08036168664693832
11.0,0.07980906963348389
12.0,0.07927276939153671
13.0,0.07875210791826248
14.0,0.07824501395225525
15.0,0.07773759216070175
16.0,0.07722996920347214
18.0,0.07624278217554092
20.0,0.07531269639730453
22.0,0.07442769408226013
24.0,0.07357422262430191
26.0,0.0727798342704773
28.0,0.0719967857003212
30.0,0.07123017311096191
32.0,0.0704721063375473
36.0,0.06901708245277405
40.0,0.0675806999206543
44.0,0.06621427834033966
48.0,0.06492011994123459
52.0,0.06357938796281815
56.0,0.06220193952322006
60.0,0.06085227057337761
64.0,0.05953359603881836
72.0,0.05700453743338585
80.0,0.0546947717666626
88.0,0.052646853029727936
96.0,0.050663210451602936
104.0,0.048870597034692764
112.0,0.04712237790226936
120.0,0.04517623409628868
128.0,0.04327985644340515
144.0,0.039864763617515564
160.0,0.037002675235271454
176.0,0.03423004224896431
192.0,0.03138742223381996
208.0,0.028865134343504906
224.0,0.02650100737810135
240.0,0.024464935064315796
256.0,0.02233489789068699
288.0,0.01933002471923828
320.0,0.017466958612203598
352.0,0.016157858073711395
384.0,0.01398233138024807
416.0,0.011702834628522396
448.0,0.010436302050948143
480.0,0.008561876602470875
512.0,0.007027562707662582
576.0,0.0026118620298802853
640.0,-0.0033286381512880325
704.0,-0.004811139777302742
768.0,-0.004350197501480579
832.0,-0.004427616950124502
896.0,-0.0063185179606080055
960.0,-0.00695783318951726
1024.0,-0.0078019872307777405
1152.0,-0.009469123557209969
1280.0,-0.0025612006429582834
1408.0,0.0017925344873219728
1536.0,-0.00023303742636926472
1664.0,-0.0007872536079958081
1792.0,0.0018541248282417655
1920.0,-0.0017681275494396687
2048.0,-0.0035178179387003183
2304.0,-0.01299344003200531
2560.0,-0.022647114470601082
2816.0,-0.010779405012726784
3072.0,-0.006799733731895685
3328.0,7.864023064030334e-05
3584.0,-0.0039295353926718235
3840.0,-0.0034254165366292
4096.0,-0.0007277412223629653
4608.0,0.014751993119716644
5120.0,0.012561344541609287
5632.0,-0.004371315706521273
6144.0,-0.002445913152769208
6656.0,-0.0036582564935088158
7168.0,-0.012391522526741028
7680.0,-3.122667840216309e-05
8192.0,0.0013524650130420923
9216.0,0.0038874726742506027
10240.0,-0.008753636851906776
11264.0,0.000863635737914592
12288.0,-0.03458400443196297
13312.0,0.017501195892691612
14336.0,0.044426362961530685
end
