version,3.0
numOfCh,1
type,point
parent_name,10-cuts
ch_type,1_1
kcount,1
numberNandB,1
brightnessNandB,1
carpet pos,0
pc,0
Time (ms),CH1 Auto-Correlation
1.0,0.018383078277111053
2.0,0.018193766474723816
3.0,0.018011819571256638
4.0,0.017825692892074585
5.0,0.017641184851527214
6.0,0.01745850034058094
7.0,0.017278796061873436
8.0,0.017106197774410248
9.0,0.016941849142313004
10.0,0.01677878201007843
11.0,0.016618993133306503
12.0,0.016461120918393135
13.0,0.016304492950439453
14.0,0.01614888571202755
15.0,0.01600011996924877
16.0,0.01585148088634014
18.0,0.015565713867545128
20.0,0.015281619504094124
22.0,0.014998097904026508
24.0,0.014718146994709969
26.0,0.0144472885876894
28.0,0.014193639159202576
30.0,0.013950328342616558
32.0,0.013704247772693634
36.0,0.013242021203041077
40.0,0.012802165932953358
44.0,0.012377194128930569
48.0,0.011973712593317032
52.0,0.011593314819037914
56.0,0.01122486125677824
60.0,0.010864237323403358
64.0,0.010525727644562721
72.0,0.009860877878963947
80.0,0.00921681895852089
88.0,0.008572139777243137
96.0,0.008028541691601276
104.0,0.00749931950122118
112.0,0.006961289793252945
120.0,0.006370817311108112
128.0,0.005788949318230152
144.0,0.0046820021234452724
160.0,0.003835373790934682
176.0,0.0031255418434739113
192.0,0.00250672223046422
208.0,0.0018572091357782483
224.0,0.0012518569128587842
240.0,0.0008806832483969629
256.0,0.0004858844622503966
288.0,0.00045277646859176457
320.0,0.0007159929373301566
352.0,0.00047572932089678943
384.0,6.959181337151676e-05
416.0,-0.00018857899704016745
448.0,-0.0004014655132777989
480.0,-0.0007148145814426243
512.0,-0.0005163789610378444
576.0,0.0005542682483792305
640.0,0.0016610694583505392
704.0,0.0021745653357356787
768.0,0.0016129310242831707
832.0,0.0008396938792429864
896.0,7.013733556959778e-05
960.0,-0.0005120306741446257
1024.0,-0.0002294284204253927
1152.0,-0.0007183430716395378
1280.0,3.3644762879703194e-05
1408.0,0.0009349046740680933
1536.0,0.0009816262172535062
1664.0,0.00029873018502257764
1792.0,-0.0011619665892794728
1920.0,-0.001721385633572936
2048.0,-0.0009033462265506387
2304.0,-0.0007128770812414587
2560.0,-0.0017420131480321288
2816.0,-0.0013005600776523352
3072.0,-0.0004533556057140231
3328.0,-0.0019644538406282663
3584.0,-0.0005262308986857533
3840.0,0.0019564793910831213
4096.0,0.0017624048050493002
4608.0,-0.00028226489666849375
5120.0,-0.0006715216441079974
5632.0,-0.0005213127005845308
6144.0,4.094828182132915e-05
6656.0,0.0014103943249210715
7168.0,-0.0010857769520953298
7680.0,0.00028503668727353215
8192.0,0.0006071297684684396
9216.0,-0.0013437444576993585
10240.0,0.00011156016262248158
11264.0,0.0003413290251046419
12288.0,0.0023230488877743483
13312.0,0.0003922841278836131
14336.0,-0.0016253706999123096
end
