version,3.0
numOfCh,1
type,point
parent_name,10-cuts
ch_type,1_1
kcount,1
numberNandB,1
brightnessNandB,1
carpet pos,0
pc,0
Time (ms),CH1 Auto-Correlation
1.0,0.04080410301685333
2.0,0.04056067764759064
3.0,0.040320731699466705
4.0,0.04008089378476143
5.0,0.03984977304935455
6.0,0.039625383913517
7.0,0.039407048374414444
8.0,0.03918474167585373
9.0,0.03896089270710945
10.0,0.038741301745176315
11.0,0.038521524518728256
12.0,0.03830327093601227
13.0,0.03808397427201271
14.0,0.037866465747356415
15.0,0.037652865052223206
16.0,0.03744425252079964
18.0,0.03703605756163597
20.0,0.03663504496216774
22.0,0.036228422075510025
24.0,0.03583431616425514
26.0,0.035443082451820374
28.0,0.03506055474281311
30.0,0.034691665321588516
32.0,0.03434215113520622
36.0,0.033648837357759476
40.0,0.03298235312104225
44.0,0.03233087807893753
48.0,0.031710561364889145
52.0,0.031116046011447906
56.0,0.03050839900970459
60.0,0.02988402359187603
64.0,0.0292735043913126
72.0,0.02817717008292675
80.0,0.027157457545399666
88.0,0.026174629107117653
96.0,0.025215953588485718
104.0,0.024315601214766502
112.0,0.0234580859541893
120.0,0.022568680346012115
128.0,0.021621618419885635
144.0,0.019854791462421417
160.0,0.018461402505636215
176.0,0.01736520044505596
192.0,0.016287608072161674
208.0,0.015137814916670322
224.0,0.013841809704899788
240.0,0.012713792733848095
256.0,0.011548705399036407
288.0,0.00934205949306488
320.0,0.0075072539038956165
352.0,0.006474765948951244
384.0,0.006341368425637484
416.0,0.006534738466143608
448.0,0.006681312341243029
480.0,0.0069900816306471825
512.0,0.007316680625081062
576.0,0.0072012352757155895
640.0,0.0062919361516833305
704.0,0.006040388252586126
768.0,0.005992654711008072
832.0,0.005165630951523781
896.0,0.004049575887620449
960.0,0.0034979204647243023
1024.0,0.00249955290928483
1152.0,-0.0021723518148064613
1280.0,-0.006782749202102423
1408.0,-0.008038397878408432
1536.0,-0.004227065481245518
1664.0,0.0015256918268278241
1792.0,0.003499027341604233
1920.0,0.0018762564286589622
2048.0,0.0006307531148195267
2304.0,0.002369277412071824
2560.0,0.0016320287249982357
2816.0,0.0024570918176323175
3072.0,0.0018495558761060238
3328.0,0.0004151746106799692
3584.0,-0.0016115526668727398
3840.0,-0.0006992343114688993
4096.0,-0.0023293241392821074
4608.0,-0.007277543656527996
5120.0,-0.009213215671479702
5632.0,-0.010842902585864067
6144.0,-0.0018531127134338021
6656.0,0.002882248256355524
7168.0,0.002834331477060914
7680.0,-0.0021006790921092033
8192.0,-0.0021182678174227476
9216.0,0.00017360717174597085
10240.0,0.0010731808142736554
11264.0,0.002237257082015276
12288.0,-0.008227248676121235
13312.0,0.007815998047590256
14336.0,-0.006558812689036131
end
