version,3.0
numOfCh,1
type,point
parent_name,10-cuts
ch_type,1_1
kcount,1
numberNandB,1
brightnessNandB,1
carpet pos,0
pc,0
Time (ms),CH1 Auto-Correlation
1.0,0.05293986201286316
2.0,0.05253368988633156
3.0,0.05213100090622902
4.0,0.0517391599714756
5.0,0.051345519721508026
6.0,0.050952427089214325
7.0,0.05055925250053406
8.0,0.05016974359750748
9.0,0.0497649721801281
10.0,0.04935194179415703
11.0,0.04895959421992302
12.0,0.048572711646556854
13.0,0.04820100590586662
14.0,0.04783599451184273
15.0,0.047466836869716644
16.0,0.047100260853767395
18.0,0.046401239931583405
20.0,0.045736826956272125
22.0,0.04508945718407631
24.0,0.044453490525484085
26.0,0.04382237792015076
28.0,0.04318578168749809
30.0,0.04255317524075508
32.0,0.04195862635970116
36.0,0.04087786749005318
40.0,0.03985091671347618
44.0,0.03889415040612221
48.0,0.037953753024339676
52.0,0.03705945611000061
56.0,0.03624529764056206
60.0,0.03548974543809891
64.0,0.03477659448981285
72.0,0.033549126237630844
80.0,0.03253087028861046
88.0,0.03155190497636795
96.0,0.030549990013241768
104.0,0.029558295384049416
112.0,0.028611380606889725
120.0,0.027748864144086838
128.0,0.026956334710121155
144.0,0.02508774772286415
160.0,0.023193033412098885
176.0,0.021372906863689423
192.0,0.0197715125977993
208.0,0.01820434257388115
224.0,0.016863152384757996
240.0,0.015417173504829407
256.0,0.014177939854562283
288.0,0.01242583803832531
320.0,0.011726966127753258
352.0,0.01141787227243185
384.0,0.0115024009719491
416.0,0.011264722794294357
448.0,0.010634182952344418
480.0,0.010251358151435852
512.0,0.010545621626079082
576.0,0.010445565916597843
640.0,0.009964051656425
704.0,0.010609052143990993
768.0,0.010650571435689926
832.0,0.010566727258265018
896.0,0.00964684970676899
960.0,0.008873393759131432
1024.0,0.009432783350348473
1152.0,0.010962043888866901
1280.0,0.010864807292819023
1408.0,0.010025333613157272
1536.0,0.01081415731459856
1664.0,0.007985316216945648
1792.0,0.009111760184168816
1920.0,0.009334862232208252
2048.0,0.01040620170533657
2304.0,0.00521051837131381
2560.0,-0.00319470651447773
2816.0,0.0018881942378357053
3072.0,0.004650983493775129
3328.0,0.004590852186083794
3584.0,0.0035358499735593796
3840.0,0.0017298299353569746
4096.0,-0.001556368195451796
4608.0,-0.0066054826602339745
5120.0,-0.0026291878893971443
5632.0,-0.004913758020848036
6144.0,-0.012063505128026009
6656.0,-0.011262002401053905
7168.0,-0.008419007062911987
7680.0,-0.00875657144933939
8192.0,-0.014853699132800102
9216.0,-0.01090735848993063
10240.0,-0.003851506160572171
11264.0,0.0009558896417729557
12288.0,0.003482466097921133
13312.0,-0.0018535760464146733
14336.0,-0.0007179910899139941
end
