version,3.0
numOfCh,1
type,point
parent_name,10-cuts
ch_type,1_1
kcount,1
numberNandB,1
brightnessNandB,1
carpet pos,0
pc,0
Time (ms),CH1 Auto-Correlation
1.0,0.07722438126802444
2.0,0.07668504863977432
3.0,0.07614487409591675
4.0,0.0756031945347786
5.0,0.07508113235235214
6.0,0.07457591593265533
7.0,0.07408133149147034
8.0,0.07358825206756592
9.0,0.07309693843126297
10.0,0.07260694354772568
11.0,0.07214172184467316
12.0,0.07167918980121613
13.0,0.07122117280960083
14.0,0.07076396048069
15.0,0.07030877470970154
16.0,0.06984661519527435
18.0,0.06896334141492844
20.0,0.06812582910060883
22.0,0.06729951500892639
24.0,0.06645359098911285
26.0,0.06565048545598984
28.0,0.06488253176212311
30.0,0.06412238627672195
32.0,0.06336447596549988
36.0,0.06189360469579697
40.0,0.060416027903556824
44.0,0.05896557867527008
48.0,0.05762016028165817
52.0,0.05631156638264656
56.0,0.05508255586028099
60.0,0.05393219366669655
64.0,0.05284303054213524
72.0,0.050877466797828674
80.0,0.04919324442744255
88.0,0.04767109081149101
96.0,0.046076323837041855
104.0,0.04453957825899124
112.0,0.043337102979421616
120.0,0.04222729802131653
128.0,0.04100211709737778
144.0,0.03847053647041321
160.0,0.03641831874847412
176.0,0.034867461770772934
192.0,0.033257607370615005
208.0,0.03201755881309509
224.0,0.030937228351831436
240.0,0.029299838468432426
256.0,0.027658730745315552
288.0,0.024931499734520912
320.0,0.022085411474108696
352.0,0.019208012148737907
384.0,0.017155880108475685
416.0,0.01597779616713524
448.0,0.014781132340431213
480.0,0.013847632333636284
512.0,0.013143381103873253
576.0,0.012583899311721325
640.0,0.013880630023777485
704.0,0.015300897881388664
768.0,0.015050153248012066
832.0,0.014834010042250156
896.0,0.015702510252594948
960.0,0.017425047233700752
1024.0,0.018276691436767578
1152.0,0.018101580440998077
1280.0,0.012251290492713451
1408.0,0.006090024020522833
1536.0,0.0007803943008184433
1664.0,-0.003888910636305809
1792.0,-0.0036021729465574026
1920.0,0.00046913354890421033
2048.0,0.0017742258496582508
2304.0,0.011243229731917381
2560.0,0.013421588577330112
2816.0,0.004823817405849695
3072.0,0.0034358217380940914
3328.0,0.016727140173316002
3584.0,0.0166176725178957
3840.0,0.0001451975549571216
4096.0,-0.006053092889487743
4608.0,-0.0033609492238610983
5120.0,-0.004218084737658501
5632.0,-0.005749923642724752
6144.0,-0.004062694497406483
6656.0,-0.016449177637696266
7168.0,-0.010335462167859077
7680.0,-0.010936158709228039
8192.0,-0.006167483516037464
9216.0,-0.01825190894305706
10240.0,-0.03452932834625244
11264.0,-0.004660319536924362
12288.0,-0.0018524333136156201
13312.0,-0.0074905818328261375
14336.0,0.004979907069355249
end
