version,3.0
numOfCh,1
type,point
parent_name,10-cuts
ch_type,1_1
kcount,1
numberNandB,1
brightnessNandB,1
carpet pos,0
pc,0
Time (ms),CH1 Auto-Correlation
1.0,0.07746125757694244
2.0,0.07668446004390717
3.0,0.07591603696346283
4.0,0.07514873892068863
5.0,0.07439761608839035
6.0,0.0736667811870575
7.0,0.07294163107872009
8.0,0.07223423570394516
9.0,0.07154343277215958
10.0,0.07086038589477539
11.0,0.07019659876823425
12.0,0.06955266743898392
13.0,0.06891954690217972
14.0,0.068278968334198
15.0,0.06763748079538345
16.0,0.06699658930301666
18.0,0.06571031361818314
20.0,0.06443570554256439
22.0,0.06315623223781586
24.0,0.061865903437137604
26.0,0.060570672154426575
28.0,0.05928002670407295
30.0,0.05805011838674545
32.0,0.056846801191568375
36.0,0.054470211267471313
40.0,0.0521937757730484
44.0,0.050047408789396286
48.0,0.04805231839418411
52.0,0.046252135187387466
56.0,0.044541966170072556
60.0,0.04286503791809082
64.0,0.041101835668087006
72.0,0.037872567772865295
80.0,0.03502902388572693
88.0,0.03254350274801254
96.0,0.030566900968551636
104.0,0.028872814029455185
112.0,0.027346979826688766
120.0,0.025941917672753334
128.0,0.024336261674761772
144.0,0.021481188014149666
160.0,0.01914305053651333
176.0,0.017376918345689774
192.0,0.015216976404190063
208.0,0.012395117431879044
224.0,0.009212300181388855
240.0,0.005307667423039675
256.0,0.001073663355782628
288.0,-0.004976531956344843
320.0,-0.007393477018922567
352.0,-0.007441728841513395
384.0,-0.00788844283670187
416.0,-0.008476464077830315
448.0,-0.006784114520996809
480.0,-0.005366403143852949
512.0,-0.0040377601981163025
576.0,-0.002801324473693967
640.0,0.001092860591597855
704.0,0.0035053594037890434
768.0,-0.0005086764576844871
832.0,-0.006231625564396381
896.0,-0.006231874227523804
960.0,-0.003536687698215246
1024.0,-0.00261890422552824
1152.0,0.0020738535095006227
1280.0,0.00406041881069541
1408.0,0.0071927388198673725
1536.0,0.0030920880381017923
1664.0,-0.00174384203273803
1792.0,-0.010280332528054714
1920.0,-0.018510917201638222
2048.0,-0.015434234403073788
2304.0,0.001402330119162798
2560.0,-0.0010700398124754429
2816.0,0.0014222550671547651
3072.0,-0.006574422586709261
3328.0,-0.0046810912899672985
3584.0,9.67421437962912e-05
3840.0,0.009608592838048935
4096.0,0.007596923504024744
4608.0,0.004045386333018541
5120.0,0.0021034819073975086
5632.0,0.0002711861452553421
6144.0,-0.004069214686751366
6656.0,-0.006011022720485926
7168.0,-0.007201316300779581
7680.0,0.0031407445203512907
8192.0,0.0031443049665540457
9216.0,0.0014605643227696419
10240.0,-0.008140122517943382
11264.0,-0.0011107969330623746
12288.0,0.00033006371813826263
13312.0,0.006245858035981655
14336.0,-0.002066786168143153
end
