version,3.0
numOfCh,1
type,point
parent_name,10-cuts
ch_type,1_1
kcount,1
numberNandB,1
brightnessNandB,1
carpet pos,0
pc,0
Time (ms),CH1 Auto-Correlation
1.0,0.0985189825296402
2.0,0.09792480617761612
3.0,0.09734842926263809
4.0,0.0967760980129242
5.0,0.09620339423418045
6.0,0.09565991163253784
7.0,0.09512778371572495
8.0,0.09458805620670319
9.0,0.09405273199081421
10.0,0.09352224320173264
11.0,0.09298450499773026
12.0,0.09245304763317108
13.0,0.09192774444818497
14.0,0.09141011536121368
15.0,0.09089333564043045
16.0,0.09037398546934128
18.0,0.08936376124620438
20.0,0.08837544918060303
22.0,0.0874064490199089
24.0,0.08643314242362976
26.0,0.0854702964425087
28.0,0.08452396094799042
30.0,0.08359979093074799
32.0,0.08269287645816803
36.0,0.08092719316482544
40.0,0.07926072925329208
44.0,0.0776369720697403
48.0,0.07602590322494507
52.0,0.07447747141122818
56.0,0.0729885995388031
60.0,0.07150212675333023
64.0,0.07007528841495514
72.0,0.0674913078546524
80.0,0.06506462395191193
88.0,0.06284617632627487
96.0,0.06083689630031586
104.0,0.05900207906961441
112.0,0.057649414986371994
120.0,0.05652856081724167
128.0,0.05548384040594101
144.0,0.05308588966727257
160.0,0.050485700368881226
176.0,0.04811304435133934
192.0,0.04622631520032883
208.0,0.04517717659473419
224.0,0.0439717136323452
240.0,0.04253975301980972
256.0,0.041326865553855896
288.0,0.038894884288311005
320.0,0.03637038171291351
352.0,0.034809574484825134
384.0,0.033259931951761246
416.0,0.030697457492351532
448.0,0.02787618152797222
480.0,0.02495238371193409
512.0,0.022977609187364578
576.0,0.021790072321891785
640.0,0.02114875614643097
704.0,0.0176127627491951
768.0,0.014589414931833744
832.0,0.01483942661434412
896.0,0.019793815910816193
960.0,0.02092219702899456
1024.0,0.016219763085246086
1152.0,0.020763762295246124
1280.0,0.02214614488184452
1408.0,0.018809612840414047
1536.0,0.01319135818630457
1664.0,0.009204871952533722
1792.0,0.004150333348661661
1920.0,-0.0017377471085637808
2048.0,-0.004917960148304701
2304.0,-0.00025416581775061786
2560.0,0.003901636227965355
2816.0,-1.0951817785098683e-05
3072.0,-0.004744690377265215
3328.0,-0.0031074548605829477
3584.0,-0.0011102682910859585
3840.0,-0.004781818017363548
4096.0,-0.0044919936917722225
4608.0,-0.008491761982440948
5120.0,-0.005686738062649965
5632.0,-0.01025922130793333
6144.0,-0.012196064926683903
6656.0,-0.0015792956110090017
7168.0,-0.0038709950167685747
7680.0,-0.010781541466712952
8192.0,-0.019701197743415833
9216.0,-0.0384146124124527
10240.0,-0.01907411217689514
11264.0,-0.010913578793406487
12288.0,-0.005867364816367626
13312.0,0.015129155479371548
14336.0,0.07518526911735535
end
