version,3.0
numOfCh,1
type,point
parent_name,10-cuts
ch_type,1_1
kcount,1
numberNandB,1
brightnessNandB,1
carpet pos,0
pc,0
Time (ms),CH1 Auto-Correlation
1.0,0.07275484502315521
2.0,0.07214974611997604
3.0,0.07156522572040558
4.0,0.07097604870796204
5.0,0.07038222998380661
6.0,0.06979192793369293
7.0,0.06919633597135544
8.0,0.06860890984535217
9.0,0.06803134083747864
10.0,0.06746972352266312
11.0,0.06691493093967438
12.0,0.06638167798519135
13.0,0.065861776471138
14.0,0.06535255163908005
15.0,0.06485151499509811
16.0,0.06434300541877747
18.0,0.0633874461054802
20.0,0.06246159225702286
22.0,0.06155284121632576
24.0,0.06066213920712471
26.0,0.05981680750846863
28.0,0.05899914354085922
30.0,0.058190152049064636
32.0,0.05736686661839485
36.0,0.05576781556010246
40.0,0.05424399673938751
44.0,0.05279744416475296
48.0,0.051440950483083725
52.0,0.05017522722482681
56.0,0.048938967287540436
60.0,0.04761248454451561
64.0,0.0462399423122406
72.0,0.043806638568639755
80.0,0.041458867490291595
88.0,0.03893803432583809
96.0,0.03677349537611008
104.0,0.0347290076315403
112.0,0.032823577523231506
120.0,0.031055321916937828
128.0,0.029365455731749535
144.0,0.026679696515202522
160.0,0.024203985929489136
176.0,0.02157444693148136
192.0,0.019307054579257965
208.0,0.017364973202347755
224.0,0.01556334737688303
240.0,0.014170810580253601
256.0,0.012417875230312347
288.0,0.008253788575530052
320.0,0.004640474915504456
352.0,0.0016077980399131775
384.0,0.0007951852749101818
416.0,0.0005521135753951967
448.0,0.0012981481850147247
480.0,0.0021696726325899363
512.0,0.0026355069130659103
576.0,0.0013377200812101364
640.0,0.0022094727028161287
704.0,0.0019977183546870947
768.0,0.0012024956522509456
832.0,0.0003871995722874999
896.0,-0.002902741776779294
960.0,-0.00482377503067255
1024.0,-0.006539755966514349
1152.0,-0.005328837316483259
1280.0,0.002259062137454748
1408.0,0.006694732699543238
1536.0,0.006695866584777832
1664.0,0.006665004882961512
1792.0,0.010605501011013985
1920.0,0.012221419252455235
2048.0,0.008672899566590786
2304.0,0.0006109558162279427
2560.0,0.0030900673009455204
2816.0,-0.009419918060302734
3072.0,-0.012895487248897552
3328.0,0.0029671061784029007
3584.0,0.0006318878731690347
3840.0,0.003926494158804417
4096.0,0.0030510658398270607
4608.0,0.008448244072496891
5120.0,0.0030356834176927805
5632.0,-0.00022781785810366273
6144.0,0.007952388375997543
6656.0,-0.003288144012913108
7168.0,-0.006075641606003046
7680.0,-0.014875255525112152
8192.0,-0.003454405115917325
9216.0,-0.0014455817872658372
10240.0,-0.0016776318661868572
11264.0,-0.0050583877600729465
12288.0,-0.014817148447036743
13312.0,-0.01538057066500187
14336.0,-0.004683547653257847
end
