version,3.0
numOfCh,1
type,point
parent_name,10-cuts
ch_type,1_1
kcount,1
numberNandB,1
brightnessNandB,1
carpet pos,0
pc,0
Time (ms),CH1 Auto-Correlation
1.0,0.06511582434177399
2.0,0.06465886533260345
3.0,0.06421184539794922
4.0,0.06377024203538895
5.0,0.06332620233297348
6.0,0.06289656460285187
7.0,0.062471553683280945
8.0,0.062051769345998764
9.0,0.06165146827697754
10.0,0.06126009672880173
11.0,0.060868870466947556
12.0,0.060486119240522385
13.0,0.06009726598858833
14.0,0.05970029905438423
15.0,0.05930941924452782
16.0,0.05892520770430565
18.0,0.058188844472169876
20.0,0.05750570818781853
22.0,0.056875407695770264
24.0,0.05626700818538666
26.0,0.05568225681781769
28.0,0.05510742962360382
30.0,0.054541077464818954
32.0,0.053985994309186935
36.0,0.052941203117370605
40.0,0.05189924314618111
44.0,0.05086995288729668
48.0,0.0498930886387825
52.0,0.0489196851849556
56.0,0.04798347130417824
60.0,0.047010838985443115
64.0,0.046028558164834976
72.0,0.04417038708925247
80.0,0.04237889498472214
88.0,0.04090285301208496
96.0,0.039660848677158356
104.0,0.038409993052482605
112.0,0.03721286356449127
120.0,0.03608845919370651
128.0,0.0349900908768177
144.0,0.03312402591109276
160.0,0.031194237992167473
176.0,0.028892183676362038
192.0,0.026908323168754578
208.0,0.025175955146551132
224.0,0.023860476911067963
240.0,0.022345906123518944
256.0,0.021200379356741905
288.0,0.01833694986999035
320.0,0.015856759622693062
352.0,0.01340420637279749
384.0,0.011697660200297832
416.0,0.010335949249565601
448.0,0.009265697561204433
480.0,0.0077941822819411755
512.0,0.006342486012727022
576.0,0.004292414057999849
640.0,0.00181187829002738
704.0,0.0012585201766341925
768.0,0.0008848020224831998
832.0,-0.00010548793216003105
896.0,-0.0006170617998577654
960.0,-0.0006108866655267775
1024.0,0.0005852856556884944
1152.0,0.0019508384866639972
1280.0,-0.0023591171484440565
1408.0,-0.00481862248852849
1536.0,-0.0038191473577171564
1664.0,-0.005465772934257984
1792.0,-0.0035814414732158184
1920.0,-0.002903479617089033
2048.0,-0.0020611027721315622
2304.0,-0.0012500936863943934
2560.0,-0.00045674326247535646
2816.0,0.0034761785063892603
3072.0,0.006902751047164202
3328.0,-0.0088852159678936
3584.0,-0.010726779699325562
3840.0,-0.008071056567132473
4096.0,-0.00929232593625784
4608.0,-0.01635703444480896
5120.0,-0.0057520633563399315
5632.0,0.005680774338543415
6144.0,0.006260145455598831
6656.0,0.011543800123035908
7168.0,-0.0021216468885540962
7680.0,-0.008157889358699322
8192.0,0.0078118001110851765
9216.0,0.0010027583921328187
10240.0,-0.006060079205781221
11264.0,-0.007249853573739529
12288.0,-0.0044172764755785465
13312.0,0.01054445467889309
14336.0,-0.009027383290231228
end
