version,3.0
numOfCh,1
type,point
parent_name,10-cuts
ch_type,1_1
kcount,1
numberNandB,1
brightnessNandB,1
carpet pos,0
pc,0
Time (ms),CH1 Auto-Correlation
1.0,0.030910534784197807
2.0,0.030726324766874313
3.0,0.030545230954885483
4.0,0.03036443516612053
5.0,0.030185144394636154
6.0,0.030010610818862915
7.0,0.02983497455716133
8.0,0.029664713889360428
9.0,0.02949047088623047
10.0,0.029315873980522156
11.0,0.029145201668143272
12.0,0.028974071145057678
13.0,0.02880612015724182
14.0,0.028635768219828606
15.0,0.028467874974012375
16.0,0.028301449492573738
18.0,0.027966709807515144
20.0,0.02763243205845356
22.0,0.027300791814923286
24.0,0.026983173564076424
26.0,0.02667977660894394
28.0,0.026388375088572502
30.0,0.026102514937520027
32.0,0.025812136009335518
36.0,0.02525818534195423
40.0,0.024714894592761993
44.0,0.024160226806998253
48.0,0.023589719086885452
52.0,0.022994691506028175
56.0,0.02242685854434967
60.0,0.02189994789659977
64.0,0.021399477496743202
72.0,0.020444659516215324
80.0,0.019524967297911644
88.0,0.01864023320376873
96.0,0.01780230551958084
104.0,0.01703413389623165
112.0,0.01631438173353672
120.0,0.015698086470365524
128.0,0.015087618492543697
144.0,0.013928565196692944
160.0,0.012691501528024673
176.0,0.011522606015205383
192.0,0.0105026476085186
208.0,0.009745120070874691
224.0,0.00921750906854868
240.0,0.008842408657073975
256.0,0.008524094708263874
288.0,0.007417027838528156
320.0,0.006226305849850178
352.0,0.005494569893926382
384.0,0.004938507918268442
416.0,0.004354297183454037
448.0,0.0031390844378620386
480.0,0.002296640770509839
512.0,0.0019319081911817193
576.0,0.0015061135636642575
640.0,0.0015302657848224044
704.0,0.0017846799455583096
768.0,0.0021819481626152992
832.0,0.001873179106041789
896.0,0.0023047374561429024
960.0,0.0018623950891196728
1024.0,0.00018194153381045908
1152.0,-0.0007227272726595402
1280.0,0.00037045477074570954
1408.0,-0.0002851274039130658
1536.0,-0.0024347673170268536
1664.0,-0.003015554277226329
1792.0,-0.0029591491911560297
1920.0,-0.003358857473358512
2048.0,-0.004863394424319267
2304.0,-0.007025229744613171
2560.0,-0.005183986388146877
2816.0,-0.0047377292066812515
3072.0,-0.007805525790899992
3328.0,-0.005248600617051125
3584.0,-0.0013974294997751713
3840.0,0.0006587447714991868
4096.0,-0.0001787196088116616
4608.0,0.002753100823611021
5120.0,0.005396582186222076
5632.0,0.0009641859214752913
6144.0,-1.5635931049473584e-05
6656.0,-0.002880108542740345
7168.0,-0.003596691880375147
7680.0,-0.0006493964465335011
8192.0,-0.00177279906347394
9216.0,0.003814109368249774
10240.0,0.002821905305609107
11264.0,-0.0004760370939038694
12288.0,-0.005077657755464315
13312.0,0.003177652833983302
14336.0,0.0017685755155980587
end
