version,3.0
numOfCh,1
type,point
parent_name,10-cuts
ch_type,1_1
kcount,1
numberNandB,1
brightnessNandB,1
carpet pos,0
pc,0
Time (ms),CH1 Auto-Correlation
1.0,0.04806777462363243
2.0,0.047688402235507965
3.0,0.04730582609772682
4.0,0.04692951962351799
5.0,0.04655124992132187
6.0,0.04617306590080261
7.0,0.045804914087057114
8.0,0.045449696481227875
9.0,0.04509451612830162
10.0,0.04474087432026863
11.0,0.04438655823469162
12.0,0.044041648507118225
13.0,0.043712154030799866
14.0,0.04338938370347023
15.0,0.043064288794994354
16.0,0.042735014110803604
18.0,0.04208894073963165
20.0,0.041462644934654236
22.0,0.040852002799510956
24.0,0.04024393483996391
26.0,0.03963859751820564
28.0,0.03905250504612923
30.0,0.038469765335321426
32.0,0.037921275943517685
36.0,0.03692615032196045
40.0,0.03597944602370262
44.0,0.03502460941672325
48.0,0.03407258912920952
52.0,0.03312159702181816
56.0,0.03215648606419563
60.0,0.0312192440032959
64.0,0.030293161049485207
72.0,0.028676755726337433
80.0,0.027293551713228226
88.0,0.02614593505859375
96.0,0.025163188576698303
104.0,0.024121118709445
112.0,0.02322322688996792
120.0,0.022524762898683548
128.0,0.021810268983244896
144.0,0.020537421107292175
160.0,0.01922016032040119
176.0,0.017708875238895416
192.0,0.016253674402832985
208.0,0.01523982360959053
224.0,0.014613399282097816
240.0,0.01386222243309021
256.0,0.01320607215166092
288.0,0.011418431997299194
320.0,0.008665896952152252
352.0,0.006543449126183987
384.0,0.005699309520423412
416.0,0.005041595082730055
448.0,0.004048267845064402
480.0,0.0031366487964987755
512.0,0.002187923062592745
576.0,0.0013186747673898935
640.0,-0.00030765391420572996
704.0,-0.0016236025840044022
768.0,0.00019647071894723922
832.0,0.0028534408193081617
896.0,0.0043889558874070644
960.0,0.005320155993103981
1024.0,0.005690237507224083
1152.0,0.001871265354566276
1280.0,0.001243448699824512
1408.0,-0.00019839272135868669
1536.0,-0.0011144824093207717
1664.0,-0.0013616253854706883
1792.0,-0.00040288703166879714
1920.0,-0.0007061001379042864
2048.0,-0.0003949269012082368
2304.0,-3.6063767765881494e-05
2560.0,0.001509535708464682
2816.0,0.002465856494382024
3072.0,0.0010198683012276888
3328.0,0.0034618182107806206
3584.0,0.0014703633496537805
3840.0,-0.002040040446445346
4096.0,-0.004793460946530104
4608.0,-0.008626740425825119
5120.0,-0.006945639383047819
5632.0,-0.0031026494689285755
6144.0,0.004826503340154886
6656.0,-0.005434093065559864
7168.0,-0.006707123946398497
7680.0,-0.006843605078756809
8192.0,0.0013623889535665512
9216.0,0.002685785060748458
10240.0,0.0033570141531527042
11264.0,0.0028374348767101765
12288.0,0.004165920894593
13312.0,-0.002771633444353938
14336.0,-0.020903605967760086
end
