version,3.0
numOfCh,1
type,point
parent_name,10-cuts
ch_type,1_1
kcount,1
numberNandB,1
brightnessNandB,1
carpet pos,0
pc,0
Time (ms),CH1 Auto-Correlation
1.0,0.07208482176065445
2.0,0.0714598149061203
3.0,0.07082439213991165
4.0,0.07019323110580444
5.0,0.069571852684021
6.0,0.06895052641630173
7.0,0.06832411140203476
8.0,0.06771470606327057
9.0,0.06710893660783768
10.0,0.06651587784290314
11.0,0.06592317670583725
12.0,0.06533373892307281
13.0,0.06474577635526657
14.0,0.06416870653629303
15.0,0.06361377239227295
16.0,0.06305032968521118
18.0,0.06196102499961853
20.0,0.06092382222414017
22.0,0.05994528532028198
24.0,0.05899863690137863
26.0,0.05806618183851242
28.0,0.0571860671043396
30.0,0.05633722245693207
32.0,0.055494386702775955
36.0,0.05385815352201462
40.0,0.05229158326983452
44.0,0.05081677436828613
48.0,0.049395665526390076
52.0,0.04801856726408005
56.0,0.04667459428310394
60.0,0.04535946622490883
64.0,0.044115081429481506
72.0,0.04162328690290451
80.0,0.03937779366970062
88.0,0.03713741898536682
96.0,0.03468798100948334
104.0,0.03232988715171814
112.0,0.03019106760621071
120.0,0.028234511613845825
128.0,0.026374608278274536
144.0,0.02234918624162674
160.0,0.018566645681858063
176.0,0.015083824284374714
192.0,0.01176158245652914
208.0,0.008884962648153305
224.0,0.006818487774580717
240.0,0.005165874492377043
256.0,0.00379309244453907
288.0,0.00222642719745636
320.0,0.002234415849670768
352.0,0.0037174972239881754
384.0,0.005501776933670044
416.0,0.006916303653270006
448.0,0.008815353736281395
480.0,0.010533505119383335
512.0,0.011956279166042805
576.0,0.011913955211639404
640.0,0.012369446456432343
704.0,0.009240446612238884
768.0,0.00509719317778945
832.0,0.0028925968799740076
896.0,0.0056009856052696705
960.0,0.00889838207513094
1024.0,0.006284679751843214
1152.0,-0.0007823845953680575
1280.0,-0.0011945824371650815
1408.0,0.0035361810587346554
1536.0,0.002475341083481908
1664.0,-5.882385084987618e-05
1792.0,-0.0024775287602096796
1920.0,-0.0035723871551454067
2048.0,-0.002485854784026742
2304.0,0.0007253831718116999
2560.0,0.004024889785796404
2816.0,-0.0006288635777309537
3072.0,-0.006633612792938948
3328.0,-0.007637447211891413
3584.0,-0.01467215921729803
3840.0,-0.0046232715249061584
4096.0,-0.012474487535655499
4608.0,-0.008430433459579945
5120.0,0.0007108867284841835
5632.0,-0.0012956405989825726
6144.0,-0.0047846161760389805
6656.0,-0.0032686267513781786
7168.0,-0.000595480261836201
7680.0,0.004683488979935646
8192.0,-0.0015498473076149821
9216.0,-0.0015177956083789468
10240.0,0.010852345265448093
11264.0,0.006649884860962629
12288.0,0.0016252652276307344
13312.0,-0.0019584146793931723
14336.0,-0.011798850260674953
end
