version,3.0
numOfCh,1
type,point
parent_name,10-cuts
ch_type,1_1
kcount,1
numberNandB,1
brightnessNandB,1
carpet pos,0
pc,0
Time (ms),CH1 Auto-Correlation
1.0,0.10028064250946045
2.0,0.09964814782142639
3.0,0.09904854744672775
4.0,0.09845956414937973
5.0,0.09788493067026138
6.0,0.09732624888420105
7.0,0.0967685878276825
8.0,0.0962257981300354
9.0,0.09567314386367798
10.0,0.09511921554803848
11.0,0.09459131956100464
12.0,0.09407596290111542
13.0,0.0935823991894722
14.0,0.09309056401252747
15.0,0.09261322766542435
16.0,0.09213892370462418
18.0,0.09119574725627899
20.0,0.09026380628347397
22.0,0.0893859937787056
24.0,0.08853048831224442
26.0,0.08772821724414825
28.0,0.08695746213197708
30.0,0.08619144558906555
32.0,0.08543579280376434
36.0,0.08392428606748581
40.0,0.08249630033969879
44.0,0.0811094120144844
48.0,0.07961560040712357
52.0,0.07802321761846542
56.0,0.07641778141260147
60.0,0.07490397989749908
64.0,0.07346504181623459
72.0,0.07084211707115173
80.0,0.06847335398197174
88.0,0.06627324223518372
96.0,0.06422590464353561
104.0,0.06223331391811371
112.0,0.0603012852370739
120.0,0.05854154750704765
128.0,0.05672883242368698
144.0,0.0531170554459095
160.0,0.05016561597585678
176.0,0.048002634197473526
192.0,0.04594822973012924
208.0,0.044239796698093414
224.0,0.04242635518312454
240.0,0.04071033373475075
256.0,0.038262415677309036
288.0,0.03287945315241814
320.0,0.028801631182432175
352.0,0.026008281856775284
384.0,0.023694021627306938
416.0,0.022029485553503036
448.0,0.021885966882109642
480.0,0.021371370181441307
512.0,0.01914498582482338
576.0,0.01562418695539236
640.0,0.01279760804027319
704.0,0.009284584783017635
768.0,0.00701376236975193
832.0,0.006802877876907587
896.0,0.006673876661807299
960.0,0.006535826716572046
1024.0,0.0048029315657913685
1152.0,0.0004254294908605516
1280.0,-9.799270628718659e-05
1408.0,-0.004546733107417822
1536.0,-0.004065769258886576
1664.0,-0.008498056791722775
1792.0,-0.012728367932140827
1920.0,-0.010522694326937199
2048.0,-0.007796391844749451
2304.0,-0.000897599442396313
2560.0,0.011226925067603588
2816.0,0.003227504203096032
3072.0,0.006927296053618193
3328.0,0.013316474854946136
3584.0,0.015270673669874668
3840.0,0.006040401291102171
4096.0,0.001264324993826449
4608.0,-0.005634603556245565
5120.0,-0.0172437597066164
5632.0,-0.016294285655021667
6144.0,-0.008108193054795265
6656.0,0.002424590289592743
7168.0,-0.0029727895744144917
7680.0,-0.00251693744212389
8192.0,-0.020373685285449028
9216.0,-0.0029813467990607023
10240.0,0.0033783691469579935
11264.0,-0.015328500419855118
12288.0,0.0005289918044582009
13312.0,0.003428945317864418
14336.0,-0.02029397524893284
end
