version,3.0
numOfCh,1
type,point
parent_name,10-cuts
ch_type,1_1
kcount,1
numberNandB,1
brightnessNandB,1
carpet pos,0
pc,0
Time (ms),CH1 Auto-Correlation
1.0,0.11208250373601913
2.0,0.111415334045887
3.0,0.11071255803108215
4.0,0.11003758013248444
5.0,0.10936765372753143
6.0,0.1087193489074707
7.0,0.10807204246520996
8.0,0.10743635892868042
9.0,0.10683946311473846
10.0,0.10624765604734421
11.0,0.10566817969083786
12.0,0.10509126633405685
13.0,0.10450825840234756
14.0,0.10393998771905899
15.0,0.10339386761188507
16.0,0.10283350944519043
18.0,0.101659394800663
20.0,0.10053998231887817
22.0,0.0994597002863884
24.0,0.09837518632411957
26.0,0.09736271947622299
28.0,0.09639954566955566
30.0,0.09543798118829727
32.0,0.09451509267091751
36.0,0.0926908329129219
40.0,0.09089415520429611
44.0,0.08920619636774063
48.0,0.0875939130783081
52.0,0.08605826646089554
56.0,0.08453725278377533
60.0,0.0831032320857048
64.0,0.08173294365406036
72.0,0.0792696475982666
80.0,0.07673373818397522
88.0,0.07434741407632828
96.0,0.07209459692239761
104.0,0.06990832835435867
112.0,0.06766234338283539
120.0,0.06544924527406693
128.0,0.06333453208208084
144.0,0.05938861519098282
160.0,0.05561673268675804
176.0,0.05234111100435257
192.0,0.050488900393247604
208.0,0.049151308834552765
224.0,0.047762349247932434
240.0,0.0464937649667263
256.0,0.04512249678373337
288.0,0.04195325821638107
320.0,0.03693610429763794
352.0,0.032245635986328125
384.0,0.026614131405949593
416.0,0.01956515945494175
448.0,0.014180449768900871
480.0,0.009221609681844711
512.0,0.004431295674294233
576.0,0.002103581326082349
640.0,0.0019458584720268846
704.0,-0.0002005950955208391
768.0,-0.004207693971693516
832.0,-0.00876959040760994
896.0,-0.012483248487114906
960.0,-0.017101913690567017
1024.0,-0.024221332743763924
1152.0,-0.030623160302639008
1280.0,-0.03285878151655197
1408.0,-0.028246309608221054
1536.0,-0.019172705709934235
1664.0,-0.008119184523820877
1792.0,0.0010564860422164202
1920.0,0.006460216362029314
2048.0,0.008545751683413982
2304.0,0.009489122778177261
2560.0,0.01186204794794321
2816.0,0.010111423209309578
3072.0,0.003986101597547531
3328.0,-0.006922883912920952
3584.0,-0.009518695063889027
3840.0,-0.009014829061925411
4096.0,-0.014940118417143822
4608.0,-0.011674677021801472
5120.0,0.0019979639910161495
5632.0,0.023462872952222824
6144.0,0.01673535816371441
6656.0,-0.0093536963686347
7168.0,-0.02629406563937664
7680.0,0.011591669172048569
8192.0,0.009832551702857018
9216.0,0.003388676093891263
10240.0,-0.017209500074386597
11264.0,-0.004148172680288553
12288.0,-0.009048554114997387
13312.0,-0.0297003835439682
14336.0,0.05106055736541748
end
