version,3.0
numOfCh,1
type,point
parent_name,10-cuts
ch_type,1_1
kcount,1
numberNandB,1
brightnessNandB,1
carpet pos,0
pc,0
Time (ms),CH1 Auto-Correlation
1.0,0.07050233334302902
2.0,0.06997547298669815
3.0,0.0694747045636177
4.0,0.06898719072341919
5.0,0.0684981420636177
6.0,0.06802594661712646
7.0,0.06755634397268295
8.0,0.06709223985671997
9.0,0.06663963943719864
10.0,0.06619618833065033
11.0,0.06574874371290207
12.0,0.06531304121017456
13.0,0.06486772745847702
14.0,0.06442569941282272
15.0,0.06397559493780136
16.0,0.06355537474155426
18.0,0.06273875385522842
20.0,0.061974167823791504
22.0,0.06126253679394722
24.0,0.060560937970876694
26.0,0.05988750234246254
28.0,0.05920398607850075
30.0,0.05851234495639801
32.0,0.05784285441040993
36.0,0.05655640363693237
40.0,0.05531642585992813
44.0,0.05409853905439377
48.0,0.05290547013282776
52.0,0.05177938565611839
56.0,0.050668373703956604
60.0,0.04957447201013565
64.0,0.04847458750009537
72.0,0.046281930059194565
80.0,0.044154226779937744
88.0,0.04226209595799446
96.0,0.0406380333006382
104.0,0.03916093707084656
112.0,0.03770305961370468
120.0,0.03631801903247833
128.0,0.035026080906391144
144.0,0.03238058462738991
160.0,0.029556879773736
176.0,0.026877371594309807
192.0,0.024648509919643402
208.0,0.02197520062327385
224.0,0.01921534165740013
240.0,0.016976404935121536
256.0,0.015165537595748901
288.0,0.012061546556651592
320.0,0.009811816737055779
352.0,0.008940771222114563
384.0,0.008896500803530216
416.0,0.009028458967804909
448.0,0.00858023576438427
480.0,0.007039076182991266
512.0,0.004316725768148899
576.0,-0.0009197028703056276
640.0,-0.002224409719929099
704.0,-0.004115292802453041
768.0,-0.0056839194148778915
832.0,-0.006998689379543066
896.0,-0.007096108514815569
960.0,-0.007158125750720501
1024.0,-0.006909452378749847
1152.0,-0.008649802766740322
1280.0,-0.01071975752711296
1408.0,-0.006470416206866503
1536.0,-0.0051247961819171906
1664.0,-0.006606930401176214
1792.0,-0.002653826028108597
1920.0,-0.0009721095557324588
2048.0,-0.002962985774502158
2304.0,0.01525654923170805
2560.0,0.019138354808092117
2816.0,0.0074952091090381145
3072.0,-2.9269125661812723e-05
3328.0,-0.0017793717561289668
3584.0,-0.0005256330478005111
3840.0,-0.0047997161746025085
4096.0,-0.010860479436814785
4608.0,-0.004835585597902536
5120.0,0.005834569688886404
5632.0,0.011388873681426048
6144.0,0.004243240226060152
6656.0,-0.009160599671304226
7168.0,-0.010920559987425804
7680.0,-0.0012894871179014444
8192.0,0.005757829174399376
9216.0,-0.004222133196890354
10240.0,-0.0070737325586378574
11264.0,0.001066864700987935
12288.0,-0.0096307173371315
13312.0,-0.0026608752086758614
14336.0,-0.006890882737934589
end
