version,3.0
numOfCh,1
type,point
parent_name,10-cuts
ch_type,1_1
kcount,1
numberNandB,1
brightnessNandB,1
carpet pos,0
pc,0
Time (ms),CH1 Auto-Correlation
1.0,0.06169488653540611
2.0,0.0613090954720974
3.0,0.060938239097595215
4.0,0.060573726892471313
5.0,0.06020273268222809
6.0,0.05983474478125572
7.0,0.059471890330314636
8.0,0.05910266563296318
9.0,0.05873085558414459
10.0,0.058358799666166306
11.0,0.05799097940325737
12.0,0.0576266385614872
13.0,0.05726245418190956
14.0,0.05689331516623497
15.0,0.056527115404605865
16.0,0.056170932948589325
18.0,0.05548470467329025
20.0,0.05482947453856468
22.0,0.05420040339231491
24.0,0.05358095467090607
26.0,0.05298910662531853
28.0,0.05240179970860481
30.0,0.05179302766919136
32.0,0.051214415580034256
36.0,0.050194695591926575
40.0,0.04924388602375984
44.0,0.04833119362592697
48.0,0.04745200276374817
52.0,0.04661983251571655
56.0,0.04577535018324852
60.0,0.04492095485329628
64.0,0.044108420610427856
72.0,0.04255615174770355
80.0,0.04101947695016861
88.0,0.039525680243968964
96.0,0.03808779641985893
104.0,0.03654346987605095
112.0,0.03496692702174187
120.0,0.033431172370910645
128.0,0.03199974447488785
144.0,0.029522905126214027
160.0,0.027066446840763092
176.0,0.024747757241129875
192.0,0.02285364829003811
208.0,0.02113642916083336
224.0,0.019572094082832336
240.0,0.018208449706435204
256.0,0.016842836514115334
288.0,0.014863541349768639
320.0,0.013108302839100361
352.0,0.011675561778247356
384.0,0.010797783732414246
416.0,0.010136628523468971
448.0,0.00922049954533577
480.0,0.008500351570546627
512.0,0.008384767919778824
576.0,0.007555931806564331
640.0,0.006907819304615259
704.0,0.0071699852123856544
768.0,0.005292501766234636
832.0,0.0021844704169780016
896.0,-0.0005861548124812543
960.0,-0.0027454872615635395
1024.0,-0.0054118093103170395
1152.0,-0.0026011369191110134
1280.0,-0.0015728006837889552
1408.0,-0.008013066835701466
1536.0,-0.008945665322244167
1664.0,-0.00686201686039567
1792.0,-0.0044018784537911415
1920.0,0.0035155084915459156
2048.0,0.006765495520085096
2304.0,0.006625736132264137
2560.0,0.007370450533926487
2816.0,0.009269259870052338
3072.0,0.006253805011510849
3328.0,0.0019360181177034974
3584.0,-0.006217664573341608
3840.0,-0.004014963284134865
4096.0,-0.0021608679089695215
4608.0,-0.0068459357134997845
5120.0,-0.003693300299346447
5632.0,-0.0063171423971652985
6144.0,-0.0023836905602365732
6656.0,-0.008998669683933258
7168.0,-0.002259118016809225
7680.0,-0.0017109266482293606
8192.0,0.007122076582163572
9216.0,-0.008982083760201931
10240.0,-0.0005104182637296617
11264.0,0.003822186728939414
12288.0,-0.006390449125319719
13312.0,-0.005306008737534285
14336.0,-0.0004909204435534775
end
