version,3.0
numOfCh,1
type,point
parent_name,10-cuts
ch_type,1_1
kcount,1
numberNandB,1
brightnessNandB,1
carpet pos,0
pc,0
Time (ms),CH1 Auto-Correlation
1.0,0.0272589772939682
2.0,0.027057062834501266
3.0,0.02685503102838993
4.0,0.02666240930557251
5.0,0.02646995335817337
6.0,0.026284271851181984
7.0,0.026100175455212593
8.0,0.025917688384652138
9.0,0.025740092620253563
10.0,0.025572070851922035
11.0,0.025404442101716995
12.0,0.025237523019313812
13.0,0.025077512487769127
14.0,0.024918444454669952
15.0,0.024761756882071495
16.0,0.02461160719394684
18.0,0.024311359971761703
20.0,0.024014821276068687
22.0,0.02372482419013977
24.0,0.023436520248651505
26.0,0.023158565163612366
28.0,0.022896353155374527
30.0,0.022644519805908203
32.0,0.022387797012925148
36.0,0.02187533862888813
40.0,0.021376440301537514
44.0,0.020910941064357758
48.0,0.020479802042245865
52.0,0.020080696791410446
56.0,0.019721820950508118
60.0,0.019367657601833344
64.0,0.019022535532712936
72.0,0.01836666464805603
80.0,0.017803508788347244
88.0,0.017239950597286224
96.0,0.016688019037246704
104.0,0.01618839241564274
112.0,0.015710392966866493
120.0,0.01520098652690649
128.0,0.014753038063645363
144.0,0.014188170433044434
160.0,0.013513927347958088
176.0,0.012714657001197338
192.0,0.011800226755440235
208.0,0.01079915277659893
224.0,0.010063120163977146
240.0,0.009456714615225792
256.0,0.008782247081398964
288.0,0.0075247641652822495
320.0,0.006780976429581642
352.0,0.006304688286036253
384.0,0.005574445705860853
416.0,0.005105151329189539
448.0,0.005077886860817671
480.0,0.004752177745103836
512.0,0.004165545105934143
576.0,0.003418307052925229
640.0,0.003103698370978236
704.0,0.0023798304609954357
768.0,0.0012232721783220768
832.0,-0.00014167488552629948
896.0,-0.0011904272250831127
960.0,-0.0016738104168325663
1024.0,-0.0031223951373249292
1152.0,-0.00728803314268589
1280.0,-0.009522547014057636
1408.0,-0.00836904626339674
1536.0,-0.0064009190537035465
1664.0,-0.0061109126545488834
1792.0,-0.007149562239646912
1920.0,-0.007195913232862949
2048.0,-0.005944048520177603
2304.0,-0.00035066637792624533
2560.0,0.0038295609410852194
2816.0,0.0048857335932552814
3072.0,0.005473222117871046
3328.0,0.003923504147678614
3584.0,0.0002257960004499182
3840.0,-0.0035467755515128374
4096.0,-0.005711270961910486
4608.0,-0.0030170597601681948
5120.0,0.00018002049182541668
5632.0,0.0032351443078368902
6144.0,0.003356840694323182
6656.0,-0.00016878570022527128
7168.0,-0.0013477697502821684
7680.0,-0.0013805523049086332
8192.0,-0.0029049497097730637
9216.0,-0.001602045027539134
10240.0,0.00507310451939702
11264.0,-0.0004555128689389676
12288.0,-0.0033080691937357187
13312.0,-0.003640989540144801
14336.0,-0.0006904937908984721
end
