version,3.0
numOfCh,1
type,point
parent_name,10-cuts
ch_type,1_1
kcount,1
numberNandB,1
brightnessNandB,1
carpet pos,0
pc,0
Time (ms),CH1 Auto-Correlation
1.0,0.05527748912572861
2.0,0.05485460162162781
3.0,0.054427143186330795
4.0,0.05400441214442253
5.0,0.0535871796309948
6.0,0.05317842215299606
7.0,0.052766166627407074
8.0,0.052356868982315063
9.0,0.051960140466690063
10.0,0.05157391354441643
11.0,0.051196612417697906
12.0,0.05082247406244278
13.0,0.05044924467802048
14.0,0.05010117217898369
15.0,0.04976025968790054
16.0,0.049425266683101654
18.0,0.04875272139906883
20.0,0.04807926341891289
22.0,0.04742616042494774
24.0,0.046750105917453766
26.0,0.04609113931655884
28.0,0.045475155115127563
30.0,0.04485992714762688
32.0,0.044258806854486465
36.0,0.043081801384687424
40.0,0.041877225041389465
44.0,0.04067935049533844
48.0,0.03956637531518936
52.0,0.03854469954967499
56.0,0.037613965570926666
60.0,0.036735791712999344
64.0,0.03590889647603035
72.0,0.03432493656873703
80.0,0.032760754227638245
88.0,0.031467992812395096
96.0,0.030387379229068756
104.0,0.02931177243590355
112.0,0.028072334825992584
120.0,0.026990806683897972
128.0,0.02607910707592964
144.0,0.024571267887949944
160.0,0.02297605574131012
176.0,0.021346885710954666
192.0,0.019479483366012573
208.0,0.018025944009423256
224.0,0.016404498368501663
240.0,0.014821173623204231
256.0,0.013165031559765339
288.0,0.010789642110466957
320.0,0.010004502721130848
352.0,0.008786098100244999
384.0,0.007351880893111229
416.0,0.005664070602506399
448.0,0.0035852144937962294
480.0,0.0020218617282807827
512.0,-2.2598404029849917e-05
576.0,-0.005785341840237379
640.0,-0.00910100620239973
704.0,-0.007939737290143967
768.0,-0.005601635202765465
832.0,-0.0032048849388957024
896.0,-0.0006784309516660869
960.0,0.0014616288244724274
1024.0,0.0014665189664810896
1152.0,0.003655471606180072
1280.0,0.0072465077973902225
1408.0,0.00443528825417161
1536.0,-0.0001636497036088258
1664.0,-0.001814482151530683
1792.0,-0.004298627842217684
1920.0,-0.007554017007350922
2048.0,-0.004160403739660978
2304.0,0.0013095731846988201
2560.0,0.0015425288584083319
2816.0,-0.007115142419934273
3072.0,-0.009151119738817215
3328.0,-0.005158745683729649
3584.0,0.003764295019209385
3840.0,0.003440028987824917
4096.0,-0.004346321802586317
4608.0,-0.007516386453062296
5120.0,0.0038625739980489016
5632.0,-0.00035433415905572474
6144.0,-0.0012724235421046615
6656.0,0.0018164184875786304
7168.0,0.007399213034659624
7680.0,0.004960264544934034
8192.0,-0.0014967476017773151
9216.0,-0.00541731109842658
10240.0,-0.010304921306669712
11264.0,-0.0047416831366717815
12288.0,-0.006670741364359856
13312.0,0.015806404873728752
14336.0,0.004580168053507805
end
