version,3.0
numOfCh,1
type,point
parent_name,10-cuts
ch_type,1_1
kcount,1
numberNandB,1
brightnessNandB,1
carpet pos,0
pc,0
Time (ms),CH1 Auto-Correlation
1.0,0.026715492829680443
2.0,0.026508819311857224
3.0,0.026300998404622078
4.0,0.02608972229063511
5.0,0.025880398228764534
6.0,0.025668930262327194
7.0,0.025461873039603233
8.0,0.02525855042040348
9.0,0.025062058120965958
10.0,0.024869106709957123
11.0,0.024676764383912086
12.0,0.024487748742103577
13.0,0.024301929399371147
14.0,0.024115175008773804
15.0,0.023930300027132034
16.0,0.023747248575091362
18.0,0.023398343473672867
20.0,0.023054910823702812
22.0,0.02271825075149536
24.0,0.02238999865949154
26.0,0.02206103876233101
28.0,0.021734869107604027
30.0,0.02141181007027626
32.0,0.021094826981425285
36.0,0.02051202580332756
40.0,0.01998583972454071
44.0,0.01948222517967224
48.0,0.018974710255861282
52.0,0.018485721200704575
56.0,0.01801871322095394
60.0,0.01757005974650383
64.0,0.017138376832008362
72.0,0.016297008842229843
80.0,0.015508400276303291
88.0,0.014788742177188396
96.0,0.014140017330646515
104.0,0.0135691799223423
112.0,0.013042875565588474
120.0,0.012523317709565163
128.0,0.012050837278366089
144.0,0.011075264774262905
160.0,0.00984485074877739
176.0,0.008744384162127972
192.0,0.007900056429207325
208.0,0.007273426745086908
224.0,0.006772282533347607
240.0,0.006325786933302879
256.0,0.005968274082988501
288.0,0.005086928606033325
320.0,0.003750238800421357
352.0,0.0023316743317991495
384.0,0.0016849905950948596
416.0,0.0014693363336846232
448.0,0.0008937667007558048
480.0,0.0004788829537574202
512.0,0.0007926352554932237
576.0,0.001758658909238875
640.0,0.002576081780716777
704.0,0.0031075822189450264
768.0,0.0027200954500585794
832.0,0.0024520782753825188
896.0,0.0015172322746366262
960.0,0.0008141786092892289
1024.0,0.0009155536536127329
1152.0,0.0015492028323933482
1280.0,0.001846782397478819
1408.0,0.00034601104562170804
1536.0,-0.0016490843845531344
1664.0,-0.0024496621917933226
1792.0,-0.0014756651362404227
1920.0,-0.0010793666588142514
2048.0,-0.0019530942663550377
2304.0,-0.0021045461762696505
2560.0,0.0023587357718497515
2816.0,0.0007056050817482173
3072.0,0.00018967624055221677
3328.0,-0.0011436743661761284
3584.0,-0.003844816703349352
3840.0,-0.0007475383463315666
4096.0,-0.001228816225193441
4608.0,0.0013602006947621703
5120.0,0.0019738050177693367
5632.0,0.00470940163359046
6144.0,-0.001036865054629743
6656.0,-0.0001779500744305551
7168.0,-0.0020922303665429354
7680.0,-0.0023147740866988897
8192.0,-0.0007402626797556877
9216.0,-0.0004407409287523478
10240.0,-0.0005131381331011653
11264.0,0.004004074260592461
12288.0,-0.002609650604426861
13312.0,-0.003999399486929178
14336.0,-0.011133859865367413
end
