version,3.0
numOfCh,1
type,point
parent_name,10-cuts
ch_type,1_1
kcount,1
numberNandB,1
brightnessNandB,1
carpet pos,0
pc,0
Time (ms),CH1 Auto-Correlation
1.0,0.08481393754482269
2.0,0.08419380336999893
3.0,0.08358599245548248
4.0,0.0829736590385437
5.0,0.08235417306423187
6.0,0.08173146843910217
7.0,0.0811050534248352
8.0,0.08050607889890671
9.0,0.07991885393857956
10.0,0.0793270617723465
11.0,0.07876009494066238
12.0,0.07819128781557083
13.0,0.0776287391781807
14.0,0.07708436250686646
15.0,0.07653245329856873
16.0,0.07597605139017105
18.0,0.07487469911575317
20.0,0.0737919807434082
22.0,0.07273055613040924
24.0,0.07168169319629669
26.0,0.07062457501888275
28.0,0.06958431005477905
30.0,0.06856429576873779
32.0,0.06753768771886826
36.0,0.06560088694095612
40.0,0.06365631520748138
44.0,0.06180794537067413
48.0,0.06000225618481636
52.0,0.05827740207314491
56.0,0.056631218641996384
60.0,0.05502887815237045
64.0,0.05355072394013405
72.0,0.050771161913871765
80.0,0.04802653193473816
88.0,0.04533708095550537
96.0,0.04291187599301338
104.0,0.04085233062505722
112.0,0.039257533848285675
120.0,0.03770385682582855
128.0,0.03621027246117592
144.0,0.033833447843790054
160.0,0.03193824365735054
176.0,0.030629459768533707
192.0,0.029163556173443794
208.0,0.0278460793197155
224.0,0.02663094364106655
240.0,0.025552254170179367
256.0,0.024383055046200752
288.0,0.0202045738697052
320.0,0.014937586151063442
352.0,0.009720017202198505
384.0,0.006030547432601452
416.0,0.0030469063203781843
448.0,-0.0002784056996461004
480.0,-0.0026740434113889933
512.0,-0.003119826316833496
576.0,-0.0037824977189302444
640.0,-0.0035338730085641146
704.0,-0.0011444090632721782
768.0,-0.0010393026750534773
832.0,-0.00547669967636466
896.0,-0.007892541587352753
960.0,-0.007804390974342823
1024.0,-0.008566786535084248
1152.0,-0.016958054155111313
1280.0,-0.017758671194314957
1408.0,-0.016579262912273407
1536.0,-0.00681650685146451
1664.0,0.001685437629930675
1792.0,0.0017212603706866503
1920.0,-0.00158702430780977
2048.0,-0.0027556633576750755
2304.0,0.013787714764475822
2560.0,0.010296706110239029
2816.0,-0.006311939563602209
3072.0,-0.00908548291772604
3328.0,0.002055996796116233
3584.0,0.0002127927145920694
3840.0,-0.005714356899261475
4096.0,0.0016307898331433535
4608.0,-0.003102523973211646
5120.0,-0.006207035388797522
5632.0,-0.007193457800894976
6144.0,0.0021359501406550407
6656.0,0.00030089158099144697
7168.0,-0.007231399416923523
7680.0,0.0007566058775410056
8192.0,0.008954135701060295
9216.0,-0.00541644636541605
10240.0,0.007094865664839745
11264.0,0.005937310867011547
12288.0,-0.023753996938467026
13312.0,0.010476642288267612
14336.0,0.016222285106778145
end
