version,3.0
numOfCh,1
type,point
parent_name,10-cuts
ch_type,1_1
kcount,1
numberNandB,1
brightnessNandB,1
carpet pos,0
pc,0
Time (ms),CH1 Auto-Correlation
1.0,0.027022909373044968
2.0,0.026829099282622337
3.0,0.02664082869887352
4.0,0.026450736448168755
5.0,0.026259329169988632
6.0,0.026068735867738724
7.0,0.02587766759097576
8.0,0.025693194940686226
9.0,0.025511322543025017
10.0,0.025328608229756355
11.0,0.025150572881102562
12.0,0.02497376687824726
13.0,0.024795761331915855
14.0,0.024619467556476593
15.0,0.024445777758955956
16.0,0.024269791319966316
18.0,0.023922225460410118
20.0,0.023572644218802452
22.0,0.023233991116285324
24.0,0.022903703153133392
26.0,0.02257947251200676
28.0,0.022263089194893837
30.0,0.02195797860622406
32.0,0.02165108174085617
36.0,0.0210565235465765
40.0,0.02049672231078148
44.0,0.01999483071267605
48.0,0.019510112702846527
52.0,0.0190416406840086
56.0,0.01858428865671158
60.0,0.018149038776755333
64.0,0.017745988443493843
72.0,0.01698986440896988
80.0,0.01627836376428604
88.0,0.015532663092017174
96.0,0.014853266067802906
104.0,0.01431332714855671
112.0,0.01379896979779005
120.0,0.013269205577671528
128.0,0.01284737791866064
144.0,0.011927802115678787
160.0,0.010816402733325958
176.0,0.00972665660083294
192.0,0.008832438848912716
208.0,0.008063024841248989
224.0,0.00754575477913022
240.0,0.007235743571072817
256.0,0.00717178313061595
288.0,0.007348507642745972
320.0,0.007522126194089651
352.0,0.007924018427729607
384.0,0.00807615090161562
416.0,0.008221653290092945
448.0,0.008308240212500095
480.0,0.008813823573291302
512.0,0.009030335582792759
576.0,0.008966191671788692
640.0,0.007438232656568289
704.0,0.006815781816840172
768.0,0.006675899028778076
832.0,0.005998514126986265
896.0,0.0052704052068293095
960.0,0.004222158342599869
1024.0,0.00405356427654624
1152.0,0.00522439181804657
1280.0,0.0053975144401192665
1408.0,0.0032978630624711514
1536.0,0.0004584880080074072
1664.0,-0.00026578037068247795
1792.0,-0.0008478180970996618
1920.0,-0.0033182718325406313
2048.0,-0.004316089209169149
2304.0,-0.003810271853581071
2560.0,-0.0038377167657017708
2816.0,-0.00316288392059505
3072.0,-0.007606089115142822
3328.0,-0.0059173330664634705
3584.0,-0.006713639944791794
3840.0,-0.005700474139302969
4096.0,-0.005481895990669727
4608.0,-0.007163624744862318
5120.0,-0.0023062964901328087
5632.0,-0.001066973665729165
6144.0,0.0007786101778037846
6656.0,0.003203008323907852
7168.0,0.002493662992492318
7680.0,0.005643764510750771
8192.0,0.005797417834401131
9216.0,0.004641588311642408
10240.0,0.00021617203310597688
11264.0,-0.005078948102891445
12288.0,-0.009815767407417297
13312.0,-0.006143262609839439
14336.0,-0.00038686106563545763
end
