version,3.0
numOfCh,1
type,point
parent_name,10-cuts
ch_type,1_1
kcount,1
numberNandB,1
brightnessNandB,1
carpet pos,0
pc,0
Time (ms),CH1 Auto-Correlation
1.0,0.04780646786093712
2.0,0.04738892242312431
3.0,0.046976666897535324
4.0,0.04656163230538368
5.0,0.04614080488681793
6.0,0.04573308303952217
7.0,0.045342255383729935
8.0,0.044959817081689835
9.0,0.044583190232515335
10.0,0.0442204512655735
11.0,0.043863605707883835
12.0,0.04351574927568436
13.0,0.04316581040620804
14.0,0.04281546175479889
15.0,0.04247456043958664
16.0,0.04213546961545944
18.0,0.04148541018366814
20.0,0.04084068909287453
22.0,0.04021970182657242
24.0,0.03961983695626259
26.0,0.039045754820108414
28.0,0.03848310559988022
30.0,0.03794310241937637
32.0,0.037403374910354614
36.0,0.036354973912239075
40.0,0.03531765565276146
44.0,0.034360408782958984
48.0,0.03349398821592331
52.0,0.03263641148805618
56.0,0.031812723726034164
60.0,0.030971825122833252
64.0,0.0301547572016716
72.0,0.028559120371937752
80.0,0.027165371924638748
88.0,0.02594602480530739
96.0,0.02492537535727024
104.0,0.024080602452158928
112.0,0.023303095251321793
120.0,0.022503064945340157
128.0,0.02168237417936325
144.0,0.020161660388112068
160.0,0.018950341269373894
176.0,0.01778595708310604
192.0,0.01668691262602806
208.0,0.015458199195563793
224.0,0.013998099602758884
240.0,0.012508650310337543
256.0,0.01164916716516018
288.0,0.009471124969422817
320.0,0.0071686673909425735
352.0,0.006156105548143387
384.0,0.005912644788622856
416.0,0.005420598201453686
448.0,0.00428136857226491
480.0,0.00388358230702579
512.0,0.0032867707777768373
576.0,0.0026099123060703278
640.0,0.0045737880282104015
704.0,0.008825060911476612
768.0,0.011435207910835743
832.0,0.011726971715688705
896.0,0.009625081904232502
960.0,0.007959486916661263
1024.0,0.006484641693532467
1152.0,0.0003892121894750744
1280.0,-0.0031356646213680506
1408.0,-0.001246502622961998
1536.0,0.005791120696812868
1664.0,0.007434614468365908
1792.0,0.007648935075849295
1920.0,0.00613259756937623
2048.0,0.004144847858697176
2304.0,0.002242778427898884
2560.0,0.0021212755236774683
2816.0,0.0009621838107705116
3072.0,-0.005662804935127497
3328.0,-0.0064652590081095695
3584.0,-0.0037575436290353537
3840.0,-0.009845199063420296
4096.0,-0.013683036901056767
4608.0,-0.0049110474064946175
5120.0,-0.007283343467861414
5632.0,-0.007954676635563374
6144.0,-0.014921256341040134
6656.0,-0.0068108816631138325
7168.0,-0.001590046682395041
7680.0,-0.002144360216334462
8192.0,-0.003469604067504406
9216.0,0.008360404521226883
10240.0,0.011259066872298717
11264.0,0.011984366923570633
12288.0,0.008677760139107704
13312.0,-0.00471468735486269
14336.0,-0.007972082123160362
end
