version,3.0
numOfCh,1
type,point
parent_name,10-cuts
ch_type,1_1
kcount,1
numberNandB,1
brightnessNandB,1
carpet pos,0
pc,0
Time (ms),CH1 Auto-Correlation
1.0,0.0983806774020195
2.0,0.09782540053129196
3.0,0.09727340936660767
4.0,0.09673453122377396
5.0,0.09620916843414307
6.0,0.09569016098976135
7.0,0.09517291188240051
8.0,0.09468648582696915
9.0,0.09420222043991089
10.0,0.09373793005943298
11.0,0.09328383207321167
12.0,0.09283926337957382
13.0,0.0923960730433464
14.0,0.09195275604724884
15.0,0.09151698648929596
16.0,0.09107770770788193
18.0,0.0901966318488121
20.0,0.08932392299175262
22.0,0.08850663900375366
24.0,0.08769163489341736
26.0,0.086898572742939
28.0,0.08615276962518692
30.0,0.08543343096971512
32.0,0.08474253118038177
36.0,0.08346090465784073
40.0,0.08233315497636795
44.0,0.0812176764011383
48.0,0.08011079579591751
52.0,0.07903677225112915
56.0,0.0780414342880249
60.0,0.07708992809057236
64.0,0.07619557529687881
72.0,0.07447830587625504
80.0,0.07263993471860886
88.0,0.07065461575984955
96.0,0.06863987445831299
104.0,0.06680721789598465
112.0,0.0651177167892456
120.0,0.06356339901685715
128.0,0.062010545283555984
144.0,0.059014394879341125
160.0,0.05620887875556946
176.0,0.05359712988138199
192.0,0.051062121987342834
208.0,0.048748500645160675
224.0,0.04633207619190216
240.0,0.04380057007074356
256.0,0.041751883924007416
288.0,0.03913786634802818
320.0,0.03608866035938263
352.0,0.03331818804144859
384.0,0.03148866817355156
416.0,0.029964899644255638
448.0,0.028736423701047897
480.0,0.02637089230120182
512.0,0.023669499903917313
576.0,0.01939937099814415
640.0,0.016206873580813408
704.0,0.014745726250112057
768.0,0.011781676672399044
832.0,0.007257926277816296
896.0,0.0039432295598089695
960.0,0.0022847328800708055
1024.0,0.003213695017620921
1152.0,-0.0008296503801830113
1280.0,-0.006115458905696869
1408.0,-0.009735417552292347
1536.0,-0.005832497030496597
1664.0,-0.000197864297660999
1792.0,0.0054250359535217285
1920.0,0.005190496798604727
2048.0,0.0034069165121763945
2304.0,0.00016474295989610255
2560.0,-0.008612586185336113
2816.0,-0.014719621278345585
3072.0,-0.018696842715144157
3328.0,-0.01997216045856476
3584.0,-0.014704381115734577
3840.0,-0.0070387632586061954
4096.0,-0.0007385832141153514
4608.0,-0.0003295365022495389
5120.0,-0.00990916695445776
5632.0,-0.009701955132186413
6144.0,0.0002445699356030673
6656.0,0.020335035398602486
7168.0,0.017898965626955032
7680.0,-0.001461444771848619
8192.0,0.0003260978846810758
9216.0,0.005493620876222849
10240.0,0.003517518285661936
11264.0,-0.016972115263342857
12288.0,-0.05585140734910965
13312.0,-0.02206301875412464
14336.0,0.009683752432465553
end
