version,3.0
numOfCh,1
type,point
parent_name,10-cuts
ch_type,1_1
kcount,1
numberNandB,1
brightnessNandB,1
carpet pos,0
pc,0
Time (ms),CH1 Auto-Correlation
1.0,0.09745385497808456
2.0,0.09691072255373001
3.0,0.09638139605522156
4.0,0.09587355703115463
5.0,0.09536653012037277
6.0,0.0948634222149849
7.0,0.09437066316604614
8.0,0.09387680888175964
9.0,0.09336863458156586
10.0,0.09287166595458984
11.0,0.09238599985837936
12.0,0.09191597253084183
13.0,0.09144686162471771
14.0,0.09098249673843384
15.0,0.0905122309923172
16.0,0.0900457426905632
18.0,0.08912553638219833
20.0,0.08821531385183334
22.0,0.08734642714262009
24.0,0.08651525527238846
26.0,0.08571658283472061
28.0,0.08494453132152557
30.0,0.0841607004404068
32.0,0.08337302505970001
36.0,0.08185460418462753
40.0,0.08032619208097458
44.0,0.07880669832229614
48.0,0.07733447849750519
52.0,0.07597184926271439
56.0,0.07467737048864365
60.0,0.0734405368566513
64.0,0.07230101525783539
72.0,0.07011120766401291
80.0,0.06787639856338501
88.0,0.06579343974590302
96.0,0.06392383575439453
104.0,0.062167469412088394
112.0,0.060490939766168594
120.0,0.05885319784283638
128.0,0.05709313973784447
144.0,0.05384162813425064
160.0,0.050518255680799484
176.0,0.04689968749880791
192.0,0.043457962572574615
208.0,0.04046887531876564
224.0,0.037784166634082794
240.0,0.03491012752056122
256.0,0.032396841794252396
288.0,0.027170760557055473
320.0,0.02139946259558201
352.0,0.01516366470605135
384.0,0.01012385543435812
416.0,0.006785833276808262
448.0,0.003832163056358695
480.0,0.0004656121018342674
512.0,-0.001954198582097888
576.0,-0.0045402259565889835
640.0,-0.00555460574105382
704.0,-0.005588766187429428
768.0,-0.00745686748996377
832.0,-0.008478986099362373
896.0,-0.00903218612074852
960.0,-0.01023897621780634
1024.0,-0.012377050705254078
1152.0,-0.018483318388462067
1280.0,-0.01621977612376213
1408.0,-0.008658032864332199
1536.0,-0.0013620139798149467
1664.0,-0.0015196793247014284
1792.0,-0.005939166992902756
1920.0,-0.0031700385734438896
2048.0,0.004025313537567854
2304.0,0.012915794737637043
2560.0,0.007980192080140114
2816.0,0.011684536002576351
3072.0,0.020271506160497665
3328.0,-0.00538249034434557
3584.0,-0.022516770288348198
3840.0,-0.016506671905517578
4096.0,-0.008765301667153835
4608.0,-0.007467715535312891
5120.0,-0.004586495459079742
5632.0,-0.002039747778326273
6144.0,-0.0004633341741282493
6656.0,-0.014709078706800938
7168.0,-0.011335054412484169
7680.0,0.009020518511533737
8192.0,0.00642597209662199
9216.0,-0.005151180550456047
10240.0,0.023031163960695267
11264.0,-0.00658052135258913
12288.0,0.007699701003730297
13312.0,-0.012235022149980068
14336.0,-0.01796153374016285
end
