version,3.0
numOfCh,1
type,point
parent_name,10-cuts
ch_type,1_1
kcount,1
numberNandB,1
brightnessNandB,1
carpet pos,0
pc,0
Time (ms),CH1 Auto-Correlation
1.0,0.02786977030336857
2.0,0.027676811441779137
3.0,0.02748381346464157
4.0,0.02729157917201519
5.0,0.027102738618850708
6.0,0.026920320466160774
7.0,0.02673991397023201
8.0,0.026564257219433784
9.0,0.02638954669237137
10.0,0.026216009631752968
11.0,0.026042208075523376
12.0,0.02587740868330002
13.0,0.025712482631206512
14.0,0.025548415258526802
15.0,0.025385934859514236
16.0,0.025226227939128876
18.0,0.02492375485599041
20.0,0.02463999018073082
22.0,0.02435963600873947
24.0,0.024078119546175003
26.0,0.02379797399044037
28.0,0.023509573191404343
30.0,0.023217957466840744
32.0,0.022931160405278206
36.0,0.022371338680386543
40.0,0.02180524356663227
44.0,0.02126186713576317
48.0,0.020736223086714745
52.0,0.0202193446457386
56.0,0.019694380462169647
60.0,0.01916896551847458
64.0,0.01865064539015293
72.0,0.01763896644115448
80.0,0.016673007979989052
88.0,0.015686364844441414
96.0,0.014726386405527592
104.0,0.013860154896974564
112.0,0.013065752573311329
120.0,0.012385806068778038
128.0,0.011731676757335663
144.0,0.010547271929681301
160.0,0.00958581455051899
176.0,0.008797552436590195
192.0,0.008206021040678024
208.0,0.007857578806579113
224.0,0.007598294410854578
240.0,0.007245303131639957
256.0,0.006912359967827797
288.0,0.006030466873198748
320.0,0.005546444095671177
352.0,0.005149294622242451
384.0,0.00514029897749424
416.0,0.004926308989524841
448.0,0.004892111290246248
480.0,0.0048299324698746204
512.0,0.004715633578598499
576.0,0.003948712721467018
640.0,0.0022771055810153484
704.0,0.0005517286481335759
768.0,-0.0006116025033406913
832.0,-0.00028201594250276685
896.0,0.00042338494677096605
960.0,0.0005548890330828726
1024.0,0.0010754164541140199
1152.0,0.002476712688803673
1280.0,0.0022615997586399317
1408.0,0.00028162336093373597
1536.0,-0.0017578800907358527
1664.0,-0.0011033077025786042
1792.0,-0.000538858468644321
1920.0,-0.0006384223233908415
2048.0,-0.0010107439011335373
2304.0,0.0017340827034786344
2560.0,-0.0013138583162799478
2816.0,0.0019397917203605175
3072.0,0.0012214778689667583
3328.0,0.0022182990796864033
3584.0,0.0010953238233923912
3840.0,0.0004877909377682954
4096.0,0.001381056266836822
4608.0,-0.0025964081287384033
5120.0,-0.0052374862134456635
5632.0,-0.003687062067911029
6144.0,0.00021717800700571388
6656.0,-0.0004539807850960642
7168.0,-0.0014891520841047168
7680.0,-0.003920288290828466
8192.0,-0.0015850794734433293
9216.0,-0.0024565462954342365
10240.0,-0.000996357062831521
11264.0,-0.0024680329952389
12288.0,0.005530349910259247
13312.0,-6.694301555398852e-05
14336.0,-0.00035621796268969774
end
