version,3.0
numOfCh,1
type,point
parent_name,10-cuts
ch_type,1_1
kcount,1
numberNandB,1
brightnessNandB,1
carpet pos,0
pc,0
Time (ms),CH1 Auto-Correlation
1.0,0.07458651810884476
2.0,0.07405401766300201
3.0,0.07353801280260086
4.0,0.07303325831890106
5.0,0.07252303510904312
6.0,0.07201389223337173
7.0,0.07152743637561798
8.0,0.07104191184043884
9.0,0.07056444138288498
10.0,0.07009753584861755
11.0,0.06964432448148727
12.0,0.06918781995773315
13.0,0.06873782724142075
14.0,0.0683048889040947
15.0,0.06787793338298798
16.0,0.06744176149368286
18.0,0.06655561923980713
20.0,0.06568748503923416
22.0,0.06485278904438019
24.0,0.06404266506433487
26.0,0.063237763941288
28.0,0.06246042996644974
30.0,0.0617147795855999
32.0,0.06099298223853111
36.0,0.05967210978269577
40.0,0.0584041103720665
44.0,0.057198211550712585
48.0,0.056027624756097794
52.0,0.054896336048841476
56.0,0.053873561322689056
60.0,0.05295712128281593
64.0,0.05202886834740639
72.0,0.050198994576931
80.0,0.04854219779372215
88.0,0.046986062079668045
96.0,0.04549742117524147
104.0,0.044008709490299225
112.0,0.04237103462219238
120.0,0.04076253995299339
128.0,0.03938572481274605
144.0,0.03702370449900627
160.0,0.03470119088888168
176.0,0.032960861921310425
192.0,0.031499043107032776
208.0,0.03030257485806942
224.0,0.028967099264264107
240.0,0.027792826294898987
256.0,0.02687634713947773
288.0,0.02620556578040123
320.0,0.026531387120485306
352.0,0.02749595418572426
384.0,0.02692609839141369
416.0,0.026630451902747154
448.0,0.0274291280657053
480.0,0.02797437272965908
512.0,0.02633112482726574
576.0,0.023707576096057892
640.0,0.0197567418217659
704.0,0.015216430649161339
768.0,0.011492390185594559
832.0,0.010940671898424625
896.0,0.010867021046578884
960.0,0.012629774399101734
1024.0,0.012113393284380436
1152.0,0.005469394847750664
1280.0,-0.0007580750389024615
1408.0,-0.0028674528002738953
1536.0,-0.005122338887304068
1664.0,-0.008581479080021381
1792.0,-0.010238823480904102
1920.0,-0.008424274623394012
2048.0,-0.006498398724943399
2304.0,-0.011804726906120777
2560.0,-0.012085678055882454
2816.0,-0.01205203402787447
3072.0,-0.00680017052218318
3328.0,-0.004235588014125824
3584.0,0.00021099524747114629
3840.0,0.0018944392213597894
4096.0,0.0057372949086129665
4608.0,0.007484548259526491
5120.0,0.006747871171683073
5632.0,-0.00469781132414937
6144.0,-0.006745327264070511
6656.0,-0.012163575738668442
7168.0,0.0007347141508944333
7680.0,0.008184557780623436
8192.0,0.015327723696827888
9216.0,0.00829314161092043
10240.0,-0.023233631625771523
11264.0,-0.04015225172042847
12288.0,-0.0016745871398597956
13312.0,0.01847963221371174
14336.0,-0.01971380226314068
end
