version,3.0
numOfCh,1
type,point
parent_name,10-cuts
ch_type,1_1
kcount,1
numberNandB,1
brightnessNandB,1
carpet pos,0
pc,0
Time (ms),CH1 Auto-Correlation
1.0,0.06469202786684036
2.0,0.06414559483528137
3.0,0.06360125541687012
4.0,0.06307077407836914
5.0,0.0625464916229248
6.0,0.062025945633649826
7.0,0.061508916318416595
8.0,0.061003390699625015
9.0,0.06049930676817894
10.0,0.060014739632606506
11.0,0.059555210173130035
12.0,0.05909811332821846
13.0,0.05866244435310364
14.0,0.058236368000507355
15.0,0.057823143899440765
16.0,0.057417288422584534
18.0,0.056651677936315536
20.0,0.055925626307725906
22.0,0.05522311106324196
24.0,0.054581549018621445
26.0,0.05398179963231087
28.0,0.05340522900223732
30.0,0.05285610258579254
32.0,0.05230003595352173
36.0,0.05115419626235962
40.0,0.05000552907586098
44.0,0.04883049800992012
48.0,0.04768035560846329
52.0,0.046601079404354095
56.0,0.045513302087783813
60.0,0.044360995292663574
64.0,0.0431210994720459
72.0,0.0407419316470623
80.0,0.03852175176143646
88.0,0.03645773231983185
96.0,0.03459879755973816
104.0,0.03297783061861992
112.0,0.031498752534389496
120.0,0.030062172561883926
128.0,0.02872340939939022
144.0,0.026492934674024582
160.0,0.024516761302947998
176.0,0.0227724127471447
192.0,0.020926550030708313
208.0,0.01934630051255226
224.0,0.018349070101976395
240.0,0.01747306063771248
256.0,0.016422530636191368
288.0,0.013450236059725285
320.0,0.009835498407483101
352.0,0.006177130155265331
384.0,0.004499724600464106
416.0,0.004897603299468756
448.0,0.006075040902942419
480.0,0.006969162728637457
512.0,0.007476585917174816
576.0,0.007561022415757179
640.0,0.0077615114860236645
704.0,0.008612502366304398
768.0,0.007112856954336166
832.0,0.005756365600973368
896.0,0.0014528980245813727
960.0,-0.0014500635443255305
1024.0,-0.0007910258718766272
1152.0,0.0012807307066395879
1280.0,0.005282777361571789
1408.0,0.0065979789942502975
1536.0,0.00933766271919012
1664.0,0.014411316253244877
1792.0,0.0118428785353899
1920.0,0.007221098989248276
2048.0,0.0040367236360907555
2304.0,0.00830824114382267
2560.0,0.007174200844019651
2816.0,0.003196460660547018
3072.0,0.0014136121608316898
3328.0,0.0036198911257088184
3584.0,-0.0031730791088193655
3840.0,-0.004049637820571661
4096.0,0.0013741455040872097
4608.0,0.005648057907819748
5120.0,0.006393501069396734
5632.0,0.005810674279928207
6144.0,-0.0002366716362303123
6656.0,-0.001207397785037756
7168.0,0.0015473802341148257
7680.0,-0.002685064449906349
8192.0,-0.0030336258932948112
9216.0,-0.015156807377934456
10240.0,-0.004068298730999231
11264.0,-0.018615052103996277
12288.0,-0.010980016551911831
13312.0,-0.02594672702252865
14336.0,-0.032631151378154755
end
