version,3.0
numOfCh,1
type,point
parent_name,10-cuts
ch_type,1_1
kcount,1
numberNandB,1
brightnessNandB,1
carpet pos,0
pc,0
Time (ms),CH1 Auto-Correlation
1.0,0.05207377299666405
2.0,0.05168094485998154
3.0,0.05128864943981171
4.0,0.05089744180440903
5.0,0.0505145788192749
6.0,0.0501445047557354
7.0,0.04977452754974365
8.0,0.04941369220614433
9.0,0.04906431585550308
10.0,0.04871517792344093
11.0,0.04838031530380249
12.0,0.0480482392013073
13.0,0.047721799463033676
14.0,0.04740874841809273
15.0,0.047096870839595795
16.0,0.046794794499874115
18.0,0.04616634547710419
20.0,0.04554644599556923
22.0,0.044930584728717804
24.0,0.04432038590312004
26.0,0.043734610080718994
28.0,0.0431467667222023
30.0,0.04257631301879883
32.0,0.0420256108045578
36.0,0.04088885337114334
40.0,0.039744049310684204
44.0,0.038663558661937714
48.0,0.03762012720108032
52.0,0.036569852381944656
56.0,0.035541631281375885
60.0,0.034568727016448975
64.0,0.033632323145866394
72.0,0.03194360062479973
80.0,0.030378445982933044
88.0,0.02886490523815155
96.0,0.027383953332901
104.0,0.02589326910674572
112.0,0.024481112137436867
120.0,0.023308513686060905
128.0,0.02234996296465397
144.0,0.020337611436843872
160.0,0.018291767686605453
176.0,0.016429493203759193
192.0,0.014530004933476448
208.0,0.012767302803695202
224.0,0.011413649655878544
240.0,0.010564425028860569
256.0,0.00978042371571064
288.0,0.007746411021798849
320.0,0.0058639273047447205
352.0,0.0049673086032271385
384.0,0.003921579569578171
416.0,0.002819973509758711
448.0,0.0018775291973724961
480.0,0.0020551993511617184
512.0,0.002085990970954299
576.0,0.002419058233499527
640.0,0.001888700877316296
704.0,0.002185410587117076
768.0,0.002551731653511524
832.0,0.0023327642120420933
896.0,0.002609499730169773
960.0,0.0017792274011299014
1024.0,0.00036676618037745357
1152.0,-0.0027367272414267063
1280.0,-0.004606944974511862
1408.0,-0.0019048538524657488
1536.0,-0.0013324992032721639
1664.0,0.002301994012668729
1792.0,0.0028365845791995525
1920.0,0.005780840292572975
2048.0,0.0054838769137859344
2304.0,0.002816752064973116
2560.0,0.0020877111237496138
2816.0,-0.0019152999157086015
3072.0,-0.0062693520449101925
3328.0,-0.00431792251765728
3584.0,-0.0017836835468187928
3840.0,-0.004216589033603668
4096.0,-0.0024321284145116806
4608.0,-0.00259268912486732
5120.0,-0.004893213044852018
5632.0,-0.005611341446638107
6144.0,0.0011147402692586184
6656.0,0.003881234209984541
7168.0,-0.0027451789937913418
7680.0,-0.005037432070821524
8192.0,0.00024594934075139463
9216.0,-0.0052163139916956425
10240.0,-0.003967120312154293
11264.0,0.0016698561375960708
12288.0,5.836835771333426e-05
13312.0,0.005799852777272463
14336.0,0.020830219611525536
end
