version,3.0
numOfCh,1
type,point
parent_name,10-cuts
ch_type,1_1
kcount,1
numberNandB,1
brightnessNandB,1
carpet pos,0
pc,0
Time (ms),CH1 Auto-Correlation
1.0,0.06671261042356491
2.0,0.06619510054588318
3.0,0.06568869203329086
4.0,0.0651884600520134
5.0,0.06469137966632843
6.0,0.06420275568962097
7.0,0.06371761858463287
8.0,0.06324269622564316
9.0,0.06276147812604904
10.0,0.06230585649609566
11.0,0.06184680387377739
12.0,0.06139066815376282
13.0,0.060940634459257126
14.0,0.06049402430653572
15.0,0.0600508414208889
16.0,0.059613216668367386
18.0,0.05878044292330742
20.0,0.05796881020069122
22.0,0.05715261772274971
24.0,0.05636553093791008
26.0,0.05558524280786514
28.0,0.05480775237083435
30.0,0.05406368151307106
32.0,0.053334519267082214
36.0,0.05188322812318802
40.0,0.05050482973456383
44.0,0.04917283356189728
48.0,0.04788712039589882
52.0,0.04667481780052185
56.0,0.04551481455564499
60.0,0.04442436248064041
64.0,0.04343704506754875
72.0,0.04159286245703697
80.0,0.03974238783121109
88.0,0.03797431290149689
96.0,0.036319732666015625
104.0,0.03484039381146431
112.0,0.03334257751703262
120.0,0.031989920884370804
128.0,0.030892059206962585
144.0,0.02859913371503353
160.0,0.026106834411621094
176.0,0.0241132453083992
192.0,0.022514110431075096
208.0,0.020982511341571808
224.0,0.019390027970075607
240.0,0.017606910318136215
256.0,0.015820294618606567
288.0,0.012875023297965527
320.0,0.010398970916867256
352.0,0.008595929481089115
384.0,0.006076422054320574
416.0,0.0026230469811707735
448.0,0.00018650003767106682
480.0,-0.0011527007445693016
512.0,-0.0018157887971028686
576.0,-0.0030052580405026674
640.0,-0.001993483630940318
704.0,0.0007496460457332432
768.0,-0.0007703392766416073
832.0,-0.00396231934428215
896.0,-0.0037153044249862432
960.0,-0.004948184359818697
1024.0,-0.007838345132768154
1152.0,-0.006085211411118507
1280.0,-0.004908200819045305
1408.0,-0.004063451662659645
1536.0,-0.005098830442875624
1664.0,-0.007153916638344526
1792.0,-0.005957859102636576
1920.0,-0.006402234081178904
2048.0,-0.005701512563973665
2304.0,0.0014126774622127414
2560.0,0.005329469684511423
2816.0,-0.0011191690573468804
3072.0,0.0024115596897900105
3328.0,0.015175829641520977
3584.0,0.009987174533307552
3840.0,0.004787082318216562
4096.0,0.0016168946167454123
4608.0,-0.007704182527959347
5120.0,-0.0037459135055541992
5632.0,-0.000574829347897321
6144.0,0.0002525036397855729
6656.0,-0.0012379353865981102
7168.0,-0.000609319657087326
7680.0,-0.002780101727694273
8192.0,-0.0035364001523703337
9216.0,-0.00256150565110147
10240.0,-0.00824800506234169
11264.0,0.014839493669569492
12288.0,-0.018003735691308975
13312.0,-0.010647253133356571
14336.0,0.026396313682198524
end
