version,3.0
numOfCh,1
type,point
parent_name,10-cuts
ch_type,1_1
kcount,1
numberNandB,1
brightnessNandB,1
carpet pos,0
pc,0
Time (ms),CH1 Auto-Correlation
1.0,0.028905946761369705
2.0,0.028667084872722626
3.0,0.028428664430975914
4.0,0.028194919228553772
5.0,0.027972916141152382
6.0,0.02775334194302559
7.0,0.027540192008018494
8.0,0.027329035103321075
9.0,0.027120647951960564
10.0,0.02691151387989521
11.0,0.026714621111750603
12.0,0.026519663631916046
13.0,0.02632460556924343
14.0,0.026123031973838806
15.0,0.02592274360358715
16.0,0.025723248720169067
18.0,0.02533450722694397
20.0,0.02494780533015728
22.0,0.024565689265727997
24.0,0.02419159933924675
26.0,0.023829011246562004
28.0,0.023464864119887352
30.0,0.02310018427670002
32.0,0.022737843915820122
36.0,0.022098200395703316
40.0,0.0215081088244915
44.0,0.02093559131026268
48.0,0.020406179130077362
52.0,0.0199417807161808
56.0,0.019497836008667946
60.0,0.019064337015151978
64.0,0.018656305968761444
72.0,0.017954403534531593
80.0,0.017349744215607643
88.0,0.01678505912423134
96.0,0.016283245757222176
104.0,0.015851721167564392
112.0,0.015466682612895966
120.0,0.015125582925975323
128.0,0.01484015490859747
144.0,0.014367298223078251
160.0,0.013721340335905552
176.0,0.013071832247078419
192.0,0.012260014191269875
208.0,0.011648193933069706
224.0,0.011187663301825523
240.0,0.010961134918034077
256.0,0.010903757996857166
288.0,0.01079449150711298
320.0,0.010190799832344055
352.0,0.008911916054785252
384.0,0.0077247340232133865
416.0,0.0068794237449765205
448.0,0.006045372225344181
480.0,0.005146846640855074
512.0,0.004169512540102005
576.0,0.0023809722624719143
640.0,0.0008669153321534395
704.0,-0.00019001906912308186
768.0,-0.0016183039406314492
832.0,-0.0026211291551589966
896.0,-0.003917870577424765
960.0,-0.0046114870347082615
1024.0,-0.004477090667933226
1152.0,-0.0067492215894162655
1280.0,-0.006255901884287596
1408.0,-0.002535694045946002
1536.0,-0.0007131100283004344
1664.0,0.0010051190620288253
1792.0,0.0033074505627155304
1920.0,0.004390036221593618
2048.0,0.003924443852156401
2304.0,0.0026189954951405525
2560.0,0.00043136184103786945
2816.0,-0.004679446574300528
3072.0,-0.006305761635303497
3328.0,-0.005422721151262522
3584.0,-0.0019435808062553406
3840.0,0.0013910374836996198
4096.0,0.0023774481378495693
4608.0,0.002851381665095687
5120.0,0.0003044962359126657
5632.0,-0.003828846151009202
6144.0,-0.0045019458048045635
6656.0,-0.00019045028602704406
7168.0,2.1353929696488194e-05
7680.0,-0.0066829947754740715
8192.0,-0.008294678293168545
9216.0,0.005531553644686937
10240.0,-0.0013565216213464737
11264.0,0.0037281052209436893
12288.0,-0.0025053301360458136
13312.0,0.003233518684282899
14336.0,-0.0007883154321461916
end
