version,3.0
numOfCh,1
type,point
parent_name,10-cuts
ch_type,1_1
kcount,1
numberNandB,1
brightnessNandB,1
carpet pos,0
pc,0
Time (ms),CH1 Auto-Correlation
1.0,0.08331877738237381
2.0,0.08274555951356888
3.0,0.08219526708126068
4.0,0.08165531605482101
5.0,0.08112409710884094
6.0,0.08058348298072815
7.0,0.08003600686788559
8.0,0.07949655503034592
9.0,0.07897103577852249
10.0,0.07845915853977203
11.0,0.07795777916908264
12.0,0.07745817303657532
13.0,0.07695905864238739
14.0,0.0764792412519455
15.0,0.07600969821214676
16.0,0.07552752643823624
18.0,0.07456345111131668
20.0,0.07361259311437607
22.0,0.07266252487897873
24.0,0.07175823301076889
26.0,0.07090798765420914
28.0,0.07009699195623398
30.0,0.06932584941387177
32.0,0.06857416033744812
36.0,0.0670819878578186
40.0,0.06564617902040482
44.0,0.06429442763328552
48.0,0.06305167824029922
52.0,0.06191323325037956
56.0,0.06086301803588867
60.0,0.059900280088186264
64.0,0.05897703394293785
72.0,0.057296618819236755
80.0,0.055613923817873
88.0,0.053982026875019073
96.0,0.05236494168639183
104.0,0.0509357824921608
112.0,0.04943651333451271
120.0,0.04812972620129585
128.0,0.047220274806022644
144.0,0.04570603370666504
160.0,0.044658269733190536
176.0,0.043845199048519135
192.0,0.043001219630241394
208.0,0.04204137250781059
224.0,0.04095429554581642
240.0,0.039663366973400116
256.0,0.038195446133613586
288.0,0.03584723547101021
320.0,0.03355381265282631
352.0,0.032146330922842026
384.0,0.029705675318837166
416.0,0.028879273682832718
448.0,0.027714282274246216
480.0,0.025811005383729935
512.0,0.025299087166786194
576.0,0.02301720343530178
640.0,0.019214192405343056
704.0,0.01635214500129223
768.0,0.01527260709553957
832.0,0.01576138101518154
896.0,0.014383531175553799
960.0,0.012567715719342232
1024.0,0.011627398431301117
1152.0,0.007982173934578896
1280.0,0.004358389880508184
1408.0,0.002576588885858655
1536.0,-0.0007554842159152031
1664.0,-0.0017609290080145001
1792.0,-0.008299963548779488
1920.0,-0.01219701673835516
2048.0,-0.013633488677442074
2304.0,-0.01906326785683632
2560.0,-0.024133143946528435
2816.0,-0.02544945850968361
3072.0,-0.02555839531123638
3328.0,-0.025946127250790596
3584.0,-0.020586146041750908
3840.0,-0.011747919954359531
4096.0,-0.0072022597305476665
4608.0,0.003477846272289753
5120.0,0.012437066994607449
5632.0,0.01854594051837921
6144.0,0.013530395925045013
6656.0,-0.003722909139469266
7168.0,-0.012101306580007076
7680.0,-0.02230595238506794
8192.0,-0.03128034994006157
9216.0,-0.006872545927762985
10240.0,0.01832091063261032
11264.0,0.03675346449017525
12288.0,0.014025204814970493
13312.0,-0.018894802778959274
14336.0,-0.0364786721765995
end
