version,3.0
numOfCh,1
type,point
parent_name,10-cuts
ch_type,1_1
kcount,1
numberNandB,1
brightnessNandB,1
carpet pos,0
pc,0
Time (ms),CH1 Auto-Correlation
1.0,0.05412210151553154
2.0,0.05366695672273636
3.0,0.05322834104299545
4.0,0.05279184877872467
5.0,0.05236368253827095
6.0,0.05193975195288658
7.0,0.05152800306677818
8.0,0.05110865458846092
9.0,0.05068012699484825
10.0,0.05026289448142052
11.0,0.04984413459897041
12.0,0.049428943544626236
13.0,0.04901696741580963
14.0,0.04862337186932564
15.0,0.048247188329696655
16.0,0.047873713076114655
18.0,0.047134120017290115
20.0,0.0464126318693161
22.0,0.045699793845415115
24.0,0.04499766603112221
26.0,0.044274479150772095
28.0,0.0435640774667263
30.0,0.04285580292344093
32.0,0.04218051955103874
36.0,0.04085550084710121
40.0,0.03956657648086548
44.0,0.038382574915885925
48.0,0.037266843020915985
52.0,0.03620821610093117
56.0,0.03518714755773544
60.0,0.034256767481565475
64.0,0.03334663063287735
72.0,0.03151925653219223
80.0,0.02968575619161129
88.0,0.0282057486474514
96.0,0.027089571580290794
104.0,0.02611701935529709
112.0,0.02523207478225231
120.0,0.024574922397732735
128.0,0.023858165368437767
144.0,0.022363482043147087
160.0,0.02091924659907818
176.0,0.019640132784843445
192.0,0.0185058806091547
208.0,0.01746300980448723
224.0,0.01611948572099209
240.0,0.015092074871063232
256.0,0.014348558150231838
288.0,0.013600898906588554
320.0,0.012832708656787872
352.0,0.01233806274831295
384.0,0.011101257055997849
416.0,0.01105260755866766
448.0,0.011527309194207191
480.0,0.012108717113733292
512.0,0.012387641705572605
576.0,0.010840054601430893
640.0,0.00993905309587717
704.0,0.008288596756756306
768.0,0.007262564264237881
832.0,0.007576148025691509
896.0,0.008036079816520214
960.0,0.009731963276863098
1024.0,0.009945370256900787
1152.0,0.011229302734136581
1280.0,0.007002486381679773
1408.0,0.002121054334565997
1536.0,0.0008225191850215197
1664.0,0.004213195759803057
1792.0,0.005139816086739302
1920.0,-0.0011502010747790337
2048.0,-0.002081029349938035
2304.0,0.0038739272858947515
2560.0,0.0011836289195343852
2816.0,0.00019543076632544398
3072.0,-0.0023218721617013216
3328.0,-0.002386689418926835
3584.0,0.0029781400226056576
3840.0,9.547068657411728e-06
4096.0,0.0046793874353170395
4608.0,-0.0019901178311556578
5120.0,-0.012228170409798622
5632.0,-0.018158821389079094
6144.0,-0.007465720642358065
6656.0,-0.008624184876680374
7168.0,-0.005396416410803795
7680.0,-0.0035988797899335623
8192.0,-0.0039009922184050083
9216.0,-0.008357795886695385
10240.0,-0.005648731254041195
11264.0,0.008702672086656094
12288.0,0.00706353597342968
13312.0,0.0011843426618725061
14336.0,0.002208609599620104
end
