version,3.0
numOfCh,1
type,point
parent_name,10-cuts
ch_type,1_1
kcount,1
numberNandB,1
brightnessNandB,1
carpet pos,0
pc,0
Time (ms),CH1 Auto-Correlation
1.0,0.022826986387372017
2.0,0.022613834589719772
3.0,0.022402510046958923
4.0,0.02219490334391594
5.0,0.021990222856402397
6.0,0.02178146131336689
7.0,0.02156789042055607
8.0,0.021357370540499687
9.0,0.021150652319192886
10.0,0.020945647731423378
11.0,0.020741116255521774
12.0,0.020539576187729836
13.0,0.020334750413894653
14.0,0.0201313067227602
15.0,0.019933577626943588
16.0,0.01973872259259224
18.0,0.01936400681734085
20.0,0.018990492448210716
22.0,0.018626172095537186
24.0,0.018287265673279762
26.0,0.01795322634279728
28.0,0.01763276942074299
30.0,0.017318744212388992
32.0,0.01701226457953453
36.0,0.016411565244197845
40.0,0.015834931284189224
44.0,0.015264392830431461
48.0,0.01471974328160286
52.0,0.01420725416392088
56.0,0.013726280070841312
60.0,0.013263228349387646
64.0,0.012799659743905067
72.0,0.011961035430431366
80.0,0.011229755356907845
88.0,0.01054940652102232
96.0,0.009930314496159554
104.0,0.009413328021764755
112.0,0.008991485461592674
120.0,0.00871342420578003
128.0,0.008575445972383022
144.0,0.008343392983078957
160.0,0.007852251641452312
176.0,0.007351471111178398
192.0,0.0068727158941328526
208.0,0.006415115669369698
224.0,0.0061529516242444515
240.0,0.005981313530355692
256.0,0.005817051976919174
288.0,0.005285377614200115
320.0,0.004638317506760359
352.0,0.0035590226761996746
384.0,0.0030718655325472355
416.0,0.002888149581849575
448.0,0.002079470083117485
480.0,0.0013281836872920394
512.0,0.0006915173726156354
576.0,-0.0005394730833359063
640.0,-0.0014128840994089842
704.0,-0.0016553140012547374
768.0,-0.0020505057182163
832.0,-0.0010298870038241148
896.0,0.00014642834139522165
960.0,0.0008029946475289762
1024.0,0.0008470650645904243
1152.0,-0.00011736970191122964
1280.0,0.0005977671826258302
1408.0,0.0013510682620108128
1536.0,0.0005867240251973271
1664.0,0.0007751763332635164
1792.0,0.0020959188695997
1920.0,0.0032564555294811726
2048.0,0.004300662782043219
2304.0,0.0031381549779325724
2560.0,-0.0016500683268532157
2816.0,-0.002401907229796052
3072.0,-0.00021182719501666725
3328.0,0.0005035958020016551
3584.0,-0.0015945619670674205
3840.0,-0.0026131379418075085
4096.0,-0.0013811092358082533
4608.0,0.0011269610840827227
5120.0,0.000794168037828058
5632.0,-0.002487233839929104
6144.0,-0.0004690730129368603
6656.0,0.0009419197449460626
7168.0,0.0015024186577647924
7680.0,-0.0035230647772550583
8192.0,-0.0011474991915747523
9216.0,-0.001659333473071456
10240.0,-0.004680437035858631
11264.0,0.0006322785629890859
12288.0,-0.0025826143100857735
13312.0,0.002812508726492524
14336.0,-0.001443702494725585
end
