version,3.0
numOfCh,1
type,point
parent_name,10-cuts
ch_type,1_1
kcount,1
numberNandB,1
brightnessNandB,1
carpet pos,0
pc,0
Time (ms),CH1 Auto-Correlation
1.0,0.0339549258351326
2.0,0.033742353320121765
3.0,0.03353244066238403
4.0,0.03332694619894028
5.0,0.03312484174966812
6.0,0.03292495384812355
7.0,0.03272908180952072
8.0,0.03253421559929848
9.0,0.03234294056892395
10.0,0.032147299498319626
11.0,0.031958725303411484
12.0,0.031773630529642105
13.0,0.031588807702064514
14.0,0.031409427523612976
15.0,0.03123180940747261
16.0,0.031053990125656128
18.0,0.03071010112762451
20.0,0.03038003481924534
22.0,0.030057011172175407
24.0,0.029735131189227104
26.0,0.029421797022223473
28.0,0.02910715714097023
30.0,0.028792187571525574
32.0,0.028490759432315826
36.0,0.027943400666117668
40.0,0.02740001305937767
44.0,0.02682241052389145
48.0,0.02620873600244522
52.0,0.025617018342018127
56.0,0.025072790682315826
60.0,0.02455901727080345
64.0,0.024041710421442986
72.0,0.02303309738636017
80.0,0.022124607115983963
88.0,0.021334204822778702
96.0,0.020570984110236168
104.0,0.019825279712677002
112.0,0.019025901332497597
120.0,0.018182286992669106
128.0,0.017411496490240097
144.0,0.01611137203872204
160.0,0.014807024970650673
176.0,0.013498793356120586
192.0,0.012430152855813503
208.0,0.011518634855747223
224.0,0.010729409754276276
240.0,0.010056949220597744
256.0,0.009578399360179901
288.0,0.008822123520076275
320.0,0.00824186485260725
352.0,0.007535959593951702
384.0,0.006775489542633295
416.0,0.005392941180616617
448.0,0.004238286055624485
480.0,0.0028214692138135433
512.0,0.0006981813930906355
576.0,-0.0015753037296235561
640.0,-0.00253390334546566
704.0,-0.0016116215847432613
768.0,-0.000886240100953728
832.0,-0.000648616929538548
896.0,-0.00024611278786323965
960.0,-0.0008140718564391136
1024.0,-0.0005304632359184325
1152.0,0.003707736264914274
1280.0,0.0042566233314573765
1408.0,0.003110515186563134
1536.0,0.0019947527907788754
1664.0,0.000575811427552253
1792.0,-0.0009616244933567941
1920.0,-0.001046951743774116
2048.0,-0.003994916100054979
2304.0,-0.006239536218345165
2560.0,-0.0050736176781356335
2816.0,-0.00797181110829115
3072.0,-0.00598889822140336
3328.0,-0.0027877148240804672
3584.0,0.001264964696019888
3840.0,-0.00042469927575439215
4096.0,-0.006369555369019508
4608.0,-0.005902590695768595
5120.0,0.0038345681969076395
5632.0,-0.0005419927183538675
6144.0,0.0019155069021508098
6656.0,0.0054154545068740845
7168.0,0.00513266259804368
7680.0,0.0033803062979131937
8192.0,0.0006723012775182724
9216.0,-0.001112762838602066
10240.0,-0.008055349811911583
11264.0,0.0021578792948275805
12288.0,-0.0008578325505368412
13312.0,0.0012889854842796922
14336.0,0.003797410288825631
end
