version,3.0
numOfCh,1
type,point
parent_name,10-cuts
ch_type,1_1
kcount,1
numberNandB,1
brightnessNandB,1
carpet pos,0
pc,0
Time (ms),CH1 Auto-Correlation
1.0,0.07086233049631119
2.0,0.07044609636068344
3.0,0.07002848386764526
4.0,0.06961330771446228
5.0,0.06919575482606888
6.0,0.0687762126326561
7.0,0.06837711483240128
8.0,0.06798935681581497
9.0,0.06761758029460907
10.0,0.06724892556667328
11.0,0.06689151376485825
12.0,0.06651792675256729
13.0,0.06615105271339417
14.0,0.06578262150287628
15.0,0.06541334092617035
16.0,0.0650494173169136
18.0,0.06434326618909836
20.0,0.06365743279457092
22.0,0.06300600618124008
24.0,0.06235687807202339
26.0,0.061702921986579895
28.0,0.061074189841747284
30.0,0.060433145612478256
32.0,0.05978689342737198
36.0,0.05853883549571037
40.0,0.05734402313828468
44.0,0.05620652809739113
48.0,0.05512967333197594
52.0,0.05411437526345253
56.0,0.053139254450798035
60.0,0.05219274014234543
64.0,0.05123099312186241
72.0,0.049412939697504044
80.0,0.047718726098537445
88.0,0.04620569199323654
96.0,0.044829148799180984
104.0,0.04348790645599365
112.0,0.04225141555070877
120.0,0.04106486588716507
128.0,0.04006855934858322
144.0,0.03812213987112045
160.0,0.03671252727508545
176.0,0.03547378256917
192.0,0.03448422625660896
208.0,0.03374597430229187
224.0,0.03312433138489723
240.0,0.03248622268438339
256.0,0.03202485293149948
288.0,0.030429672449827194
320.0,0.02782418765127659
352.0,0.024821175262331963
384.0,0.023433035239577293
416.0,0.02247657999396324
448.0,0.02190852165222168
480.0,0.021606320515275
512.0,0.022108327597379684
576.0,0.021726448088884354
640.0,0.020025629550218582
704.0,0.019455306231975555
768.0,0.01866651512682438
832.0,0.01630079746246338
896.0,0.014126126654446125
960.0,0.01307915523648262
1024.0,0.012482238002121449
1152.0,0.008921414613723755
1280.0,0.006353612057864666
1408.0,0.006480388343334198
1536.0,0.007457826752215624
1664.0,0.007714716251939535
1792.0,0.007899965159595013
1920.0,0.004417229909449816
2048.0,0.004186352714896202
2304.0,0.0030831280164420605
2560.0,0.001927508506923914
2816.0,-0.007020943332463503
3072.0,-0.01052496861666441
3328.0,-0.00470765121281147
3584.0,-0.0032892769668251276
3840.0,-7.119756628526375e-05
4096.0,0.003488588612526655
4608.0,-0.00993034802377224
5120.0,-0.014553487300872803
5632.0,-0.019354701042175293
6144.0,-0.023349985480308533
6656.0,-0.019441040232777596
7168.0,-0.016480686143040657
7680.0,-0.002506347605958581
8192.0,0.0004928048583678901
9216.0,0.0002319321210961789
10240.0,0.00779331848025322
11264.0,-0.001668493147008121
12288.0,0.008076783269643784
13312.0,0.0002152514352928847
14336.0,-0.000413324567489326
end
