version,3.0
numOfCh,1
type,point
parent_name,10-cuts
ch_type,1_1
kcount,1
numberNandB,1
brightnessNandB,1
carpet pos,0
pc,0
Time (ms),CH1 Auto-Correlation
1.0,0.07668773084878922
2.0,0.07627594470977783
3.0,0.07586492598056793
4.0,0.07546000182628632
5.0,0.0750623345375061
6.0,0.0746600404381752
7.0,0.0742538720369339
8.0,0.07383738458156586
9.0,0.07343027740716934
10.0,0.07303380221128464
11.0,0.07263392955064774
12.0,0.07223471254110336
13.0,0.07183457911014557
14.0,0.07143744081258774
15.0,0.07104458659887314
16.0,0.07065976411104202
18.0,0.06991174072027206
20.0,0.06917548179626465
22.0,0.06847167760133743
24.0,0.06778225302696228
26.0,0.06712519377470016
28.0,0.06647802889347076
30.0,0.06583531200885773
32.0,0.06521502882242203
36.0,0.06407655030488968
40.0,0.06300026923418045
44.0,0.06196952983736992
48.0,0.06099582090973854
52.0,0.06009119004011154
56.0,0.05923474580049515
60.0,0.05840715393424034
64.0,0.05757816508412361
72.0,0.05604078993201256
80.0,0.05456198379397392
88.0,0.053146250545978546
96.0,0.0517091266810894
104.0,0.05043426901102066
112.0,0.04920314624905586
120.0,0.048000212758779526
128.0,0.04686421900987625
144.0,0.04450993239879608
160.0,0.04232321307063103
176.0,0.04044024273753166
192.0,0.038587652146816254
208.0,0.03702348843216896
224.0,0.03545485809445381
240.0,0.033775679767131805
256.0,0.03173988312482834
288.0,0.028493495658040047
320.0,0.026216818019747734
352.0,0.02342209964990616
384.0,0.02071155607700348
416.0,0.019451020285487175
448.0,0.018959736451506615
480.0,0.01831478253006935
512.0,0.017233341932296753
576.0,0.014475889503955841
640.0,0.012696778401732445
704.0,0.011550047434866428
768.0,0.011517923325300217
832.0,0.012417467311024666
896.0,0.013139160349965096
960.0,0.012922939844429493
1024.0,0.011126275174319744
1152.0,0.00562056340277195
1280.0,0.005110845435410738
1408.0,0.004851836245507002
1536.0,0.004554461222141981
1664.0,0.006511517334729433
1792.0,0.007927068509161472
1920.0,0.00998471025377512
2048.0,0.009010888636112213
2304.0,0.009203587658703327
2560.0,-0.0002650783571880311
2816.0,-0.00578289944678545
3072.0,-0.008414494805037975
3328.0,-0.000649528403300792
3584.0,0.012910059653222561
3840.0,0.005768371745944023
4096.0,0.001134020509198308
4608.0,-0.007714883890002966
5120.0,-0.022540561854839325
5632.0,-0.02143850550055504
6144.0,-0.01875140517950058
6656.0,-0.0182102769613266
7168.0,-0.0026690298691391945
7680.0,-0.014180534519255161
8192.0,-0.0027162646874785423
9216.0,-0.0038182856515049934
10240.0,-0.0020416397601366043
11264.0,0.009038912132382393
12288.0,0.0030987150967121124
13312.0,0.006331507116556168
14336.0,0.0001964203838724643
end
