version,3.0
numOfCh,1
type,point
parent_name,10-cuts
ch_type,1_1
kcount,1
numberNandB,1
brightnessNandB,1
carpet pos,0
pc,0
Time (ms),CH1 Auto-Correlation
1.0,0.09461849927902222
2.0,0.09400039911270142
3.0,0.0933862030506134
4.0,0.09279091656208038
5.0,0.09219229966402054
6.0,0.09158932417631149
7.0,0.09098799526691437
8.0,0.09040200710296631
9.0,0.08981649577617645
10.0,0.08923984318971634
11.0,0.08865419775247574
12.0,0.08808090537786484
13.0,0.08751612156629562
14.0,0.08697200566530228
15.0,0.086429163813591
16.0,0.08589746057987213
18.0,0.0848778635263443
20.0,0.08389190584421158
22.0,0.0829172134399414
24.0,0.08198022097349167
26.0,0.0810588151216507
28.0,0.0801623985171318
30.0,0.07925546169281006
32.0,0.07839169353246689
36.0,0.07675816118717194
40.0,0.07523699104785919
44.0,0.07378316670656204
48.0,0.07239241898059845
52.0,0.0710626170039177
56.0,0.06980360299348831
60.0,0.06850261986255646
64.0,0.06715194135904312
72.0,0.06478839367628098
80.0,0.06279062479734421
88.0,0.06086036562919617
96.0,0.059112634509801865
104.0,0.057696208357810974
112.0,0.056277599185705185
120.0,0.054581936448812485
128.0,0.05271964147686958
144.0,0.04927294701337814
160.0,0.046708740293979645
176.0,0.04510733112692833
192.0,0.043707527220249176
208.0,0.042492885142564774
224.0,0.0411398783326149
240.0,0.03962632641196251
256.0,0.038244232535362244
288.0,0.035041939467191696
320.0,0.03257497027516365
352.0,0.03040541149675846
384.0,0.02876283973455429
416.0,0.02586565539240837
448.0,0.022448919713497162
480.0,0.021008042618632317
512.0,0.020687401294708252
576.0,0.02121012844145298
640.0,0.01976245827972889
704.0,0.014317717403173447
768.0,0.012874508276581764
832.0,0.014632191509008408
896.0,0.016144560649991035
960.0,0.014641944319009781
1024.0,0.01216387003660202
1152.0,0.0035434297751635313
1280.0,-0.004408959299325943
1408.0,-0.009762578643858433
1536.0,-0.010611780919134617
1664.0,-0.014377445913851261
1792.0,-0.01048191823065281
1920.0,-0.010944672860205173
2048.0,-0.006506245117634535
2304.0,-0.006605993025004864
2560.0,-0.003966952208429575
2816.0,-0.002458759816363454
3072.0,0.0008327963878400624
3328.0,0.011773633770644665
3584.0,0.015778396278619766
3840.0,0.004965221509337425
4096.0,0.0040334295481443405
4608.0,0.0026371534913778305
5120.0,-0.006829653400927782
5632.0,-0.010409203357994556
6144.0,-0.021865935996174812
6656.0,-0.03404049202799797
7168.0,-0.03408356383442879
7680.0,-0.014304496347904205
8192.0,0.00703399395570159
9216.0,0.0017960857367143035
10240.0,-0.015241420827805996
11264.0,-0.0045243725180625916
12288.0,0.01892910525202751
13312.0,0.030562061816453934
14336.0,0.008044014684855938
end
