version,3.0
numOfCh,1
type,point
parent_name,10-cuts
ch_type,1_1
kcount,1
numberNandB,1
brightnessNandB,1
carpet pos,0
pc,0
Time (ms),CH1 Auto-Correlation
1.0,0.10300253331661224
2.0,0.1023903489112854
3.0,0.10179159790277481
4.0,0.10119984298944473
5.0,0.10060533136129379
6.0,0.10003268718719482
7.0,0.09944835305213928
8.0,0.09887450188398361
9.0,0.09832040220499039
10.0,0.09777133911848068
11.0,0.09722793847322464
12.0,0.09670133888721466
13.0,0.09618249535560608
14.0,0.09565849602222443
15.0,0.09514511376619339
16.0,0.09463571012020111
18.0,0.09364063292741776
20.0,0.09267516434192657
22.0,0.0917503610253334
24.0,0.09084789454936981
26.0,0.08997214585542679
28.0,0.08912602812051773
30.0,0.08829470723867416
32.0,0.08749692142009735
36.0,0.08594387769699097
40.0,0.0843561440706253
44.0,0.08276181668043137
48.0,0.08123224228620529
52.0,0.07984595000743866
56.0,0.07857856154441833
60.0,0.0773734301328659
64.0,0.07617024332284927
72.0,0.07407388091087341
80.0,0.072010338306427
88.0,0.07010804861783981
96.0,0.0683734267950058
104.0,0.06661292165517807
112.0,0.06498837471008301
120.0,0.0635550394654274
128.0,0.06219882890582085
144.0,0.05967156961560249
160.0,0.05737419053912163
176.0,0.05514416843652725
192.0,0.05227939411997795
208.0,0.04925744608044624
224.0,0.04618639126420021
240.0,0.04372631758451462
256.0,0.041337862610816956
288.0,0.03936191275715828
320.0,0.03784295916557312
352.0,0.0365421362221241
384.0,0.035796307027339935
416.0,0.034770965576171875
448.0,0.03273739665746689
480.0,0.0295051708817482
512.0,0.02569076418876648
576.0,0.020122237503528595
640.0,0.015095279552042484
704.0,0.009456677362322807
768.0,0.005919452756643295
832.0,0.004401598125696182
896.0,0.005018159281462431
960.0,0.0051881675608456135
1024.0,0.00529611436650157
1152.0,-0.0036827395670115948
1280.0,-0.009449385106563568
1408.0,-0.008310046046972275
1536.0,-0.009115050546824932
1664.0,-0.014814978465437889
1792.0,-0.019024856388568878
1920.0,-0.014196842908859253
2048.0,-0.014479114674031734
2304.0,-0.015466727316379547
2560.0,-0.008028599433600903
2816.0,-0.004859630484133959
3072.0,0.006206190679222345
3328.0,0.008923194371163845
3584.0,0.012222704477608204
3840.0,0.008240532130002975
4096.0,0.010790595784783363
4608.0,0.005403624847531319
5120.0,-0.011047914624214172
5632.0,-0.036182183772325516
6144.0,-0.026593340560793877
6656.0,-0.012489591725170612
7168.0,0.011216429062187672
7680.0,0.013657601550221443
8192.0,-0.002743145916610956
9216.0,-0.016279971227049828
10240.0,-0.00829577911645174
11264.0,-0.001971782185137272
12288.0,0.05134577304124832
13312.0,0.00015872430230956525
14336.0,0.022150332108139992
end
