version,3.0
numOfCh,1
type,point
parent_name,10-cuts
ch_type,1_1
kcount,1
numberNandB,1
brightnessNandB,1
carpet pos,0
pc,0
Time (ms),CH1 Auto-Correlation
1.0,0.06243080645799637
2.0,0.06199045851826668
3.0,0.06155472621321678
4.0,0.06112604960799217
5.0,0.060698363929986954
6.0,0.06027832254767418
7.0,0.05985943600535393
8.0,0.05944013595581055
9.0,0.05901876837015152
10.0,0.05859542265534401
11.0,0.05817663297057152
12.0,0.05776567757129669
13.0,0.05735292658209801
14.0,0.05694693326950073
15.0,0.056552983820438385
16.0,0.05616164207458496
18.0,0.05540361627936363
20.0,0.05467662960290909
22.0,0.053983189165592194
24.0,0.05334201827645302
26.0,0.05270649120211601
28.0,0.05207062512636185
30.0,0.05146689713001251
32.0,0.050898477435112
36.0,0.04985519498586655
40.0,0.048860661685466766
44.0,0.04792676493525505
48.0,0.04698945954442024
52.0,0.04608355462551117
56.0,0.04519205167889595
60.0,0.04432259127497673
64.0,0.04350743442773819
72.0,0.042132388800382614
80.0,0.04088842123746872
88.0,0.03942195698618889
96.0,0.03792387619614601
104.0,0.03644838184118271
112.0,0.035069551318883896
120.0,0.033876121044158936
128.0,0.03289257735013962
144.0,0.031234566122293472
160.0,0.02968725934624672
176.0,0.02828305959701538
192.0,0.026781313121318817
208.0,0.0249311700463295
224.0,0.0233457051217556
240.0,0.022001726552844048
256.0,0.020704684779047966
288.0,0.017429493367671967
320.0,0.01432835403829813
352.0,0.012093545868992805
384.0,0.008927746675908566
416.0,0.006120890844613314
448.0,0.003982211463153362
480.0,0.0019926829263567924
512.0,0.000635629752650857
576.0,-0.0025653208140283823
640.0,-0.0035890727303922176
704.0,-0.003385839518159628
768.0,-0.003693425329402089
832.0,-0.003653686260804534
896.0,-0.00472531421110034
960.0,-0.004508869722485542
1024.0,-0.003455531317740679
1152.0,-0.002019149949774146
1280.0,-0.0013366608181968331
1408.0,0.0003408017801120877
1536.0,0.0018804530845955014
1664.0,-0.001783483661711216
1792.0,-0.0026279741432517767
1920.0,-0.00172593689057976
2048.0,0.0007483698427677155
2304.0,0.0020318569149821997
2560.0,-0.0017196510452777147
2816.0,-0.005247229244560003
3072.0,-0.0023740516044199467
3328.0,0.0003115638974122703
3584.0,0.0016351189697161317
3840.0,-0.004827943630516529
4096.0,-0.01090162992477417
4608.0,-0.004065793007612228
5120.0,-0.007445902563631535
5632.0,-0.005918650887906551
6144.0,0.004304148256778717
6656.0,0.003566788975149393
7168.0,0.008646627888083458
7680.0,-0.001470263465307653
8192.0,0.004153912886977196
9216.0,-0.0068542128428816795
10240.0,-0.00021087600907776505
11264.0,-0.00281147169880569
12288.0,-0.014859424903988838
13312.0,0.020505769178271294
14336.0,-0.0014656457351520658
end
