version,3.0
numOfCh,1
type,point
parent_name,10-cuts
ch_type,1_1
kcount,1
numberNandB,1
brightnessNandB,1
carpet pos,0
pc,0
Time (ms),CH1 Auto-Correlation
1.0,0.03216282278299332
2.0,0.031962405890226364
3.0,0.031763337552547455
4.0,0.03156556934118271
5.0,0.031370554119348526
6.0,0.031174030154943466
7.0,0.030982673168182373
8.0,0.030794944614171982
9.0,0.03060915693640709
10.0,0.030426908284425735
11.0,0.03024386055767536
12.0,0.030068382620811462
13.0,0.029892966151237488
14.0,0.02972041256725788
15.0,0.029552940279245377
16.0,0.029390010982751846
18.0,0.029063420370221138
20.0,0.028733933344483376
22.0,0.028421929106116295
24.0,0.02811320126056671
26.0,0.02781306579709053
28.0,0.02751041203737259
30.0,0.027216700837016106
32.0,0.026927590370178223
36.0,0.02638016641139984
40.0,0.025854194536805153
44.0,0.02536625787615776
48.0,0.024920860305428505
52.0,0.024492373690009117
56.0,0.02407621219754219
60.0,0.023674963042140007
64.0,0.023278210312128067
72.0,0.022532017901539803
80.0,0.021786049008369446
88.0,0.021030226722359657
96.0,0.020266547799110413
104.0,0.019588885828852654
112.0,0.018966516479849815
120.0,0.01833976060152054
128.0,0.01770372875034809
144.0,0.016568752005696297
160.0,0.01565697230398655
176.0,0.014788763597607613
192.0,0.01405295543372631
208.0,0.013355727307498455
224.0,0.012540636584162712
240.0,0.011790627613663673
256.0,0.011260425671935081
288.0,0.010718570090830326
320.0,0.010211021639406681
352.0,0.009718295186758041
384.0,0.009316004812717438
416.0,0.008564703166484833
448.0,0.007465961389243603
480.0,0.006750954780727625
512.0,0.006108069326728582
576.0,0.004004329908639193
640.0,0.0024394583888351917
704.0,0.002023865468800068
768.0,0.0010529357241466641
832.0,0.00032669719075784087
896.0,-0.00021441004355438054
960.0,-0.0008470442844554782
1024.0,-0.0011153185041621327
1152.0,-0.0017865197733044624
1280.0,-0.0016163550317287445
1408.0,-0.0027042923029512167
1536.0,-0.0024522861931473017
1664.0,-0.0012846543686464429
1792.0,0.0008652638061903417
1920.0,0.0007106908014975488
2048.0,-0.0009712238679639995
2304.0,-0.004375991877168417
2560.0,-0.006586070172488689
2816.0,-0.00663552014157176
3072.0,-0.006627276539802551
3328.0,-0.00877284724265337
3584.0,-0.006772460415959358
3840.0,-0.003963044378906488
4096.0,-0.0012004498858004808
4608.0,0.001103048212826252
5120.0,0.005370860919356346
5632.0,0.004291366785764694
6144.0,0.0016230590408667922
6656.0,-0.0006883622263558209
7168.0,-0.0007126385462470353
7680.0,-0.000591442221775651
8192.0,-0.0032933270558714867
9216.0,-0.0012867882614955306
10240.0,0.0013652234338223934
11264.0,0.004476084373891354
12288.0,0.00039348858990706503
13312.0,-0.003034970024600625
14336.0,-0.0007002956699579954
end
