version,3.0
numOfCh,1
type,point
parent_name,10-cuts
ch_type,1_1
kcount,1
numberNandB,1
brightnessNandB,1
carpet pos,0
pc,0
Time (ms),CH1 Auto-Correlation
1.0,0.08605295419692993
2.0,0.08552137017250061
3.0,0.08500633388757706
4.0,0.08448821306228638
5.0,0.0839790478348732
6.0,0.08346199989318848
7.0,0.08295398950576782
8.0,0.0824502632021904
9.0,0.08195547759532928
10.0,0.08146896213293076
11.0,0.08099272102117538
12.0,0.08052989095449448
13.0,0.0800650343298912
14.0,0.0796017050743103
15.0,0.0791407972574234
16.0,0.07867809385061264
18.0,0.07775413990020752
20.0,0.07686407119035721
22.0,0.07601425796747208
24.0,0.07518655806779861
26.0,0.07439342886209488
28.0,0.07362755388021469
30.0,0.07288732379674911
32.0,0.07217374444007874
36.0,0.07083531469106674
40.0,0.06957291811704636
44.0,0.06842664629220963
48.0,0.06739907711744308
52.0,0.0665004625916481
56.0,0.06564543396234512
60.0,0.06477620452642441
64.0,0.0639263391494751
72.0,0.06241859123110771
80.0,0.0608334019780159
88.0,0.05933466926217079
96.0,0.05800812318921089
104.0,0.056725114583969116
112.0,0.05554218590259552
120.0,0.05420074984431267
128.0,0.052847348153591156
144.0,0.05023672431707382
160.0,0.04792867973446846
176.0,0.04621247947216034
192.0,0.04505501687526703
208.0,0.04424724727869034
224.0,0.04310757294297218
240.0,0.04227074235677719
256.0,0.04117199778556824
288.0,0.03827851265668869
320.0,0.035330142825841904
352.0,0.03191211819648743
384.0,0.027837730944156647
416.0,0.023961013182997704
448.0,0.020944520831108093
480.0,0.01885223016142845
512.0,0.016424473375082016
576.0,0.01179588120430708
640.0,0.008346845395863056
704.0,0.006163423880934715
768.0,0.004599505104124546
832.0,0.0021758475340902805
896.0,-0.0018611819250509143
960.0,-0.006466727703809738
1024.0,-0.01069579366594553
1152.0,-0.010825715959072113
1280.0,-0.010364518500864506
1408.0,-0.011929485946893692
1536.0,-0.009810230694711208
1664.0,-0.01018870621919632
1792.0,-0.01118932943791151
1920.0,-0.01251671276986599
2048.0,-0.013655425049364567
2304.0,-0.012673583813011646
2560.0,-0.008793015033006668
2816.0,-0.0013287558685988188
3072.0,0.009361905977129936
3328.0,0.013940061442553997
3584.0,0.007287091109901667
3840.0,-0.010660490021109581
4096.0,-0.02660207636654377
4608.0,-0.020081060007214546
5120.0,0.005236887838691473
5632.0,0.012197467498481274
6144.0,0.018764305859804153
6656.0,0.02493588626384735
7168.0,0.000998029368929565
7680.0,-0.020160295069217682
8192.0,-0.010925362817943096
9216.0,-0.004929428454488516
10240.0,-0.011685245670378208
11264.0,-0.01666192151606083
12288.0,0.016607046127319336
13312.0,0.002415854251012206
14336.0,-0.0009951527463272214
end
