version,3.0
numOfCh,1
type,point
parent_name,10-cuts
ch_type,1_1
kcount,1
numberNandB,1
brightnessNandB,1
carpet pos,0
pc,0
Time (ms),CH1 Auto-Correlation
1.0,0.06452416628599167
2.0,0.06398102641105652
3.0,0.06343149393796921
4.0,0.06289715319871902
5.0,0.06235964968800545
6.0,0.061849553138017654
7.0,0.06136195734143257
8.0,0.06088044494390488
9.0,0.060387853533029556
10.0,0.059898823499679565
11.0,0.05941935256123543
12.0,0.05894243344664574
13.0,0.05846332758665085
14.0,0.057983484119176865
15.0,0.05751418694853783
16.0,0.05704537779092789
18.0,0.056131161749362946
20.0,0.05521322786808014
22.0,0.05431557074189186
24.0,0.05345756560564041
26.0,0.05262906849384308
28.0,0.0518050454556942
30.0,0.050991807132959366
32.0,0.0502055287361145
36.0,0.04868545010685921
40.0,0.04724530130624771
44.0,0.0459054633975029
48.0,0.04462239891290665
52.0,0.043421123176813126
56.0,0.042256031185388565
60.0,0.04116586223244667
64.0,0.040187057107686996
72.0,0.03830549120903015
80.0,0.036479417234659195
88.0,0.03480823338031769
96.0,0.03316505625844002
104.0,0.031454797834157944
112.0,0.02978399768471718
120.0,0.028280260041356087
128.0,0.02675076201558113
144.0,0.024210771545767784
160.0,0.022135086357593536
176.0,0.02016258053481579
192.0,0.018026024103164673
208.0,0.015619748272001743
224.0,0.013143740594387054
240.0,0.01094750128686428
256.0,0.008890739642083645
288.0,0.005293933674693108
320.0,0.003619380993768573
352.0,0.002884573768824339
384.0,0.0006926011410541832
416.0,-0.000983138452284038
448.0,-0.0015763482078909874
480.0,-0.0018490947550162673
512.0,-0.0020783161744475365
576.0,-0.004346888978034258
640.0,-0.006507267244160175
704.0,-0.008608503267168999
768.0,-0.009199988096952438
832.0,-0.007868707180023193
896.0,-0.005701300222426653
960.0,-0.003110682824626565
1024.0,-0.0016592941246926785
1152.0,-0.0037698205560445786
1280.0,-0.006954473908990622
1408.0,-0.009547362104058266
1536.0,-0.008815385401248932
1664.0,-0.00786923710256815
1792.0,-0.005162890534847975
1920.0,0.0009972816333174706
2048.0,0.003716376842930913
2304.0,0.0030825133435428143
2560.0,0.00544853275641799
2816.0,0.006892991717904806
3072.0,0.00921256560832262
3328.0,-0.004858140833675861
3584.0,-0.011027402244508266
3840.0,-0.0027557117864489555
4096.0,-0.001261416357010603
4608.0,0.0035954557824879885
5120.0,0.005210228264331818
5632.0,-0.0018426787573844194
6144.0,-0.016305968165397644
6656.0,-0.0023009830620139837
7168.0,0.003821201389655471
7680.0,0.004473766777664423
8192.0,-0.0032057748176157475
9216.0,0.0006798864342272282
10240.0,0.0006994549767114222
11264.0,-0.0031055069994181395
12288.0,0.003325806697830558
13312.0,-0.002460083458572626
14336.0,0.008037650026381016
end
