version,3.0
numOfCh,1
type,point
parent_name,10-cuts
ch_type,1_1
kcount,1
numberNandB,1
brightnessNandB,1
carpet pos,0
pc,0
Time (ms),CH1 Auto-Correlation
1.0,0.06495679169893265
2.0,0.06449908763170242
3.0,0.06405027955770493
4.0,0.06360331922769547
5.0,0.06316210329532623
6.0,0.06273461878299713
7.0,0.06230993568897247
8.0,0.06189684942364693
9.0,0.06147563084959984
10.0,0.061074770987033844
11.0,0.06068296730518341
12.0,0.06029704958200455
13.0,0.059915103018283844
14.0,0.05953286960721016
15.0,0.059157636016607285
16.0,0.05878984555602074
18.0,0.05805950611829758
20.0,0.05734334886074066
22.0,0.05668812617659569
24.0,0.05604741349816322
26.0,0.05543062463402748
28.0,0.05483485013246536
30.0,0.05428314581513405
32.0,0.05376109108328819
36.0,0.05275469273328781
40.0,0.05176850035786629
44.0,0.050844255834817886
48.0,0.04994506761431694
52.0,0.04900384321808815
56.0,0.048049136996269226
60.0,0.047128017991781235
64.0,0.04623255133628845
72.0,0.04461291432380676
80.0,0.04307655617594719
88.0,0.04165136069059372
96.0,0.04030260071158409
104.0,0.039073534309864044
112.0,0.037902481853961945
120.0,0.0366886742413044
128.0,0.03562324121594429
144.0,0.03371797129511833
160.0,0.031688615679740906
176.0,0.029802663251757622
192.0,0.0281963087618351
208.0,0.02708575315773487
224.0,0.02653689496219158
240.0,0.02631918527185917
256.0,0.02590959332883358
288.0,0.024984199553728104
320.0,0.023468976840376854
352.0,0.021392228081822395
384.0,0.018806694075465202
416.0,0.01619923859834671
448.0,0.012985166162252426
480.0,0.010307562537491322
512.0,0.008706566877663136
576.0,0.010113673284649849
640.0,0.010941234417259693
704.0,0.01014024205505848
768.0,0.00609207060188055
832.0,0.0034337914548814297
896.0,0.003079325193539262
960.0,0.0027248363476246595
1024.0,0.0007029409753158689
1152.0,-0.0026945918798446655
1280.0,-0.0026190124917775393
1408.0,-0.005555163603276014
1536.0,-0.008585038594901562
1664.0,-0.011151007376611233
1792.0,-0.007751855067908764
1920.0,-0.004336779937148094
2048.0,8.089161565294489e-05
2304.0,0.0057588787749409676
2560.0,0.01081891730427742
2816.0,0.007889623753726482
3072.0,0.0014318544417619705
3328.0,0.001393791171722114
3584.0,-0.0015238276682794094
3840.0,-0.009153667837381363
4096.0,-0.014640401117503643
4608.0,-0.011196622624993324
5120.0,-0.0070215980522334576
5632.0,0.009593150578439236
6144.0,0.010954770259559155
6656.0,-0.0022585659753531218
7168.0,-0.002273398218676448
7680.0,-0.012197497300803661
8192.0,0.007868453860282898
9216.0,-0.0005573553498834372
10240.0,-0.02358214184641838
11264.0,-0.011316902004182339
12288.0,-0.0041014631278812885
13312.0,-0.00989218708127737
14336.0,0.03169497475028038
end
