version,3.0
numOfCh,1
type,point
parent_name,34a6d_0dot069-1dot0
ch_type,1_1
kcount,1
numberNandB,1
brightnessNandB,1
carpet pos,0
pc,0
Time (ms),CH1 Auto-Correlation
1.0,0.09577786922454834
2.0,0.0950089767575264
3.0,0.09435154497623444
4.0,0.09375019371509552
5.0,0.09315548092126846
6.0,0.09256993234157562
7.0,0.0920184776186943
8.0,0.0914996862411499
9.0,0.09095277637243271
10.0,0.09038829058408737
11.0,0.08986760675907135
12.0,0.08938668668270111
13.0,0.08888503909111023
14.0,0.08838951587677002
15.0,0.0879165381193161
16.0,0.08743267506361008
18.0,0.0864458903670311
20.0,0.08553505688905716
22.0,0.08464222401380539
24.0,0.08379471302032471
26.0,0.08292574435472488
28.0,0.08206354081630707
30.0,0.08123914897441864
32.0,0.08046705275774002
36.0,0.07894767820835114
40.0,0.07744437456130981
44.0,0.07595635205507278
48.0,0.07448408007621765
52.0,0.07307890057563782
56.0,0.07174940407276154
60.0,0.07059551775455475
64.0,0.06949266791343689
72.0,0.06715038418769836
80.0,0.06462739408016205
88.0,0.06204291060566902
96.0,0.0593680702149868
104.0,0.05724544823169708
112.0,0.05563446879386902
120.0,0.05417943745851517
128.0,0.052863746881484985
144.0,0.05003799498081207
160.0,0.04711611196398735
176.0,0.04388047382235527
192.0,0.041686322540044785
208.0,0.03991362079977989
224.0,0.038289207965135574
240.0,0.036305878311395645
256.0,0.03446926549077034
288.0,0.03355301171541214
320.0,0.032993901520967484
352.0,0.03208952397108078
384.0,0.03170314431190491
416.0,0.03196599707007408
448.0,0.03072304278612137
480.0,0.02736012637615204
512.0,0.020984062924981117
576.0,0.013728284277021885
640.0,0.011106203310191631
704.0,0.009910483844578266
768.0,0.010425490327179432
832.0,0.009798141196370125
896.0,0.00972430594265461
960.0,0.00584483752027154
1024.0,-0.00018241912766825408
1152.0,-0.002296975115314126
1280.0,-0.00020012767345178872
1408.0,-0.0036881202831864357
1536.0,-0.007263390813022852
1664.0,-0.0037344899028539658
1792.0,0.004814021289348602
1920.0,0.00897263828665018
2048.0,0.014618653804063797
2304.0,0.012900620698928833
2560.0,0.013158803805708885
2816.0,0.007433820050209761
3072.0,0.006080518011003733
3328.0,-0.0022274137008935213
3584.0,-0.01268957369029522
3840.0,-0.011899339035153389
4096.0,-0.004530757199972868
4608.0,0.008630436845123768
5120.0,0.012964601628482342
5632.0,-0.019298933446407318
6144.0,-0.027202589437365532
6656.0,-0.03578769788146019
7168.0,-0.01108988281339407
7680.0,-0.0012874819803982973
8192.0,-0.006835750304162502
end
