version,3.0
numOfCh,1
type,point
parent_name,34a6d_0dot069-1dot0
ch_type,1_1
kcount,1
numberNandB,1
brightnessNandB,1
carpet pos,0
pc,0
Time (ms),CH1 Auto-Correlation
1.0,0.07613709568977356
2.0,0.075006864964962
3.0,0.0740857794880867
4.0,0.0732630118727684
5.0,0.07258157432079315
6.0,0.07194686681032181
7.0,0.07131272554397583
8.0,0.07068249583244324
9.0,0.07006069272756577
10.0,0.06942746788263321
11.0,0.06886450946331024
12.0,0.06833581626415253
13.0,0.06781688332557678
14.0,0.06737452000379562
15.0,0.06690309941768646
16.0,0.06642556190490723
18.0,0.06552468240261078
20.0,0.06464985758066177
22.0,0.06387639045715332
24.0,0.06317906826734543
26.0,0.06252586096525192
28.0,0.061887357383966446
30.0,0.06117948889732361
32.0,0.06041714549064636
36.0,0.05897371098399162
40.0,0.05734620988368988
44.0,0.055819135159254074
48.0,0.05440113693475723
52.0,0.05311065539717674
56.0,0.0518941693007946
60.0,0.05061863362789154
64.0,0.049487896263599396
72.0,0.04717899486422539
80.0,0.044699527323246
88.0,0.04240366443991661
96.0,0.04064064472913742
104.0,0.038921646773815155
112.0,0.03709662705659866
120.0,0.03509216383099556
128.0,0.03326147049665451
144.0,0.030855219811201096
160.0,0.02887030877172947
176.0,0.026662511751055717
192.0,0.024577397853136063
208.0,0.023241087794303894
224.0,0.02227764204144478
240.0,0.021000204607844353
256.0,0.020033564418554306
288.0,0.018641285598278046
320.0,0.0184180848300457
352.0,0.0194319486618042
384.0,0.01993211917579174
416.0,0.019574467092752457
448.0,0.01841646619141102
480.0,0.017139244824647903
512.0,0.015845583751797676
576.0,0.012105126865208149
640.0,0.010379980318248272
704.0,0.00991303101181984
768.0,0.012869912199676037
832.0,0.015703732147812843
896.0,0.013973879627883434
960.0,0.01339397206902504
1024.0,0.009127378463745117
1152.0,0.005872651003301144
1280.0,0.007413812447339296
1408.0,0.0032718931324779987
1536.0,0.0041626011952757835
1664.0,0.005131145473569632
1792.0,0.0024330990854650736
1920.0,0.00010734725947258994
2048.0,0.003413889091461897
2304.0,0.0035066462587565184
2560.0,-0.0028892168775200844
2816.0,-0.01103862002491951
3072.0,-0.01883491687476635
3328.0,-0.015788458287715912
3584.0,-0.020549718290567398
3840.0,-0.01638452522456646
4096.0,-0.01810953952372074
4608.0,-0.015410495921969414
5120.0,-0.014303968288004398
5632.0,-0.00884654838591814
6144.0,-0.007044867612421513
6656.0,-0.000895332486834377
7168.0,0.012731577269732952
7680.0,0.018620586022734642
8192.0,0.0150835532695055
end
