version,3.0
numOfCh,1
type,point
parent_name,34a6d_0dot069-1dot0
ch_type,1_1
kcount,1
numberNandB,1
brightnessNandB,1
carpet pos,0
pc,0
Time (ms),CH1 Auto-Correlation
1.0,0.07166386395692825
2.0,0.07037272304296494
3.0,0.06914731115102768
4.0,0.06815088540315628
5.0,0.06736364215612411
6.0,0.06674148142337799
7.0,0.06603535264730453
8.0,0.06528401374816895
9.0,0.06451046466827393
10.0,0.06378750503063202
11.0,0.06313557177782059
12.0,0.06250087171792984
13.0,0.06192506104707718
14.0,0.06135273724794388
15.0,0.060795772820711136
16.0,0.06025707721710205
18.0,0.05921659246087074
20.0,0.05820131301879883
22.0,0.057268135249614716
24.0,0.05641269311308861
26.0,0.05552074685692787
28.0,0.05474349856376648
30.0,0.053986772894859314
32.0,0.05322364345192909
36.0,0.05164099112153053
40.0,0.05021863803267479
44.0,0.04898280277848244
48.0,0.04767501726746559
52.0,0.04641646146774292
56.0,0.04504036158323288
60.0,0.04371372237801552
64.0,0.04261084273457527
72.0,0.040736157447099686
80.0,0.038959719240665436
88.0,0.03728223964571953
96.0,0.03571656718850136
104.0,0.034360840916633606
112.0,0.03322913870215416
120.0,0.0320381298661232
128.0,0.030764447525143623
144.0,0.028001226484775543
160.0,0.02544589154422283
176.0,0.02319526858627796
192.0,0.0211741104722023
208.0,0.018857238814234734
224.0,0.016626941040158272
240.0,0.01491127535700798
256.0,0.014130490832030773
288.0,0.012203672900795937
320.0,0.010158451274037361
352.0,0.008466768078505993
384.0,0.00736244535073638
416.0,0.007055331487208605
448.0,0.005894450470805168
480.0,0.003078462090343237
512.0,0.0008534627268090844
576.0,0.0005025924183428288
640.0,-0.002777101704850793
704.0,-0.004708299413323402
768.0,-0.006831035483628511
832.0,-0.0064221760258078575
896.0,-0.006264097057282925
960.0,-0.007057156879454851
1024.0,-0.006169397849589586
1152.0,-0.005029870197176933
1280.0,-0.0038690976798534393
1408.0,0.0006918342551216483
1536.0,0.006906847469508648
1664.0,0.006575598381459713
1792.0,0.000882186577655375
1920.0,-0.0004087773850187659
2048.0,-0.003330451203510165
2304.0,-0.003388730576261878
2560.0,0.0023526211734861135
2816.0,0.0075841848738491535
3072.0,0.008735711686313152
3328.0,0.005019021220505238
3584.0,-0.0032495211344212294
3840.0,0.0011176994303241372
4096.0,0.00636272644624114
4608.0,-0.005816389806568623
5120.0,-0.006027888506650925
5632.0,0.0011830296134576201
6144.0,-0.0038441249635070562
6656.0,-0.0064367568120360374
7168.0,-0.01614619791507721
7680.0,-0.007313012611120939
8192.0,0.0018470532959327102
end
