version,3.0
numOfCh,1
type,point
parent_name,34a6d_0dot069-1dot0
ch_type,1_1
kcount,1
numberNandB,1
brightnessNandB,1
carpet pos,0
pc,0
Time (ms),CH1 Auto-Correlation
1.0,0.07782299816608429
2.0,0.07718916237354279
3.0,0.07661587744951248
4.0,0.07603093236684799
5.0,0.0754668265581131
6.0,0.0749320238828659
7.0,0.07439183443784714
8.0,0.07385063916444778
9.0,0.07334808260202408
10.0,0.07284396141767502
11.0,0.07234539091587067
12.0,0.07187746465206146
13.0,0.07139644026756287
14.0,0.07094371318817139
15.0,0.07047659903764725
16.0,0.07003907859325409
18.0,0.06915703415870667
20.0,0.06830789148807526
22.0,0.06747180968523026
24.0,0.06661388278007507
26.0,0.06578116118907928
28.0,0.06500859558582306
30.0,0.0642448216676712
32.0,0.06351448595523834
36.0,0.0619957409799099
40.0,0.06056541949510574
44.0,0.059209540486335754
48.0,0.057850033044815063
52.0,0.05644586309790611
56.0,0.0551660992205143
60.0,0.05406990647315979
64.0,0.05295994132757187
72.0,0.05051039159297943
80.0,0.04809816554188728
88.0,0.04597339779138565
96.0,0.04412366822361946
104.0,0.0424768328666687
112.0,0.04094678908586502
120.0,0.03956455737352371
128.0,0.038381051272153854
144.0,0.03653737157583237
160.0,0.034903399646282196
176.0,0.033634405583143234
192.0,0.032823991030454636
208.0,0.03152692690491676
224.0,0.029804814606904984
240.0,0.027920080348849297
256.0,0.025699326768517494
288.0,0.021632401272654533
320.0,0.01792449876666069
352.0,0.015595817007124424
384.0,0.012876519933342934
416.0,0.010798081755638123
448.0,0.009004544466733932
480.0,0.008288177661597729
512.0,0.0070275659672915936
576.0,0.002296069171279669
640.0,-0.0008770381682552397
704.0,-0.0023323146160691977
768.0,-0.004053250886499882
832.0,-0.004515707027167082
896.0,-0.005272018723189831
960.0,-0.006550461985170841
1024.0,-0.010086470283567905
1152.0,-0.013141684234142303
1280.0,-0.010357702150940895
1408.0,-0.012232005596160889
1536.0,-0.012909989804029465
1664.0,-0.010778007097542286
1792.0,-0.006104961968958378
1920.0,-0.00690869428217411
2048.0,-0.003232161281630397
2304.0,0.007358595263212919
2560.0,0.0025912774726748466
2816.0,-0.003140042768791318
3072.0,-0.009028448723256588
3328.0,-0.006174880545586348
3584.0,-0.005111104343086481
3840.0,-0.0028967077378183603
4096.0,-0.011280645616352558
4608.0,-0.006111105903983116
5120.0,0.014283754862844944
5632.0,0.013832883909344673
6144.0,0.0032969312742352486
6656.0,-0.00694497674703598
7168.0,0.000807557487860322
7680.0,0.0010348237119615078
8192.0,-0.008706747554242611
end
