version,3.0
numOfCh,1
type,point
parent_name,34a6d_0dot069-1dot0
ch_type,1_1
kcount,1
numberNandB,1
brightnessNandB,1
carpet pos,0
pc,0
Time (ms),CH1 Auto-Correlation
1.0,0.07141830772161484
2.0,0.07054677605628967
3.0,0.06982278823852539
4.0,0.06921256333589554
5.0,0.0686422809958458
6.0,0.06800839304924011
7.0,0.06749432533979416
8.0,0.06698935478925705
9.0,0.06648276001214981
10.0,0.06597475707530975
11.0,0.06545531004667282
12.0,0.06497086584568024
13.0,0.0645076334476471
14.0,0.06401044130325317
15.0,0.06353583931922913
16.0,0.0630633756518364
18.0,0.06219227984547615
20.0,0.061364080756902695
22.0,0.060555700212717056
24.0,0.05973663181066513
26.0,0.05893314629793167
28.0,0.05814802646636963
30.0,0.057471297681331635
32.0,0.05680229514837265
36.0,0.05550536885857582
40.0,0.054183606058359146
44.0,0.052885837852954865
48.0,0.05166497826576233
52.0,0.05050385743379593
56.0,0.049425359815359116
60.0,0.048490554094314575
64.0,0.04749331250786781
72.0,0.04567944258451462
80.0,0.04415806010365486
88.0,0.04263822361826897
96.0,0.040982283651828766
104.0,0.039337508380413055
112.0,0.0377340130507946
120.0,0.036358609795570374
128.0,0.03527902439236641
144.0,0.03356371819972992
160.0,0.03151653707027435
176.0,0.029513908550143242
192.0,0.02787569910287857
208.0,0.026608485728502274
224.0,0.025696514174342155
240.0,0.024741841480135918
256.0,0.024405280128121376
288.0,0.02336697466671467
320.0,0.02305961400270462
352.0,0.0235137939453125
384.0,0.023473743349313736
416.0,0.022624630481004715
448.0,0.02110990881919861
480.0,0.01856408454477787
512.0,0.01629553735256195
576.0,0.013664794154465199
640.0,0.011820530518889427
704.0,0.011222459375858307
768.0,0.01020624116063118
832.0,0.010190099477767944
896.0,0.005639247130602598
960.0,0.003128999611362815
1024.0,0.002420512493699789
1152.0,0.00020090685575269163
1280.0,-0.0019010789692401886
1408.0,-0.008322542533278465
1536.0,-0.013852225616574287
1664.0,-0.01174930389970541
1792.0,-0.013517350889742374
1920.0,-0.013487402349710464
2048.0,-0.00878885481506586
2304.0,-0.00906718522310257
2560.0,-0.007805652916431427
2816.0,-0.008748074062168598
3072.0,-0.004296710714697838
3328.0,0.0011014877818524837
3584.0,0.0051732719875872135
3840.0,0.004567814990878105
4096.0,0.0001523569371784106
4608.0,0.001085856813006103
5120.0,-0.0028447862714529037
5632.0,0.0035229683853685856
6144.0,-0.0012937968131154776
6656.0,-0.002693736692890525
7168.0,-0.0030633611604571342
7680.0,0.004538399167358875
8192.0,0.009252582676708698
end
