version,3.0
numOfCh,1
type,point
parent_name,34a6d_0dot069-1dot0
ch_type,1_1
kcount,1
numberNandB,1
brightnessNandB,1
carpet pos,0
pc,0
Time (ms),CH1 Auto-Correlation
1.0,0.10389134287834167
2.0,0.10232081264257431
3.0,0.10100077092647552
4.0,0.09991921484470367
5.0,0.09900332987308502
6.0,0.09826259315013885
7.0,0.0975501760840416
8.0,0.09694231301546097
9.0,0.09631699323654175
10.0,0.09567884355783463
11.0,0.09498051553964615
12.0,0.09433906525373459
13.0,0.09378927946090698
14.0,0.09319279342889786
15.0,0.09259486943483353
16.0,0.0920628234744072
18.0,0.09108573943376541
20.0,0.09024351090192795
22.0,0.08929690718650818
24.0,0.08836125582456589
26.0,0.08755679428577423
28.0,0.08679156005382538
30.0,0.0859319195151329
32.0,0.08512715995311737
36.0,0.0835922434926033
40.0,0.08209214359521866
44.0,0.0806894600391388
48.0,0.0792260617017746
52.0,0.07771846652030945
56.0,0.0762849673628807
60.0,0.07486848533153534
64.0,0.07355990260839462
72.0,0.07110150903463364
80.0,0.0686730444431305
88.0,0.06594927608966827
96.0,0.06350503861904144
104.0,0.06113184615969658
112.0,0.0589730367064476
120.0,0.056848060339689255
128.0,0.05431584641337395
144.0,0.05001246556639671
160.0,0.04573244974017143
176.0,0.041108887642621994
192.0,0.03635028749704361
208.0,0.032554708421230316
224.0,0.029295265674591064
240.0,0.026590438559651375
256.0,0.02448890171945095
288.0,0.019504232332110405
320.0,0.013924570754170418
352.0,0.009022836573421955
384.0,0.003891472704708576
416.0,0.0004900978528894484
448.0,-0.0009163012146018445
480.0,-0.0016590211307629943
512.0,-0.0026802043430507183
576.0,-0.004945699591189623
640.0,-0.0057736043818295
704.0,-0.007059834897518158
768.0,-0.0076469904743134975
832.0,-0.010032088495790958
896.0,-0.008841422386467457
960.0,-0.0065388609655201435
1024.0,-0.001709738397039473
1152.0,0.0003902054450009018
1280.0,-0.007734848186373711
1408.0,-0.015189535915851593
1536.0,-0.015665432438254356
1664.0,-0.01352282240986824
1792.0,-0.008357950486242771
1920.0,-0.007240518927574158
2048.0,-0.0007454422884620726
2304.0,-0.0023702713660895824
2560.0,-0.013799125328660011
2816.0,-0.013105683960020542
3072.0,-0.01229867059737444
3328.0,-0.010240823961794376
3584.0,0.00039053705404512584
3840.0,0.013272457756102085
4096.0,0.012450923211872578
4608.0,0.0059304921887815
5120.0,0.012134503573179245
5632.0,-0.011317143216729164
6144.0,-0.0025989299174398184
6656.0,-0.009112315252423286
7168.0,-0.015100758522748947
7680.0,0.0018731781747192144
8192.0,0.017399152740836143
end
