version,3.0
numOfCh,1
type,point
parent_name,34a6d_0dot069-1dot0
ch_type,1_1
kcount,1
numberNandB,1
brightnessNandB,1
carpet pos,0
pc,0
Time (ms),CH1 Auto-Correlation
1.0,0.07897011935710907
2.0,0.07765574753284454
3.0,0.07658570259809494
4.0,0.07559297978878021
5.0,0.07473020255565643
6.0,0.07407382875680923
7.0,0.07349541783332825
8.0,0.0728221982717514
9.0,0.0721733421087265
10.0,0.07157810032367706
11.0,0.07099530100822449
12.0,0.07045146077871323
13.0,0.06984293460845947
14.0,0.069219209253788
15.0,0.06862548738718033
16.0,0.06800810992717743
18.0,0.06685619801282883
20.0,0.06573110073804855
22.0,0.06476867944002151
24.0,0.06384970992803574
26.0,0.06290591508150101
28.0,0.061891719698905945
30.0,0.06089124456048012
32.0,0.06005591154098511
36.0,0.05826715752482414
40.0,0.05642871558666229
44.0,0.054586417973041534
48.0,0.05290484428405762
52.0,0.05138116702437401
56.0,0.04983161762356758
60.0,0.048329029232263565
64.0,0.04696284979581833
72.0,0.04430615156888962
80.0,0.041924454271793365
88.0,0.03977524861693382
96.0,0.03780781105160713
104.0,0.03623221069574356
112.0,0.03447745740413666
120.0,0.03265264630317688
128.0,0.030972788110375404
144.0,0.028239965438842773
160.0,0.025930210947990417
176.0,0.023522809147834778
192.0,0.021684538573026657
208.0,0.01989283598959446
224.0,0.018404671922326088
240.0,0.017259839922189713
256.0,0.016180982813239098
288.0,0.014329159632325172
320.0,0.011620820499956608
352.0,0.009082804434001446
384.0,0.006949073635041714
416.0,0.004429453052580357
448.0,0.0030030745547264814
480.0,0.0017827883129939437
512.0,-0.0001148581868619658
576.0,-0.001180335064418614
640.0,-0.0015287908026948571
704.0,-0.001377413747832179
768.0,0.0002814532199408859
832.0,-0.00014243343321140856
896.0,0.00042883408605121076
960.0,-0.00044058976345695555
1024.0,3.979754546890035e-05
1152.0,0.006805692799389362
1280.0,0.0033100335858762264
1408.0,0.0024598476011306047
1536.0,7.818006997695193e-05
1664.0,-0.0073534902185201645
1792.0,-0.009304755367338657
1920.0,-0.012418977916240692
2048.0,-0.015052092261612415
2304.0,-0.003023996017873287
2560.0,0.0021439334377646446
2816.0,-0.0008377236081287265
3072.0,-0.008403891697525978
3328.0,-0.006282143294811249
3584.0,-0.001501328544691205
3840.0,-0.006318515166640282
4096.0,-0.010205100290477276
4608.0,-0.010010989382863045
5120.0,6.604296231671469e-06
5632.0,0.00125931017100811
6144.0,0.011126347817480564
6656.0,0.0033649825491011143
7168.0,0.0037434448022395372
7680.0,0.0020915933419018984
8192.0,-0.0019456149311736226
end
