version,3.0
numOfCh,1
type,point
parent_name,34a6d_0dot069-1dot0
ch_type,1_1
kcount,1
numberNandB,1
brightnessNandB,1
carpet pos,0
pc,0
Time (ms),CH1 Auto-Correlation
1.0,0.0797901451587677
2.0,0.07895468175411224
3.0,0.07827791571617126
4.0,0.07769977301359177
5.0,0.07707280665636063
6.0,0.07648252695798874
7.0,0.07592548429965973
8.0,0.07543729245662689
9.0,0.07497457414865494
10.0,0.07446343451738358
11.0,0.07396721094846725
12.0,0.07352808862924576
13.0,0.07306254655122757
14.0,0.07255493849515915
15.0,0.07209400832653046
16.0,0.07165344059467316
18.0,0.07081813365221024
20.0,0.0700623169541359
22.0,0.06927970051765442
24.0,0.06856744736433029
26.0,0.06782839447259903
28.0,0.06714370846748352
30.0,0.06637714058160782
32.0,0.06569115817546844
36.0,0.06446622312068939
40.0,0.06320566684007645
44.0,0.062104590237140656
48.0,0.061112407594919205
52.0,0.060162413865327835
56.0,0.05921388044953346
60.0,0.058256302028894424
64.0,0.05732255429029465
72.0,0.05552693456411362
80.0,0.05379810556769371
88.0,0.05219706520438194
96.0,0.05075089633464813
104.0,0.04926232621073723
112.0,0.04776163399219513
120.0,0.04620823636651039
128.0,0.044903501868247986
144.0,0.04248630255460739
160.0,0.03983638435602188
176.0,0.03686826303601265
192.0,0.03408508375287056
208.0,0.03194746375083923
224.0,0.030296048149466515
240.0,0.02832736447453499
256.0,0.026407770812511444
288.0,0.020892653614282608
320.0,0.01592828333377838
352.0,0.012984920293092728
384.0,0.010981476865708828
416.0,0.008792135864496231
448.0,0.006997501011937857
480.0,0.005094439722597599
512.0,0.004302491433918476
576.0,0.0026782038621604443
640.0,0.00020661894814111292
704.0,-0.0006053922697901726
768.0,0.0009119676542468369
832.0,0.00216217921115458
896.0,0.00369550590403378
960.0,0.004676649812608957
1024.0,0.0034585034009069204
1152.0,-0.0005505125736817718
1280.0,-0.0019735523965209723
1408.0,-0.002079410944133997
1536.0,-0.004579279571771622
1664.0,-0.006001039873808622
1792.0,-0.003920577000826597
1920.0,0.00472575519233942
2048.0,0.011029134504497051
2304.0,0.006030368153005838
2560.0,-0.012855147011578083
2816.0,-0.019676771014928818
3072.0,-0.006657002493739128
3328.0,0.001107707154005766
3584.0,0.004167851991951466
3840.0,0.011611293070018291
4096.0,0.019791124388575554
4608.0,0.013167917728424072
5120.0,-0.007375126238912344
5632.0,0.004433735273778439
6144.0,-0.006960422731935978
6656.0,-0.0033232462592422962
7168.0,-0.022010743618011475
7680.0,0.007016264367848635
8192.0,-0.005711073521524668
end
