version,3.0
numOfCh,1
type,point
parent_name,34a6d_0dot069-1dot0
ch_type,1_1
kcount,1
numberNandB,1
brightnessNandB,1
carpet pos,0
pc,0
Time (ms),CH1 Auto-Correlation
1.0,0.06142906844615936
2.0,0.06054271012544632
3.0,0.059799373149871826
4.0,0.05912350118160248
5.0,0.05848846212029457
6.0,0.057898398488759995
7.0,0.05733434855937958
8.0,0.056838903576135635
9.0,0.05636521428823471
10.0,0.05588503181934357
11.0,0.05537347495555878
12.0,0.05491910129785538
13.0,0.05446288362145424
14.0,0.05400587245821953
15.0,0.05355217307806015
16.0,0.0531301349401474
18.0,0.05223488435149193
20.0,0.05135313421487808
22.0,0.0505523681640625
24.0,0.04974715784192085
26.0,0.048925746232271194
28.0,0.04814168065786362
30.0,0.04740472137928009
32.0,0.04674660786986351
36.0,0.04555505886673927
40.0,0.04452143982052803
44.0,0.04349450394511223
48.0,0.04252275079488754
52.0,0.041537970304489136
56.0,0.04060130566358566
60.0,0.039630014449357986
64.0,0.03875723481178284
72.0,0.03716062381863594
80.0,0.035738348960876465
88.0,0.034356739372015
96.0,0.032785139977931976
104.0,0.03121156245470047
112.0,0.029665475711226463
120.0,0.028236795216798782
128.0,0.02703120745718479
144.0,0.024964535608887672
160.0,0.023316504433751106
176.0,0.021441537886857986
192.0,0.01992172561585903
208.0,0.018589358776807785
224.0,0.017348947003483772
240.0,0.016282187774777412
256.0,0.015425418503582478
288.0,0.014750954695045948
320.0,0.014277832582592964
352.0,0.012995842844247818
384.0,0.010812918655574322
416.0,0.008264525793492794
448.0,0.005921395029872656
480.0,0.0032159502152353525
512.0,0.0008109104819595814
576.0,-0.0029730969108641148
640.0,-0.006182666402310133
704.0,-0.0038705524057149887
768.0,-0.0019579725340008736
832.0,-0.0005288028623908758
896.0,0.0008075610385276377
960.0,0.0031115664169192314
1024.0,0.005160066299140453
1152.0,0.008186443708837032
1280.0,0.00956388097256422
1408.0,0.008876658976078033
1536.0,0.006386260502040386
1664.0,0.004472153261303902
1792.0,7.173001358751208e-05
1920.0,-0.0032397261820733547
2048.0,-0.002040678868070245
2304.0,-0.004313438665121794
2560.0,-0.0033991429954767227
2816.0,-0.002989597851410508
3072.0,0.0018084218027070165
3328.0,0.0037754354998469353
3584.0,-0.0016099924687296152
3840.0,-0.0053706360049545765
4096.0,-0.010359588079154491
4608.0,0.003026100806891918
5120.0,0.005265595391392708
5632.0,4.6231587475631386e-05
6144.0,-0.0009357337839901447
6656.0,-0.009397989138960838
7168.0,-0.004000304266810417
7680.0,9.212916484102607e-05
8192.0,-0.011516577564179897
end
