version,3.0
numOfCh,1
type,point
parent_name,34a6d_0dot069-1dot0
ch_type,1_1
kcount,1
numberNandB,1
brightnessNandB,1
carpet pos,0
pc,0
Time (ms),CH1 Auto-Correlation
1.0,0.07492528855800629
2.0,0.07334678620100021
3.0,0.07205089926719666
4.0,0.0709260031580925
5.0,0.07004955410957336
6.0,0.06910893321037292
7.0,0.06832241266965866
8.0,0.06747936457395554
9.0,0.06681075692176819
10.0,0.06607836484909058
11.0,0.0653693750500679
12.0,0.06465860456228256
13.0,0.06391039490699768
14.0,0.0633365586400032
15.0,0.06266466528177261
16.0,0.06215128302574158
18.0,0.06098015606403351
20.0,0.05987946316599846
22.0,0.05890386924147606
24.0,0.058039385825395584
26.0,0.05706992372870445
28.0,0.05613644793629646
30.0,0.05516146868467331
32.0,0.05426428094506264
36.0,0.05292419344186783
40.0,0.05181277543306351
44.0,0.05063904821872711
48.0,0.049464236944913864
52.0,0.048149995505809784
56.0,0.04684627801179886
60.0,0.04542095214128494
64.0,0.044116806238889694
72.0,0.04161929711699486
80.0,0.039403755217790604
88.0,0.037232425063848495
96.0,0.03539852797985077
104.0,0.03375015780329704
112.0,0.03263912349939346
120.0,0.030978361144661903
128.0,0.029398677870631218
144.0,0.026941649615764618
160.0,0.023577461019158363
176.0,0.020688319578766823
192.0,0.018381116911768913
208.0,0.016017979010939598
224.0,0.014295008033514023
240.0,0.012508844025433064
256.0,0.010793423280119896
288.0,0.008507047779858112
320.0,0.007941672578454018
352.0,0.007295624352991581
384.0,0.005437689833343029
416.0,0.002856101840734482
448.0,0.0002474919310770929
480.0,-0.0023621167056262493
512.0,-0.0027456374373286963
576.0,-0.0004040823259856552
640.0,0.0010898191248998046
704.0,0.0030560235027223825
768.0,0.0040182569064199924
832.0,0.0063527836464345455
896.0,0.008110216818749905
960.0,0.009865941479802132
1024.0,0.00781483668833971
1152.0,0.004749073646962643
1280.0,0.005734987556934357
1408.0,0.005283687729388475
1536.0,0.0039460984990000725
1664.0,-0.0013165283016860485
1792.0,-0.005647226236760616
1920.0,-0.006244736257940531
2048.0,-0.0033977830316871405
2304.0,0.0026796902529895306
2560.0,-0.003341003553941846
2816.0,-0.006717455107718706
3072.0,-0.0030735975597053766
3328.0,-0.0035144530702382326
3584.0,-0.009015548042953014
3840.0,-0.005319719202816486
4096.0,-0.0014160696882754564
4608.0,0.0004715576651506126
5120.0,0.00971418060362339
5632.0,0.005846861749887466
6144.0,0.002104360144585371
6656.0,-0.0017232780810445547
7168.0,-0.009539633058011532
7680.0,-0.004861314315348864
8192.0,-0.008284242823719978
end
