version,3.0
numOfCh,1
type,point
parent_name,34a6d_0dot069-1dot0
ch_type,1_1
kcount,1
numberNandB,1
brightnessNandB,1
carpet pos,0
pc,0
Time (ms),CH1 Auto-Correlation
1.0,0.1311366707086563
2.0,0.13004401326179504
3.0,0.12915903329849243
4.0,0.12828505039215088
5.0,0.1274564117193222
6.0,0.12671130895614624
7.0,0.12595611810684204
8.0,0.1251385509967804
9.0,0.12436234951019287
10.0,0.12364943325519562
11.0,0.12304028868675232
12.0,0.12242751568555832
13.0,0.12185603380203247
14.0,0.12126673758029938
15.0,0.1205989420413971
16.0,0.11998114734888077
18.0,0.1187102347612381
20.0,0.11739411950111389
22.0,0.11617621034383774
24.0,0.11504878848791122
26.0,0.11388551443815231
28.0,0.11269640922546387
30.0,0.11148091405630112
32.0,0.11021557450294495
36.0,0.1078130304813385
40.0,0.10573854297399521
44.0,0.1036829799413681
48.0,0.1018260195851326
52.0,0.10026765614748001
56.0,0.09875529259443283
60.0,0.09735056757926941
64.0,0.09596055001020432
72.0,0.09358968585729599
80.0,0.09151405841112137
88.0,0.08939289301633835
96.0,0.08711422979831696
104.0,0.08523450046777725
112.0,0.08335504680871964
120.0,0.08111583441495895
128.0,0.07914130389690399
144.0,0.07614287734031677
160.0,0.0728396475315094
176.0,0.06980296969413757
192.0,0.06704743206501007
208.0,0.06441807001829147
224.0,0.061054449528455734
240.0,0.057510677725076675
256.0,0.054608434438705444
288.0,0.05222102999687195
320.0,0.05100236088037491
352.0,0.04858783632516861
384.0,0.04805202782154083
416.0,0.04546397551894188
448.0,0.041854314506053925
480.0,0.03769702464342117
512.0,0.03266077861189842
576.0,0.02441379614174366
640.0,0.021330950781702995
704.0,0.024398425593972206
768.0,0.02815183438360691
832.0,0.03423801064491272
896.0,0.03908953815698624
960.0,0.041645947843790054
1024.0,0.04637248069047928
1152.0,0.049926623702049255
1280.0,0.04335673525929451
1408.0,0.03164719417691231
1536.0,0.02167380042374134
1664.0,0.013406933285295963
1792.0,0.009422685019671917
1920.0,0.01279112882912159
2048.0,0.019848575815558434
2304.0,0.01559071522206068
2560.0,0.004156770184636116
2816.0,-0.00930129922926426
3072.0,-0.011391759850084782
3328.0,-0.012741677463054657
3584.0,-0.01535856444388628
3840.0,-0.020718587562441826
4096.0,-0.02233092114329338
4608.0,-0.026996534317731857
5120.0,-0.0423383004963398
5632.0,-0.03617651015520096
6144.0,-0.03204180300235748
6656.0,-0.03257611393928528
7168.0,-0.031842708587646484
7680.0,-0.03036787174642086
8192.0,0.0076410211622715
end
