version,3.0
numOfCh,1
type,point
parent_name,34a6d_0dot069-1dot0
ch_type,1_1
kcount,1
numberNandB,1
brightnessNandB,1
carpet pos,0
pc,0
Time (ms),CH1 Auto-Correlation
1.0,0.0754973292350769
2.0,0.07456084340810776
3.0,0.07372226566076279
4.0,0.07295417785644531
5.0,0.07216700166463852
6.0,0.07146783918142319
7.0,0.070779949426651
8.0,0.07011611014604568
9.0,0.06948273628950119
10.0,0.06890275329351425
11.0,0.0683184266090393
12.0,0.06774385273456573
13.0,0.06719793379306793
14.0,0.06661868095397949
15.0,0.06607607752084732
16.0,0.06554951518774033
18.0,0.06444410979747772
20.0,0.06342006474733353
22.0,0.06241574138402939
24.0,0.06147576496005058
26.0,0.06057194992899895
28.0,0.059666115790605545
30.0,0.05877302959561348
32.0,0.05787767097353935
36.0,0.05623495951294899
40.0,0.05474884808063507
44.0,0.05345887318253517
48.0,0.052274804562330246
52.0,0.051162660121917725
56.0,0.05007435753941536
60.0,0.049038633704185486
64.0,0.04793766140937805
72.0,0.04590548202395439
80.0,0.043660182505846024
88.0,0.04143436998128891
96.0,0.0395248644053936
104.0,0.0379941388964653
112.0,0.036403413861989975
120.0,0.03470119088888168
128.0,0.03300384432077408
144.0,0.029783936217427254
160.0,0.0268650334328413
176.0,0.024495933204889297
192.0,0.022562410682439804
208.0,0.021007966250181198
224.0,0.02002502791583538
240.0,0.018779335543513298
256.0,0.017650913447141647
288.0,0.01704850047826767
320.0,0.01755218207836151
352.0,0.017018498852849007
384.0,0.016437919810414314
416.0,0.016695696860551834
448.0,0.017074381932616234
480.0,0.016283120959997177
512.0,0.017376048490405083
576.0,0.015260457992553711
640.0,0.0130445072427392
704.0,0.009859684854745865
768.0,0.008375494740903378
832.0,0.00995346438139677
896.0,0.01142076775431633
960.0,0.009747680276632309
1024.0,0.008136213757097721
1152.0,0.008620128966867924
1280.0,0.0066503798589110374
1408.0,0.007243357598781586
1536.0,0.002560637891292572
1664.0,-0.0006387569010257721
1792.0,0.004085883963853121
1920.0,0.006204031407833099
2048.0,0.008843912743031979
2304.0,0.0015906405169516802
2560.0,-0.0012658735504373908
2816.0,-0.000639960402622819
3072.0,-0.004970073699951172
3328.0,-0.008940777741372585
3584.0,-0.004803033545613289
3840.0,-0.013980355113744736
4096.0,-0.014071501791477203
4608.0,-0.014844229444861412
5120.0,-0.01943342573940754
5632.0,-0.024901393800973892
6144.0,-0.01406476367264986
6656.0,-0.007021754514425993
7168.0,-0.00397960189729929
7680.0,0.003972018137574196
8192.0,0.01229163445532322
end
