version,3.0
numOfCh,1
type,point
parent_name,34a6d_0dot069-1dot0
ch_type,1_1
kcount,1
numberNandB,1
brightnessNandB,1
carpet pos,0
pc,0
Time (ms),CH1 Auto-Correlation
1.0,0.08284598588943481
2.0,0.08194383233785629
3.0,0.08111468702554703
4.0,0.0803612768650055
5.0,0.07966191321611404
6.0,0.07900599390268326
7.0,0.07843207567930222
8.0,0.07782550901174545
9.0,0.07727386802434921
10.0,0.0767270028591156
11.0,0.07619181275367737
12.0,0.07570504397153854
13.0,0.07513782382011414
14.0,0.07458774000406265
15.0,0.07402588427066803
16.0,0.07342628389596939
18.0,0.0723591223359108
20.0,0.07128152996301651
22.0,0.07031825184822083
24.0,0.0693991407752037
26.0,0.06849772483110428
28.0,0.06772095710039139
30.0,0.06696836650371552
32.0,0.0662081316113472
36.0,0.06478013843297958
40.0,0.0633389949798584
44.0,0.062059417366981506
48.0,0.060912203043699265
52.0,0.05965181067585945
56.0,0.05839737504720688
60.0,0.0572541281580925
64.0,0.05613227188587189
72.0,0.053894273936748505
80.0,0.05184275284409523
88.0,0.049902305006980896
96.0,0.04806379973888397
104.0,0.04646608233451843
112.0,0.04530738294124603
120.0,0.04442568123340607
128.0,0.043391019105911255
144.0,0.04120159149169922
160.0,0.03927452489733696
176.0,0.03768789395689964
192.0,0.03654775395989418
208.0,0.035932764410972595
224.0,0.03598339483141899
240.0,0.035796962678432465
256.0,0.03526932746171951
288.0,0.031297314912080765
320.0,0.026614133268594742
352.0,0.023526743054389954
384.0,0.022336892783641815
416.0,0.022751593962311745
448.0,0.023452265188097954
480.0,0.024164345115423203
512.0,0.02257044054567814
576.0,0.020969020202755928
640.0,0.02185109257698059
704.0,0.02424340695142746
768.0,0.024376634508371353
832.0,0.02684173174202442
896.0,0.029915664345026016
960.0,0.0303875133395195
1024.0,0.03095194883644581
1152.0,0.030443549156188965
1280.0,0.023728348314762115
1408.0,0.018873563036322594
1536.0,0.0119784502312541
1664.0,0.009803610853850842
1792.0,0.00908501073718071
1920.0,0.010323692113161087
2048.0,0.005749216303229332
2304.0,0.0013141966192051768
2560.0,0.0013730900827795267
2816.0,-0.006265878677368164
3072.0,-0.023180345073342323
3328.0,-0.02357259951531887
3584.0,-0.0139792924746871
3840.0,-0.015345622785389423
4096.0,-0.03070128709077835
4608.0,-0.02694801241159439
5120.0,-0.02704080007970333
5632.0,-0.023507695645093918
6144.0,-0.026132507249712944
6656.0,-0.012427427805960178
7168.0,-0.004354699980467558
7680.0,0.010856593027710915
8192.0,0.010739549994468689
end
