version,3.0
numOfCh,1
type,point
parent_name,fe81d_0dot4-0dot01
ch_type,1_1
kcount,1
numberNandB,1
brightnessNandB,1
carpet pos,0
pc,0
Time (ms),CH1 Auto-Correlation
1.0,0.0445154532790184
2.0,0.043442536145448685
3.0,0.042436741292476654
4.0,0.04147864133119583
5.0,0.040597379207611084
6.0,0.03976055607199669
7.0,0.03897319361567497
8.0,0.03822339326143265
9.0,0.037492088973522186
10.0,0.036795489490032196
11.0,0.03611752390861511
12.0,0.035476259887218475
13.0,0.0348503477871418
14.0,0.03420156612992287
15.0,0.03355611860752106
16.0,0.03293764963746071
18.0,0.031678639352321625
20.0,0.030448155477643013
22.0,0.029325177893042564
24.0,0.028248215094208717
26.0,0.027199644595384598
28.0,0.02628232352435589
30.0,0.025468625128269196
32.0,0.02470777928829193
36.0,0.023537445813417435
40.0,0.022528238594532013
44.0,0.021577246487140656
48.0,0.020711280405521393
52.0,0.019756386056542397
56.0,0.018688805401325226
60.0,0.01786191761493683
64.0,0.01707557588815689
72.0,0.01579468511044979
80.0,0.01491283904761076
88.0,0.014563538134098053
96.0,0.014279153198003769
104.0,0.014069987460970879
112.0,0.013774566352367401
120.0,0.013951843604445457
128.0,0.014006558805704117
144.0,0.013749964535236359
160.0,0.013601631857454777
176.0,0.013508133590221405
192.0,0.012808327563107014
208.0,0.011277391575276852
224.0,0.01016960758715868
240.0,0.00949937291443348
256.0,0.009438659995794296
288.0,0.009404145181179047
320.0,0.00971205160021782
352.0,0.008713704533874989
384.0,0.00887208804488182
416.0,0.008443793281912804
448.0,0.007547990418970585
480.0,0.006731181405484676
512.0,0.005424410570412874
576.0,0.002279088366776705
640.0,-7.078693306539208e-05
704.0,-0.0017320868792012334
768.0,-0.0019532216247171164
832.0,0.0002664240018930286
896.0,0.0007673376239836216
960.0,-0.0020665808115154505
1024.0,-0.002943523460999131
1152.0,-0.002105229301378131
1280.0,-0.0009487216011621058
1408.0,-0.002610390307381749
1536.0,-0.0034283073619008064
1664.0,-0.003369357669726014
1792.0,-0.0027364734560251236
1920.0,-0.0018785980064421892
2048.0,0.0012172041460871696
2304.0,0.0017519553657621145
2560.0,-0.0008671581163071096
2816.0,-0.001628710888326168
3072.0,0.0014713882701471448
3328.0,0.0018831022316589952
3584.0,-0.0002993273956235498
3840.0,-0.00029777761665172875
4096.0,0.003941599745303392
4608.0,0.009818807244300842
5120.0,-0.0018127886578440666
5632.0,-0.007671204395592213
6144.0,-0.005063527729362249
6656.0,-0.0011460187379270792
7168.0,-0.009910709224641323
7680.0,-0.009186172857880592
8192.0,-0.00692053372040391
end
