version,3.0
numOfCh,1
type,point
parent_name,fe81d_0dot4-0dot01
ch_type,1_1
kcount,1
numberNandB,1
brightnessNandB,1
carpet pos,0
pc,0
Time (ms),CH1 Auto-Correlation
1.0,0.0653151199221611
2.0,0.06410194933414459
3.0,0.06295394152402878
4.0,0.061899978667497635
5.0,0.06094535067677498
6.0,0.06003836169838905
7.0,0.05913707986474037
8.0,0.05830851197242737
9.0,0.05753876641392708
10.0,0.056814711540937424
11.0,0.05608260631561279
12.0,0.055399637669324875
13.0,0.05478014051914215
14.0,0.05419497191905975
15.0,0.053610723465681076
16.0,0.053036775439977646
18.0,0.05200333148241043
20.0,0.051028359681367874
22.0,0.05021774768829346
24.0,0.0493900440633297
26.0,0.0486227385699749
28.0,0.04791099950671196
30.0,0.04729928448796272
32.0,0.04665913060307503
36.0,0.045643217861652374
40.0,0.044798947870731354
44.0,0.04403231292963028
48.0,0.04335504770278931
52.0,0.042680103331804276
56.0,0.04204636812210083
60.0,0.04126494377851486
64.0,0.0407051146030426
72.0,0.040328383445739746
80.0,0.03992805629968643
88.0,0.03937917947769165
96.0,0.039111942052841187
104.0,0.038618817925453186
112.0,0.03789340704679489
120.0,0.03699440136551857
128.0,0.03611420840024948
144.0,0.03417067229747772
160.0,0.0321618877351284
176.0,0.031014924868941307
192.0,0.03040820173919201
208.0,0.030263686552643776
224.0,0.029860811308026314
240.0,0.028968272730708122
256.0,0.028750980272889137
288.0,0.028589777648448944
320.0,0.027557728812098503
352.0,0.028358884155750275
384.0,0.030054757371544838
416.0,0.03121132217347622
448.0,0.03129759430885315
480.0,0.03137362748384476
512.0,0.03182134032249451
576.0,0.027073299512267113
640.0,0.02155497297644615
704.0,0.015755463391542435
768.0,0.012545975856482983
832.0,0.013307204470038414
896.0,0.012418276630342007
960.0,0.00833071768283844
1024.0,0.005805459339171648
1152.0,0.0005411927122622728
1280.0,-0.0008352997247129679
1408.0,-0.0023818884510546923
1536.0,-0.006884757895022631
1664.0,-0.007352590560913086
1792.0,-0.0038229976780712605
1920.0,-0.004063657484948635
2048.0,-0.004349167458713055
2304.0,0.00036961116711609066
2560.0,-0.007680373266339302
2816.0,-0.0018621706403791904
3072.0,-0.015824485570192337
3328.0,-0.017544202506542206
3584.0,-0.025837711989879608
3840.0,-0.02945858985185623
4096.0,-0.02617458440363407
4608.0,-0.01713000051677227
5120.0,-0.0025019217282533646
5632.0,0.0032417939510196447
6144.0,0.003976645413786173
6656.0,0.001822692807763815
7168.0,0.0008040471002459526
7680.0,0.009612664580345154
8192.0,0.002775250468403101
end
