version,3.0
numOfCh,1
type,point
parent_name,fe81d_0dot4-0dot01
ch_type,1_1
kcount,1
numberNandB,1
brightnessNandB,1
carpet pos,0
pc,0
Time (ms),CH1 Auto-Correlation
1.0,0.03669849410653114
2.0,0.03551863506436348
3.0,0.034356214106082916
4.0,0.03329085931181908
5.0,0.03228824585676193
6.0,0.031348489224910736
7.0,0.030437232926487923
8.0,0.029533186927437782
9.0,0.028652871027588844
10.0,0.027779988944530487
11.0,0.027020925655961037
12.0,0.02629796415567398
13.0,0.025611791759729385
14.0,0.02489195019006729
15.0,0.024183016270399094
16.0,0.023455198854207993
18.0,0.02215290069580078
20.0,0.021068062633275986
22.0,0.02008451148867607
24.0,0.019121568650007248
26.0,0.018195239827036858
28.0,0.017236387357115746
30.0,0.016318460926413536
32.0,0.01557173952460289
36.0,0.01443578116595745
40.0,0.013732675462961197
44.0,0.013197015039622784
48.0,0.012820226140320301
52.0,0.012356310151517391
56.0,0.01158910896629095
60.0,0.010855274274945259
64.0,0.01011560671031475
72.0,0.008704009465873241
80.0,0.00719122588634491
88.0,0.00587749108672142
96.0,0.004992549307644367
104.0,0.005000799894332886
112.0,0.005276146344840527
120.0,0.005752819124609232
128.0,0.006074452772736549
144.0,0.005754163023084402
160.0,0.0051578073762357235
176.0,0.005805800203233957
192.0,0.005614051595330238
208.0,0.0038788169622421265
224.0,0.0027927204500883818
240.0,0.001831002882681787
256.0,0.00136896304320544
288.0,0.0003410167992115021
320.0,-0.0010597979417070746
352.0,-0.0020184919703751802
384.0,-0.0011268537491559982
416.0,-0.0025845011696219444
448.0,-0.004104363266378641
480.0,-0.006005119998008013
512.0,-0.005344033241271973
576.0,-0.002802752424031496
640.0,-0.0010472247377038002
704.0,-0.0027257506735622883
768.0,-0.0014706087531521916
832.0,0.0009815917583182454
896.0,0.0012538534356281161
960.0,0.0034464735072106123
1024.0,0.00136679841671139
1152.0,0.0015757123474031687
1280.0,-0.0019033054122701287
1408.0,-0.004764508921653032
1536.0,-0.002159373601898551
1664.0,-0.002952113514766097
1792.0,0.0018800151301547885
1920.0,0.0012213900918141007
2048.0,0.002733025699853897
2304.0,0.0013430140679702163
2560.0,-0.0016904353396967053
2816.0,0.0013924145605415106
3072.0,0.0013610938331112266
3328.0,-0.005670453887432814
3584.0,-0.0076037319377064705
3840.0,0.0036477798130363226
4096.0,0.0008141048601828516
end
