version,3.0
numOfCh,1
type,point
parent_name,fe81d_0dot4-0dot01
ch_type,1_1
kcount,1
numberNandB,1
brightnessNandB,1
carpet pos,0
pc,0
Time (ms),CH1 Auto-Correlation
1.0,0.04461701586842537
2.0,0.04346245527267456
3.0,0.04237774759531021
4.0,0.041378337889909744
5.0,0.040437862277030945
6.0,0.03955269977450371
7.0,0.038685236126184464
8.0,0.03788713365793228
9.0,0.03709482401609421
10.0,0.0363745279610157
11.0,0.03567885980010033
12.0,0.03500453010201454
13.0,0.034325312823057175
14.0,0.0336940623819828
15.0,0.0330931656062603
16.0,0.03253193572163582
18.0,0.03148193657398224
20.0,0.03053397126495838
22.0,0.029704350978136063
24.0,0.02894337847828865
26.0,0.02825678139925003
28.0,0.027549803256988525
30.0,0.026926184073090553
32.0,0.02634979970753193
36.0,0.025134677067399025
40.0,0.02396434172987938
44.0,0.022890262305736542
48.0,0.021978100761771202
52.0,0.021057965233922005
56.0,0.020096631720662117
60.0,0.019028356298804283
64.0,0.018099457025527954
72.0,0.01654406636953354
80.0,0.015385577455163002
88.0,0.014724254608154297
96.0,0.014392122626304626
104.0,0.014254982583224773
112.0,0.014288280159235
120.0,0.014056837186217308
128.0,0.013700565323233604
144.0,0.012967662885785103
160.0,0.011474557220935822
176.0,0.01003600936383009
192.0,0.007879983633756638
208.0,0.005958729889243841
224.0,0.0041524386033415794
240.0,0.002360547659918666
256.0,0.0014069038443267345
288.0,0.0013500661589205265
320.0,0.0015308180591091514
352.0,0.0022414459381252527
384.0,0.0009370907791890204
416.0,8.538765541743487e-05
448.0,0.0005581940058618784
480.0,0.0014448357978835702
512.0,0.0020673354156315327
576.0,0.001198428450152278
640.0,0.00048250315012410283
704.0,0.001264634309336543
768.0,0.0010953311575576663
832.0,0.0010418205056339502
896.0,0.0023147312458604574
960.0,0.002323583234101534
1024.0,-0.00033423712011426687
1152.0,-0.0019612296018749475
1280.0,-0.00017980518168769777
1408.0,-0.00016497488832101226
1536.0,-0.0018213196890428662
1664.0,-0.00039809822919778526
1792.0,0.0035632725339382887
1920.0,0.004550156649202108
2048.0,0.0020484616979956627
2304.0,0.0007364953635260463
2560.0,0.0010413044365122914
2816.0,0.0007570916786789894
3072.0,-0.005612833425402641
3328.0,-0.0038722900208085775
3584.0,0.002178026596084237
3840.0,0.00019612599862739444
4096.0,0.0037996317259967327
4608.0,0.00405691796913743
5120.0,-0.0045516397804021835
5632.0,-0.0033469360787421465
6144.0,0.0016522918595001101
6656.0,0.0019613609183579683
7168.0,0.004000517074018717
7680.0,-0.006743046920746565
8192.0,-0.0007286429172381759
end
