version,3.0
numOfCh,1
type,point
parent_name,fe81d_0dot4-0dot01
ch_type,1_1
kcount,1
numberNandB,1
brightnessNandB,1
carpet pos,0
pc,0
Time (ms),CH1 Auto-Correlation
1.0,0.03428595885634422
2.0,0.03312067687511444
3.0,0.03205076605081558
4.0,0.031048377975821495
5.0,0.030088115483522415
6.0,0.029182733967900276
7.0,0.028310485184192657
8.0,0.027480999007821083
9.0,0.026697741821408272
10.0,0.025960879400372505
11.0,0.025281690061092377
12.0,0.024613263085484505
13.0,0.023992786183953285
14.0,0.023413166403770447
15.0,0.022860316559672356
16.0,0.022332273423671722
18.0,0.021333759650588036
20.0,0.0203576497733593
22.0,0.01942269690334797
24.0,0.018506377935409546
26.0,0.017638158053159714
28.0,0.016804268583655357
30.0,0.015976179391145706
32.0,0.015216627158224583
36.0,0.013955389149487019
40.0,0.013026534579694271
44.0,0.012263362295925617
48.0,0.011354607529938221
52.0,0.01040790043771267
56.0,0.009471542201936245
60.0,0.008875453844666481
64.0,0.008458040654659271
72.0,0.007794694043695927
80.0,0.007454035338014364
88.0,0.007254319731146097
96.0,0.006744322832673788
104.0,0.005916389636695385
112.0,0.004930443596094847
120.0,0.004036287777125835
128.0,0.0033466480672359467
144.0,0.0027503850869834423
160.0,0.002779159462079406
176.0,0.0031062692869454622
192.0,0.003295204835012555
208.0,0.002822834998369217
224.0,0.002578467596322298
240.0,0.0023653320968151093
256.0,0.0022115346509963274
288.0,0.0019809899386018515
320.0,0.000901630672160536
352.0,0.00013531358854379505
384.0,0.00018443906446918845
416.0,0.0009176641469821334
448.0,-0.0011127381585538387
480.0,-0.002234926214441657
512.0,-0.002068976638838649
576.0,-0.0015274264151230454
640.0,-0.002220477443188429
704.0,-0.0025293289218097925
768.0,-0.0026789973489940166
832.0,-0.0024051766376942396
896.0,-0.001761923311278224
960.0,-0.0010056024184450507
1024.0,-0.002016996266320348
1152.0,-0.0030734636820852757
1280.0,-0.003002056386321783
1408.0,-0.001073650666512549
1536.0,0.0006272786995396018
1664.0,-0.0007031244458630681
1792.0,0.0004095025360584259
1920.0,0.0014778790064156055
2048.0,-0.00015396582602988929
2304.0,0.00012282170064281672
2560.0,8.970406634034589e-05
2816.0,0.0011365744285285473
3072.0,0.0032802356872707605
3328.0,2.5878611268126406e-05
3584.0,-0.0008512188796885312
3840.0,-0.002574190031737089
4096.0,-0.003774866694584489
4608.0,0.0012697495985776186
5120.0,0.0015555165009573102
5632.0,-0.002509634243324399
6144.0,0.002548465272411704
6656.0,0.0007114880136214197
7168.0,-0.0037937460001558065
7680.0,-0.0005010485183447599
8192.0,0.0019342545419931412
end
