version,3.0
numOfCh,1
type,point
parent_name,fe81d_0dot4-0dot01
ch_type,1_1
kcount,1
numberNandB,1
brightnessNandB,1
carpet pos,0
pc,0
Time (ms),CH1 Auto-Correlation
1.0,0.02979178912937641
2.0,0.028605906292796135
3.0,0.027485817670822144
4.0,0.026476053521037102
5.0,0.025605253875255585
6.0,0.024819808080792427
7.0,0.024079063907265663
8.0,0.02334599569439888
9.0,0.02266540750861168
10.0,0.021970931440591812
11.0,0.021313989534974098
12.0,0.020692620426416397
13.0,0.020086053758859634
14.0,0.019497467204928398
15.0,0.018989864736795425
16.0,0.01851159892976284
18.0,0.01763414777815342
20.0,0.01679680310189724
22.0,0.016015850007534027
24.0,0.015276450663805008
26.0,0.014621146023273468
28.0,0.013985882513225079
30.0,0.013432699255645275
32.0,0.012908445671200752
36.0,0.011971458792686462
40.0,0.011062570847570896
44.0,0.010447479784488678
48.0,0.009794778190553188
52.0,0.009056261740624905
56.0,0.00824018195271492
60.0,0.0077348374761641026
64.0,0.007281221449375153
72.0,0.006511526182293892
80.0,0.005732490681111813
88.0,0.005347549449652433
96.0,0.005114669445902109
104.0,0.004773738328367472
112.0,0.0046681552194058895
120.0,0.004532515071332455
128.0,0.003849881002679467
144.0,0.0009686655248515308
160.0,-0.0013196312356740236
176.0,-0.0014187251217663288
192.0,-0.0009592142887413502
208.0,-0.0012640852946788073
224.0,-0.0006495449924841523
240.0,-0.0009127369266934693
256.0,-0.0020805976819247007
288.0,-0.0018961337627843022
320.0,-0.00205045472830534
352.0,-0.0025331408251076937
384.0,-0.00214718678034842
416.0,-0.0012888293713331223
448.0,-0.0008196239359676838
480.0,-0.0005223737680353224
512.0,0.00014634328545071185
576.0,0.0012135186698287725
640.0,0.0005695343716070056
704.0,0.0009130181279033422
768.0,-0.000739278388209641
832.0,-0.0016122589586302638
896.0,-0.001041728537529707
960.0,-0.0004310063668526709
1024.0,-0.0006277431966736913
1152.0,0.0014979352708905935
1280.0,0.0009065910708159208
1408.0,-0.002275182632729411
1536.0,-0.0013581529492512345
1664.0,-0.0001635155058465898
1792.0,0.002891016658395529
1920.0,0.0023893381003290415
2048.0,-0.0014620727160945535
2304.0,-0.001845700666308403
2560.0,0.0012132679112255573
2816.0,0.0002658091834746301
3072.0,-0.0010285761673003435
3328.0,-0.0025399411097168922
3584.0,-0.0010664404835551977
3840.0,-0.001558781834319234
4096.0,-0.0014726659283041954
end
