version,3.0
numOfCh,1
type,point
parent_name,fe81d_0dot4-0dot01
ch_type,1_1
kcount,1
numberNandB,1
brightnessNandB,1
carpet pos,0
pc,0
Time (ms),CH1 Auto-Correlation
1.0,0.03574578836560249
2.0,0.03454415500164032
3.0,0.03346148505806923
4.0,0.03245142102241516
5.0,0.031520165503025055
6.0,0.03064209409058094
7.0,0.029800377786159515
8.0,0.029050596058368683
9.0,0.028306124731898308
10.0,0.027569547295570374
11.0,0.026814209297299385
12.0,0.02606458030641079
13.0,0.025359973311424255
14.0,0.024677759036421776
15.0,0.024008268490433693
16.0,0.023351795971393585
18.0,0.02219950221478939
20.0,0.021234946325421333
22.0,0.020320674404501915
24.0,0.019484438002109528
26.0,0.018744472414255142
28.0,0.018009549006819725
30.0,0.017352527007460594
32.0,0.016775179654359818
36.0,0.015605886466801167
40.0,0.014559168368577957
44.0,0.013574326410889626
48.0,0.012558091431856155
52.0,0.011622970923781395
56.0,0.010741758160293102
60.0,0.009994810447096825
64.0,0.00945093110203743
72.0,0.008771644905209541
80.0,0.007969548925757408
88.0,0.007552569266408682
96.0,0.007226056419312954
104.0,0.006853659637272358
112.0,0.007148413453251123
120.0,0.007662550080567598
128.0,0.007892994210124016
144.0,0.007774400524795055
160.0,0.007388885598629713
176.0,0.006299055181443691
192.0,0.005565505940467119
208.0,0.005571975838392973
224.0,0.006645870395004749
240.0,0.007394314743578434
256.0,0.007652933709323406
288.0,0.006258874200284481
320.0,0.004745701793581247
352.0,0.004506602883338928
384.0,0.005429960787296295
416.0,0.004311255645006895
448.0,0.0030243301298469305
480.0,0.0034696320071816444
512.0,0.0030932945664972067
576.0,0.0022088733967393637
640.0,0.00042291663703508675
704.0,0.001612157211638987
768.0,0.0013891621492803097
832.0,0.0017734970897436142
896.0,-0.0006819403497502208
960.0,-0.0011591819347813725
1024.0,0.00030966944177635014
1152.0,4.872338649875019e-06
1280.0,0.0002359689533477649
1408.0,0.0009191837743856013
1536.0,0.0008987641194835305
1664.0,-0.0018462750595062971
1792.0,-0.0009598170290701091
1920.0,-0.0042227827943861485
2048.0,-0.004381894133985043
2304.0,-0.007860315032303333
2560.0,-0.004702052101492882
2816.0,-0.002038001548498869
3072.0,-0.0020284380298107862
3328.0,-0.002483500400558114
3584.0,-0.002954644151031971
3840.0,-0.002062992425635457
4096.0,0.0032517670188099146
4608.0,0.001860051299445331
5120.0,0.0008272894192487001
5632.0,0.0020852014422416687
6144.0,-0.0010946800466626883
6656.0,-0.0012538372538983822
7168.0,-0.0007514203316532075
7680.0,-0.003070384031161666
8192.0,0.0026571922935545444
end
