version,3.0
numOfCh,1
type,point
parent_name,fe81d_0dot4-0dot01
ch_type,1_1
kcount,1
numberNandB,1
brightnessNandB,1
carpet pos,0
pc,0
Time (ms),CH1 Auto-Correlation
1.0,0.03681975230574608
2.0,0.035663094371557236
3.0,0.03462326154112816
4.0,0.03364814445376396
5.0,0.03273998573422432
6.0,0.0318446159362793
7.0,0.030975647270679474
8.0,0.030145039781928062
9.0,0.029363909736275673
10.0,0.028605233877897263
11.0,0.02786632440984249
12.0,0.02712875045835972
13.0,0.026436861604452133
14.0,0.02577545866370201
15.0,0.025140708312392235
16.0,0.024510366842150688
18.0,0.02328501269221306
20.0,0.022248394787311554
22.0,0.021377425640821457
24.0,0.020603394135832787
26.0,0.01983761414885521
28.0,0.019077593460679054
30.0,0.01841907389461994
32.0,0.01789231039583683
36.0,0.016978232190012932
40.0,0.016202770173549652
44.0,0.015487359836697578
48.0,0.014788334257900715
52.0,0.01418879721313715
56.0,0.0136460205540061
60.0,0.013108685612678528
64.0,0.012397348880767822
72.0,0.011121387593448162
80.0,0.010157731361687183
88.0,0.009428683668375015
96.0,0.008600238710641861
104.0,0.007968660444021225
112.0,0.007728465832769871
120.0,0.007602473720908165
128.0,0.007607126142829657
144.0,0.007225667126476765
160.0,0.006118189077824354
176.0,0.0058806766755878925
192.0,0.005878179334104061
208.0,0.005641275551170111
224.0,0.00535621540620923
240.0,0.005365010816603899
256.0,0.005046586971729994
288.0,0.003944325260818005
320.0,0.0023011250887066126
352.0,0.0021670563146471977
384.0,0.0027135577984154224
416.0,0.002697436837479472
448.0,0.0026547422166913748
480.0,0.002170425606891513
512.0,0.0013677682727575302
576.0,-0.00014817382907494903
640.0,-0.0012823553988710046
704.0,-0.0023046396672725677
768.0,-0.0005351558211259544
832.0,-0.0016651565674692392
896.0,-0.003501388942822814
960.0,-0.0031950657721608877
1024.0,-0.0031523059587925673
1152.0,-0.004378107376396656
1280.0,-0.0015163312200456858
1408.0,0.0006728299194946885
1536.0,0.0009699432412162423
1664.0,0.000654424075037241
1792.0,0.0017087156884372234
1920.0,0.0014752848073840141
2048.0,0.001951947226189077
2304.0,0.0009628096595406532
2560.0,-0.00040217439527623355
2816.0,-0.0002362316445214674
3072.0,-0.0019025010988116264
3328.0,-0.003927792422473431
3584.0,-0.00314536620862782
3840.0,-0.002914264565333724
4096.0,-0.0012089717201888561
4608.0,0.0016480538761243224
5120.0,-0.0023967688903212547
5632.0,-0.004270542878657579
6144.0,4.673583680414595e-05
6656.0,0.003097179112955928
7168.0,0.0016014307038858533
7680.0,-0.0012216256000101566
8192.0,0.00030815121135674417
end
