version,3.0
numOfCh,1
type,point
parent_name,fe81d_0dot4-0dot01
ch_type,1_1
kcount,1
numberNandB,1
brightnessNandB,1
carpet pos,0
pc,0
Time (ms),CH1 Auto-Correlation
1.0,0.04208678752183914
2.0,0.04087723791599274
3.0,0.039774056524038315
4.0,0.03877674415707588
5.0,0.03785869479179382
6.0,0.03697819262742996
7.0,0.036143966019153595
8.0,0.03534303605556488
9.0,0.03457663208246231
10.0,0.03383246436715126
11.0,0.03313721716403961
12.0,0.03246532008051872
13.0,0.03182715177536011
14.0,0.03124430775642395
15.0,0.030710551887750626
16.0,0.030233407393097878
18.0,0.029412109404802322
20.0,0.028526801615953445
22.0,0.02768784947693348
24.0,0.026943106204271317
26.0,0.026166819036006927
28.0,0.025445153936743736
30.0,0.024800967425107956
32.0,0.024199502542614937
36.0,0.022980637848377228
40.0,0.021802624687552452
44.0,0.020719218999147415
48.0,0.019936921074986458
52.0,0.01931745931506157
56.0,0.018599994480609894
60.0,0.01793808862566948
64.0,0.01737908646464348
72.0,0.01639140211045742
80.0,0.015320833772420883
88.0,0.014387308619916439
96.0,0.013507132418453693
104.0,0.01251800823956728
112.0,0.011688640341162682
120.0,0.011097676120698452
128.0,0.010836493223905563
144.0,0.01081547699868679
160.0,0.010720858350396156
176.0,0.01039808802306652
192.0,0.010332570411264896
208.0,0.009597293101251125
224.0,0.00949128158390522
240.0,0.009597686119377613
256.0,0.009797240607440472
288.0,0.011215518228709698
320.0,0.011434875428676605
352.0,0.01127565372735262
384.0,0.00923043955117464
416.0,0.006649761460721493
448.0,0.004990021698176861
480.0,0.004833200015127659
512.0,0.005183711647987366
576.0,0.006320184096693993
640.0,0.009034315124154091
704.0,0.006015229504555464
768.0,0.0027711663860827684
832.0,0.001138778286986053
896.0,0.0014948755269870162
960.0,0.0016162062529474497
1024.0,0.0015459300484508276
1152.0,0.0009185930248349905
1280.0,0.0029599610716104507
1408.0,-0.00039651390397921205
1536.0,-0.0006748432060703635
1664.0,-0.0009064574842341244
1792.0,-0.0010002275230363011
1920.0,0.003057668684050441
2048.0,0.0023177512921392918
2304.0,0.0026348470710217953
2560.0,0.004047743044793606
2816.0,6.039095751475543e-05
3072.0,-0.0005176470731385052
3328.0,0.00025141178048215806
3584.0,-0.00021449335326906294
3840.0,5.743163637816906e-05
4096.0,-0.0015277740312740207
4608.0,-0.0018206730019301176
5120.0,-0.008031881414353848
5632.0,-0.006696020253002644
6144.0,-0.0059205093421041965
6656.0,-0.003070626873522997
7168.0,-0.005699537228792906
7680.0,-0.012038630433380604
8192.0,-0.00954502634704113
end
