version,3.0
numOfCh,1
type,point
parent_name,fe81d_0dot4-0dot01
ch_type,1_1
kcount,1
numberNandB,1
brightnessNandB,1
carpet pos,0
pc,0
Time (ms),CH1 Auto-Correlation
1.0,0.03558702394366264
2.0,0.03448457643389702
3.0,0.03344572335481644
4.0,0.032473672181367874
5.0,0.031542178243398666
6.0,0.03065650910139084
7.0,0.029858365654945374
8.0,0.029086345806717873
9.0,0.02835654839873314
10.0,0.027672991156578064
11.0,0.027047326788306236
12.0,0.026424087584018707
13.0,0.02580324374139309
14.0,0.0252277422696352
15.0,0.024665016680955887
16.0,0.024130897596478462
18.0,0.023197369650006294
20.0,0.0223495252430439
22.0,0.021525824442505836
24.0,0.02074231021106243
26.0,0.020031515508890152
28.0,0.019378237426280975
30.0,0.018792662769556046
32.0,0.018275927752256393
36.0,0.017439449205994606
40.0,0.016764188185334206
44.0,0.016228877007961273
48.0,0.01582935079932213
52.0,0.015552147291600704
56.0,0.015274317935109138
60.0,0.014879104681313038
64.0,0.014417686499655247
72.0,0.013935391791164875
80.0,0.012907479889690876
88.0,0.011549510061740875
96.0,0.010463304817676544
104.0,0.00999112706631422
112.0,0.009406546130776405
120.0,0.00891922414302826
128.0,0.008032235316932201
144.0,0.0066168345510959625
160.0,0.005787310190498829
176.0,0.005727172363549471
192.0,0.005884613376110792
208.0,0.004649331793189049
224.0,0.0035237292759120464
240.0,0.0030676384922116995
256.0,0.002538505708798766
288.0,0.0015105993952602148
320.0,0.0010781586170196533
352.0,0.0013470598496496677
384.0,0.0013769001234322786
416.0,0.0017160930437967181
448.0,0.0010221604024991393
480.0,0.0011983757140114903
512.0,0.0030910298228263855
576.0,0.0031913286074995995
640.0,0.0003343666612636298
704.0,-0.0007741075241938233
768.0,-0.0010305995820090175
832.0,-0.0033588060177862644
896.0,-0.0041239275597035885
960.0,-0.0029836588073521852
1024.0,-0.0022650021128356457
1152.0,-0.003042980097234249
1280.0,-0.002886279486119747
1408.0,-0.006057566497474909
1536.0,-0.0027559446170926094
1664.0,-0.0001210585396620445
1792.0,0.0033359082881361246
1920.0,0.0033323909156024456
2048.0,0.0013677754905074835
2304.0,-0.0006738124648109078
2560.0,0.0036954910028725863
2816.0,0.0014085769653320312
3072.0,0.0007093436433933675
3328.0,-0.0022503237705677748
3584.0,-0.0049699884839355946
3840.0,-0.005043348763138056
4096.0,-0.0036103271413594484
end
