version,3.0
numOfCh,1
type,point
parent_name,fe81d_0dot4-0dot01
ch_type,1_1
kcount,1
numberNandB,1
brightnessNandB,1
carpet pos,0
pc,0
Time (ms),CH1 Auto-Correlation
1.0,0.03697481378912926
2.0,0.03589644283056259
3.0,0.03490154445171356
4.0,0.033961132168769836
5.0,0.03307594731450081
6.0,0.03223169595003128
7.0,0.03142740949988365
8.0,0.030668508261442184
9.0,0.029962562024593353
10.0,0.029280098155140877
11.0,0.02863425947725773
12.0,0.028017885982990265
13.0,0.02742217481136322
14.0,0.026825731620192528
15.0,0.026267269626259804
16.0,0.02574216015636921
18.0,0.02478047087788582
20.0,0.023873550817370415
22.0,0.02296862192451954
24.0,0.022064542397856712
26.0,0.02123849466443062
28.0,0.020502522587776184
30.0,0.019860155880451202
32.0,0.01925487443804741
36.0,0.01815846376121044
40.0,0.017152339220046997
44.0,0.016284063458442688
48.0,0.015564946457743645
52.0,0.014867553487420082
56.0,0.014425136148929596
60.0,0.014088055118918419
64.0,0.013719660229980946
72.0,0.012882617302238941
80.0,0.012180469930171967
88.0,0.011272388510406017
96.0,0.01060894038528204
104.0,0.010105709545314312
112.0,0.009797509759664536
120.0,0.009598428383469582
128.0,0.009420511312782764
144.0,0.00908308569341898
160.0,0.008851076476275921
176.0,0.008365761488676071
192.0,0.008542504161596298
208.0,0.008543149568140507
224.0,0.007870059460401535
240.0,0.007475783117115498
256.0,0.007367633283138275
288.0,0.006443833000957966
320.0,0.005005525425076485
352.0,0.005984743125736713
384.0,0.006562586408108473
416.0,0.006196991540491581
448.0,0.006090214941650629
480.0,0.005491076502948999
512.0,0.005118104629218578
576.0,0.0053165508434176445
640.0,0.003912953194230795
704.0,0.0032026891130954027
768.0,0.0022866057697683573
832.0,0.0022901277989149094
896.0,0.0010934293968603015
960.0,0.0002909649920184165
1024.0,0.0009514529956504703
1152.0,0.002341390587389469
1280.0,0.0032390409614890814
1408.0,0.0004693511873483658
1536.0,-0.0006704675615765154
1664.0,0.002491577295586467
1792.0,0.0025828941725194454
1920.0,0.0021170645486563444
2048.0,0.001493876683525741
2304.0,0.0003245080297347158
2560.0,-0.0006116064614616334
2816.0,-0.0007761966553516686
3072.0,0.0018710889853537083
3328.0,0.0024031931534409523
3584.0,0.002108190907165408
3840.0,0.0031162791419774294
4096.0,0.0007899168413132429
4608.0,-0.0037406354676932096
5120.0,-0.005411223508417606
5632.0,-0.0035042946692556143
6144.0,-0.0007014827569946647
6656.0,-0.0031065696384757757
7168.0,-0.0030607355292886496
7680.0,-0.003458016784861684
8192.0,-0.006951487623155117
end
