version,3.0
numOfCh,1
type,point
parent_name,fe81d_0dot4-0dot01
ch_type,1_1
kcount,1
numberNandB,1
brightnessNandB,1
carpet pos,0
pc,0
Time (ms),CH1 Auto-Correlation
1.0,0.03736288845539093
2.0,0.03627767786383629
3.0,0.035235531628131866
4.0,0.034254290163517
5.0,0.033285610377788544
6.0,0.0323767215013504
7.0,0.03149386867880821
8.0,0.030631491914391518
9.0,0.02982504479587078
10.0,0.029088521376252174
11.0,0.0283830389380455
12.0,0.0276923980563879
13.0,0.0270344540476799
14.0,0.026390645653009415
15.0,0.025707000866532326
16.0,0.025041766464710236
18.0,0.023862464353442192
20.0,0.02277536317706108
22.0,0.02179308794438839
24.0,0.020955247804522514
26.0,0.020163411274552345
28.0,0.01953507959842682
30.0,0.019012918695807457
32.0,0.018444906920194626
36.0,0.017544830217957497
40.0,0.01683700829744339
44.0,0.01615363359451294
48.0,0.015368407592177391
52.0,0.014707526192069054
56.0,0.014470355585217476
60.0,0.014345421455800533
64.0,0.014075599610805511
72.0,0.013337371870875359
80.0,0.01251097023487091
88.0,0.011894571594893932
96.0,0.011376193724572659
104.0,0.010913107544183731
112.0,0.010003015398979187
120.0,0.00888913031667471
128.0,0.008039707317948341
144.0,0.006558403372764587
160.0,0.006004032678902149
176.0,0.006088245194405317
192.0,0.005789324641227722
208.0,0.005323698744177818
224.0,0.005343740340322256
240.0,0.004953791853040457
256.0,0.005471355747431517
288.0,0.005760289262980223
320.0,0.0038188868202269077
352.0,0.002660504076629877
384.0,0.001225005486048758
416.0,0.0012279425282031298
448.0,0.0011616097763180733
480.0,0.0012628099648281932
512.0,0.002685104962438345
576.0,0.0006584337097592652
640.0,-0.0007432878483086824
704.0,-0.003407224314287305
768.0,-0.005984621122479439
832.0,-0.0061433990485966206
896.0,-0.004249264020472765
960.0,-0.0029436240438371897
1024.0,-0.0045042820274829865
1152.0,-0.0064050545915961266
1280.0,-0.0028412924148142338
1408.0,-0.002150404965505004
1536.0,0.0023763063363730907
1664.0,0.002370077185332775
1792.0,0.00382804311811924
1920.0,0.00447750324383378
2048.0,0.003467388218268752
2304.0,0.0006704578408971429
2560.0,-4.081014412804507e-05
2816.0,-0.0038496884517371655
3072.0,-0.005407906603068113
3328.0,-0.0015186021337285638
3584.0,-0.00279476516880095
3840.0,0.00024521054001525044
4096.0,-0.0016290635103359818
4608.0,0.0009319811360910535
5120.0,-0.0026672224048525095
5632.0,-0.0001392002304783091
6144.0,0.001670831348747015
6656.0,-0.002913262927904725
7168.0,0.0020299837924540043
7680.0,-0.0009157132008112967
8192.0,0.005493692122399807
end
