version,3.0
numOfCh,1
type,point
parent_name,fe81d_0dot4-0dot01
ch_type,1_1
kcount,1
numberNandB,1
brightnessNandB,1
carpet pos,0
pc,0
Time (ms),CH1 Auto-Correlation
1.0,0.03360912576317787
2.0,0.03242024406790733
3.0,0.03134291619062424
4.0,0.030331311747431755
5.0,0.029392782598733902
6.0,0.028492813929915428
7.0,0.027623657137155533
8.0,0.026818420737981796
9.0,0.026063216850161552
10.0,0.025343595072627068
11.0,0.024679193273186684
12.0,0.02408936806023121
13.0,0.023540055379271507
14.0,0.022977938875555992
15.0,0.022490520030260086
16.0,0.02202550880610943
18.0,0.021171247586607933
20.0,0.0202580988407135
22.0,0.019353989511728287
24.0,0.018525825813412666
26.0,0.017729006707668304
28.0,0.016976913437247276
30.0,0.016289787366986275
32.0,0.01561942882835865
36.0,0.014406902715563774
40.0,0.013363503850996494
44.0,0.012547951191663742
48.0,0.011794991791248322
52.0,0.010991845279932022
56.0,0.010320588946342468
60.0,0.009952294640243053
64.0,0.009566027671098709
72.0,0.00869088526815176
80.0,0.007968351244926453
88.0,0.007353451102972031
96.0,0.0067996252328157425
104.0,0.006480488460510969
112.0,0.006248584017157555
120.0,0.0060282181948423386
128.0,0.005968260113149881
144.0,0.005555981304496527
160.0,0.004682144150137901
176.0,0.00419109920039773
192.0,0.004504402633756399
208.0,0.004382216837257147
224.0,0.0038750837557017803
240.0,0.003754751291126013
256.0,0.003693691920489073
288.0,0.0039051915518939495
320.0,0.00422227568924427
352.0,0.002719587879255414
384.0,0.0022428494412451982
416.0,0.0009397623362019658
448.0,0.0002449245366733521
480.0,-0.0006965235807001591
512.0,-0.0007587560685351491
576.0,0.00025782306329347193
640.0,0.00023943401174619794
704.0,0.000281988614005968
768.0,-0.00032673298846930265
832.0,0.0006874474347569048
896.0,0.001765069435350597
960.0,0.0031916701700538397
1024.0,0.002997156698256731
1152.0,0.0016530476277694106
1280.0,0.002610334660857916
1408.0,0.0025222976692020893
1536.0,0.00280464137904346
1664.0,0.0002660953323356807
1792.0,-0.001822171499952674
1920.0,-0.0004582249093800783
2048.0,0.0009900733130052686
2304.0,0.000703432597219944
2560.0,0.0011204128386452794
2816.0,0.0011322246864438057
3072.0,0.000510378391481936
3328.0,-0.001067653065547347
3584.0,0.0009827608009800315
3840.0,0.00023578233958687633
4096.0,0.00018536388233769685
4608.0,-0.0030856281518936157
5120.0,-0.003251252695918083
5632.0,-0.002447184408083558
6144.0,-0.002506460528820753
6656.0,-0.003665854688733816
7168.0,0.0003194843011442572
7680.0,-0.0009222998050972819
8192.0,-0.0027560656890273094
end
