version,3.0
numOfCh,1
type,point
parent_name,fe81d_0dot4-0dot01
ch_type,1_1
kcount,1
numberNandB,1
brightnessNandB,1
carpet pos,0
pc,0
Time (ms),CH1 Auto-Correlation
1.0,0.04742880538105965
2.0,0.04632943496108055
3.0,0.04530216380953789
4.0,0.044336989521980286
5.0,0.043424371629953384
6.0,0.04261346161365509
7.0,0.04181913658976555
8.0,0.0410674549639225
9.0,0.04036766663193703
10.0,0.03968743607401848
11.0,0.0390406958758831
12.0,0.038413044065237045
13.0,0.03782637417316437
14.0,0.03727934882044792
15.0,0.0368211530148983
16.0,0.03633715584874153
18.0,0.03542812168598175
20.0,0.034534309059381485
22.0,0.03357828035950661
24.0,0.03264815732836723
26.0,0.03182145953178406
28.0,0.030992861837148666
30.0,0.03033057041466236
32.0,0.029793813824653625
36.0,0.0288313627243042
40.0,0.02793090231716633
44.0,0.02704732120037079
48.0,0.026380939409136772
52.0,0.025760289281606674
56.0,0.025123100727796555
60.0,0.024375101551413536
64.0,0.023698817938566208
72.0,0.02246958017349243
80.0,0.02105121500790119
88.0,0.020094474777579308
96.0,0.019804267212748528
104.0,0.019697198644280434
112.0,0.019429149106144905
120.0,0.01898476853966713
128.0,0.018074283376336098
144.0,0.01628936268389225
160.0,0.01439819484949112
176.0,0.012513167224824429
192.0,0.011703700758516788
208.0,0.011454730294644833
224.0,0.011863918974995613
240.0,0.010846655815839767
256.0,0.008972248993813992
288.0,0.0076574645936489105
320.0,0.0065075610764324665
352.0,0.007621556054800749
384.0,0.007232594303786755
416.0,0.0054694549180567265
448.0,0.005785560701042414
480.0,0.006627011112868786
512.0,0.0060821413062512875
576.0,0.005515895783901215
640.0,0.004492789972573519
704.0,0.00017315497098024935
768.0,-0.004007184412330389
832.0,-0.006341962143778801
896.0,-0.00729158753529191
960.0,-0.007339447271078825
1024.0,-0.005244667176157236
1152.0,-0.004021188709884882
1280.0,-0.007247266359627247
1408.0,-0.015044805593788624
1536.0,-0.01408206857740879
1664.0,-0.010002712719142437
1792.0,-0.005776727572083473
1920.0,-0.003358663758262992
2048.0,0.0005925053847022355
2304.0,0.006472156383097172
2560.0,0.00935797393321991
2816.0,0.006921062245965004
3072.0,0.0009510972304269671
3328.0,-0.009798616170883179
3584.0,-0.010369805619120598
3840.0,-0.007825985550880432
4096.0,-0.005372053477913141
end
