version,3.0
numOfCh,1
type,point
parent_name,fe81d_0dot4-0dot01
ch_type,1_1
kcount,1
numberNandB,1
brightnessNandB,1
carpet pos,0
pc,0
Time (ms),CH1 Auto-Correlation
1.0,0.03166484832763672
2.0,0.030523156747221947
3.0,0.029443329200148582
4.0,0.028449449688196182
5.0,0.027525464072823524
6.0,0.02665485255420208
7.0,0.025875240564346313
8.0,0.025149814784526825
9.0,0.02441815845668316
10.0,0.023713303729891777
11.0,0.023048268631100655
12.0,0.022442568093538284
13.0,0.021850930526852608
14.0,0.021297145634889603
15.0,0.02077566273510456
16.0,0.020273124799132347
18.0,0.019360043108463287
20.0,0.01848987489938736
22.0,0.017668846994638443
24.0,0.016935164108872414
26.0,0.016215937212109566
28.0,0.015538453124463558
30.0,0.014916883781552315
32.0,0.014359181746840477
36.0,0.013128339312970638
40.0,0.011838803999125957
44.0,0.010670701041817665
48.0,0.009714732877910137
52.0,0.008968407288193703
56.0,0.008349654264748096
60.0,0.007805968634784222
64.0,0.007516210898756981
72.0,0.006812678650021553
80.0,0.00607667863368988
88.0,0.0053047481924295425
96.0,0.004777808208018541
104.0,0.0042829355224967
112.0,0.00404700543731451
120.0,0.004142432939261198
128.0,0.004359961021691561
144.0,0.004642764572054148
160.0,0.004978466778993607
176.0,0.005399960558861494
192.0,0.0054662637412548065
208.0,0.004803147166967392
224.0,0.004096666816622019
240.0,0.003463577711954713
256.0,0.002740583149716258
288.0,0.0019026327645406127
320.0,0.0012494277907535434
352.0,0.001613763626664877
384.0,0.002905006753280759
416.0,0.004026369191706181
448.0,0.003401716472581029
480.0,0.002639129990711808
512.0,0.0029885985422879457
576.0,0.003751315176486969
640.0,0.004218118265271187
704.0,0.003734144615009427
768.0,0.002241823822259903
832.0,0.0014998046681284904
896.0,0.0027249441482126713
960.0,0.0030964987818151712
1024.0,0.0012286407873034477
1152.0,0.0015799695393070579
1280.0,0.002403148915618658
1408.0,0.0016307843616232276
1536.0,0.0009392724605277181
1664.0,0.0015774801140651107
1792.0,0.0009209091076627374
1920.0,0.0002684069622773677
2048.0,0.0007266643224284053
2304.0,-0.0007726901676505804
2560.0,-0.0011605736799538136
2816.0,-0.0010702244471758604
3072.0,-0.001939731533639133
3328.0,-0.00044249900383874774
3584.0,-0.002266081515699625
3840.0,-0.0017541878623887897
4096.0,0.0003157850878778845
4608.0,-0.0023412846494466066
5120.0,-0.0033129958901554346
5632.0,-0.0030000319238752127
6144.0,-0.00402690889313817
6656.0,-0.0030161873437464237
7168.0,-0.0022071099374443293
7680.0,-0.0013900522608309984
8192.0,0.0008633663528598845
end
