version,3.0
numOfCh,1
type,point
parent_name,fe81d_0dot4-0dot01
ch_type,1_1
kcount,1
numberNandB,1
brightnessNandB,1
carpet pos,0
pc,0
Time (ms),CH1 Auto-Correlation
1.0,0.03628405183553696
2.0,0.035144541412591934
3.0,0.03404790163040161
4.0,0.03298322483897209
5.0,0.03199417516589165
6.0,0.031067023053765297
7.0,0.030224403366446495
8.0,0.029436061158776283
9.0,0.028670070692896843
10.0,0.02795557864010334
11.0,0.027307139709591866
12.0,0.026687193661928177
13.0,0.02609989233314991
14.0,0.025548825040459633
15.0,0.025022761896252632
16.0,0.024531688541173935
18.0,0.02360580302774906
20.0,0.022681081667542458
22.0,0.021714534610509872
24.0,0.020739559084177017
26.0,0.019801879301667213
28.0,0.018952099606394768
30.0,0.01822008192539215
32.0,0.0175330713391304
36.0,0.016365867108106613
40.0,0.015438354574143887
44.0,0.014546157792210579
48.0,0.013695863075554371
52.0,0.013118471950292587
56.0,0.012804594822227955
60.0,0.012506811879575253
64.0,0.0122919213026762
72.0,0.01143645029515028
80.0,0.010608680546283722
88.0,0.00946180522441864
96.0,0.00873661134392023
104.0,0.008065746165812016
112.0,0.007759970612823963
120.0,0.007475585211068392
128.0,0.0075222402811050415
144.0,0.007538491860032082
160.0,0.006669299211353064
176.0,0.005083968862891197
192.0,0.00433448376134038
208.0,0.003980056848376989
224.0,0.003835598938167095
240.0,0.0034776278771460056
256.0,0.0026569112669676542
288.0,0.002557850442826748
320.0,0.0018826345913112164
352.0,0.0023075786884874105
384.0,0.0022276921663433313
416.0,0.0008061622502282262
448.0,-0.0006337059894576669
480.0,-0.0015036255354061723
512.0,-0.0021862024441361427
576.0,-0.0003903624601662159
640.0,0.0007142443209886551
704.0,0.001034405897371471
768.0,0.0003367819299455732
832.0,-0.0032328388188034296
896.0,-0.0033919436391443014
960.0,-0.0009696163469925523
1024.0,0.0013218283420428634
1152.0,5.67503557249438e-05
1280.0,-0.0023038042709231377
1408.0,0.00014871834719087929
1536.0,-0.001931611099280417
1664.0,-0.003472106298431754
1792.0,0.00016454547585453838
1920.0,-0.00010568888683337718
2048.0,0.000831027515232563
2304.0,0.001277475617825985
2560.0,0.005653138738125563
2816.0,0.003848576918244362
3072.0,1.6369151012440852e-07
3328.0,-0.004757175222039223
3584.0,-0.004822239279747009
3840.0,-0.00041569388122297823
4096.0,0.0015288867289200425
4608.0,-0.0011015194468200207
5120.0,-0.002254398772493005
5632.0,-0.002198526868596673
6144.0,-0.005226786248385906
6656.0,-0.0014925452414900064
7168.0,-0.0002646400243975222
end
