version,3.0
numOfCh,1
type,point
parent_name,fe81d_0dot4-0dot01
ch_type,1_1
kcount,1
numberNandB,1
brightnessNandB,1
carpet pos,0
pc,0
Time (ms),CH1 Auto-Correlation
1.0,0.06981629878282547
2.0,0.06764671206474304
3.0,0.06547795981168747
4.0,0.063358373939991
5.0,0.06119721010327339
6.0,0.05907316878437996
7.0,0.05709179490804672
8.0,0.05508636310696602
9.0,0.05315519869327545
10.0,0.05128903314471245
11.0,0.04945052042603493
12.0,0.0475691556930542
13.0,0.045737374573946
14.0,0.0438745878636837
15.0,0.04210259020328522
16.0,0.04038282856345177
18.0,0.036898091435432434
20.0,0.033490002155303955
22.0,0.030259687453508377
24.0,0.02696049027144909
26.0,0.023860618472099304
28.0,0.02086355909705162
30.0,0.017869990319013596
32.0,0.014877495355904102
36.0,0.00983482040464878
40.0,0.008939910680055618
44.0,0.00815278198570013
48.0,0.007433171384036541
52.0,0.006653917487710714
56.0,0.006190997548401356
60.0,0.005942081101238728
64.0,0.005630082450807095
72.0,0.005249695852398872
80.0,0.00474401144310832
88.0,0.00423346646130085
96.0,0.003518923418596387
104.0,0.0025752526707947254
112.0,0.0015739859081804752
120.0,0.0005259455065242946
128.0,-0.000411889428505674
144.0,-0.00047457125037908554
160.0,-0.0007832999108359218
176.0,-0.001204700325615704
192.0,-0.0013494519516825676
208.0,-0.0009578227181918919
224.0,0.0001897484326036647
240.0,0.00015835423255339265
256.0,-0.00023455313930753618
288.0,-0.000224554562009871
320.0,-0.0007631532498635352
352.0,-0.0002958492550533265
384.0,-0.001040278235450387
416.0,-0.0019465689547359943
448.0,-0.0006011584191583097
480.0,-0.00048480986151844263
512.0,-0.0021568979136645794
576.0,-0.001903977245092392
640.0,-0.001469847047701478
704.0,-0.0005991101497784257
768.0,-0.0003039356379304081
832.0,-0.0011782958172261715
896.0,-0.001000109245069325
960.0,-0.00032321366597898304
1024.0,-0.0018177855527028441
1152.0,-0.0011830296134576201
1280.0,-0.0006332692573778331
1408.0,-0.0004311164375394583
1536.0,-0.00017931871116161346
1664.0,-0.0006361828418448567
1792.0,-0.00024180584296118468
1920.0,0.0013496779138222337
2048.0,0.0012440357822924852
2304.0,0.002794498112052679
2560.0,-0.00013386055070441216
2816.0,-0.001371950376778841
3072.0,-2.8838821890531108e-05
3328.0,-0.0007682520663365722
3584.0,-0.0007815546705387533
3840.0,0.0005050689214840531
4096.0,0.0012445885222405195
4608.0,0.00021864632435608655
5120.0,-0.0005372994928620756
5632.0,-0.0006236991030164063
6144.0,0.00015733895997982472
6656.0,0.0006608702824451029
7168.0,-0.0007363860495388508
7680.0,-0.0017765105003491044
8192.0,0.00034717144444584846
end
