version,3.0
numOfCh,1
type,point
parent_name,fe81d_0dot4-0dot01
ch_type,1_1
kcount,1
numberNandB,1
brightnessNandB,1
carpet pos,0
pc,0
Time (ms),CH1 Auto-Correlation
1.0,0.04357164353132248
2.0,0.04245288297533989
3.0,0.04141489043831825
4.0,0.04040778428316116
5.0,0.03942393511533737
6.0,0.0385030172765255
7.0,0.037676408886909485
8.0,0.0368882417678833
9.0,0.036142610013484955
10.0,0.035437773913145065
11.0,0.03473510965704918
12.0,0.03404431790113449
13.0,0.03338419273495674
14.0,0.03271343559026718
15.0,0.03208411484956741
16.0,0.031447041779756546
18.0,0.030313795432448387
20.0,0.02926955372095108
22.0,0.028223510831594467
24.0,0.027265457436442375
26.0,0.02643779292702675
28.0,0.025671271607279778
30.0,0.02493998408317566
32.0,0.02424713596701622
36.0,0.022915108129382133
40.0,0.021766943857073784
44.0,0.02063683047890663
48.0,0.019430512562394142
52.0,0.01832371950149536
56.0,0.01747060939669609
60.0,0.01674363575875759
64.0,0.01623760163784027
72.0,0.015660112723708153
80.0,0.014705927111208439
88.0,0.013673289678990841
96.0,0.012611902318894863
104.0,0.01174160186201334
112.0,0.011151770129799843
120.0,0.01069642324000597
128.0,0.010573758743703365
144.0,0.009921050630509853
160.0,0.009833266027271748
176.0,0.009676914662122726
192.0,0.00992890726774931
208.0,0.010727557353675365
224.0,0.010820633731782436
240.0,0.010780403390526772
256.0,0.009976791217923164
288.0,0.007252329960465431
320.0,0.0034910542890429497
352.0,0.002765244571492076
384.0,0.0024409929756075144
416.0,0.0033462056890130043
448.0,0.003003956750035286
480.0,0.0024898387491703033
512.0,0.0032038979697972536
576.0,0.0025365587789565325
640.0,0.003553295275196433
704.0,0.003280250122770667
768.0,0.0038536060601472855
832.0,0.0030832940246909857
896.0,0.0012193397851660848
960.0,0.0028183511458337307
1024.0,0.0022829240188002586
1152.0,-0.00011040928075090051
1280.0,-0.001756539335474372
1408.0,-0.003585670841857791
1536.0,-0.0011901288526132703
1664.0,-0.0009934467962011695
1792.0,-0.004548847675323486
1920.0,-0.006464024540036917
2048.0,-0.00887133926153183
2304.0,-0.006158876698464155
2560.0,-0.0006170605192892253
2816.0,0.002617197809740901
3072.0,0.0013445346849039197
3328.0,0.00417914055287838
3584.0,0.0035890310537070036
3840.0,0.0015161875635385513
4096.0,0.0015082949539646506
4608.0,-0.0009329566382803023
5120.0,-0.005098464898765087
5632.0,-0.006094269920140505
6144.0,-0.003248000517487526
6656.0,-0.006516329478472471
7168.0,-0.0013440847396850586
7680.0,0.0013964169193059206
8192.0,-0.004478145390748978
end
