version,3.0
numOfCh,1
type,point
parent_name,fe81d_0dot4-0dot01
ch_type,1_1
kcount,1
numberNandB,1
brightnessNandB,1
carpet pos,0
pc,0
Time (ms),CH1 Auto-Correlation
1.0,0.0363033190369606
2.0,0.03513181209564209
3.0,0.03402138128876686
4.0,0.032953571528196335
5.0,0.031962912529706955
6.0,0.031027134507894516
7.0,0.030119331553578377
8.0,0.029237370938062668
9.0,0.028394589200615883
10.0,0.027607982978224754
11.0,0.02686271257698536
12.0,0.026195287704467773
13.0,0.02559945173561573
14.0,0.02500181272625923
15.0,0.024428311735391617
16.0,0.023859621956944466
18.0,0.02277570590376854
20.0,0.021807648241519928
22.0,0.020974721759557724
24.0,0.020240718498826027
26.0,0.019584713503718376
28.0,0.019003858789801598
30.0,0.018447047099471092
32.0,0.017914149910211563
36.0,0.016969328746199608
40.0,0.01597016118466854
44.0,0.015002082102000713
48.0,0.014088080264627934
52.0,0.013397708535194397
56.0,0.012898831628262997
60.0,0.012610244564712048
64.0,0.012278130277991295
72.0,0.011155908927321434
80.0,0.009827729314565659
88.0,0.008948291651904583
96.0,0.008500153198838234
104.0,0.0078480439260602
112.0,0.0066506159491837025
120.0,0.0060297041200101376
128.0,0.00587685639038682
144.0,0.005738883279263973
160.0,0.005482691340148449
176.0,0.004476616159081459
192.0,0.0033569883089512587
208.0,0.0017035221680998802
224.0,6.122453487478197e-05
240.0,-7.817486766725779e-05
256.0,0.00044516322668641806
288.0,0.0007402233895845711
320.0,0.0015064793406054378
352.0,0.002059407066553831
384.0,0.0013061047066003084
416.0,0.0010353592224419117
448.0,0.0018146904185414314
480.0,0.002326823538169265
512.0,0.002618470462039113
576.0,-0.0007281850557774305
640.0,-2.6331628760090098e-05
704.0,0.00038574362406507134
768.0,-0.0013926177052780986
832.0,-0.0013001278275623918
896.0,-0.001310421503148973
960.0,-0.0027103659231215715
1024.0,-0.002078781370073557
1152.0,-0.0031146735418587923
1280.0,-0.003035580040886998
1408.0,-0.0028713089413940907
1536.0,-0.00220128265209496
1664.0,-0.001842558034695685
1792.0,-0.001293361303396523
1920.0,-0.000690764922183007
2048.0,0.0006045423215255141
2304.0,0.001666987780481577
2560.0,-0.00031119247432798147
2816.0,3.596875103539787e-05
3072.0,-0.0016414884012192488
3328.0,-0.0021154077257961035
3584.0,0.000269602081971243
3840.0,0.0021348786540329456
4096.0,0.001816246658563614
4608.0,-0.001071328530088067
5120.0,-0.002532264683395624
5632.0,0.0008149282657541335
6144.0,0.003369776299223304
6656.0,0.00046014977851882577
7168.0,-0.003473858116194606
7680.0,-0.0032014581374824047
8192.0,0.0016091136494651437
end
