version,3.0
numOfCh,1
type,point
parent_name,fe81d_0dot4-0dot01
ch_type,1_1
kcount,1
numberNandB,1
brightnessNandB,1
carpet pos,0
pc,0
Time (ms),CH1 Auto-Correlation
1.0,0.03269319608807564
2.0,0.03152769058942795
3.0,0.03041251190006733
4.0,0.029376832768321037
5.0,0.028408683836460114
6.0,0.027489038184285164
7.0,0.026631448417901993
8.0,0.025818809866905212
9.0,0.025052938610315323
10.0,0.02435513585805893
11.0,0.023694686591625214
12.0,0.023081457242369652
13.0,0.022498393431305885
14.0,0.02194237895309925
15.0,0.02142503298819065
16.0,0.020923063158988953
18.0,0.01995939016342163
20.0,0.01908954791724682
22.0,0.018209997564554214
24.0,0.017414819449186325
26.0,0.01674470119178295
28.0,0.016202988103032112
30.0,0.0157304834574461
32.0,0.01527575682848692
36.0,0.014446971006691456
40.0,0.013524659909307957
44.0,0.012499776668846607
48.0,0.011634211987257004
52.0,0.010834140703082085
56.0,0.010048320516943932
60.0,0.00939996913075447
64.0,0.009031141176819801
72.0,0.008027949370443821
80.0,0.007135910447686911
88.0,0.00631263991817832
96.0,0.005559037905186415
104.0,0.005234553944319487
112.0,0.0049791643396019936
120.0,0.00478887977078557
128.0,0.004688017535954714
144.0,0.005067830439656973
160.0,0.004382989834994078
176.0,0.003565635997802019
192.0,0.0030160106252878904
208.0,0.0027082967571914196
224.0,0.0029047911521047354
240.0,0.002239841967821121
256.0,0.0013294158270582557
288.0,0.000226819101953879
320.0,-0.0005953041254542768
352.0,0.0006508658407256007
384.0,0.001607619458809495
416.0,0.0017264648340642452
448.0,0.0016653883503749967
480.0,0.001059024827554822
512.0,0.0005515483790077269
576.0,0.002081202110275626
640.0,0.0037921268958598375
704.0,0.002476078923791647
768.0,0.002367889042943716
832.0,0.002566105918958783
896.0,0.0017760511254891753
960.0,0.0011431092862039804
1024.0,0.00213566399179399
1152.0,0.0016120541840791702
1280.0,0.0013277402613312006
1408.0,0.0026201477739959955
1536.0,0.0017738782335072756
1664.0,0.0013923615915700793
1792.0,0.0027791999746114016
1920.0,0.0028837157879024744
2048.0,0.0008801482617855072
2304.0,0.0009998740861192346
2560.0,0.0019485818920657039
2816.0,-3.873583045788109e-05
3072.0,0.0015337392687797546
3328.0,0.0010482824873179197
3584.0,0.000685014936607331
3840.0,0.00028123988886363804
4096.0,0.0008437333162873983
4608.0,-9.30877067730762e-05
5120.0,-0.00019613149925135076
5632.0,0.0003964153293054551
6144.0,-0.0006639882922172546
6656.0,-0.0015031618531793356
7168.0,-0.0009668862912803888
7680.0,0.00022493107826448977
8192.0,-0.002582755172625184
end
