version,3.0
numOfCh,1
type,point
parent_name,fe81d_0dot4-0dot01
ch_type,1_1
kcount,1
numberNandB,1
brightnessNandB,1
carpet pos,0
pc,0
Time (ms),CH1 Auto-Correlation
1.0,0.03812424838542938
2.0,0.03700351342558861
3.0,0.03595276176929474
4.0,0.03492698445916176
5.0,0.0339573435485363
6.0,0.03302701562643051
7.0,0.03215446323156357
8.0,0.03130686655640602
9.0,0.030510442331433296
10.0,0.02976377308368683
11.0,0.0290717501193285
12.0,0.028429796919226646
13.0,0.02782248891890049
14.0,0.027232693508267403
15.0,0.026627231389284134
16.0,0.026065006852149963
18.0,0.024985991418361664
20.0,0.02402985654771328
22.0,0.023134412243962288
24.0,0.02222326025366783
26.0,0.021450141444802284
28.0,0.020767701789736748
30.0,0.020127829164266586
32.0,0.01957951858639717
36.0,0.018720198422670364
40.0,0.01796834170818329
44.0,0.017279069870710373
48.0,0.01656303182244301
52.0,0.016013219952583313
56.0,0.015685733407735825
60.0,0.015375091694295406
64.0,0.015026230365037918
72.0,0.014163495041429996
80.0,0.013726936653256416
88.0,0.013078487478196621
96.0,0.012170424684882164
104.0,0.011500729247927666
112.0,0.01113985851407051
120.0,0.010989955626428127
128.0,0.010706175118684769
144.0,0.00994457583874464
160.0,0.009893032722175121
176.0,0.009465664625167847
192.0,0.0083725955337286
208.0,0.008283461444079876
224.0,0.008455559611320496
240.0,0.008872383274137974
256.0,0.008765165694057941
288.0,0.009153410792350769
320.0,0.00913071446120739
352.0,0.009769642725586891
384.0,0.010475385002791882
416.0,0.009899728931486607
448.0,0.008863493800163269
480.0,0.006571333389729261
512.0,0.006156827788800001
576.0,0.006691201124340296
640.0,0.008387688547372818
704.0,0.007877596653997898
768.0,0.0065397522412240505
832.0,0.0052912612445652485
896.0,0.0025782897137105465
960.0,0.0021482992451637983
1024.0,0.003968207631260157
1152.0,0.002799532376229763
1280.0,0.0006590998964384198
1408.0,0.0015839224215596914
1536.0,-0.0013248752802610397
1664.0,-0.0033146038185805082
1792.0,-0.0021539984736591578
1920.0,-0.002592517761513591
2048.0,-0.005473129916936159
2304.0,-0.007474321406334639
2560.0,-0.006955252494663
2816.0,-0.008013998158276081
3072.0,-0.0049284338019788265
3328.0,-0.00415792316198349
3584.0,-0.003763266373425722
3840.0,0.00032542480039410293
4096.0,-0.0001799268211470917
4608.0,0.0034035625867545605
5120.0,0.0035417620092630386
5632.0,0.0030747021082788706
6144.0,-0.000567374168895185
6656.0,-0.003178120357915759
7168.0,-0.0025193586479872465
7680.0,-0.0009630628046579659
8192.0,-0.0007703795563429594
end
