version,3.0
numOfCh,1
type,point
parent_name,fe81d_0dot4-0dot01
ch_type,1_1
kcount,1
numberNandB,1
brightnessNandB,1
carpet pos,0
pc,0
Time (ms),CH1 Auto-Correlation
1.0,0.03462968394160271
2.0,0.03343052417039871
3.0,0.03234799951314926
4.0,0.03133771941065788
5.0,0.030380122363567352
6.0,0.029451169073581696
7.0,0.028592264279723167
8.0,0.027738578617572784
9.0,0.02691560424864292
10.0,0.026123318821191788
11.0,0.025377660989761353
12.0,0.024677440524101257
13.0,0.02403247356414795
14.0,0.02342732436954975
15.0,0.02282888814806938
16.0,0.022290563210844994
18.0,0.02131688967347145
20.0,0.020484479144215584
22.0,0.019737787544727325
24.0,0.019057340919971466
26.0,0.018419021740555763
28.0,0.017849212512373924
30.0,0.017343318089842796
32.0,0.016952065750956535
36.0,0.016101209446787834
40.0,0.015307029709219933
44.0,0.014590214937925339
48.0,0.013765531592071056
52.0,0.013052086345851421
56.0,0.012416519224643707
60.0,0.011678376235067844
64.0,0.011027121916413307
72.0,0.009716089814901352
80.0,0.008655502460896969
88.0,0.008106227964162827
96.0,0.007522603031247854
104.0,0.0071651446633040905
112.0,0.006661844439804554
120.0,0.006502785254269838
128.0,0.006414067931473255
144.0,0.00626555597409606
160.0,0.005715272855013609
176.0,0.0048100296407938
192.0,0.0044720894657075405
208.0,0.00469607301056385
224.0,0.004512443207204342
240.0,0.004408217966556549
256.0,0.004921481944620609
288.0,0.005670894403010607
320.0,0.005121739115566015
352.0,0.004936675075441599
384.0,0.004777759779244661
416.0,0.004891680087894201
448.0,0.004720247816294432
480.0,0.005197596270591021
512.0,0.004233530256897211
576.0,0.002052848692983389
640.0,0.00197928911074996
704.0,0.0030058922711759806
768.0,0.0038452695589512587
832.0,0.0010538686765357852
896.0,-0.00027401975239627063
960.0,0.00016232053167186677
1024.0,0.0019725309684872627
1152.0,0.0011334905866533518
1280.0,0.0023522863630205393
1408.0,0.00046075761201791465
1536.0,0.0008020976092666388
1664.0,0.0014523440040647984
1792.0,0.0022023709025233984
1920.0,0.0005705206422135234
2048.0,0.0006301082321442664
2304.0,-0.00020218589634168893
2560.0,-0.000535132538061589
2816.0,-0.0013339410070329905
3072.0,0.0014073052443563938
3328.0,-0.0014967609895393252
3584.0,-0.0019827368669211864
3840.0,-0.002046002075076103
4096.0,-0.002239433815702796
4608.0,-0.004677297547459602
5120.0,-0.0034861427266150713
5632.0,-0.0030234858859330416
6144.0,-0.0019190278835594654
6656.0,0.000403492507757619
7168.0,-0.001674553146585822
7680.0,-0.001842622528783977
8192.0,-0.0009846104076132178
end
