version,3.0
numOfCh,1
type,point
parent_name,19e3e_3dot0-0dot1
ch_type,1_1
kcount,1
numberNandB,1
brightnessNandB,1
carpet pos,0
pc,0
Time (ms),CH1 Auto-Correlation
1.0,0.01804838888347149
2.0,0.015298937447369099
3.0,0.013239466585218906
4.0,0.011760800145566463
5.0,0.010668836534023285
6.0,0.009721220470964909
7.0,0.008875316940248013
8.0,0.008190260268747807
9.0,0.007558953482657671
10.0,0.007063503842800856
11.0,0.006614359095692635
12.0,0.006115678232163191
13.0,0.0057374113239347935
14.0,0.005460332613438368
15.0,0.005262900609523058
16.0,0.005022029858082533
18.0,0.004498159047216177
20.0,0.004125921055674553
22.0,0.003913958091288805
24.0,0.003813119838014245
26.0,0.0036981485318392515
28.0,0.00360657530836761
30.0,0.003565003862604499
32.0,0.003488535061478615
36.0,0.0030587490182369947
40.0,0.002584133530035615
44.0,0.0023344485089182854
48.0,0.0022897992748767138
52.0,0.00253023742698133
56.0,0.0023076084908097982
60.0,0.0023378832265734673
64.0,0.0021758205257356167
72.0,0.0025107525289058685
80.0,0.0030172530096024275
88.0,0.002265311311930418
96.0,0.0018779762322083116
104.0,0.0018483945168554783
112.0,0.0018418035469949245
120.0,0.0017681809840723872
128.0,0.0014062094269320369
144.0,0.0014096752274781466
160.0,0.001510168076492846
176.0,0.0013012525159865618
192.0,0.0014033751795068383
208.0,0.001156338257715106
224.0,0.0010744599858298898
240.0,0.0014041882241144776
256.0,0.0014215632108971477
288.0,0.0012866809265688062
320.0,0.0008772434666752815
352.0,0.0013288452755659819
384.0,0.0015662007499486208
416.0,0.0007432803395204246
448.0,0.0007508557755500078
480.0,0.0009780465625226498
512.0,0.0005744563532061875
576.0,0.001010204548947513
640.0,0.0015619518235325813
704.0,0.001848596497438848
768.0,0.0014041232643648982
832.0,0.0015256247716024518
896.0,0.001025343663059175
960.0,0.0008666731300763786
1024.0,0.0007075885660015047
1152.0,0.0005556642427109182
1280.0,0.000828402116894722
1408.0,0.00045694783329963684
1536.0,0.0008201965829357505
1664.0,0.0006093440460972488
1792.0,9.717547072796151e-05
1920.0,-0.0002217196160927415
2048.0,-0.0001758007419994101
2304.0,0.0003265273990109563
2560.0,-0.0004616436781361699
2816.0,-0.00023505960416514426
3072.0,-0.0001732442033244297
3328.0,-0.00031051511177793145
3584.0,-0.00018466298934072256
3840.0,-0.00013506483810488135
4096.0,0.00011172579979756847
4608.0,-0.00020077373483218253
5120.0,-0.00014132546493783593
5632.0,-0.0002670941757969558
6144.0,-0.00021179919713176787
6656.0,-0.00012165830412413925
7168.0,-0.000264718197286129
7680.0,-0.0007417206070385873
8192.0,-0.0011086221784353256
end
