version,3.0
numOfCh,1
type,point
parent_name,19e3e_3dot0-0dot1
ch_type,1_1
kcount,1
numberNandB,1
brightnessNandB,1
carpet pos,0
pc,0
Time (ms),CH1 Auto-Correlation
1.0,0.015724729746580124
2.0,0.012870699167251587
3.0,0.010771338827908039
4.0,0.00918970350176096
5.0,0.008036392740905285
6.0,0.0070950910449028015
7.0,0.006225947756320238
8.0,0.005468832794576883
9.0,0.0049345181323587894
10.0,0.004533344879746437
11.0,0.004196232184767723
12.0,0.003858796786516905
13.0,0.003615773981437087
14.0,0.003392147133126855
15.0,0.0032759471796453
16.0,0.003085996489971876
18.0,0.002618282800540328
20.0,0.0022247449960559607
22.0,0.0018677418120205402
24.0,0.0016137146158143878
26.0,0.0013848074013367295
28.0,0.0013102353550493717
30.0,0.001233061426319182
32.0,0.0009948250371962786
36.0,0.0007033006404526532
40.0,0.0005705488147214055
44.0,0.0006315596401691437
48.0,0.000630010268650949
52.0,0.000657364318612963
56.0,0.0006299696397036314
60.0,0.0008211280801333487
64.0,0.0009370829211547971
72.0,0.001311037689447403
80.0,0.0009561196202412248
88.0,0.0006511612446047366
96.0,0.0005614875699393451
104.0,0.00035434760502539575
112.0,0.0002753880980890244
120.0,-2.616109668451827e-05
128.0,0.0001840383920352906
144.0,0.00025584010290913284
160.0,-0.0001487907866248861
176.0,-0.0008862850372679532
192.0,-0.0006933031836524606
208.0,-0.0004147911968175322
224.0,-0.00019140423682983965
240.0,-9.917711577145383e-05
256.0,-0.00039263066719286144
288.0,0.00011686427023960277
320.0,0.0002180939045501873
352.0,0.0007161982357501984
384.0,4.6951743570389226e-05
416.0,-7.363750773947686e-05
448.0,0.00010746162297436967
480.0,-0.00028446264332160354
512.0,-7.957598427310586e-06
576.0,0.00011912926129298285
640.0,0.00012699459330178797
704.0,-0.0005246114451438189
768.0,-0.00037426743074320257
832.0,-0.00020631603547371924
896.0,4.826535950996913e-05
960.0,0.00031689275056123734
1024.0,-0.00019181263633072376
1152.0,-0.0002061566774500534
1280.0,-7.578702206956223e-05
1408.0,0.0001324582553934306
1536.0,-3.072822073590942e-05
1664.0,-0.00012400740524753928
1792.0,-0.00040401413571089506
1920.0,0.00034922733902931213
2048.0,0.00020948897872585803
2304.0,5.651512765325606e-05
2560.0,0.0003027401107829064
2816.0,0.00017564138397574425
3072.0,-0.00031244897400029004
3328.0,-0.0003877061535604298
3584.0,-0.00040374501259066164
3840.0,0.00022503863146994263
4096.0,0.0002017951337620616
4608.0,1.8679902495932765e-05
5120.0,4.3379586713854223e-05
5632.0,-0.0001588568848092109
6144.0,1.1022748367395252e-05
6656.0,0.00024617300368845463
7168.0,-0.00016957563639152795
7680.0,0.00014309183461591601
8192.0,-0.00021550923702307045
end
