version,3.0
numOfCh,1
type,point
parent_name,19e3e_3dot0-0dot1
ch_type,1_1
kcount,1
numberNandB,1
brightnessNandB,1
carpet pos,0
pc,0
Time (ms),CH1 Auto-Correlation
1.0,0.017186114564538002
2.0,0.01431884616613388
3.0,0.012293122708797455
4.0,0.01085963100194931
5.0,0.009718055836856365
6.0,0.008716742508113384
7.0,0.007904337719082832
8.0,0.007334530353546143
9.0,0.0067308987490832806
10.0,0.006195420864969492
11.0,0.005627064500004053
12.0,0.005176087841391563
13.0,0.004784093704074621
14.0,0.004473013803362846
15.0,0.0042348201386630535
16.0,0.003999680746346712
18.0,0.003624385455623269
20.0,0.003430488519370556
22.0,0.003314405446872115
24.0,0.0031389123760163784
26.0,0.0028259519021958113
28.0,0.0025182291865348816
30.0,0.002385201398283243
32.0,0.0022139691282063723
36.0,0.0016957969637587667
40.0,0.0017123935976997018
44.0,0.0016411412507295609
48.0,0.001388926524668932
52.0,0.0010362063767388463
56.0,0.0008395691984333098
60.0,0.0006222454248927534
64.0,0.0007320019067265093
72.0,0.0004175303038209677
80.0,0.0006918482831679285
88.0,0.0007271324866451323
96.0,0.000663967162836343
104.0,0.0008413008763454854
112.0,0.0008879254455678165
120.0,0.0007347367936745286
128.0,0.0006140657351352274
144.0,0.0005762759828940034
160.0,0.0008152941009029746
176.0,0.0006659321952611208
192.0,0.000636517652310431
208.0,0.0003757976519409567
224.0,0.0004629585309885442
240.0,6.593950820388272e-05
256.0,0.0001179505925392732
288.0,-6.563553324667737e-05
320.0,-0.00037500186590477824
352.0,-0.00048293531290255487
384.0,-3.018814095412381e-05
416.0,0.00061992829432711
448.0,0.0007506476249545813
480.0,0.0007090709405019879
512.0,0.0004287793126422912
576.0,0.0003581617202144116
640.0,0.0007366561330854893
704.0,0.00042551811202429235
768.0,0.0003677650820463896
832.0,0.0005490174517035484
896.0,-5.746676106355153e-05
960.0,-0.0003811319184023887
1024.0,-0.0005139007698744535
1152.0,-6.112135451985523e-05
1280.0,0.0001268252672161907
1408.0,2.466635669406969e-05
1536.0,-0.0004981873207725585
1664.0,-0.0004372186667751521
1792.0,-0.0004722506564576179
1920.0,-6.579441105714068e-05
2048.0,0.00016181373212020844
2304.0,-5.69990515941754e-05
2560.0,0.00020057379151694477
2816.0,2.3304333808482625e-05
3072.0,0.00017640893929637969
3328.0,9.445356408832595e-05
3584.0,-0.00012956267164554447
3840.0,0.000306762260152027
4096.0,-0.000586716691032052
4608.0,3.771372212213464e-05
5120.0,0.00037431696546263993
5632.0,0.0002683393540792167
6144.0,-0.0005555945681408048
6656.0,-0.001014197594486177
7168.0,-0.0002844288246706128
7680.0,-0.0002936866949312389
8192.0,5.7416920753894374e-05
end
