version,3.0
numOfCh,1
type,point
parent_name,19e3e_3dot0-0dot1
ch_type,1_1
kcount,1
numberNandB,1
brightnessNandB,1
carpet pos,0
pc,0
Time (ms),CH1 Auto-Correlation
1.0,0.016424590721726418
2.0,0.013701778836548328
3.0,0.011820864863693714
4.0,0.010320376604795456
5.0,0.009158557280898094
6.0,0.008143646642565727
7.0,0.007400172296911478
8.0,0.006790307350456715
9.0,0.006270630285143852
10.0,0.005836629308760166
11.0,0.005516299046576023
12.0,0.0051810466684401035
13.0,0.004954889882355928
14.0,0.004792850464582443
15.0,0.004567747004330158
16.0,0.004290171433240175
18.0,0.0036985918413847685
20.0,0.0032434279564768076
22.0,0.0026470962911844254
24.0,0.0022644419223070145
26.0,0.002068065805360675
28.0,0.0020417755004018545
30.0,0.002076201606541872
32.0,0.002013920107856393
36.0,0.0018116711871698499
40.0,0.0013944485690444708
44.0,0.0010918332263827324
48.0,0.0007656562956981361
52.0,0.000598603393882513
56.0,0.0006329396273940802
60.0,0.00041339872404932976
64.0,0.00044929786236025393
72.0,0.0003639928763732314
80.0,0.00020843114180024713
88.0,0.00020393017621245235
96.0,0.0003225211694370955
104.0,0.0007493648445233703
112.0,0.0008619629079475999
120.0,0.00062597292708233
128.0,0.0006119393510743976
144.0,0.0008486409788019955
160.0,0.0008568184566684067
176.0,0.0008786337566561997
192.0,0.0002531127829570323
208.0,-0.00018013056251220405
224.0,-0.0001745682384353131
240.0,-0.00010217331146122888
256.0,0.0002521260466892272
288.0,0.0005316311144270003
320.0,0.00014709912647958845
352.0,-0.00030816090293228626
384.0,0.00013519638741854578
416.0,5.969835910946131e-05
448.0,-0.000405151309678331
480.0,-0.00048227241495624185
512.0,-0.00025189711595885456
576.0,-0.0007787705981172621
640.0,-0.0007229887996800244
704.0,3.2072868634713814e-05
768.0,-0.0005456758080981672
832.0,0.0002181495219701901
896.0,0.00023501542455051094
960.0,0.00048796023475006223
1024.0,0.00012769331806339324
1152.0,-0.0003370917693246156
1280.0,-0.0001546486164443195
1408.0,-0.00038280809530988336
1536.0,-0.0006838957779109478
1664.0,0.0003265668055973947
1792.0,0.00041536096250638366
1920.0,0.000257438572589308
2048.0,9.242058149538934e-05
2304.0,-0.00020164340094197541
2560.0,0.0004959343932569027
2816.0,0.00023917228099890053
3072.0,-0.0005209324881434441
3328.0,-0.0006478626746684313
3584.0,-0.00020028646395076066
3840.0,-0.00012737332144752145
4096.0,-0.0003352280764374882
4608.0,6.103711348259822e-05
5120.0,5.5581611377419904e-05
5632.0,-0.00022457788872998208
6144.0,0.00012246400001458824
6656.0,0.00018191146955359727
7168.0,0.00017527745512779802
7680.0,-0.0002991009969264269
8192.0,-8.71647207532078e-05
end
