version,3.0
numOfCh,1
type,point
parent_name,19e3e_3dot0-0dot1
ch_type,1_1
kcount,1
numberNandB,1
brightnessNandB,1
carpet pos,0
pc,0
Time (ms),CH1 Auto-Correlation
1.0,0.01566615141928196
2.0,0.012871477752923965
3.0,0.01082768477499485
4.0,0.009300105273723602
5.0,0.008136707358062267
6.0,0.007174347061663866
7.0,0.006425526924431324
8.0,0.005819511599838734
9.0,0.005350084975361824
10.0,0.004896092228591442
11.0,0.004551911260932684
12.0,0.004171604290604591
13.0,0.003834590082988143
14.0,0.0035430591087788343
15.0,0.0033374466001987457
16.0,0.0030379854142665863
18.0,0.00245836959220469
20.0,0.0020674732513725758
22.0,0.0019772720988839865
24.0,0.0018531638197600842
26.0,0.0017192477826029062
28.0,0.0015703508397564292
30.0,0.0014161623548716307
32.0,0.0014621627051383257
36.0,0.001572863315232098
40.0,0.001481120241805911
44.0,0.0010474901646375656
48.0,0.0012512264074757695
52.0,0.0012130807153880596
56.0,0.0010849004611372948
60.0,0.0010115497279912233
64.0,0.0008252491243183613
72.0,0.0006171312415972352
80.0,0.0003520127502270043
88.0,0.0002917315869126469
96.0,0.00035785019281320274
104.0,0.0003984473296441138
112.0,0.00044713556417264044
120.0,-8.096691453829408e-05
128.0,-6.265303818508983e-05
144.0,0.0004580740933306515
160.0,0.0003370973572600633
176.0,0.00029260513838380575
192.0,0.0003559171746019274
208.0,0.00012357556261122227
224.0,2.2412674297811463e-05
240.0,0.00036885644658468664
256.0,0.0007294106762856245
288.0,0.0007235127268359065
320.0,0.00030434326617978513
352.0,0.0003120322653558105
384.0,0.00026212813099846244
416.0,0.00015231581346597522
448.0,0.00013535161269828677
480.0,3.2517200452275574e-05
512.0,-0.00037326180608943105
576.0,0.0003869585052598268
640.0,0.0002828752913046628
704.0,0.00035872971056960523
768.0,7.16347130946815e-05
832.0,-0.0001628915051696822
896.0,-0.00015122530749067664
960.0,2.5604469556128606e-05
1024.0,-0.00018125877249985933
1152.0,-9.213495650328696e-05
1280.0,-0.00021914561511948705
1408.0,-0.0002462266420479864
1536.0,-0.00028136337641626596
1664.0,-0.0006755674257874489
1792.0,-0.0008217659196816385
1920.0,-0.0001350248494418338
2048.0,0.00010579296940704808
2304.0,-0.00013196001236792654
2560.0,-0.0002119557757396251
2816.0,9.924188634613529e-05
3072.0,0.0002452907501719892
3328.0,0.00029385878588072956
3584.0,0.0001869011903181672
3840.0,-1.3330072761164047e-05
4096.0,-0.00028690521139651537
4608.0,-0.00035414559533819556
5120.0,-0.00038407373358495533
5632.0,0.0002574102836661041
6144.0,0.0005942050484009087
6656.0,0.0002661124453879893
7168.0,-0.00010521048534428701
7680.0,-0.00011425202683312818
8192.0,-0.00022224408166948706
end
