version,3.0
numOfCh,1
type,point
parent_name,19e3e_3dot0-0dot1
ch_type,1_1
kcount,1
numberNandB,1
brightnessNandB,1
carpet pos,0
pc,0
Time (ms),CH1 Auto-Correlation
1.0,0.015264918096363544
2.0,0.012316043488681316
3.0,0.010263695381581783
4.0,0.008947333320975304
5.0,0.007781338412314653
6.0,0.006815073546022177
7.0,0.006116739008575678
8.0,0.005459499079734087
9.0,0.004906597547233105
10.0,0.004416423384100199
11.0,0.004001762252300978
12.0,0.0037140080239623785
13.0,0.0035019272472709417
14.0,0.003387488890439272
15.0,0.003242233768105507
16.0,0.0030605304054915905
18.0,0.0025746021419763565
20.0,0.0023465880658477545
22.0,0.002002148190513253
24.0,0.001838580472394824
26.0,0.0016963350353762507
28.0,0.001539787044748664
30.0,0.001425624592229724
32.0,0.0012015041429549456
36.0,0.001057012821547687
40.0,0.0009773718193173409
44.0,0.0008341370848938823
48.0,0.0009223896195180714
52.0,0.0010509113781154156
56.0,0.0008528081234544516
60.0,0.0006200997740961611
64.0,0.0003703077672980726
72.0,1.431730083822913e-06
80.0,-0.00018229702254757285
88.0,-7.533723692176864e-05
96.0,0.0005194605328142643
104.0,0.0005080721457488835
112.0,0.0003750044561456889
120.0,0.00037858044379390776
128.0,2.6514355340623297e-05
144.0,0.00017011628369800746
160.0,0.0007165278075262904
176.0,0.00035569429746828973
192.0,8.59086649143137e-05
208.0,-5.394810432335362e-05
224.0,-0.00030195401632227004
240.0,-0.0004137468058615923
256.0,-0.00045041044359095395
288.0,-0.0004915202152915299
320.0,7.466701208613813e-05
352.0,0.0001819883764255792
384.0,-9.372334170620888e-05
416.0,-0.0005308262188918889
448.0,-0.00020964437862858176
480.0,0.00047443818766623735
512.0,0.0005240692989900708
576.0,0.00035718356957659125
640.0,0.0004103389219380915
704.0,0.00028328780899755657
768.0,0.00041831485577858984
832.0,0.00023324387439060956
896.0,-0.0003941621689591557
960.0,-0.0001325628109043464
1024.0,0.00048219654127024114
1152.0,-2.220345959358383e-05
1280.0,0.00018175269360654056
1408.0,5.016284831071971e-06
1536.0,3.441762601141818e-05
1664.0,-0.0001195236254716292
1792.0,-0.0003329034079797566
1920.0,-0.00010211468179477379
2048.0,3.080501846852712e-05
2304.0,-0.00022404149058274925
2560.0,-0.000176242072484456
2816.0,-0.00015264071407727897
3072.0,-0.00022830381931271404
3328.0,-0.00010013709834311157
3584.0,-0.00015773957420606166
3840.0,-0.00024935201508924365
4096.0,0.00010111677693203092
4608.0,-1.989747215702664e-05
5120.0,0.0001856891467468813
5632.0,0.00013460578338708729
6144.0,5.110709753353149e-05
6656.0,-7.383276533801109e-05
7168.0,-0.00043686889694072306
7680.0,-0.00016443696222268045
8192.0,-0.0007276558899320662
end
