version,3.0
numOfCh,1
type,point
parent_name,19e3e_3dot0-0dot1
ch_type,1_1
kcount,1
numberNandB,1
brightnessNandB,1
carpet pos,0
pc,0
Time (ms),CH1 Auto-Correlation
1.0,0.04643348231911659
2.0,0.04289638623595238
3.0,0.040376994758844376
4.0,0.03823912888765335
5.0,0.03648242726922035
6.0,0.035007402300834656
7.0,0.03385092318058014
8.0,0.03287627920508385
9.0,0.03207090124487877
10.0,0.03125300258398056
11.0,0.030614841729402542
12.0,0.0300864577293396
13.0,0.029632894322276115
14.0,0.029127635061740875
15.0,0.02870851755142212
16.0,0.028472118079662323
18.0,0.027840211987495422
20.0,0.027147145941853523
22.0,0.026329442858695984
24.0,0.02559814415872097
26.0,0.024996045976877213
28.0,0.02471083402633667
30.0,0.024180233478546143
32.0,0.023524055257439613
36.0,0.0227512139827013
40.0,0.02180955559015274
44.0,0.020703701302409172
48.0,0.019526474177837372
52.0,0.01887340471148491
56.0,0.017878426238894463
60.0,0.01702796295285225
64.0,0.016949931159615517
72.0,0.01715787872672081
80.0,0.016583267599344254
88.0,0.015467409044504166
96.0,0.015242764726281166
104.0,0.014891332015395164
112.0,0.014423039741814137
120.0,0.013557442463934422
128.0,0.012166032567620277
144.0,0.010111724026501179
160.0,0.009196056053042412
176.0,0.009218442253768444
192.0,0.009014759212732315
208.0,0.007658997550606728
224.0,0.005864714737981558
240.0,0.0046695526689291
256.0,0.004549831617623568
288.0,0.004657835699617863
320.0,0.005641297437250614
352.0,0.004655722063034773
384.0,0.0037748587783426046
416.0,0.004087192937731743
448.0,0.004154143389314413
480.0,0.004170206841081381
512.0,0.0035656942054629326
576.0,0.005713107995688915
640.0,0.005769454874098301
704.0,0.004877657163888216
768.0,0.004593373741954565
832.0,0.0034056068398058414
896.0,0.002011249540373683
960.0,0.0008799716597422957
1024.0,0.0002897729864344001
1152.0,0.0006833611987531185
1280.0,0.0012012801598757505
1408.0,-0.0009623956284485757
1536.0,-0.0011297534219920635
1664.0,-8.851835445966572e-06
1792.0,-0.00018389667093288153
1920.0,-0.0013314686948433518
2048.0,-0.0008182497695088387
2304.0,-0.00040507822996005416
2560.0,-0.0022983653470873833
2816.0,-0.0015876581892371178
3072.0,-0.0028248389717191458
3328.0,-0.0034902910701930523
3584.0,-0.002977162366732955
3840.0,-0.0034132616128772497
4096.0,-0.003410606412217021
4608.0,-0.0049127088859677315
5120.0,-0.004266849718987942
5632.0,-0.0014280882896855474
6144.0,0.005606772843748331
6656.0,0.0018002857686951756
7168.0,-0.002717368071898818
7680.0,-0.00365428370423615
8192.0,-0.004999883007258177
end
