version,3.0
numOfCh,1
type,point
parent_name,19e3e_3dot0-0dot1
ch_type,1_1
kcount,1
numberNandB,1
brightnessNandB,1
carpet pos,0
pc,0
Time (ms),CH1 Auto-Correlation
1.0,0.01559409685432911
2.0,0.012791497632861137
3.0,0.010701372288167477
4.0,0.009170946665108204
5.0,0.008060259744524956
6.0,0.00710512138903141
7.0,0.006418772507458925
8.0,0.005894842091947794
9.0,0.005389892961829901
10.0,0.005113751161843538
11.0,0.004780411254614592
12.0,0.004526861943304539
13.0,0.00438619963824749
14.0,0.004153941757977009
15.0,0.0038411198183894157
16.0,0.0036258890759199858
18.0,0.0032607046887278557
20.0,0.0029276576824486256
22.0,0.002496616914868355
24.0,0.0022183447144925594
26.0,0.0018877420807257295
28.0,0.001538338721729815
30.0,0.0014005162520334125
32.0,0.0013509485870599747
36.0,0.0012607828248292208
40.0,0.001035317312926054
44.0,0.0008901932160370052
48.0,0.000706150196492672
52.0,0.0007692471262998879
56.0,0.0005012594047002494
60.0,0.00013220631808508188
64.0,1.601178155397065e-05
72.0,0.0001273631933145225
80.0,-3.599972478696145e-05
88.0,4.130601155338809e-06
96.0,1.2552039152069483e-05
104.0,0.0003243355022277683
112.0,0.00020182228763587773
120.0,0.00023448842694051564
128.0,0.0004535177431534976
144.0,-0.00012320300447754562
160.0,-0.0003396925167180598
176.0,0.00042052759090438485
192.0,0.0004534341278485954
208.0,0.000537106825504452
224.0,0.00045575719559565187
240.0,0.000594395212829113
256.0,0.0006285097333602607
288.0,0.0005008020089007914
320.0,0.00045241325278766453
352.0,-4.76370842079632e-05
384.0,0.00011290800466667861
416.0,0.0006309529417194426
448.0,0.0001793332485249266
480.0,0.00039907850441522896
512.0,0.0003478636499494314
576.0,-0.00017878370999824256
640.0,0.00035436658072285354
704.0,9.395550296176225e-05
768.0,0.00038732224493287504
832.0,0.00017813868180382997
896.0,-0.0001992463949136436
960.0,-0.0005093966610729694
1024.0,0.00014497280062641948
1152.0,-0.00017167186888400465
1280.0,-0.0002833286998793483
1408.0,-0.00031602734816260636
1536.0,0.00013894823496229947
1664.0,-2.4122506147250533e-05
1792.0,7.435836778313387e-06
1920.0,0.00012930179946124554
2048.0,0.00038851844146847725
2304.0,0.0003863938618451357
2560.0,0.00042761917575262487
2816.0,-1.5481213040402508e-06
3072.0,0.00010646268492564559
3328.0,-0.00014407085836865008
3584.0,-0.0002657877339515835
3840.0,-0.0003566548984963447
4096.0,2.0064107957296073e-05
4608.0,0.0001616222143638879
5120.0,2.000816493819002e-05
5632.0,-0.0002955379313789308
6144.0,-0.0006412640796042979
6656.0,-0.00015270801668521017
7168.0,0.00012586357479449362
7680.0,0.0001459609338780865
8192.0,-0.0006009143544360995
end
