version,3.0
numOfCh,1
type,point
parent_name,19e3e_3dot0-0dot1
ch_type,1_1
kcount,1
numberNandB,1
brightnessNandB,1
carpet pos,0
pc,0
Time (ms),CH1 Auto-Correlation
1.0,0.01952853798866272
2.0,0.016491111367940903
3.0,0.014295799657702446
4.0,0.012751002795994282
5.0,0.011576036922633648
6.0,0.01059103012084961
7.0,0.00972051452845335
8.0,0.00903867557644844
9.0,0.008476841263473034
10.0,0.00795595534145832
11.0,0.0075904750265181065
12.0,0.007159851957112551
13.0,0.006726592313498259
14.0,0.0063768597319722176
15.0,0.006071662064641714
16.0,0.005743929650634527
18.0,0.005331891588866711
20.0,0.005040387157350779
22.0,0.004873172380030155
24.0,0.004755093716084957
26.0,0.004532192833721638
28.0,0.004264213144779205
30.0,0.004047199618071318
32.0,0.0038782914634793997
36.0,0.00369511591270566
40.0,0.0032215595711022615
44.0,0.0030707556288689375
48.0,0.0028561782091856003
52.0,0.002339978003874421
56.0,0.001993627520278096
60.0,0.001891240943223238
64.0,0.0018250505672767758
72.0,0.0016558121424168348
80.0,0.0016965038375928998
88.0,0.0012069841613993049
96.0,0.0013223630376160145
104.0,0.0015054901596158743
112.0,0.0014364299131557345
120.0,0.0013106581754982471
128.0,0.0007920386269688606
144.0,0.0005927105084992945
160.0,0.0009608773398213089
176.0,0.0013734938111156225
192.0,0.0017269352683797479
208.0,0.00142288685310632
224.0,0.0012901563895866275
240.0,0.0011590964859351516
256.0,0.0010793113615363836
288.0,0.001439293147996068
320.0,0.0014179273275658488
352.0,0.0010085782269015908
384.0,0.0002637722063809633
416.0,0.0005604150355793536
448.0,0.0011738683097064495
480.0,0.0013685100711882114
512.0,0.0012746296124532819
576.0,0.00018670602003112435
640.0,0.00034652548492886126
704.0,0.0010167107684537768
768.0,2.6273701223544776e-05
832.0,5.105814489070326e-05
896.0,6.0152025980642065e-05
960.0,-0.0005680039175786078
1024.0,-0.0005525903543457389
1152.0,-0.0005398088833317161
1280.0,-0.001306203892454505
1408.0,-0.0011489008320495486
1536.0,-0.0009547407389618456
1664.0,-0.0008620931766927242
1792.0,-0.0007583939586766064
1920.0,-0.0009360667900182307
2048.0,-0.0009411888895556331
2304.0,-0.0001076564149116166
2560.0,0.0006010937504470348
2816.0,0.0006027178606018424
3072.0,0.0005187543574720621
3328.0,-0.0003085165226366371
3584.0,-0.00045966505422256887
3840.0,0.00014577042020391673
4096.0,0.00032999474206008017
4608.0,-0.000156116031575948
5120.0,-0.00046569877304136753
5632.0,-0.0016354075632989407
6144.0,-0.0012661971850320697
6656.0,0.0010341380257159472
7168.0,0.0014438085490837693
7680.0,0.0019737735856324434
8192.0,5.464712012326345e-05
end
