version,3.0
numOfCh,1
type,point
parent_name,19e3e_3dot0-0dot1
ch_type,1_1
kcount,1
numberNandB,1
brightnessNandB,1
carpet pos,0
pc,0
Time (ms),CH1 Auto-Correlation
1.0,0.01680583879351616
2.0,0.014046771451830864
3.0,0.01214004959911108
4.0,0.01073245145380497
5.0,0.009497086517512798
6.0,0.008592131547629833
7.0,0.00785798765718937
8.0,0.00723138777539134
9.0,0.006788637023419142
10.0,0.006347157526761293
11.0,0.00583525188267231
12.0,0.005480552092194557
13.0,0.005251296795904636
14.0,0.005077686160802841
15.0,0.005014812108129263
16.0,0.00488481018692255
18.0,0.0045769126154482365
20.0,0.0042098830454051495
22.0,0.003954206593334675
24.0,0.003710004733875394
26.0,0.003514534793794155
28.0,0.0033907985780388117
30.0,0.0030571098905056715
32.0,0.0027742937672883272
36.0,0.0025103851221501827
40.0,0.0023836707696318626
44.0,0.0020213110838085413
48.0,0.0017735726432874799
52.0,0.001570722903124988
56.0,0.0014799265190958977
60.0,0.0012454354437068105
64.0,0.0010695597156882286
72.0,0.0005378756322897971
80.0,0.00016697004321031272
88.0,-0.0002195402921643108
96.0,-8.658275328343734e-05
104.0,-0.00034187157871201634
112.0,-0.0003263122052885592
120.0,-0.00045049292384646833
128.0,-0.000440460309619084
144.0,-0.0004957890487276018
160.0,-0.00039402308175340295
176.0,-1.2533368135336787e-05
192.0,9.09415030037053e-06
208.0,-0.000458624359453097
224.0,-0.0010175749193876982
240.0,-0.0009422979201190174
256.0,-0.00037773020449094474
288.0,-0.00019884758512489498
320.0,-0.00014743002247996628
352.0,-0.00019901059567928314
384.0,-0.0003114798164460808
416.0,-0.0003047614300157875
448.0,0.0002899419632740319
480.0,0.000232407110161148
512.0,-0.0005116466782055795
576.0,-0.0003376291715539992
640.0,0.00030493532540276647
704.0,0.0008223445620387793
768.0,0.0007648562313988805
832.0,0.00035573513014242053
896.0,-0.0005057108355686069
960.0,-0.00043669180013239384
1024.0,-0.0003798103134613484
1152.0,-0.0004012711870018393
1280.0,-0.0006747841835021973
1408.0,-9.111849794862792e-05
1536.0,-0.00013435460277833045
1664.0,-0.00016062597569543868
1792.0,3.213883610442281e-05
1920.0,-0.0002658842131495476
2048.0,-6.698862125631422e-05
2304.0,0.00025751686189323664
2560.0,0.000539253989700228
2816.0,0.00010782939352793619
3072.0,0.00016368449723813683
3328.0,3.877392737194896e-05
3584.0,-0.0002713193534873426
3840.0,-0.000166786732734181
4096.0,1.4906372598488815e-05
4608.0,-6.411143840523437e-05
5120.0,-0.00020201160805299878
5632.0,0.00023858665372245014
6144.0,0.00012891207006759942
6656.0,7.764150359435007e-05
7168.0,-0.0002477658854331821
7680.0,-0.00019288038311060518
8192.0,0.00020792504074051976
end
