version,3.0
numOfCh,1
type,point
parent_name,19e3e_3dot0-0dot1
ch_type,1_1
kcount,1
numberNandB,1
brightnessNandB,1
carpet pos,0
pc,0
Time (ms),CH1 Auto-Correlation
1.0,0.017069874331355095
2.0,0.014228944666683674
3.0,0.012174947187304497
4.0,0.01067551039159298
5.0,0.009539353661239147
6.0,0.008618880994617939
7.0,0.007843093946576118
8.0,0.007174738682806492
9.0,0.006592693738639355
10.0,0.006118218880146742
11.0,0.00576357776299119
12.0,0.005402750801295042
13.0,0.005014094989746809
14.0,0.004691853653639555
15.0,0.0042998529970645905
16.0,0.004045741632580757
18.0,0.003685494652017951
20.0,0.003361983923241496
22.0,0.003047840902581811
24.0,0.0030428385362029076
26.0,0.003068295307457447
28.0,0.0029214215464890003
30.0,0.0027897641994059086
32.0,0.002666773274540901
36.0,0.0023044494446367025
40.0,0.0020858587231487036
44.0,0.0019867748487740755
48.0,0.0017883387627080083
52.0,0.0015584620414301753
56.0,0.0013384250923991203
60.0,0.0013726437464356422
64.0,0.001429953845217824
72.0,0.0007557698409073055
80.0,0.00042605542694218457
88.0,0.00037639052607119083
96.0,0.0005778163904324174
104.0,0.0005544627201743424
112.0,0.0006605717353522778
120.0,0.0006232179002836347
128.0,0.0005083301803097129
144.0,9.022027370519936e-05
160.0,-0.0008471776964142919
176.0,-0.0005067349993623793
192.0,-0.00039139462751336396
208.0,-0.0002465718425810337
224.0,-0.0007843719213269651
240.0,-0.00030291028087958694
256.0,-0.0003219398786313832
288.0,-0.00025660026585683227
320.0,0.00035552805638872087
352.0,0.0006536472938023508
384.0,7.735943654552102e-05
416.0,3.118895983789116e-05
448.0,0.0007291864603757858
480.0,2.2441947294282727e-05
512.0,-0.0003449106588959694
576.0,0.00040632623131386936
640.0,0.00036467978497967124
704.0,0.00040429565706290305
768.0,0.00019719630654435605
832.0,8.323168731294572e-05
896.0,-0.00017751852283254266
960.0,-8.462376717943698e-05
1024.0,-3.29754147969652e-05
1152.0,-1.5237840671034064e-05
1280.0,7.548087160103023e-05
1408.0,0.0007274654926732183
1536.0,0.00011407800775486976
1664.0,-0.0004139529773965478
1792.0,-0.0005917957751080394
1920.0,-0.0007785380585119128
2048.0,8.348681149072945e-05
2304.0,-0.0007046363316476345
2560.0,-0.00012287605204619467
2816.0,-5.9022390814789105e-06
3072.0,-0.00023842262453399599
3328.0,-0.00013397223665378988
3584.0,-0.00012718177458737046
3840.0,0.00039797055069357157
4096.0,0.0003862541343551129
4608.0,0.00024537649005651474
5120.0,8.299347973661497e-05
5632.0,-0.00027517403941601515
6144.0,-0.0005642398609779775
6656.0,-0.00031353585654869676
7168.0,-0.0007315656403079629
7680.0,0.0001396071311319247
8192.0,0.0005554615636356175
end
