version,3.0
numOfCh,1
type,point
parent_name,19e3e_3dot0-0dot1
ch_type,1_1
kcount,1
numberNandB,1
brightnessNandB,1
carpet pos,0
pc,0
Time (ms),CH1 Auto-Correlation
1.0,0.01720876805484295
2.0,0.014427866786718369
3.0,0.012379745952785015
4.0,0.010874344035983086
5.0,0.009656652808189392
6.0,0.008622742258012295
7.0,0.007753178011626005
8.0,0.007008383050560951
9.0,0.006417945027351379
10.0,0.005945774260908365
11.0,0.005479799117892981
12.0,0.005139726214110851
13.0,0.00475581968203187
14.0,0.004551814869046211
15.0,0.004315010737627745
16.0,0.004101332277059555
18.0,0.0036519260611385107
20.0,0.0032317705918103456
22.0,0.0029177539981901646
24.0,0.0027648569084703922
26.0,0.002551057143136859
28.0,0.00227943598292768
30.0,0.002151473192498088
32.0,0.0020034804474562407
36.0,0.001667851465754211
40.0,0.0014010490849614143
44.0,0.0013933617155998945
48.0,0.001320102484896779
52.0,0.0011947349412366748
56.0,0.0011197791900485754
60.0,0.0010982672683894634
64.0,0.0011160684516653419
72.0,0.0009042567107826471
80.0,0.0004180514079052955
88.0,0.0002332438889425248
96.0,0.0006021243170835078
104.0,0.0010988883441314101
112.0,0.0008872980833984911
120.0,0.0008123936131596565
128.0,0.0009592289570719004
144.0,0.000138366362079978
160.0,-8.873520710039884e-05
176.0,0.0001349194353679195
192.0,-1.0390525858383626e-05
208.0,-0.00021443561126943678
224.0,-0.00042080687126144767
240.0,0.00012933393009006977
256.0,0.00020863280224148184
288.0,0.0006809297483414412
320.0,0.0008046003058552742
352.0,0.0003640384820755571
384.0,0.0006555923027917743
416.0,0.0003198290942236781
448.0,0.0001686181203695014
480.0,-0.0007571712485514581
512.0,-0.0007331937667913735
576.0,-0.0005201097228564322
640.0,-0.000604163680691272
704.0,-3.8655132811982185e-05
768.0,0.0006818086258135736
832.0,-0.0004774131812155247
896.0,0.0006089249509386718
960.0,-1.62581454787869e-05
1024.0,9.802678687265143e-05
1152.0,0.00018596237350720912
1280.0,-0.00021212169667705894
1408.0,-0.00020101013069506735
1536.0,-0.0002789859427139163
1664.0,0.00013110178406350315
1792.0,0.00010318984277546406
1920.0,-0.0002979651326313615
2048.0,0.0003996222512796521
2304.0,-0.0003481587627902627
2560.0,-0.00032515800558030605
2816.0,0.0004595506761688739
3072.0,0.0005218666628934443
3328.0,0.0002615742268972099
3584.0,-0.00043010053923353553
3840.0,0.00020772669813595712
4096.0,-6.944456981727853e-05
4608.0,-0.00016792066162452102
5120.0,-0.00045520183630287647
5632.0,1.2442167644621804e-05
6144.0,-0.00018204533262178302
6656.0,-0.000271051365416497
7168.0,0.0004896853934042156
7680.0,-0.00016117352060973644
8192.0,-0.000710305233951658
end
