version,3.0
numOfCh,1
type,point
parent_name,19e3e_3dot0-0dot1
ch_type,1_1
kcount,1
numberNandB,1
brightnessNandB,1
carpet pos,0
pc,0
Time (ms),CH1 Auto-Correlation
1.0,0.018013358116149902
2.0,0.015137585811316967
3.0,0.013082965277135372
4.0,0.011569020338356495
5.0,0.010329385288059711
6.0,0.009344235993921757
7.0,0.008554207161068916
8.0,0.007871958427131176
9.0,0.007307634223252535
10.0,0.006844699382781982
11.0,0.006410529837012291
12.0,0.005981878377497196
13.0,0.005642326548695564
14.0,0.0053911651484668255
15.0,0.0050447555258870125
16.0,0.004795281682163477
18.0,0.0043939449824392796
20.0,0.003963167313486338
22.0,0.0036412866320461035
24.0,0.0032310255337506533
26.0,0.0029387252870947123
28.0,0.0026003692764788866
30.0,0.0026095907669514418
32.0,0.002529459074139595
36.0,0.002287150826305151
40.0,0.002397721167653799
44.0,0.002397269941866398
48.0,0.0022188746370375156
52.0,0.0021493027452379465
56.0,0.002142327604815364
60.0,0.002088679699227214
64.0,0.0020607735496014357
72.0,0.0018592264968901873
80.0,0.0020025393459945917
88.0,0.0018598694587126374
96.0,0.0017435557674616575
104.0,0.0014551617205142975
112.0,0.0008572562364861369
120.0,0.00037047892692498863
128.0,0.0001701179426163435
144.0,0.0007805898785591125
160.0,0.000679996854159981
176.0,0.0008656828431412578
192.0,0.0004596415674313903
208.0,-3.516332435538061e-05
224.0,0.00016058718028943986
240.0,0.0005653731641359627
256.0,0.0003915669512934983
288.0,0.0002930963528342545
320.0,-0.00015686363622080535
352.0,0.00011787941912189126
384.0,-0.0002101881109410897
416.0,-2.7974667318630964e-05
448.0,-5.952071660431102e-05
480.0,0.00015098717994987965
512.0,-1.8974398699356243e-05
576.0,-0.00036725387326441705
640.0,-0.0007777179125696421
704.0,-0.0005558085395023227
768.0,-0.00017650650988798589
832.0,-0.00048071093624457717
896.0,-8.175275434041396e-05
960.0,0.00035974764614365995
1024.0,0.0008602991001680493
1152.0,0.0006879923748783767
1280.0,0.0005593177629634738
1408.0,0.0002578684070613235
1536.0,0.0009311047033406794
1664.0,0.0004360958992037922
1792.0,0.00044689667993225157
1920.0,0.00011729721882147714
2048.0,0.0002997879055328667
2304.0,-0.0005241113831289113
2560.0,-0.00028294188086874783
2816.0,0.00026896214694716036
3072.0,0.0003806906461250037
3328.0,0.0001201541381306015
3584.0,-0.0008494104840792716
3840.0,-0.0005123225855641067
4096.0,-0.0006820486742071807
4608.0,6.366994057316333e-05
5120.0,-0.0004819358291570097
5632.0,-0.0007688474142923951
6144.0,0.00013507359835784882
6656.0,-0.00036653719143942
7168.0,-0.00020926860452163965
7680.0,0.00012500550656113774
8192.0,-7.05865168129094e-05
end
