version,3.0
numOfCh,1
type,point
parent_name,19e3e_3dot0-0dot1
ch_type,1_1
kcount,1
numberNandB,1
brightnessNandB,1
carpet pos,0
pc,0
Time (ms),CH1 Auto-Correlation
1.0,0.01753474771976471
2.0,0.014645499177277088
3.0,0.012653831392526627
4.0,0.011228317394852638
5.0,0.010111522860825062
6.0,0.009217672049999237
7.0,0.008521655574440956
8.0,0.00795348547399044
9.0,0.007445508148521185
10.0,0.006994239054620266
11.0,0.006603197194635868
12.0,0.006210149731487036
13.0,0.005930147133767605
14.0,0.005564380902796984
15.0,0.005320039112120867
16.0,0.005156388506293297
18.0,0.0050018723122775555
20.0,0.004692175425589085
22.0,0.004429286811500788
24.0,0.004274395760148764
26.0,0.004081417340785265
28.0,0.0038997246883809566
30.0,0.003829276654869318
32.0,0.003586753038689494
36.0,0.0032783164642751217
40.0,0.003155590733513236
44.0,0.0024306955747306347
48.0,0.0022420906461775303
52.0,0.002205143216997385
56.0,0.002256683073937893
60.0,0.0021724121179431677
64.0,0.0020598480477929115
72.0,0.0016706309979781508
80.0,0.0018819780088961124
88.0,0.002369303023442626
96.0,0.0021127858199179173
104.0,0.0019948070403188467
112.0,0.0016895225271582603
120.0,0.0012442722218111157
128.0,0.0012091018725186586
144.0,0.0007771170348860323
160.0,0.0005325937527231872
176.0,0.0007241246057674289
192.0,0.0010111976880580187
208.0,0.001066223718225956
224.0,0.0009524534689262509
240.0,0.0007561476668342948
256.0,0.0008252190891653299
288.0,0.00011867442663060501
320.0,-0.0002879024250432849
352.0,-0.0008075199439190328
384.0,-0.0011501297121867537
416.0,-0.0009332684567198157
448.0,-0.00038938497891649604
480.0,-4.6492965338984504e-05
512.0,0.00033233329304493964
576.0,5.697311644325964e-05
640.0,-0.00022269765031524003
704.0,-0.0006601550267077982
768.0,-0.0007568127475678921
832.0,-0.0008664084016345441
896.0,-0.0010763650061562657
960.0,-0.000822883564978838
1024.0,-0.0004870179982390255
1152.0,0.00010244292934658006
1280.0,0.0004919772036373615
1408.0,0.000412296736612916
1536.0,0.0008800662471912801
1664.0,0.00041304927435703576
1792.0,0.00016841523756738752
1920.0,-0.0005166638875380158
2048.0,-0.0004925709799863398
2304.0,-0.001088047050870955
2560.0,-0.0003849163476843387
2816.0,0.0007783762412145734
3072.0,0.0005226988578215241
3328.0,0.0006953951669856906
3584.0,-0.001025123056024313
3840.0,-0.00040245757554657757
4096.0,-0.0005247480003163218
4608.0,0.0005706014344468713
5120.0,-0.00039136450504884124
5632.0,-0.00026059531955979764
6144.0,0.00029934541089460254
6656.0,-0.0003476532583590597
7168.0,-0.00026525300927460194
7680.0,0.000840999826323241
8192.0,9.379097900819033e-05
end
