version,3.0
numOfCh,1
type,point
parent_name,19e3e_3dot0-0dot1
ch_type,1_1
kcount,1
numberNandB,1
brightnessNandB,1
carpet pos,0
pc,0
Time (ms),CH1 Auto-Correlation
1.0,0.015931496396660805
2.0,0.013116244226694107
3.0,0.01097850315272808
4.0,0.009432547725737095
5.0,0.008229919709265232
6.0,0.007295872550457716
7.0,0.0065339370630681515
8.0,0.005855450872331858
9.0,0.005407064687460661
10.0,0.005039955023676157
11.0,0.0046551949344575405
12.0,0.004301172681152821
13.0,0.003964818082749844
14.0,0.003698132699355483
15.0,0.0035101876128464937
16.0,0.0032703005708754063
18.0,0.00292395637370646
20.0,0.0026680107694119215
22.0,0.002321190433576703
24.0,0.002128539141267538
26.0,0.002041814150288701
28.0,0.0020360955968499184
30.0,0.0018446987960487604
32.0,0.0017809686250984669
36.0,0.0017120077973231673
40.0,0.0015005464665591717
44.0,0.0011173698585480452
48.0,0.0007914997986517847
52.0,0.0008424214320257306
56.0,0.001047872588969767
60.0,0.0011887316359207034
64.0,0.0010608910815790296
72.0,0.0008055524667724967
80.0,0.0006439047283492982
88.0,0.0007916302420198917
96.0,0.0006199974450282753
104.0,0.0003072648833040148
112.0,4.366803841548972e-05
120.0,0.00046923410263843834
128.0,0.0004515941836871207
144.0,0.00019704410806298256
160.0,8.834085747366771e-05
176.0,-0.00012148296809755266
192.0,3.151458440697752e-05
208.0,-3.3756154152797535e-05
224.0,-8.141888974932954e-05
240.0,-6.022652087267488e-05
256.0,-0.00011238123988732696
288.0,-0.000297618709737435
320.0,-0.0003701027890201658
352.0,-0.0004121800302527845
384.0,-0.00032426341203972697
416.0,-0.00012290071754250675
448.0,-4.49393737653736e-05
480.0,0.0005971633363515139
512.0,0.0006481137243099511
576.0,-0.00014229062071535736
640.0,-0.0003812626237049699
704.0,-0.0007338408031500876
768.0,-0.0005042149568907917
832.0,-0.00021943087631370872
896.0,0.00021330706658773124
960.0,-0.0003365162410773337
1024.0,-9.679896174930036e-05
1152.0,-0.0003089111123699695
1280.0,-0.00038072632742114365
1408.0,6.096525976317935e-05
1536.0,0.00020429451251402497
1664.0,-0.00016294684610329568
1792.0,2.738083276199177e-05
1920.0,-0.00016557604249101132
2048.0,-9.940185555024073e-05
2304.0,0.0005821242812089622
2560.0,-0.0001968997239600867
2816.0,4.0621562220621854e-05
3072.0,-0.00016688879986759275
3328.0,-0.00031114398734644055
3584.0,0.00022132802405394614
3840.0,0.00043626048136502504
4096.0,1.863418765424285e-05
4608.0,1.4026903954800218e-05
5120.0,1.6769045032560825e-05
5632.0,6.8622175604105e-05
6144.0,0.00013634336937684566
6656.0,-0.00020289362873882055
7168.0,-0.0002959519624710083
7680.0,0.00024817377561703324
8192.0,2.67080613411963e-05
end
