version,3.0
numOfCh,1
type,point
parent_name,19e3e_3dot0-0dot1
ch_type,1_1
kcount,1
numberNandB,1
brightnessNandB,1
carpet pos,0
pc,0
Time (ms),CH1 Auto-Correlation
1.0,0.016646722331643105
2.0,0.013758012093603611
3.0,0.011653102934360504
4.0,0.01015000231564045
5.0,0.008990928530693054
6.0,0.008136201649904251
7.0,0.007422836031764746
8.0,0.006757840514183044
9.0,0.0061918445862829685
10.0,0.005771067459136248
11.0,0.005387500859797001
12.0,0.004943748004734516
13.0,0.004663553088903427
14.0,0.004421844147145748
15.0,0.004070613998919725
16.0,0.003837639233097434
18.0,0.003302947850897908
20.0,0.0028776053804904222
22.0,0.0025308767799288034
24.0,0.0021814219653606415
26.0,0.001990501768887043
28.0,0.001831063418649137
30.0,0.0018835992086678743
32.0,0.0016451711999252439
36.0,0.0013131840387359262
40.0,0.0007873721770010889
44.0,0.0005737695610150695
48.0,0.0005049911560490727
52.0,0.0003482024185359478
56.0,0.00039305895916186273
60.0,0.0004799595335498452
64.0,0.0004905183450318873
72.0,0.0005736658349633217
80.0,0.0005761433858424425
88.0,0.0004058058839291334
96.0,0.0003294874040875584
104.0,-2.7981865059700795e-05
112.0,0.0002228412195108831
120.0,2.336202669539489e-05
128.0,-0.0002067235909635201
144.0,-3.117097730864771e-05
160.0,0.0003817667020484805
176.0,0.0004262859292794019
192.0,0.00041151055484078825
208.0,0.0005741341738030314
224.0,0.0003178077458869666
240.0,-0.0002683443308342248
256.0,-0.0008351190481334925
288.0,-0.0003554255235940218
320.0,0.0002964922459796071
352.0,0.0005893652560189366
384.0,0.0010596455540508032
416.0,0.001112070633098483
448.0,2.887987591293495e-07
480.0,-0.0003022385062649846
512.0,6.636272155446932e-05
576.0,0.00019700925622601062
640.0,-0.00039044753066264093
704.0,0.00021126671344973147
768.0,0.0004613693745341152
832.0,0.00013588745787274092
896.0,-0.00012130618415540084
960.0,-0.0003410011122468859
1024.0,-0.00042224000208079815
1152.0,0.0001291596272494644
1280.0,1.5759545931359753e-05
1408.0,-0.00046094192657619715
1536.0,-5.0312515668338165e-05
1664.0,0.0002823367831297219
1792.0,0.00018426834139972925
1920.0,-0.00015418443945236504
2048.0,-5.2920106099918485e-05
2304.0,-0.00028388493228703737
2560.0,-3.076262873946689e-05
2816.0,-1.3408650374913123e-05
3072.0,0.0001033971129800193
3328.0,-5.404177136369981e-05
3584.0,-8.835719927446917e-05
3840.0,-6.682274397462606e-05
4096.0,1.22265305435576e-06
4608.0,-0.0002536905521992594
5120.0,-0.00019562357920221984
5632.0,0.00012446256005205214
6144.0,-0.00028999580536037683
6656.0,-0.00041582033736631274
7168.0,3.59511177521199e-05
7680.0,0.00010480452328920364
8192.0,3.7655001506209373e-05
end
