version,3.0
numOfCh,1
type,point
parent_name,19e3e_3dot0-0dot1
ch_type,1_1
kcount,1
numberNandB,1
brightnessNandB,1
carpet pos,0
pc,0
Time (ms),CH1 Auto-Correlation
1.0,0.01664087176322937
2.0,0.013859616592526436
3.0,0.011799903586506844
4.0,0.010265370830893517
5.0,0.009073995985090733
6.0,0.008055569604039192
7.0,0.007358177565038204
8.0,0.006737925577908754
9.0,0.006309518590569496
10.0,0.0057881781831383705
11.0,0.005464940797537565
12.0,0.005308219231665134
13.0,0.005057484842836857
14.0,0.004705115687102079
15.0,0.00454632518813014
16.0,0.004318172112107277
18.0,0.0038778851740062237
20.0,0.003350700717419386
22.0,0.003025776008144021
24.0,0.002904291730374098
26.0,0.002771083265542984
28.0,0.002767083002254367
30.0,0.002717473777011037
32.0,0.002542905043810606
36.0,0.002395377727225423
40.0,0.0020963570568710566
44.0,0.002147673163563013
48.0,0.00215230043977499
52.0,0.001958120847120881
56.0,0.0017161633586511016
60.0,0.0016496762400493026
64.0,0.0013723480515182018
72.0,0.001069881021976471
80.0,0.0010463136713951826
88.0,0.0013403487391769886
96.0,0.0012127746595069766
104.0,0.0011086969170719385
112.0,0.0011918521486222744
120.0,0.0011847881833091378
128.0,0.001020201132632792
144.0,0.0007161727990023792
160.0,0.0005861721583642066
176.0,0.0003376804816070944
192.0,0.0004617691447492689
208.0,0.0006550673278979957
224.0,0.0004245485761202872
240.0,0.0005819565849378705
256.0,0.0006584544898942113
288.0,0.000352959061274305
320.0,-0.0001375844731228426
352.0,0.0001480376231484115
384.0,-9.117892477661371e-05
416.0,-0.0005042728153057396
448.0,-0.0003978288150392473
480.0,-0.00018431975331623107
512.0,-0.00046852038940414786
576.0,-0.0005280008190311491
640.0,-0.00010405395005363971
704.0,-7.787795038893819e-05
768.0,-0.0001772454270394519
832.0,0.00028808118076995015
896.0,0.00016012517153285444
960.0,-7.930795254651457e-05
1024.0,0.0003108403761871159
1152.0,-0.00013172850594855845
1280.0,-0.0001885243837023154
1408.0,-0.00012050379882566631
1536.0,0.0007109456928446889
1664.0,0.0005642834003083408
1792.0,0.00012355571379885077
1920.0,3.644536991487257e-05
2048.0,-0.0003436397237237543
2304.0,-0.0010380223393440247
2560.0,0.00011622120655374601
2816.0,-3.852880183785601e-07
3072.0,-0.0002863537229131907
3328.0,-0.000677495903801173
3584.0,0.00016388934454880655
3840.0,-0.00028567644767463207
4096.0,0.0002337939222343266
4608.0,-7.16067006578669e-05
5120.0,-0.0002049021131824702
5632.0,0.0006030763033777475
6144.0,0.00011299258039798588
6656.0,0.00012941101158503443
7168.0,0.00043717509834095836
7680.0,-1.93643008969957e-05
8192.0,-0.000165966572239995
end
