version,3.0
numOfCh,1
type,point
parent_name,19e3e_3dot0-0dot1
ch_type,1_1
kcount,1
numberNandB,1
brightnessNandB,1
carpet pos,0
pc,0
Time (ms),CH1 Auto-Correlation
1.0,0.016087381169199944
2.0,0.013219163753092289
3.0,0.01117966789752245
4.0,0.009613038040697575
5.0,0.008480662479996681
6.0,0.007622947916388512
7.0,0.006923001725226641
8.0,0.006308560725301504
9.0,0.005766469053924084
10.0,0.005367269739508629
11.0,0.005006910301744938
12.0,0.004726462531834841
13.0,0.004513750318437815
14.0,0.004390086978673935
15.0,0.004246801603585482
16.0,0.004076764918863773
18.0,0.0038166455924510956
20.0,0.0034790439531207085
22.0,0.0029970707837492228
24.0,0.002686916384845972
26.0,0.0024388781748712063
28.0,0.0022890593390911818
30.0,0.0019926847890019417
32.0,0.0018190160626545548
36.0,0.0016643023118376732
40.0,0.0016793734394013882
44.0,0.0016396264545619488
48.0,0.0013010016409680247
52.0,0.0012522544711828232
56.0,0.0012009056517854333
60.0,0.001072222483344376
64.0,0.0009084503981284797
72.0,0.0008848884608596563
80.0,0.0007973822648636997
88.0,0.0006109386449679732
96.0,0.00047184040886349976
104.0,0.00024981709429994226
112.0,0.0001316481939284131
120.0,6.160315388115123e-05
128.0,0.00010105815454153344
144.0,0.00023300808970816433
160.0,1.474407508794684e-05
176.0,-0.0006335107027553022
192.0,-0.0007567837019450963
208.0,-0.00035929743899032474
224.0,-0.00019812959362752736
240.0,0.0002316876343684271
256.0,7.643613207619637e-05
288.0,0.0005741779459640384
320.0,0.00010530850704526529
352.0,6.021727676852606e-05
384.0,0.00044115755008533597
416.0,2.6029580112663098e-05
448.0,-0.0003950166574213654
480.0,-1.3159281479602214e-05
512.0,0.00010748849308583885
576.0,-0.000560042739380151
640.0,6.315432983683422e-05
704.0,0.0001455809106118977
768.0,0.0005388912395574152
832.0,-0.00016941096691880375
896.0,9.272964234696701e-05
960.0,-8.412277566094417e-06
1024.0,0.00014737276069354266
1152.0,5.3854855650570244e-05
1280.0,0.00011089829058619216
1408.0,0.0005462499102577567
1536.0,0.0006079347804188728
1664.0,0.0006330508622340858
1792.0,0.0005129326018504798
1920.0,-8.353207522304729e-05
2048.0,-0.00012716201308649033
2304.0,-2.4552797185606323e-05
2560.0,0.00010357858991483226
2816.0,-1.9504468582454138e-05
3072.0,0.0002511519705876708
3328.0,0.00012805953156203032
3584.0,-0.00016931376012507826
3840.0,7.774700497975573e-05
4096.0,0.0004598441009875387
4608.0,-0.0001796357100829482
5120.0,-8.269120007753372e-05
5632.0,0.00016524425882380456
6144.0,-0.0003767118032556027
6656.0,-0.0005045722355134785
7168.0,0.00041917001362890005
7680.0,-0.0008576044929213822
8192.0,-7.576379721285775e-05
end
