version,3.0
numOfCh,1
type,point
parent_name,19e3e_3dot0-0dot1
ch_type,1_1
kcount,1
numberNandB,1
brightnessNandB,1
carpet pos,0
pc,0
Time (ms),CH1 Auto-Correlation
1.0,0.017003871500492096
2.0,0.014144855551421642
3.0,0.012144234962761402
4.0,0.010594348423182964
5.0,0.00933597981929779
6.0,0.008506317622959614
7.0,0.007921000942587852
8.0,0.007359638810157776
9.0,0.00671345042064786
10.0,0.006243512500077486
11.0,0.005763315130025148
12.0,0.005394577980041504
13.0,0.005045740399509668
14.0,0.004777413792908192
15.0,0.004438792355358601
16.0,0.004166896920651197
18.0,0.003545215353369713
20.0,0.0032409867271780968
22.0,0.002948337234556675
24.0,0.0026261683087795973
26.0,0.0024011507630348206
28.0,0.002162256510928273
30.0,0.0019851531833410263
32.0,0.001901267096400261
36.0,0.0017633028328418732
40.0,0.0014832194428890944
44.0,0.001365013886243105
48.0,0.001242445083335042
52.0,0.0009448436321690679
56.0,0.0012137407902628183
60.0,0.0014426371781155467
64.0,0.001417611725628376
72.0,0.0009112945408560336
80.0,0.0005441144458018243
88.0,0.0007209274917840958
96.0,0.0008166807238012552
104.0,0.0006831329665146768
112.0,0.00043235006160102785
120.0,0.00027213903376832604
128.0,0.0004457507748156786
144.0,0.00023108540335670114
160.0,-2.1089323126943782e-05
176.0,0.0005846277344971895
192.0,0.0001265281898668036
208.0,-0.00023631750082131475
224.0,-0.000219214940443635
240.0,-0.0004984955303370953
256.0,-0.0003755065845325589
288.0,0.0006686109700240195
320.0,0.001069732359610498
352.0,0.0011402042582631111
384.0,0.0008892814512364566
416.0,0.000374599767383188
448.0,0.0007514356984756887
480.0,0.0005463574198074639
512.0,-1.4876563909638207e-06
576.0,0.00020124969887547195
640.0,0.0006087349029257894
704.0,0.0006604017107747495
768.0,0.0006071791867725551
832.0,0.0005131014040671289
896.0,0.0002927350578829646
960.0,0.0007747063064016402
1024.0,0.0004524468386080116
1152.0,3.287449726485647e-05
1280.0,9.98459872789681e-05
1408.0,-5.940093251410872e-05
1536.0,-0.00026970935869030654
1664.0,0.0002981662400998175
1792.0,0.00014082826965022832
1920.0,3.0269648050307296e-05
2048.0,-4.4228108890820295e-05
2304.0,0.0001995487982640043
2560.0,0.0003018014249391854
2816.0,0.0004065337998326868
3072.0,-0.00010243737051496282
3328.0,9.942263568518683e-05
3584.0,2.5086839741561562e-05
3840.0,-0.0003427051124162972
4096.0,-0.0010360863525420427
4608.0,-0.0006447815685532987
5120.0,-0.0005144203896634281
5632.0,-0.0004432550922501832
6144.0,-9.981822222471237e-05
6656.0,-0.00044379374594427645
7168.0,-0.00014513015048578382
7680.0,-0.0005769365816377103
8192.0,0.00019967308617196977
end
