version,3.0
numOfCh,1
type,point
parent_name,19e3e_3dot0-0dot1
ch_type,1_1
kcount,1
numberNandB,1
brightnessNandB,1
carpet pos,0
pc,0
Time (ms),CH1 Auto-Correlation
1.0,0.023866521194577217
2.0,0.020816080272197723
3.0,0.01872691884636879
4.0,0.01711576245725155
5.0,0.015744762495160103
6.0,0.01462753489613533
7.0,0.013758507557213306
8.0,0.013049093075096607
9.0,0.012447202578186989
10.0,0.011886773630976677
11.0,0.011436181142926216
12.0,0.010998116806149483
13.0,0.010525528341531754
14.0,0.010169271379709244
15.0,0.009778319858014584
16.0,0.009378913789987564
18.0,0.008610635064542294
20.0,0.00789340864866972
22.0,0.0072594089433550835
24.0,0.006790786981582642
26.0,0.006388210691511631
28.0,0.005911385640501976
30.0,0.005565660540014505
32.0,0.005328388884663582
36.0,0.005190563388168812
40.0,0.004944715648889542
44.0,0.004397555720061064
48.0,0.004016201477497816
52.0,0.0035787990782409906
56.0,0.002707712585106492
60.0,0.0021463907323777676
64.0,0.0017487986478954554
72.0,0.0017510461620986462
80.0,0.002018173225224018
88.0,0.001782005070708692
96.0,0.0020885339472442865
104.0,0.0018007084727287292
112.0,0.0014974948717281222
120.0,0.0014819951029494405
128.0,0.0008898403611965477
144.0,0.0008844385156407952
160.0,0.0011183320311829448
176.0,0.0014118856051936746
192.0,0.0019377050921320915
208.0,0.0020075456704944372
224.0,0.0027896533720195293
240.0,0.0032306616194546223
256.0,0.0021675352472811937
288.0,-0.00019281664572190493
320.0,-0.0006240227376110852
352.0,-9.045389742823318e-05
384.0,-0.00036050769267603755
416.0,2.3529013560619205e-05
448.0,0.00035898806527256966
480.0,-0.0011557141551747918
512.0,-0.001317679649218917
576.0,-0.0006023411988280714
640.0,0.00033660692861303687
704.0,-0.000648803892545402
768.0,-0.00011349043779773638
832.0,4.8305846576113254e-05
896.0,0.0001504209212725982
960.0,-0.00036526244366541505
1024.0,0.0003101975016761571
1152.0,0.0013684685109183192
1280.0,0.00042465224396437407
1408.0,-0.000769793288782239
1536.0,-3.797178214881569e-05
1664.0,-0.0009184860973618925
1792.0,-0.0002900901308748871
1920.0,-0.0004641630221158266
2048.0,-8.562292350688949e-05
2304.0,0.0007921811775304377
2560.0,0.00018454859673511237
2816.0,-2.8402577299857512e-05
3072.0,-0.0005520224221982062
3328.0,-1.6467703972011805e-05
3584.0,-0.0008256441215053201
3840.0,-0.0009656072361394763
4096.0,-0.0004969374858774245
4608.0,-8.988240006146953e-05
5120.0,0.0005129220662638545
5632.0,-0.0001892715081339702
6144.0,-0.0007282370352186263
6656.0,-0.000754699984099716
7168.0,-0.00029917649226263165
7680.0,-0.00045017446973361075
8192.0,-0.0005729921977035701
end
