version,3.0
numOfCh,1
type,point
parent_name,19e3e_3dot0-0dot1
ch_type,1_1
kcount,1
numberNandB,1
brightnessNandB,1
carpet pos,0
pc,0
Time (ms),CH1 Auto-Correlation
1.0,0.016201362013816833
2.0,0.013393018394708633
3.0,0.011357688345015049
4.0,0.009741345420479774
5.0,0.008524002507328987
6.0,0.007566279731690884
7.0,0.006698659621179104
8.0,0.005903755314648151
9.0,0.005291399080306292
10.0,0.004774191416800022
11.0,0.004256279207766056
12.0,0.003856893628835678
13.0,0.003487196285277605
14.0,0.003068347927182913
15.0,0.0027783068362623453
16.0,0.002584595698863268
18.0,0.002140411175787449
20.0,0.0018848056206479669
22.0,0.0018525681225582957
24.0,0.0018838890828192234
26.0,0.00179198756814003
28.0,0.0014642745954915881
30.0,0.0013086317339912057
32.0,0.0012377544771879911
36.0,0.0008350103162229061
40.0,0.0007505054818466306
44.0,0.0007953567546792328
48.0,0.0007989421719685197
52.0,0.0007913525914773345
56.0,0.0005687803495675325
60.0,0.00041569856693968177
64.0,0.0002568693016655743
72.0,0.000222376300371252
80.0,-0.00025775443646125495
88.0,-0.0004786901699844748
96.0,-0.0004205238074064255
104.0,-0.0005733369616791606
112.0,-0.0008600959554314613
120.0,-0.0007025523809716105
128.0,-0.0004999234224669635
144.0,-0.0007727288757450879
160.0,0.0001783602638170123
176.0,0.000724924961104989
192.0,0.0005232584080658853
208.0,0.000651728012599051
224.0,0.0008598619606345892
240.0,0.0006835081148892641
256.0,-1.9926355889765546e-05
288.0,0.00036851808545179665
320.0,-0.00036468671169131994
352.0,-2.4686676624696702e-05
384.0,0.0003802907303906977
416.0,0.00031283291173167527
448.0,0.00025846052449196577
480.0,-7.335791451623663e-05
512.0,-0.0005462943809106946
576.0,-0.0001490451249992475
640.0,3.717569779837504e-05
704.0,-5.54860380361788e-05
768.0,-8.935201185522601e-05
832.0,0.00012040393630741164
896.0,-0.00015638486365787685
960.0,-0.0002421306271571666
1024.0,-0.0011385369580239058
1152.0,1.727486596792005e-05
1280.0,-0.0002344835811527446
1408.0,0.0002836858038790524
1536.0,-7.857718446757644e-05
1664.0,-0.00022500769409816712
1792.0,-1.4219740478438325e-05
1920.0,-0.0002813167520798743
2048.0,0.0003696489438880235
2304.0,-1.5074510884005576e-05
2560.0,-4.00561184505932e-05
2816.0,1.0430848305986729e-05
3072.0,-0.000124020705698058
3328.0,-0.00010336123523302376
3584.0,0.00015104899648576975
3840.0,8.171561785275117e-05
4096.0,-5.7137018302455544e-05
4608.0,-7.22920085536316e-05
5120.0,-1.790277565305587e-05
5632.0,-9.717632201500237e-05
6144.0,-0.00020301844051573426
6656.0,-0.00014500621182378381
7168.0,0.00012801923730876297
7680.0,0.0002845404378604144
8192.0,-0.00019125263497699052
end
