version,3.0
numOfCh,1
type,point
parent_name,19e3e_3dot0-0dot1
ch_type,1_1
kcount,1
numberNandB,1
brightnessNandB,1
carpet pos,0
pc,0
Time (ms),CH1 Auto-Correlation
1.0,0.016744377091526985
2.0,0.013944490812718868
3.0,0.011997583322227001
4.0,0.010618875734508038
5.0,0.009488120675086975
6.0,0.008591296151280403
7.0,0.007934059016406536
8.0,0.007345154415816069
9.0,0.006790448911488056
10.0,0.006344052497297525
11.0,0.005996237974613905
12.0,0.005712373647838831
13.0,0.005494175013154745
14.0,0.005243576597422361
15.0,0.005075692664831877
16.0,0.005050402134656906
18.0,0.0047495411708951
20.0,0.0044584013521671295
22.0,0.004223770461976528
24.0,0.003951302729547024
26.0,0.0036216292064636946
28.0,0.0032868997659534216
30.0,0.0030792488250881433
32.0,0.0029029403813183308
36.0,0.002491958439350128
40.0,0.0022155006881803274
44.0,0.0019614598713815212
48.0,0.0017753015272319317
52.0,0.0016474168514832854
56.0,0.0017132236389443278
60.0,0.00142760225571692
64.0,0.0012258964125066996
72.0,0.0009327569860033691
80.0,0.0008572808583267033
88.0,0.000811152218375355
96.0,0.0006278367945924401
104.0,0.0006631753640249372
112.0,0.0009123952477239072
120.0,0.0008580187568441033
128.0,0.0008212628308683634
144.0,0.0008435518830083311
160.0,0.0002938288089353591
176.0,0.0007277280674315989
192.0,0.0005835077026858926
208.0,0.0007184589048847556
224.0,0.00046664272667840123
240.0,0.000147652201121673
256.0,0.0006978381425142288
288.0,0.00043974665459245443
320.0,4.876624734606594e-05
352.0,0.0003341731207910925
384.0,0.00019562446686904877
416.0,-9.669236169429496e-05
448.0,-0.0003115845029242337
480.0,6.111068069003522e-05
512.0,-0.00035281878081150353
576.0,-0.0003432947851251811
640.0,-0.0002572140656411648
704.0,9.372288332087919e-05
768.0,8.955568773671985e-05
832.0,-0.00018748319416772574
896.0,0.0001626536250114441
960.0,-0.0005799364298582077
1024.0,-0.0007473330479115248
1152.0,-0.000495239335577935
1280.0,0.00021267763804644346
1408.0,5.083808355266228e-05
1536.0,0.00029854843160137534
1664.0,0.0006794898072257638
1792.0,-5.656059329339769e-06
1920.0,-1.2196515854157042e-05
2048.0,0.00033399605308659375
2304.0,8.557298133382574e-05
2560.0,-1.6187997971428558e-05
2816.0,0.0003908010257873684
3072.0,-0.00021925452165305614
3328.0,-9.79647011263296e-05
3584.0,-3.236887278035283e-05
3840.0,-0.0005131744546815753
4096.0,-0.00019758603593800217
4608.0,-0.0002811434678733349
5120.0,-4.382568658911623e-05
5632.0,0.0005274126888252795
6144.0,-0.0006245595868676901
6656.0,-0.00017732830019667745
7168.0,0.00019529279961716384
7680.0,-0.00035145648871548474
8192.0,-0.0002766792895272374
end
