version,3.0
numOfCh,1
type,point
parent_name,19e3e_3dot0-0dot1
ch_type,1_1
kcount,1
numberNandB,1
brightnessNandB,1
carpet pos,0
pc,0
Time (ms),CH1 Auto-Correlation
1.0,0.01550436019897461
2.0,0.012700063176453114
3.0,0.0106433667242527
4.0,0.009133596904575825
5.0,0.007922492921352386
6.0,0.007090655155479908
7.0,0.00630192132666707
8.0,0.005640082526952028
9.0,0.005187813192605972
10.0,0.0046122269704937935
11.0,0.004237097222357988
12.0,0.0038917986676096916
13.0,0.0035407948307693005
14.0,0.003208117326721549
15.0,0.0029442713130265474
16.0,0.0027540423907339573
18.0,0.0024438912514597178
20.0,0.0021600627806037664
22.0,0.001963768620043993
24.0,0.0019038079772144556
26.0,0.0017359367338940501
28.0,0.001595904934220016
30.0,0.0015152228297665715
32.0,0.0015362591948360205
36.0,0.0011614980176091194
40.0,0.0010425443761050701
44.0,0.0007719335844740272
48.0,0.0002990766952279955
52.0,0.00012607737153302878
56.0,9.853059600573033e-05
60.0,0.00031759546254761517
64.0,0.00024032911460381
72.0,0.00018759959493763745
80.0,-4.6971734263934195e-05
88.0,-4.4223852455616e-05
96.0,3.268298678449355e-05
104.0,0.0003358236572239548
112.0,0.0006990403635427356
120.0,0.0004273552622180432
128.0,0.00028392369858920574
144.0,0.0006785900914110243
160.0,0.0009354837820865214
176.0,0.0007922924705781043
192.0,0.00010088793351314962
208.0,7.504827226512134e-05
224.0,-0.00010622586705721915
240.0,-0.0003723074623849243
256.0,-0.00040015700506046414
288.0,-0.0003925847413484007
320.0,0.00019045003864448518
352.0,0.0006442367448471487
384.0,0.00020614014647435397
416.0,0.0001896035682875663
448.0,0.00048373345634900033
480.0,0.0002562692097853869
512.0,0.00015342127881012857
576.0,0.00046248413855209947
640.0,9.494559344602749e-05
704.0,-0.0007909521809779108
768.0,-0.00023990918998606503
832.0,-0.0002756900212261826
896.0,-0.00035795700387097895
960.0,-0.0001239965931745246
1024.0,-0.00023794906155671924
1152.0,-0.0002674665884114802
1280.0,8.843356044963002e-05
1408.0,0.00019082421204075217
1536.0,-0.0003955143329221755
1664.0,-0.00029525678837671876
1792.0,5.244444309937535e-06
1920.0,5.611801316263154e-05
2048.0,3.658095738501288e-05
2304.0,3.583104262361303e-05
2560.0,0.00016116967890411615
2816.0,9.721342212287709e-05
3072.0,-0.00012147566303610802
3328.0,9.97110764728859e-05
3584.0,-0.00019870352116413414
3840.0,0.0003611870633903891
4096.0,0.00029481647652573884
4608.0,-0.0003098557353951037
5120.0,1.9197477740817703e-05
5632.0,-0.00041144253918901086
6144.0,5.4131163778947666e-05
6656.0,-0.00016527231491636485
7168.0,0.00030967258499003947
7680.0,8.707072265679017e-05
8192.0,-0.00031545895035378635
end
