version,3.0
numOfCh,1
type,point
parent_name,19e3e_3dot0-0dot1
ch_type,1_1
kcount,1
numberNandB,1
brightnessNandB,1
carpet pos,0
pc,0
Time (ms),CH1 Auto-Correlation
1.0,0.01840204745531082
2.0,0.015473125502467155
3.0,0.013473172672092915
4.0,0.011931177228689194
5.0,0.010725768283009529
6.0,0.00968786422163248
7.0,0.008792562410235405
8.0,0.007954759523272514
9.0,0.00736993970349431
10.0,0.006952628493309021
11.0,0.006438512820750475
12.0,0.0059619140811264515
13.0,0.0056700813584029675
14.0,0.005301568657159805
15.0,0.00502106174826622
16.0,0.004754341207444668
18.0,0.004295647144317627
20.0,0.004006606992334127
22.0,0.003877128940075636
24.0,0.003627285361289978
26.0,0.0036575717385858297
28.0,0.003480488434433937
30.0,0.0031262103002518415
32.0,0.0028625279664993286
36.0,0.002486027544364333
40.0,0.00240328605286777
44.0,0.00222270586527884
48.0,0.002137884497642517
52.0,0.0017731734551489353
56.0,0.00132714060600847
60.0,0.0010764749022200704
64.0,0.001002889359369874
72.0,0.0013073997106403112
80.0,0.0010058009065687656
88.0,0.00031165260588750243
96.0,0.0005318746552802622
104.0,0.0003658840723801404
112.0,0.0003706935385707766
120.0,5.6849399697966874e-05
128.0,-0.00013366264465730637
144.0,-3.881506563629955e-05
160.0,-6.24878448434174e-05
176.0,0.00016436092846561223
192.0,2.8226870654179947e-06
208.0,-0.00017987066530622542
224.0,0.00019563095702324063
240.0,7.079739589244127e-05
256.0,0.0008188809733837843
288.0,0.0007279939018189907
320.0,0.00017150105850305408
352.0,-0.000554782513063401
384.0,-0.00042716285679489374
416.0,-0.0002709133841563016
448.0,-0.00045439612586051226
480.0,6.625406967941672e-05
512.0,0.00044151401380077004
576.0,-0.0002507863100618124
640.0,-0.00016269432671833783
704.0,0.0003265616833232343
768.0,-1.5826281014597043e-05
832.0,5.922114723944105e-05
896.0,0.00036035964149050415
960.0,0.0007001105113886297
1024.0,0.0004044478992000222
1152.0,-0.00030057234107516706
1280.0,-0.0007215890800580382
1408.0,-0.0009556713630445302
1536.0,0.0005143993766978383
1664.0,-0.0002569363859947771
1792.0,6.106751243351027e-05
1920.0,0.00010625962750054896
2048.0,-0.00031975749880075455
2304.0,-0.0004710735520347953
2560.0,-0.0004255815001670271
2816.0,0.00018364403513260186
3072.0,-0.00011726874072337523
3328.0,-0.0006166586535982788
3584.0,0.0003681016096379608
3840.0,0.0008647447102703154
4096.0,5.3431922424351797e-05
4608.0,0.00044944084947928786
5120.0,-0.0003726114518940449
5632.0,-0.00018710197764448822
6144.0,-0.00033066156902350485
6656.0,0.00021298590581864119
7168.0,-0.00016776476695667952
7680.0,0.00042056795791722834
8192.0,0.0002456498914398253
end
