version,3.0
numOfCh,1
type,point
parent_name,19e3e_3dot0-0dot1
ch_type,1_1
kcount,1
numberNandB,1
brightnessNandB,1
carpet pos,0
pc,0
Time (ms),CH1 Auto-Correlation
1.0,0.016485586762428284
2.0,0.013647333718836308
3.0,0.011746825650334358
4.0,0.01030663214623928
5.0,0.009249795228242874
6.0,0.008290807716548443
7.0,0.007577065844088793
8.0,0.006998423021286726
9.0,0.006355061195790768
10.0,0.005855693481862545
11.0,0.005509707611054182
12.0,0.005299665033817291
13.0,0.004999339114874601
14.0,0.0048213438130915165
15.0,0.004520815331488848
16.0,0.0043982225470244884
18.0,0.004201683681458235
20.0,0.003991574048995972
22.0,0.003581617958843708
24.0,0.003067790064960718
26.0,0.002666005166247487
28.0,0.0027125163469463587
30.0,0.002698721829801798
32.0,0.002418672665953636
36.0,0.002417308744043112
40.0,0.0022493533324450254
44.0,0.002173811197280884
48.0,0.0019995931070297956
52.0,0.0018316463101655245
56.0,0.0014741558115929365
60.0,0.0012247466947883368
64.0,0.0008912894409149885
72.0,0.000591345364227891
80.0,0.0005426451098173857
88.0,0.0005862380494363606
96.0,0.0003800837730523199
104.0,0.0005354572203941643
112.0,0.00100492755882442
120.0,0.0010873203864321113
128.0,0.0013438338646665215
144.0,0.000598281854763627
160.0,0.0002444679557811469
176.0,0.000338446261594072
192.0,-4.02492587454617e-05
208.0,5.6431421398883685e-05
224.0,0.0001426470698788762
240.0,0.00041551553294993937
256.0,0.0005325262318365276
288.0,0.0007898375624790788
320.0,0.0008148350170813501
352.0,0.0011234973790124059
384.0,0.0012573356507346034
416.0,0.0013505121460184455
448.0,0.000907844165340066
480.0,0.00030752786551602185
512.0,-9.277104254579172e-05
576.0,0.0002957787364721298
640.0,0.0003394286322873086
704.0,0.0008440100937150419
768.0,0.0003530026297084987
832.0,-0.0004001213237643242
896.0,-0.0003764561261050403
960.0,-0.0004759810690302402
1024.0,0.0005484366556629539
1152.0,-4.1332608816446736e-05
1280.0,-0.0006691925227642059
1408.0,1.4942106645321473e-05
1536.0,-0.0005406618001870811
1664.0,-0.0008970493217930198
1792.0,-5.4825541155878454e-05
1920.0,-0.0003475746780168265
2048.0,-0.0007985294214449823
2304.0,-0.00024412640777882189
2560.0,-0.00019122906087432057
2816.0,0.00036572356475517154
3072.0,-0.00052431202493608
3328.0,-0.000590472191106528
3584.0,-0.00046595220919698477
3840.0,-0.0005602369783446193
4096.0,-5.258005694486201e-05
4608.0,-0.00014128797920420766
5120.0,0.00039894747897051275
5632.0,0.00037060255999676883
6144.0,7.51147381379269e-05
6656.0,6.496341666206717e-05
7168.0,1.263523427041946e-05
7680.0,0.0002780391077976674
8192.0,0.00026704295305535197
end
