version,3.0
numOfCh,1
type,point
parent_name,34766_0dot1-0dot1
ch_type,1_1
kcount,1
numberNandB,1
brightnessNandB,1
carpet pos,0
pc,0
Time (ms),CH1 Auto-Correlation
1.0,0.043786756694316864
2.0,0.04304569214582443
3.0,0.042376723140478134
4.0,0.041721973568201065
5.0,0.04107636585831642
6.0,0.0404314287006855
7.0,0.039807774126529694
8.0,0.039258360862731934
9.0,0.03873889148235321
10.0,0.038248736411333084
11.0,0.0377681739628315
12.0,0.03731995075941086
13.0,0.036880169063806534
14.0,0.03644246608018875
15.0,0.0360216461122036
16.0,0.035622019320726395
18.0,0.03482096269726753
20.0,0.034016337245702744
22.0,0.03319688141345978
24.0,0.0324397049844265
26.0,0.031719502061605453
28.0,0.03101077489554882
30.0,0.030340299010276794
32.0,0.029721595346927643
36.0,0.028648747131228447
40.0,0.027592571452260017
44.0,0.026718342676758766
48.0,0.02597968839108944
52.0,0.025267861783504486
56.0,0.0244753360748291
60.0,0.02371935173869133
64.0,0.02292991802096367
72.0,0.021572960540652275
80.0,0.020183710381388664
88.0,0.018772833049297333
96.0,0.017564905807375908
104.0,0.016728630289435387
112.0,0.016181431710720062
120.0,0.01570095680654049
128.0,0.014901665970683098
144.0,0.013665661215782166
160.0,0.013406068086624146
176.0,0.013551744632422924
192.0,0.013550661504268646
208.0,0.012821151874959469
224.0,0.011908573098480701
240.0,0.011211876757442951
256.0,0.011100168339908123
288.0,0.010518383234739304
320.0,0.009349054656922817
352.0,0.009137962944805622
384.0,0.009831732138991356
416.0,0.010150551795959473
448.0,0.008792407810688019
480.0,0.006618602201342583
512.0,0.00493515795096755
576.0,0.0054129958152771
640.0,0.005024175625294447
704.0,0.0035252724774181843
768.0,0.0019519341876730323
832.0,-0.0005352699081413448
896.0,-0.001209839479997754
960.0,-0.00131854263599962
1024.0,-0.001737066195346415
1152.0,-0.0068308464251458645
1280.0,-0.00827779434621334
1408.0,-0.006028724368661642
1536.0,-0.003393597202375531
1664.0,-0.0019312581280246377
1792.0,-0.0009831637144088745
1920.0,0.0005179269937798381
2048.0,0.00032687472412362695
2304.0,0.0017641164595261216
2560.0,-0.000805514573585242
2816.0,-0.0037536651361733675
3072.0,-0.006451358087360859
3328.0,-0.0021129490341991186
3584.0,0.0010822004405781627
3840.0,0.0016803203616291285
4096.0,0.0023178146220743656
4608.0,0.00028136238688603044
5120.0,0.000131029068143107
5632.0,0.0010945425601676106
6144.0,-0.0043938797898590565
6656.0,-0.0068747918121516705
7168.0,-0.004673166200518608
7680.0,0.0005695177824236453
8192.0,-0.004433511756360531
end
