version,3.0
numOfCh,1
type,point
parent_name,34766_0dot1-0dot1
ch_type,1_1
kcount,1
numberNandB,1
brightnessNandB,1
carpet pos,0
pc,0
Time (ms),CH1 Auto-Correlation
1.0,0.05729003995656967
2.0,0.05680590867996216
3.0,0.05633153021335602
4.0,0.05587369203567505
5.0,0.055421676486730576
6.0,0.05496795475482941
7.0,0.05451994389295578
8.0,0.05408758670091629
9.0,0.053643692284822464
10.0,0.053190264850854874
11.0,0.052754174917936325
12.0,0.05231688544154167
13.0,0.05190205201506615
14.0,0.051501791924238205
15.0,0.051089558750391006
16.0,0.05066872015595436
18.0,0.049861978739500046
20.0,0.04908180981874466
22.0,0.04828914627432823
24.0,0.04750498756766319
26.0,0.046729523688554764
28.0,0.045992013067007065
30.0,0.04525371640920639
32.0,0.04454132914543152
36.0,0.04318403825163841
40.0,0.041867829859256744
44.0,0.040573082864284515
48.0,0.039379481226205826
52.0,0.038241852074861526
56.0,0.03719606250524521
60.0,0.03629633039236069
64.0,0.035422585904598236
72.0,0.03369634971022606
80.0,0.03199092298746109
88.0,0.03044275939464569
96.0,0.028997287154197693
104.0,0.02757178246974945
112.0,0.026130657643079758
120.0,0.02474505640566349
128.0,0.02336825430393219
144.0,0.021181512624025345
160.0,0.019628314301371574
176.0,0.018370680510997772
192.0,0.017096206545829773
208.0,0.01604544185101986
224.0,0.015446990728378296
240.0,0.015388100408017635
256.0,0.015718571841716766
288.0,0.015650302171707153
320.0,0.015248785726726055
352.0,0.014412909746170044
384.0,0.012955643236637115
416.0,0.01135749276727438
448.0,0.009111631661653519
480.0,0.0073806652799248695
512.0,0.00669669546186924
576.0,0.0061392467468976974
640.0,0.0065851034596562386
704.0,0.006494392175227404
768.0,0.004206698387861252
832.0,0.0009710479062050581
896.0,0.0003838260017801076
960.0,0.0009674282628111541
1024.0,0.0018553215777501464
1152.0,-0.0009668368147686124
1280.0,0.0010150342714041471
1408.0,0.0008069558534771204
1536.0,-0.004268906079232693
1664.0,-0.0018859711708500981
1792.0,-0.00030792932375334203
1920.0,-0.0010837664594873786
2048.0,0.002701940480619669
2304.0,0.003207690082490444
2560.0,0.0064640468917787075
2816.0,0.007699260488152504
3072.0,0.004217976238578558
3328.0,-0.0010672881035134196
3584.0,-0.007149759214371443
3840.0,-0.0030527394264936447
4096.0,0.003918270114809275
4608.0,0.002160766627639532
5120.0,0.0054449159651994705
5632.0,-0.00048229267122223973
6144.0,0.0013522638473659754
6656.0,-0.012367340736091137
7168.0,-0.0033651029225438833
7680.0,-0.002308150753378868
8192.0,0.005153384990990162
end
