version,3.0
numOfCh,1
type,point
parent_name,34766_0dot1-0dot1
ch_type,1_1
kcount,1
numberNandB,1
brightnessNandB,1
carpet pos,0
pc,0
Time (ms),CH1 Auto-Correlation
1.0,0.04334649071097374
2.0,0.042798127979040146
3.0,0.04226972535252571
4.0,0.04175003245472908
5.0,0.04124011471867561
6.0,0.040757209062576294
7.0,0.04026605561375618
8.0,0.039780765771865845
9.0,0.03929595649242401
10.0,0.038813117891550064
11.0,0.03835400938987732
12.0,0.03791213408112526
13.0,0.03747908025979996
14.0,0.0370456725358963
15.0,0.03662915527820587
16.0,0.036208223551511765
18.0,0.035379983484745026
20.0,0.03457451984286308
22.0,0.03378879278898239
24.0,0.033046904951334
26.0,0.03233460709452629
28.0,0.0316295400261879
30.0,0.030947506427764893
32.0,0.03030729666352272
36.0,0.029094457626342773
40.0,0.02799125760793686
44.0,0.026921471580863
48.0,0.025932056829333305
52.0,0.024990692734718323
56.0,0.024025795981287956
60.0,0.02309119701385498
64.0,0.022226594388484955
72.0,0.020687198266386986
80.0,0.01918800361454487
88.0,0.01766887679696083
96.0,0.016344180330634117
104.0,0.015252284705638885
112.0,0.014526251703500748
120.0,0.013903798535466194
128.0,0.013360264711081982
144.0,0.012134457938373089
160.0,0.010644146241247654
176.0,0.009147370234131813
192.0,0.007813178934156895
208.0,0.006465913727879524
224.0,0.0050119394436478615
240.0,0.004212347790598869
256.0,0.003169780597090721
288.0,0.001444101333618164
320.0,0.00132813211530447
352.0,0.0011484748683869839
384.0,0.00046231821761466563
416.0,-0.0005528816254809499
448.0,-0.0008165916660800576
480.0,-0.0005021422985009849
512.0,-0.000843367597553879
576.0,-0.00034758271067403257
640.0,0.0017290795221924782
704.0,0.00397955859079957
768.0,0.0034428746439516544
832.0,0.00016820439486764371
896.0,-0.0033755421172827482
960.0,-0.004410183522850275
1024.0,-0.005979738663882017
1152.0,-0.006994856055825949
1280.0,-0.005103594157844782
1408.0,0.0002932860516011715
1536.0,-3.8120811950648203e-05
1664.0,-0.0009805684676393867
1792.0,-0.0003589579719118774
1920.0,-0.0024772421456873417
2048.0,0.0003711396420840174
2304.0,0.0005376514163799584
2560.0,-0.0007623924757353961
2816.0,-0.0015230145072564483
3072.0,-0.0009906006744131446
3328.0,-0.0008780150674283504
3584.0,-0.0019255038350820541
3840.0,-0.0005992862279526889
4096.0,0.0009998055174946785
4608.0,-0.0009535619174130261
5120.0,-0.0011589420028030872
5632.0,0.0035681314766407013
6144.0,0.0019190753810107708
6656.0,-0.0050223032012581825
7168.0,-0.001324150711297989
7680.0,0.002176601905375719
8192.0,-0.0008585767354816198
end
