version,3.0
numOfCh,1
type,point
parent_name,34766_0dot1-0dot1
ch_type,1_1
kcount,1
numberNandB,1
brightnessNandB,1
carpet pos,0
pc,0
Time (ms),CH1 Auto-Correlation
1.0,0.07160893827676773
2.0,0.07099277526140213
3.0,0.07038817554712296
4.0,0.06981176137924194
5.0,0.06925345957279205
6.0,0.0687142089009285
7.0,0.06818614900112152
8.0,0.06768044829368591
9.0,0.06716646999120712
10.0,0.06665484607219696
11.0,0.0661432221531868
12.0,0.06564658880233765
13.0,0.06514401733875275
14.0,0.0646357536315918
15.0,0.06412746012210846
16.0,0.06362589448690414
18.0,0.06268104165792465
20.0,0.06178579106926918
22.0,0.06084270030260086
24.0,0.05990789458155632
26.0,0.059048302471637726
28.0,0.058280494064092636
30.0,0.05756063386797905
32.0,0.05689366161823273
36.0,0.055503521114587784
40.0,0.054060302674770355
44.0,0.052611056715250015
48.0,0.05112939327955246
52.0,0.049691468477249146
56.0,0.048349447548389435
60.0,0.04708718881011009
64.0,0.0459555983543396
72.0,0.044078338891267776
80.0,0.04246615618467331
88.0,0.040911927819252014
96.0,0.03950262442231178
104.0,0.03819004073739052
112.0,0.036988772451877594
120.0,0.03606259450316429
128.0,0.0352456234395504
144.0,0.03365853801369667
160.0,0.03193121775984764
176.0,0.030383378267288208
192.0,0.029137834906578064
208.0,0.027737125754356384
224.0,0.02596316486597061
240.0,0.023916369304060936
256.0,0.02200167626142502
288.0,0.019967742264270782
320.0,0.018728936091065407
352.0,0.016611846163868904
384.0,0.015463241375982761
416.0,0.014973470941185951
448.0,0.012857500463724136
480.0,0.010351653210818768
512.0,0.008378248661756516
576.0,0.002266364172101021
640.0,-0.0015709457220509648
704.0,-0.0025209172163158655
768.0,-0.004411804024130106
832.0,-0.008225186727941036
896.0,-0.010924654081463814
960.0,-0.011956725269556046
1024.0,-0.011022305116057396
1152.0,-0.007244593929499388
1280.0,-0.006458638235926628
1408.0,-0.003969553858041763
1536.0,-6.76274357829243e-05
1664.0,-0.0005800358485430479
1792.0,-0.001494659692980349
1920.0,0.0010811110259965062
2048.0,0.0010420827893540263
2304.0,-0.004326827358454466
2560.0,-0.006617243401706219
2816.0,-0.011705569922924042
3072.0,-0.01112961396574974
3328.0,-0.007973374798893929
3584.0,-0.0038282594177871943
3840.0,0.007540765218436718
4096.0,0.006794518791139126
4608.0,-0.0016873024869710207
5120.0,0.00557427853345871
5632.0,-0.0024127825163304806
6144.0,-0.01702629216015339
6656.0,0.0019446483347564936
7168.0,0.004550326615571976
7680.0,0.008154626935720444
8192.0,0.01281531248241663
end
