version,3.0
numOfCh,1
type,point
parent_name,34766_0dot1-0dot1
ch_type,1_1
kcount,1
numberNandB,1
brightnessNandB,1
carpet pos,0
pc,0
Time (ms),CH1 Auto-Correlation
1.0,0.08016309142112732
2.0,0.07906161993741989
3.0,0.07802972197532654
4.0,0.0770418792963028
5.0,0.07612807303667068
6.0,0.07531172037124634
7.0,0.07445892691612244
8.0,0.07374993711709976
9.0,0.07307523488998413
10.0,0.07231248915195465
11.0,0.07149527221918106
12.0,0.07068395614624023
13.0,0.06985440105199814
14.0,0.06899871677160263
15.0,0.06815791130065918
16.0,0.0673617422580719
18.0,0.06581710278987885
20.0,0.06449055671691895
22.0,0.06311145424842834
24.0,0.06161743029952049
26.0,0.060298480093479156
28.0,0.05923011526465416
30.0,0.058266397565603256
32.0,0.05725328251719475
36.0,0.0551363043487072
40.0,0.05335400253534317
44.0,0.05162179842591286
48.0,0.049719370901584625
52.0,0.04772881790995598
56.0,0.04549296572804451
60.0,0.04356376454234123
64.0,0.041846562176942825
72.0,0.038440924137830734
80.0,0.03634674474596977
88.0,0.035386376082897186
96.0,0.034856315702199936
104.0,0.034128714352846146
112.0,0.03325856104493141
120.0,0.03286685049533844
128.0,0.03268228471279144
144.0,0.03215549886226654
160.0,0.030648494139313698
176.0,0.02819032594561577
192.0,0.02621929533779621
208.0,0.024463098496198654
224.0,0.022515112534165382
240.0,0.020542491227388382
256.0,0.019245602190494537
288.0,0.018062828108668327
320.0,0.018556786701083183
352.0,0.015923960134387016
384.0,0.012973344884812832
416.0,0.011144009418785572
448.0,0.009810552932322025
480.0,0.00824036542326212
512.0,0.006898622494190931
576.0,5.046699152444489e-05
640.0,-0.003700868459418416
704.0,-0.004747813567519188
768.0,-0.007921330630779266
832.0,-0.010440307669341564
896.0,-0.01011439599096775
960.0,-0.011803594417870045
1024.0,-0.009980945847928524
1152.0,-0.013404552824795246
1280.0,-0.01651863567531109
1408.0,-0.011411379091441631
1536.0,-0.004709131084382534
1664.0,-0.004000874701887369
1792.0,-0.0017849307041615248
1920.0,0.0032641012221574783
2048.0,0.007336950860917568
2304.0,0.008940737694501877
2560.0,0.01207183301448822
2816.0,0.007150775287300348
3072.0,0.0032873761374503374
3328.0,0.0028909086249768734
3584.0,-0.00185573217459023
3840.0,-0.010981298983097076
4096.0,-0.00757988914847374
4608.0,-0.001183872576802969
5120.0,-0.002551644342020154
5632.0,-0.0012421164428815246
6144.0,0.003955992870032787
6656.0,0.0025000458117574453
7168.0,-0.008804608136415482
7680.0,-0.016339536756277084
8192.0,-0.013383729383349419
end
