version,3.0
numOfCh,1
type,point
parent_name,34766_0dot1-0dot1
ch_type,1_1
kcount,1
numberNandB,1
brightnessNandB,1
carpet pos,0
pc,0
Time (ms),CH1 Auto-Correlation
1.0,0.052647970616817474
2.0,0.05203777179121971
3.0,0.051496684551239014
4.0,0.05097009241580963
5.0,0.050460658967494965
6.0,0.049981486052274704
7.0,0.049514055252075195
8.0,0.04906774312257767
9.0,0.04862421378493309
10.0,0.048203129321336746
11.0,0.04780421033501625
12.0,0.04741259291768074
13.0,0.04701171815395355
14.0,0.04662233963608742
15.0,0.0462559349834919
16.0,0.04589903727173805
18.0,0.045219313353300095
20.0,0.04458163306117058
22.0,0.04395660012960434
24.0,0.04332650080323219
26.0,0.042679157108068466
28.0,0.04204285144805908
30.0,0.041400931775569916
32.0,0.04078070819377899
36.0,0.039492085576057434
40.0,0.03827150538563728
44.0,0.03703984245657921
48.0,0.03599358722567558
52.0,0.034972451627254486
56.0,0.03398366644978523
60.0,0.033047113567590714
64.0,0.03214100003242493
72.0,0.03035433404147625
80.0,0.028575096279382706
88.0,0.026912542060017586
96.0,0.025307651609182358
104.0,0.023854505270719528
112.0,0.022484194487333298
120.0,0.021296998485922813
128.0,0.020344417542219162
144.0,0.018719488754868507
160.0,0.01770990528166294
176.0,0.016897238790988922
192.0,0.016233447939157486
208.0,0.015205157920718193
224.0,0.013995809480547905
240.0,0.013386115431785583
256.0,0.013120654970407486
288.0,0.012382544577121735
320.0,0.008903355337679386
352.0,0.005674849264323711
384.0,0.0031921174377202988
416.0,0.0013465380761772394
448.0,0.00024967206991277635
480.0,-0.001159856328740716
512.0,-0.002323007211089134
576.0,-0.00497891241684556
640.0,-0.009062535129487514
704.0,-0.00935406144708395
768.0,-0.00864971149712801
832.0,-0.008165587671101093
896.0,-0.007277577184140682
960.0,-0.004962735343724489
1024.0,-0.0031171829905360937
1152.0,-0.003248761408030987
1280.0,0.006354278884828091
1408.0,0.007880202494561672
1536.0,0.008021250367164612
1664.0,0.008526471443474293
1792.0,0.007266087923198938
1920.0,0.0025146931875497103
2048.0,-0.0027019314002245665
2304.0,-0.008681489154696465
2560.0,-0.00773594481870532
2816.0,-0.0008837652858346701
3072.0,0.006897245068103075
3328.0,0.013075727969408035
3584.0,0.0016383565962314606
3840.0,-0.006148613058030605
4096.0,-0.000689314678311348
4608.0,0.006955681834369898
5120.0,-0.006868227384984493
5632.0,-0.011083959601819515
6144.0,0.004376009572297335
6656.0,-0.004658907186239958
7168.0,-0.01307501457631588
7680.0,0.01459242682904005
8192.0,0.006978215184062719
end
