version,3.0
numOfCh,1
type,point
parent_name,34766_0dot1-0dot1
ch_type,1_1
kcount,1
numberNandB,1
brightnessNandB,1
carpet pos,0
pc,0
Time (ms),CH1 Auto-Correlation
1.0,0.047639355063438416
2.0,0.047003768384456635
3.0,0.04641200974583626
4.0,0.04585275053977966
5.0,0.04532529413700104
6.0,0.04480716586112976
7.0,0.04431657865643501
8.0,0.043831951916217804
9.0,0.043373167514801025
10.0,0.04291338846087456
11.0,0.04248981550335884
12.0,0.04206991568207741
13.0,0.0416499562561512
14.0,0.041225794702768326
15.0,0.04081440716981888
16.0,0.040425267070531845
18.0,0.039626967161893845
20.0,0.03885437548160553
22.0,0.038177814334630966
24.0,0.037530045956373215
26.0,0.03687912970781326
28.0,0.03627418726682663
30.0,0.035704877227544785
32.0,0.035184022039175034
36.0,0.03416848182678223
40.0,0.03319069370627403
44.0,0.03231453523039818
48.0,0.03152583912014961
52.0,0.030771329998970032
56.0,0.03011307120323181
60.0,0.029573779553174973
64.0,0.028981201350688934
72.0,0.0278407521545887
80.0,0.02681799605488777
88.0,0.025815168395638466
96.0,0.024669842794537544
104.0,0.023260707035660744
112.0,0.02192426659166813
120.0,0.020782196894288063
128.0,0.01952604576945305
144.0,0.017636822536587715
160.0,0.016121845692396164
176.0,0.014563525095582008
192.0,0.013109558261930943
208.0,0.011640345677733421
224.0,0.010200350545346737
240.0,0.008948594331741333
256.0,0.008238643407821655
288.0,0.007788543589413166
320.0,0.0072907209396362305
352.0,0.006423886865377426
384.0,0.005399270914494991
416.0,0.0040485248900949955
448.0,0.0042687938548624516
480.0,0.005096070002764463
512.0,0.006323190405964851
576.0,0.006521544884890318
640.0,0.004503046628087759
704.0,0.002023897832259536
768.0,-0.000641393184196204
832.0,-0.0023404115345329046
896.0,-0.004036919213831425
960.0,-0.005431797821074724
1024.0,-0.005569124594330788
1152.0,-0.0011112649226561189
1280.0,0.002748748753219843
1408.0,0.0023913963232189417
1536.0,0.0015508505748584867
1664.0,-0.0013024366926401854
1792.0,-9.201846842188388e-05
1920.0,0.0008970391936600208
2048.0,-0.00089318334357813
2304.0,-0.0011911428300663829
2560.0,-0.0020901516545563936
2816.0,-0.004280801862478256
3072.0,-0.0029500911477953196
3328.0,-0.006096261087805033
3584.0,-0.005095660220831633
3840.0,-0.0010878039756789804
4096.0,-0.004280463792383671
4608.0,-0.00485673313960433
5120.0,-0.009664378128945827
5632.0,0.004157742485404015
6144.0,0.013241708278656006
6656.0,-0.005076793488115072
7168.0,-0.010760961100459099
7680.0,0.0026452364400029182
8192.0,-0.0014759349869564176
end
