version,3.0
numOfCh,1
type,point
parent_name,34766_0dot1-0dot1
ch_type,1_1
kcount,1
numberNandB,1
brightnessNandB,1
carpet pos,0
pc,0
Time (ms),CH1 Auto-Correlation
1.0,0.09359307587146759
2.0,0.09220948070287704
3.0,0.09094449877738953
4.0,0.0898280218243599
5.0,0.08870309591293335
6.0,0.08759339898824692
7.0,0.0865807980298996
8.0,0.08557887375354767
9.0,0.08463551849126816
10.0,0.08376304805278778
11.0,0.08290062844753265
12.0,0.08206947892904282
13.0,0.08126387745141983
14.0,0.0805167555809021
15.0,0.07975791394710541
16.0,0.07899817079305649
18.0,0.0777018666267395
20.0,0.0764743760228157
22.0,0.07526641339063644
24.0,0.07393641769886017
26.0,0.07274670153856277
28.0,0.07159262895584106
30.0,0.07072093337774277
32.0,0.06993687152862549
36.0,0.0685531422495842
40.0,0.06721528619527817
44.0,0.06538505107164383
48.0,0.0634816363453865
52.0,0.06182720512151718
56.0,0.060189902782440186
60.0,0.05840550363063812
64.0,0.05676295608282089
72.0,0.053905852138996124
80.0,0.051463451236486435
88.0,0.04927694797515869
96.0,0.047151509672403336
104.0,0.04543961584568024
112.0,0.04359632357954979
120.0,0.04151414707303047
128.0,0.03923242911696434
144.0,0.036264363676309586
160.0,0.034885574132204056
176.0,0.03282494470477104
192.0,0.0322352796792984
208.0,0.03272770717740059
224.0,0.03258604556322098
240.0,0.03263726457953453
256.0,0.03340134024620056
288.0,0.028143130242824554
320.0,0.023617811501026154
352.0,0.020669734105467796
384.0,0.017789702862501144
416.0,0.013523025438189507
448.0,0.010721408762037754
480.0,0.0070141092874109745
512.0,0.0036018150858581066
576.0,0.0003517786390148103
640.0,-0.001946746720932424
704.0,-0.005792027805000544
768.0,-0.008951295167207718
832.0,-0.006997863762080669
896.0,-0.009506232105195522
960.0,-0.014555685222148895
1024.0,-0.01522189099341631
1152.0,-0.0063730888068675995
1280.0,0.001223759725689888
1408.0,0.006367675960063934
1536.0,0.008971369825303555
1664.0,0.004473543260246515
1792.0,0.00800166092813015
1920.0,0.008006945252418518
2048.0,0.0038260817527770996
2304.0,-0.0017191681545227766
2560.0,-0.0018211936112493277
2816.0,-0.00579629885032773
3072.0,-0.005446271970868111
3328.0,0.002995166927576065
3584.0,0.0013725985772907734
3840.0,0.004696236923336983
4096.0,0.0034612659364938736
4608.0,-0.002228701952844858
5120.0,-0.007470787037163973
5632.0,-0.00974340457469225
6144.0,0.010650157928466797
6656.0,-0.015248384326696396
7168.0,-0.03395747020840645
7680.0,0.0054600536823272705
8192.0,0.004304131958633661
end
