version,3.0
numOfCh,1
type,point
parent_name,34766_0dot1-0dot1
ch_type,1_1
kcount,1
numberNandB,1
brightnessNandB,1
carpet pos,0
pc,0
Time (ms),CH1 Auto-Correlation
1.0,0.06804990023374557
2.0,0.06731925159692764
3.0,0.06663501262664795
4.0,0.06597086787223816
5.0,0.06532967835664749
6.0,0.06472890824079514
7.0,0.06414128094911575
8.0,0.06356687098741531
9.0,0.06299145519733429
10.0,0.062442585825920105
11.0,0.061901528388261795
12.0,0.0613788478076458
13.0,0.06086140498518944
14.0,0.06037018820643425
15.0,0.05989093333482742
16.0,0.05944015458226204
18.0,0.058526039123535156
20.0,0.057634349912405014
22.0,0.05673476681113243
24.0,0.05580642819404602
26.0,0.054934486746788025
28.0,0.054114822298288345
30.0,0.053382508456707
32.0,0.05271444469690323
36.0,0.051327116787433624
40.0,0.050069957971572876
44.0,0.04881899058818817
48.0,0.04763949289917946
52.0,0.04638488218188286
56.0,0.04508223757147789
60.0,0.043868713080883026
64.0,0.04275698587298393
72.0,0.04069223627448082
80.0,0.03878641873598099
88.0,0.037009067833423615
96.0,0.0351862795650959
104.0,0.03357302397489548
112.0,0.03204602375626564
120.0,0.030463935807347298
128.0,0.028690464794635773
144.0,0.02581445500254631
160.0,0.02315710112452507
176.0,0.02054744027554989
192.0,0.018345629796385765
208.0,0.016515936702489853
224.0,0.015875205397605896
240.0,0.015736481174826622
256.0,0.015900611877441406
288.0,0.015609798952937126
320.0,0.01608828268945217
352.0,0.016014881432056427
384.0,0.016271570697426796
416.0,0.01614960841834545
448.0,0.01633584313094616
480.0,0.015023641288280487
512.0,0.013923056423664093
576.0,0.011397281661629677
640.0,0.009444354102015495
704.0,0.008725217543542385
768.0,0.009918257594108582
832.0,0.009375706315040588
896.0,0.006904726382344961
960.0,0.005225168075412512
1024.0,0.0035162470303475857
1152.0,0.006097227800637484
1280.0,0.008531201630830765
1408.0,1.1186973097210284e-05
1536.0,-0.006211640778928995
1664.0,-0.010095995850861073
1792.0,-0.011054974049329758
1920.0,-0.0074630011804401875
2048.0,-0.009175322018563747
2304.0,-0.012028303928673267
2560.0,-0.010811388492584229
2816.0,-0.015790527686476707
3072.0,-0.018372759222984314
3328.0,-0.011293362826108932
3584.0,-0.01631355658173561
3840.0,-0.008234207518398762
4096.0,-0.005126587115228176
4608.0,0.005202202126383781
5120.0,0.004818310029804707
5632.0,0.01158691942691803
6144.0,0.011714651249349117
6656.0,0.008324197493493557
7168.0,0.002096064854413271
7680.0,-0.009716823697090149
8192.0,-0.007925031706690788
end
