version,3.0
numOfCh,1
type,point
parent_name,34766_0dot1-0dot1
ch_type,1_1
kcount,1
numberNandB,1
brightnessNandB,1
carpet pos,0
pc,0
Time (ms),CH1 Auto-Correlation
1.0,0.05054700747132301
2.0,0.05002114176750183
3.0,0.04951927810907364
4.0,0.049006205052137375
5.0,0.0484992191195488
6.0,0.047994859516620636
7.0,0.047520171850919724
8.0,0.04706275463104248
9.0,0.04663032293319702
10.0,0.04621438309550285
11.0,0.04580547288060188
12.0,0.04540340229868889
13.0,0.0450148731470108
14.0,0.04462262615561485
15.0,0.04424096643924713
16.0,0.043866731226444244
18.0,0.043141916394233704
20.0,0.04246553033590317
22.0,0.041806675493717194
24.0,0.041180320084095
26.0,0.040581654757261276
28.0,0.040014900267124176
30.0,0.039455000311136246
32.0,0.03891400992870331
36.0,0.03783712908625603
40.0,0.03683743625879288
44.0,0.035816751420497894
48.0,0.03478584066033363
52.0,0.033738888800144196
56.0,0.03272565081715584
60.0,0.03181197866797447
64.0,0.031088246032595634
72.0,0.02973349019885063
80.0,0.028311289846897125
88.0,0.027045240625739098
96.0,0.025894757360219955
104.0,0.02486562915146351
112.0,0.023799430578947067
120.0,0.022725911810994148
128.0,0.021763671189546585
144.0,0.020439699292182922
160.0,0.019275495782494545
176.0,0.017701581120491028
192.0,0.015612217597663403
208.0,0.013824705965816975
224.0,0.012596233747899532
240.0,0.011834514327347279
256.0,0.010571924038231373
288.0,0.009075267240405083
320.0,0.008335885591804981
352.0,0.006613911595195532
384.0,0.004595512058585882
416.0,0.0024279900826513767
448.0,0.00017361536447424442
480.0,-0.0013290500501170754
512.0,-0.0021152927074581385
576.0,-0.004779586102813482
640.0,-0.007832828909158707
704.0,-0.009275821968913078
768.0,-0.01000965479761362
832.0,-0.008387981913983822
896.0,-0.00554077560082078
960.0,-0.003603318240493536
1024.0,-0.0033021513372659683
1152.0,0.00014647323405370116
1280.0,0.00535790529102087
1408.0,0.006929219234734774
1536.0,0.004212261643260717
1664.0,-0.0009120979811996222
1792.0,-0.0010125533444806933
1920.0,-0.003340241266414523
2048.0,-0.007689191959798336
2304.0,-0.004733100067824125
2560.0,0.0037800061982125044
2816.0,0.009218228049576283
3072.0,0.004114415030926466
3328.0,-0.0002738895418588072
3584.0,-0.006115546450018883
3840.0,-0.002369619207456708
4096.0,0.0010582648683339357
4608.0,-0.009459976106882095
5120.0,-0.0025307785253971815
5632.0,0.007207829039543867
6144.0,-0.004650444723665714
6656.0,0.0035939132794737816
7168.0,-0.00038800056790933013
7680.0,-0.010098503902554512
8192.0,-0.002455395180732012
end
