version,3.0
numOfCh,1
type,point
parent_name,34766_0dot1-0dot1
ch_type,1_1
kcount,1
numberNandB,1
brightnessNandB,1
carpet pos,0
pc,0
Time (ms),CH1 Auto-Correlation
1.0,0.05271289870142937
2.0,0.0516614206135273
3.0,0.050681810826063156
4.0,0.049744412302970886
5.0,0.048851288855075836
6.0,0.04808638617396355
7.0,0.0473899319767952
8.0,0.04667949303984642
9.0,0.04601889103651047
10.0,0.04535920172929764
11.0,0.04472438991069794
12.0,0.04412655532360077
13.0,0.04351893067359924
14.0,0.04299759492278099
15.0,0.042579591274261475
16.0,0.04217948019504547
18.0,0.04140637814998627
20.0,0.040658220648765564
22.0,0.039840150624513626
24.0,0.03905515372753143
26.0,0.03832565248012543
28.0,0.03763518109917641
30.0,0.036915820091962814
32.0,0.03616401180624962
36.0,0.03449017554521561
40.0,0.0327497273683548
44.0,0.03129260614514351
48.0,0.030218634754419327
52.0,0.029113907366991043
56.0,0.027982309460639954
60.0,0.027132924646139145
64.0,0.02642342448234558
72.0,0.02512705884873867
80.0,0.024178745225071907
88.0,0.02352571114897728
96.0,0.022865954786539078
104.0,0.02191484533250332
112.0,0.020586496219038963
120.0,0.019554784521460533
128.0,0.018950356170535088
144.0,0.016753844916820526
160.0,0.015687551349401474
176.0,0.013873911462724209
192.0,0.013154122978448868
208.0,0.01292374636977911
224.0,0.012921852990984917
240.0,0.013142974115908146
256.0,0.012811517342925072
288.0,0.012956920079886913
320.0,0.011853896081447601
352.0,0.010373004712164402
384.0,0.0100493049249053
416.0,0.007700775749981403
448.0,0.005141970235854387
480.0,0.006817999761551619
512.0,0.008653199300169945
576.0,0.006600555498152971
640.0,0.0052404520101845264
704.0,0.0025736335664987564
768.0,0.0008208152721635997
832.0,-0.0013750409707427025
896.0,-0.0011691664112731814
960.0,-0.001915676286444068
1024.0,-0.0001460603962186724
1152.0,-0.0014311813283711672
1280.0,-0.003927228040993214
1408.0,-0.004451735410839319
1536.0,-0.00279676984064281
1664.0,-0.0019243964925408363
1792.0,-0.002403816906735301
1920.0,-0.005543855484575033
2048.0,-0.005538760684430599
2304.0,-0.007473524194210768
2560.0,-0.008323145098984241
2816.0,-0.005914720706641674
3072.0,-0.0045132446102797985
3328.0,-0.00235218764282763
3584.0,0.004375731106847525
3840.0,0.005930680315941572
4096.0,0.01123511791229248
4608.0,0.007412459701299667
5120.0,-0.005865694023668766
5632.0,-0.004953537601977587
6144.0,-0.008868533186614513
6656.0,-0.004489788319915533
7168.0,-0.002671644790098071
7680.0,0.010631367564201355
8192.0,0.005769339855760336
end
