version,3.0
numOfCh,1
type,point
parent_name,34766_0dot1-0dot1
ch_type,1_1
kcount,1
numberNandB,1
brightnessNandB,1
carpet pos,0
pc,0
Time (ms),CH1 Auto-Correlation
1.0,0.04765370488166809
2.0,0.04704480990767479
3.0,0.04646328464150429
4.0,0.04590162634849548
5.0,0.04534570872783661
6.0,0.04481245204806328
7.0,0.04428330063819885
8.0,0.04380626231431961
9.0,0.04333583638072014
10.0,0.042844898998737335
11.0,0.042360562831163406
12.0,0.041893236339092255
13.0,0.04147224500775337
14.0,0.04103594273328781
15.0,0.04064255580306053
16.0,0.040206801146268845
18.0,0.03940902650356293
20.0,0.03867362439632416
22.0,0.03793904930353165
24.0,0.03727336972951889
26.0,0.03665896877646446
28.0,0.03605840355157852
30.0,0.035451751202344894
32.0,0.03483552858233452
36.0,0.03367115184664726
40.0,0.0325627438724041
44.0,0.031494054943323135
48.0,0.030361004173755646
52.0,0.02919049561023712
56.0,0.028075946494936943
60.0,0.027065107598900795
64.0,0.02612105756998062
72.0,0.024034550413489342
80.0,0.021967336535453796
88.0,0.019860412925481796
96.0,0.0178785752505064
104.0,0.015955254435539246
112.0,0.014264718629419804
120.0,0.012714182026684284
128.0,0.011655350215733051
144.0,0.009999827481806278
160.0,0.007947485893964767
176.0,0.006459475960582495
192.0,0.005036055110394955
208.0,0.003995649982243776
224.0,0.0034042829647660255
240.0,0.0031039619352668524
256.0,0.003494161879643798
288.0,0.003996902145445347
320.0,0.004868237767368555
352.0,0.005831304006278515
384.0,0.006627426948398352
416.0,0.006936018820852041
448.0,0.00545073626562953
480.0,0.003884264500811696
512.0,0.002902723615989089
576.0,0.0022182597313076258
640.0,0.0015608191024512053
704.0,0.003145775757730007
768.0,0.0034416376147419214
832.0,0.003539311233907938
896.0,0.0029791223350912333
960.0,0.002710629254579544
1024.0,0.004782143048942089
1152.0,0.004779448267072439
1280.0,-0.001456414582207799
1408.0,0.00041899297502823174
1536.0,0.0055258371867239475
1664.0,0.0018037917325273156
1792.0,-0.002845254261046648
1920.0,-0.0032443830277770758
2048.0,9.854081145022064e-05
2304.0,0.0003319788374938071
2560.0,-0.0033508995547890663
2816.0,-0.004765549674630165
3072.0,-0.0013112674932926893
3328.0,0.0003127358213532716
3584.0,-0.0030201685149222612
3840.0,0.0004564823757391423
4096.0,0.00026617071125656366
4608.0,0.0036381129175424576
5120.0,0.0030818465165793896
5632.0,0.00045927579049021006
6144.0,-0.0016907623503357172
6656.0,-0.005393296014517546
7168.0,-0.004625166766345501
7680.0,-0.004792043939232826
8192.0,-0.0014484142884612083
end
