version,3.0
numOfCh,1
type,point
parent_name,34766_0dot1-0dot1
ch_type,1_1
kcount,1
numberNandB,1
brightnessNandB,1
carpet pos,0
pc,0
Time (ms),CH1 Auto-Correlation
1.0,0.04753218963742256
2.0,0.04675044119358063
3.0,0.046024974435567856
4.0,0.04537532478570938
5.0,0.04477209597826004
6.0,0.04416647553443909
7.0,0.04358377680182457
8.0,0.04302613064646721
9.0,0.04249025136232376
10.0,0.04199458286166191
11.0,0.04150302708148956
12.0,0.041014980524778366
13.0,0.0405375175178051
14.0,0.040064577013254166
15.0,0.03960229828953743
16.0,0.03917280584573746
18.0,0.038381271064281464
20.0,0.03763560205698013
22.0,0.03685910999774933
24.0,0.03609035536646843
26.0,0.03529566153883934
28.0,0.03450740873813629
30.0,0.033762577921152115
32.0,0.03305204585194588
36.0,0.03179320693016052
40.0,0.0307045616209507
44.0,0.029696565121412277
48.0,0.028682537376880646
52.0,0.027667762711644173
56.0,0.026692476123571396
60.0,0.025786573067307472
64.0,0.024893833324313164
72.0,0.022997383028268814
80.0,0.02145717851817608
88.0,0.020208604633808136
96.0,0.01926213875412941
104.0,0.018336215987801552
112.0,0.017414884641766548
120.0,0.016253435984253883
128.0,0.015009039081633091
144.0,0.012784901075065136
160.0,0.010443559847772121
176.0,0.008480147458612919
192.0,0.0067430888302624226
208.0,0.00572671415284276
224.0,0.005565444007515907
240.0,0.005361225921660662
256.0,0.005021221935749054
288.0,0.004763373639434576
320.0,0.004279852844774723
352.0,0.003523946739733219
384.0,0.003951642196625471
416.0,0.003577019087970257
448.0,0.0027672494761645794
480.0,0.0016213644994422793
512.0,-0.0007304009050130844
576.0,-0.003343811724334955
640.0,-0.0036725345999002457
704.0,-0.0019117934862151742
768.0,-0.0014657927677035332
832.0,-0.00036304700188338757
896.0,0.0005707343807443976
960.0,-0.00010965581896016374
1024.0,-0.002443504286929965
1152.0,-0.008317703381180763
1280.0,-0.011623268947005272
1408.0,-0.008603240363299847
1536.0,-0.01180396880954504
1664.0,-0.007892374880611897
1792.0,-0.003492574440315366
1920.0,-0.00023752037668600678
2048.0,-0.004669381771236658
2304.0,-0.0028305540326982737
2560.0,0.002000371925532818
2816.0,0.005699410568922758
3072.0,0.006098295096307993
3328.0,0.0071455431170761585
3584.0,0.0063638389110565186
3840.0,0.0034968985710293055
4096.0,0.0003697229840327054
4608.0,-0.007559585850685835
5120.0,-0.00466001546010375
5632.0,-0.0013732503866776824
6144.0,-0.0009438000270165503
6656.0,0.007506190799176693
7168.0,0.007955117151141167
7680.0,0.0005644701304845512
8192.0,-0.007745628245174885
end
