version,3.0
numOfCh,1
type,point
parent_name,34766_0dot1-0dot1
ch_type,1_1
kcount,1
numberNandB,1
brightnessNandB,1
carpet pos,0
pc,0
Time (ms),CH1 Auto-Correlation
1.0,0.06562498211860657
2.0,0.06509509682655334
3.0,0.06457377225160599
4.0,0.06406933814287186
5.0,0.06355992704629898
6.0,0.06307757645845413
7.0,0.06259042769670486
8.0,0.06212261691689491
9.0,0.061676666140556335
10.0,0.06123235821723938
11.0,0.060791000723838806
12.0,0.060357384383678436
13.0,0.059937626123428345
14.0,0.05952538549900055
15.0,0.059115201234817505
16.0,0.05871935188770294
18.0,0.057943977415561676
20.0,0.05716762691736221
22.0,0.056442465633153915
24.0,0.05572471395134926
26.0,0.05501679703593254
28.0,0.05431756749749184
30.0,0.05363438278436661
32.0,0.05292774364352226
36.0,0.05152575299143791
40.0,0.05017343536019325
44.0,0.04885395988821983
48.0,0.047677624970674515
52.0,0.04662880674004555
56.0,0.04558941349387169
60.0,0.044589683413505554
64.0,0.04365543648600578
72.0,0.04179726168513298
80.0,0.03991406410932541
88.0,0.038282666355371475
96.0,0.03676135465502739
104.0,0.035310048609972
112.0,0.03392304480075836
120.0,0.03275640681385994
128.0,0.03167462348937988
144.0,0.029719648882746696
160.0,0.02740403823554516
176.0,0.025131357833743095
192.0,0.02271942049264908
208.0,0.020385397598147392
224.0,0.019098958000540733
240.0,0.018769772723317146
256.0,0.018846288323402405
288.0,0.020333485677838326
320.0,0.0218668095767498
352.0,0.022640790790319443
384.0,0.022346150130033493
416.0,0.021337609738111496
448.0,0.019264671951532364
480.0,0.016453145071864128
512.0,0.013348150067031384
576.0,0.009126666001975536
640.0,0.007271382957696915
704.0,0.007742688059806824
768.0,0.008843794465065002
832.0,0.009340571239590645
896.0,0.006177051924169064
960.0,0.003085936652496457
1024.0,0.0014449481386691332
1152.0,0.004639641847461462
1280.0,0.00462173018604517
1408.0,0.0017821920337155461
1536.0,-1.7833455956406397e-07
1664.0,-0.008039448410272598
1792.0,-0.011805507354438305
1920.0,-0.007437009830027819
2048.0,-0.01055725198239088
2304.0,-0.011078733019530773
2560.0,-0.01639450155198574
2816.0,-0.01939070038497448
3072.0,-0.026338903233408928
3328.0,-0.0266994908452034
3584.0,-0.019386857748031616
3840.0,-0.01039483305066824
4096.0,-0.0034558912739157677
4608.0,0.005976355168968439
5120.0,0.010622372850775719
5632.0,0.017458096146583557
6144.0,0.01696796342730522
6656.0,0.010775359347462654
7168.0,-0.0006500390009023249
7680.0,-0.005513534415513277
8192.0,-0.00784473866224289
end
