version,3.0
numOfCh,1
type,point
parent_name,34766_0dot1-0dot1
ch_type,1_1
kcount,1
numberNandB,1
brightnessNandB,1
carpet pos,0
pc,0
Time (ms),CH1 Auto-Correlation
1.0,0.050676096230745316
2.0,0.05011288821697235
3.0,0.049577049911022186
4.0,0.04903057962656021
5.0,0.0484902523458004
6.0,0.04794599115848541
7.0,0.04742952063679695
8.0,0.04691373556852341
9.0,0.04642345756292343
10.0,0.04595780000090599
11.0,0.045498840510845184
12.0,0.04504299908876419
13.0,0.04462181776762009
14.0,0.04419895261526108
15.0,0.04378969967365265
16.0,0.04339908808469772
18.0,0.04266081005334854
20.0,0.0419723317027092
22.0,0.041346196085214615
24.0,0.04072508215904236
26.0,0.04008294641971588
28.0,0.039489805698394775
30.0,0.03893474489450455
32.0,0.03841429576277733
36.0,0.03737705945968628
40.0,0.036324646323919296
44.0,0.0353115014731884
48.0,0.03432831913232803
52.0,0.03340451046824455
56.0,0.032657772302627563
60.0,0.031978070735931396
64.0,0.03131720796227455
72.0,0.03016904555261135
80.0,0.02915865369141102
88.0,0.027982350438833237
96.0,0.02679440751671791
104.0,0.025510523468255997
112.0,0.024253886193037033
120.0,0.02323964051902294
128.0,0.02226722612977028
144.0,0.020944111049175262
160.0,0.019703378900885582
176.0,0.018059732392430305
192.0,0.016044454649090767
208.0,0.014086777344346046
224.0,0.012444959953427315
240.0,0.010946179740130901
256.0,0.009705045260488987
288.0,0.007679618429392576
320.0,0.006847932003438473
352.0,0.006689412519335747
384.0,0.00665688794106245
416.0,0.006616454571485519
448.0,0.006844443269073963
480.0,0.00676402123644948
512.0,0.007393727544695139
576.0,0.007852724753320217
640.0,0.00778561644256115
704.0,0.008689770475029945
768.0,0.00993107445538044
832.0,0.01034921407699585
896.0,0.011463803239166737
960.0,0.013788518495857716
1024.0,0.014379742555320263
1152.0,0.012059120461344719
1280.0,0.009625738486647606
1408.0,0.008265314623713493
1536.0,0.005853623617440462
1664.0,0.007864023558795452
1792.0,0.01192697323858738
1920.0,0.013433064334094524
2048.0,0.01339120976626873
2304.0,0.001508894027210772
2560.0,0.005092499777674675
2816.0,0.008012612350285053
3072.0,0.006997755263000727
3328.0,9.242562373401597e-05
3584.0,0.002350181108340621
3840.0,-8.71124429977499e-05
4096.0,4.2136678530368954e-05
4608.0,-0.00192260870244354
5120.0,0.001381107373163104
5632.0,-0.003355222288519144
6144.0,-0.0030578335281461477
6656.0,-0.00234173983335495
7168.0,-0.007503185886889696
7680.0,-0.006226575467735529
8192.0,-0.01465460006147623
end
