version,3.0
numOfCh,1
type,point
parent_name,34766_0dot1-0dot1
ch_type,1_1
kcount,1
numberNandB,1
brightnessNandB,1
carpet pos,0
pc,0
Time (ms),CH1 Auto-Correlation
1.0,0.04073016718029976
2.0,0.04015182703733444
3.0,0.039603400975465775
4.0,0.039078034460544586
5.0,0.0385628305375576
6.0,0.038056161254644394
7.0,0.03757655248045921
8.0,0.037115585058927536
9.0,0.03666919469833374
10.0,0.0362110398709774
11.0,0.03576815500855446
12.0,0.03532504662871361
13.0,0.03489308804273605
14.0,0.03446602821350098
15.0,0.03405608981847763
16.0,0.033662453293800354
18.0,0.032927852123975754
20.0,0.032213520258665085
22.0,0.03151049092411995
24.0,0.030842401087284088
26.0,0.030238168314099312
28.0,0.029671305790543556
30.0,0.029110191389918327
32.0,0.028626574203372
36.0,0.02771809697151184
40.0,0.026852190494537354
44.0,0.026100724935531616
48.0,0.025493189692497253
52.0,0.024919765070080757
56.0,0.024310963228344917
60.0,0.0237263310700655
64.0,0.023128565400838852
72.0,0.021796876564621925
80.0,0.020479807630181313
88.0,0.019424213096499443
96.0,0.018510179594159126
104.0,0.017737220972776413
112.0,0.016894616186618805
120.0,0.016143549233675003
128.0,0.01535397581756115
144.0,0.014380630105733871
160.0,0.013474137522280216
176.0,0.01259206235408783
192.0,0.012048733420670033
208.0,0.011721992865204811
224.0,0.01153732743114233
240.0,0.011340164579451084
256.0,0.01099345088005066
288.0,0.010153934359550476
320.0,0.009015541523694992
352.0,0.008623405359685421
384.0,0.009393222630023956
416.0,0.009890039451420307
448.0,0.00903383456170559
480.0,0.007271915674209595
512.0,0.005794020835310221
576.0,0.004102908540517092
640.0,0.004984051454812288
704.0,0.004841805901378393
768.0,0.004238151479512453
832.0,0.004291060380637646
896.0,0.0028261193074285984
960.0,-0.0006315772188827395
1024.0,-0.001486273598857224
1152.0,0.0007480014464817941
1280.0,0.0017724154749885201
1408.0,-0.00020768250396940857
1536.0,0.0002382885868428275
1664.0,0.0034647146239876747
1792.0,0.0020492507610470057
1920.0,0.0033333913888782263
2048.0,0.0052642058581113815
2304.0,0.005581181030720472
2560.0,0.0033209016546607018
2816.0,-0.0010464917868375778
3072.0,-0.0017231409437954426
3328.0,-0.004189853556454182
3584.0,-0.0030611823312938213
3840.0,5.928634709562175e-05
4096.0,0.002568177180364728
4608.0,0.003724921029061079
5120.0,-4.000350963906385e-05
5632.0,-0.0037444857880473137
6144.0,0.0022142992820590734
6656.0,0.003419704269617796
7168.0,-0.0015351501060649753
7680.0,-0.006751484237611294
8192.0,-0.004755883011966944
end
