version,3.0
numOfCh,1
type,point
parent_name,34766_0dot1-0dot1
ch_type,1_1
kcount,1
numberNandB,1
brightnessNandB,1
carpet pos,0
pc,0
Time (ms),CH1 Auto-Correlation
1.0,0.05187734588980675
2.0,0.051342643797397614
3.0,0.05082963779568672
4.0,0.05033039301633835
5.0,0.04985787346959114
6.0,0.0493815578520298
7.0,0.048903338611125946
8.0,0.04842839390039444
9.0,0.04799211770296097
10.0,0.04755546525120735
11.0,0.04712310805916786
12.0,0.04669320583343506
13.0,0.046292077749967575
14.0,0.045921262353658676
15.0,0.04553104192018509
16.0,0.04514459893107414
18.0,0.04440471529960632
20.0,0.04369596019387245
22.0,0.04303731769323349
24.0,0.04243551194667816
26.0,0.04184705764055252
28.0,0.04132698476314545
30.0,0.04081103950738907
32.0,0.040281180292367935
36.0,0.039273377507925034
40.0,0.038362372666597366
44.0,0.0375005379319191
48.0,0.036599673330783844
52.0,0.035643164068460464
56.0,0.03463653102517128
60.0,0.03369687497615814
64.0,0.03287774696946144
72.0,0.031208360567688942
80.0,0.02956244722008705
88.0,0.02805541828274727
96.0,0.026681790128350258
104.0,0.025329062715172768
112.0,0.023837752640247345
120.0,0.022501137107610703
128.0,0.021219700574874878
144.0,0.01922919973731041
160.0,0.017093202099204063
176.0,0.014742372557520866
192.0,0.012464583851397038
208.0,0.010794668458402157
224.0,0.01001115795224905
240.0,0.009076336398720741
256.0,0.008114634081721306
288.0,0.005936395842581987
320.0,0.0043807183392345905
352.0,0.003524098312482238
384.0,0.0018861442804336548
416.0,0.0016226139850914478
448.0,0.00033860295661725104
480.0,-0.0006361252744682133
512.0,-0.0011852601310238242
576.0,-0.0004737093113362789
640.0,0.0009631218854337931
704.0,0.0020597742404788733
768.0,0.0030285355169326067
832.0,0.0019789892248809338
896.0,0.0003200489445589483
960.0,0.0002640447055455297
1024.0,0.0022781456355005503
1152.0,0.006223311182111502
1280.0,0.008652757853269577
1408.0,0.009162669070065022
1536.0,0.006295426283031702
1664.0,0.007191871292889118
1792.0,0.010867670178413391
1920.0,0.006738843396306038
2048.0,0.0028929540421813726
2304.0,0.00022169834119267762
2560.0,-0.004717754200100899
2816.0,-0.0029455553740262985
3072.0,0.00043855796684511006
3328.0,0.0015080806333571672
3584.0,0.0045234886929392815
3840.0,-0.001422796049155295
4096.0,-0.003356574336066842
4608.0,-0.00465284613892436
5120.0,-0.005119960755109787
5632.0,-0.0009900599252432585
6144.0,-0.006530425976961851
6656.0,-0.008454826660454273
7168.0,0.0018080907175317407
7680.0,-0.005469325464218855
8192.0,-0.01104071643203497
end
