version,3.0
numOfCh,1
type,point
parent_name,34766_0dot1-0dot1
ch_type,1_1
kcount,1
numberNandB,1
brightnessNandB,1
carpet pos,0
pc,0
Time (ms),CH1 Auto-Correlation
1.0,0.14234276115894318
2.0,0.14058947563171387
3.0,0.13880649209022522
4.0,0.13718914985656738
5.0,0.13568684458732605
6.0,0.134428933262825
7.0,0.13284920156002045
8.0,0.13158351182937622
9.0,0.12997572124004364
10.0,0.1284441202878952
11.0,0.12678155303001404
12.0,0.12545934319496155
13.0,0.12390495091676712
14.0,0.12272590398788452
15.0,0.12117256224155426
16.0,0.11972769349813461
18.0,0.11500553786754608
20.0,0.11182957142591476
22.0,0.10901955515146255
24.0,0.10667645931243896
26.0,0.10436777770519257
28.0,0.10171674191951752
30.0,0.0994739681482315
32.0,0.09696600586175919
36.0,0.09152154624462128
40.0,0.08611562103033066
44.0,0.0816776305437088
48.0,0.07579926401376724
52.0,0.07016962766647339
56.0,0.06473734229803085
60.0,0.05926757678389549
64.0,0.053588662296533585
72.0,0.04366093501448631
80.0,0.03884543478488922
88.0,0.03621325641870499
96.0,0.03546926751732826
104.0,0.033961448818445206
112.0,0.03200498968362808
120.0,0.030597621574997902
128.0,0.02909446880221367
144.0,0.026082554832100868
160.0,0.02286839485168457
176.0,0.01967265084385872
192.0,0.018201114609837532
208.0,0.01772366650402546
224.0,0.01779310405254364
240.0,0.01794048584997654
256.0,0.017634736374020576
288.0,0.012825720012187958
320.0,0.008943219669163227
352.0,0.013903328217566013
384.0,0.018747609108686447
416.0,0.013475273735821247
448.0,0.012604515068233013
480.0,0.012991121038794518
512.0,0.011821082793176174
576.0,0.008712523616850376
640.0,0.01037778239697218
704.0,0.00876424927264452
768.0,0.011614533141255379
832.0,0.011955417692661285
896.0,0.0075410292483866215
960.0,0.004350627772510052
1024.0,0.0017492534825578332
1152.0,-0.0009042463498190045
1280.0,-0.004500540439039469
1408.0,-0.005904235411435366
1536.0,-0.006649380549788475
1664.0,-0.007132536731660366
1792.0,-0.008221952244639397
1920.0,-0.00734747014939785
2048.0,-0.006506823934614658
2304.0,-0.013232463039457798
2560.0,-0.0028333610389381647
2816.0,-0.005315165035426617
3072.0,-0.0044321101158857346
3328.0,-0.0011194261023774743
3584.0,0.0003397624532226473
3840.0,0.00024164932256098837
4096.0,0.007484511472284794
4608.0,0.00163738161791116
5120.0,0.007270095404237509
5632.0,0.008321522735059261
6144.0,0.0024657452013343573
6656.0,-0.0003958090383093804
7168.0,-0.00072968885069713
7680.0,0.0005384146352298558
8192.0,-0.0015667055267840624
end
