version,3.0
numOfCh,1
type,point
parent_name,34766_0dot1-0dot1
ch_type,1_1
kcount,1
numberNandB,1
brightnessNandB,1
carpet pos,0
pc,0
Time (ms),CH1 Auto-Correlation
1.0,0.04335325211286545
2.0,0.04282233864068985
3.0,0.042300861328840256
4.0,0.04179466888308525
5.0,0.0412999726831913
6.0,0.04081857204437256
7.0,0.040346939116716385
8.0,0.03989912196993828
9.0,0.03945017233490944
10.0,0.03900156542658806
11.0,0.0385458841919899
12.0,0.03809667006134987
13.0,0.03766469284892082
14.0,0.03724062442779541
15.0,0.03683089464902878
16.0,0.036428406834602356
18.0,0.03563280403614044
20.0,0.034848760813474655
22.0,0.034125689417123795
24.0,0.033436939120292664
26.0,0.03275744989514351
28.0,0.032103147357702255
30.0,0.03147760406136513
32.0,0.03086075559258461
36.0,0.02980227954685688
40.0,0.028862467035651207
44.0,0.02802390605211258
48.0,0.027208197861909866
52.0,0.026431124657392502
56.0,0.02570646069943905
60.0,0.024923330172896385
64.0,0.02418716996908188
72.0,0.022863581776618958
80.0,0.02169802226126194
88.0,0.02061670832335949
96.0,0.01974472776055336
104.0,0.01910269632935524
112.0,0.01860935054719448
120.0,0.018068013712763786
128.0,0.01746560074388981
144.0,0.016221031546592712
160.0,0.014834440313279629
176.0,0.013461732305586338
192.0,0.01228428166359663
208.0,0.011266248300671577
224.0,0.010033349506556988
240.0,0.009185582399368286
256.0,0.00907239317893982
288.0,0.007824954576790333
320.0,0.005339465569704771
352.0,0.003182779997587204
384.0,0.003385642310604453
416.0,0.003863290650770068
448.0,0.004202102776616812
480.0,0.0044252751395106316
512.0,0.004893437959253788
576.0,0.004819359630346298
640.0,0.004971859976649284
704.0,0.0035123969428241253
768.0,0.0017565498128533363
832.0,-0.00044632048229686916
896.0,-0.00043331494089215994
960.0,-0.00044890062417834997
1024.0,-0.0007428169483318925
1152.0,0.002868574345484376
1280.0,0.004720252938568592
1408.0,0.0034749514888972044
1536.0,-0.0011546880705282092
1664.0,-0.005403582938015461
1792.0,-0.003862971207126975
1920.0,-0.0024041072465479374
2048.0,-0.0018193437717854977
2304.0,-0.0010873263236135244
2560.0,-0.0027930904179811478
2816.0,-0.008231841027736664
3072.0,-0.011377216316759586
3328.0,-0.006401869468390942
3584.0,-0.0019191604806110263
3840.0,-0.0005582234007306397
4096.0,-0.0005248570814728737
4608.0,0.0034593224991112947
5120.0,0.0024705419782549143
5632.0,0.003393779741600156
6144.0,0.006786645390093327
6656.0,-0.002745650475844741
7168.0,-0.0030608430970460176
7680.0,-0.0021180773619562387
8192.0,-0.001518852193839848
end
