version,3.0
numOfCh,1
type,point
parent_name,34766_0dot1-0dot1
ch_type,1_1
kcount,1
numberNandB,1
brightnessNandB,1
carpet pos,0
pc,0
Time (ms),CH1 Auto-Correlation
1.0,0.05403216928243637
2.0,0.053497686982154846
3.0,0.05298587307333946
4.0,0.05249312147498131
5.0,0.05202515795826912
6.0,0.05154221132397652
7.0,0.051062557846307755
8.0,0.05059327185153961
9.0,0.050135597586631775
10.0,0.04968220368027687
11.0,0.04922884330153465
12.0,0.048770204186439514
13.0,0.0483340322971344
14.0,0.04792187735438347
15.0,0.047517869621515274
16.0,0.04711858555674553
18.0,0.04633850231766701
20.0,0.04556596279144287
22.0,0.04481136053800583
24.0,0.044072266668081284
26.0,0.04336658865213394
28.0,0.04266377165913582
30.0,0.04197464510798454
32.0,0.04133275896310806
36.0,0.04014299809932709
40.0,0.03906436264514923
44.0,0.0380425788462162
48.0,0.03701724857091904
52.0,0.03600768372416496
56.0,0.03506828844547272
60.0,0.03414769098162651
64.0,0.033229321241378784
72.0,0.0314265601336956
80.0,0.029778877273201942
88.0,0.028293846175074577
96.0,0.026760324835777283
104.0,0.025296790525317192
112.0,0.02417146973311901
120.0,0.02335401438176632
128.0,0.022709153592586517
144.0,0.02205386944115162
160.0,0.021638548001646996
176.0,0.021137947216629982
192.0,0.020349599421024323
208.0,0.019513588398694992
224.0,0.018893394619226456
240.0,0.018214436247944832
256.0,0.01729319989681244
288.0,0.014610156416893005
320.0,0.012780561111867428
352.0,0.012030386365950108
384.0,0.010949281044304371
416.0,0.009651185013353825
448.0,0.009713095612823963
480.0,0.009406830184161663
512.0,0.00952612143009901
576.0,0.009600812569260597
640.0,0.008700719103217125
704.0,0.006537020672112703
768.0,0.005122594069689512
832.0,0.004460377153009176
896.0,0.005120298359543085
960.0,0.007113055791705847
1024.0,0.007831141352653503
1152.0,0.008311200886964798
1280.0,0.007552755065262318
1408.0,0.008269229903817177
1536.0,0.006113029550760984
1664.0,0.004354423377662897
1792.0,0.004165316466242075
1920.0,0.0012918624561280012
2048.0,-0.0009469868964515626
2304.0,0.0019726715981960297
2560.0,0.005826463922858238
2816.0,0.005886412691324949
3072.0,0.0026557412929832935
3328.0,0.004802955314517021
3584.0,0.00554862292483449
3840.0,0.0021749527659267187
4096.0,0.002360452199354768
4608.0,-0.003947590943425894
5120.0,-0.00012488148058764637
5632.0,-0.004449506290256977
6144.0,-0.005456429906189442
6656.0,-0.0012358645908534527
7168.0,-0.006154992617666721
7680.0,-0.007605412974953651
8192.0,-0.014360778965055943
end
