version,3.0
numOfCh,1
type,point
parent_name,714af_0dot069-0dot01
ch_type,1_1
kcount,1
numberNandB,1
brightnessNandB,1
carpet pos,0
pc,0
Time (ms),CH1 Auto-Correlation
1.0,0.024163898080587387
2.0,0.023945709690451622
3.0,0.023735500872135162
4.0,0.023528624325990677
5.0,0.023326201364398003
6.0,0.023122310638427734
7.0,0.022920949384570122
8.0,0.022726498544216156
9.0,0.022536875680088997
10.0,0.02235058695077896
11.0,0.022166308015584946
12.0,0.021983610466122627
13.0,0.021802738308906555
14.0,0.02162223495543003
15.0,0.021442288532853127
16.0,0.02125990204513073
18.0,0.020906247198581696
20.0,0.020565049722790718
22.0,0.020247459411621094
24.0,0.01994926668703556
26.0,0.019657673314213753
28.0,0.019364604726433754
30.0,0.019078295677900314
32.0,0.01878354512155056
36.0,0.018189381808042526
40.0,0.017622800543904305
44.0,0.01708701066672802
48.0,0.016547542065382004
52.0,0.01603097841143608
56.0,0.015530355274677277
60.0,0.01505684107542038
64.0,0.014596641063690186
72.0,0.013746635057032108
80.0,0.013028795830905437
88.0,0.012366088107228279
96.0,0.011771751567721367
104.0,0.011232036165893078
112.0,0.010669795796275139
120.0,0.010163170285522938
128.0,0.009756394661962986
144.0,0.008891827426850796
160.0,0.008021363988518715
176.0,0.007281016558408737
192.0,0.006753199268132448
208.0,0.00634158356115222
224.0,0.006106161512434483
240.0,0.005969571880996227
256.0,0.005806588567793369
288.0,0.005778564605861902
320.0,0.005826541222631931
352.0,0.0060749053955078125
384.0,0.005936955567449331
416.0,0.006093127187341452
448.0,0.00566617026925087
480.0,0.005252208095043898
512.0,0.004895051941275597
576.0,0.005366083700209856
640.0,0.004806003533303738
704.0,0.004902048967778683
768.0,0.004388022236526012
832.0,0.0038635525852441788
896.0,0.003666822798550129
960.0,0.0044417353346943855
1024.0,0.004817538894712925
1152.0,0.002256758278235793
1280.0,0.0018425098387524486
1408.0,0.0031389237847179174
1536.0,0.0005936069646850228
1664.0,8.831265586195514e-05
1792.0,0.000436798989539966
1920.0,-0.0012831422500312328
2048.0,-2.838868385879323e-05
2304.0,0.00044811656698584557
2560.0,-0.0034754688385874033
2816.0,-0.005466484930366278
3072.0,-0.006045921240001917
3328.0,-0.005940414033830166
3584.0,-0.007135713938623667
3840.0,-0.004045439418405294
4096.0,-0.0028810445219278336
4608.0,0.0011536445235833526
5120.0,0.0013880813494324684
5632.0,0.0016506793908774853
6144.0,0.00626578601077199
6656.0,0.00851795356720686
7168.0,0.0038659945130348206
7680.0,-0.001323871547356248
8192.0,-0.006538670975714922
end
