version,3.0
numOfCh,1
type,point
parent_name,714af_0dot069-0dot01
ch_type,1_1
kcount,1
numberNandB,1
brightnessNandB,1
carpet pos,0
pc,0
Time (ms),CH1 Auto-Correlation
1.0,0.030768832191824913
2.0,0.030590707436203957
3.0,0.030414598062634468
4.0,0.030243994668126106
5.0,0.03007584810256958
6.0,0.029911650344729424
7.0,0.029750484973192215
8.0,0.0295916385948658
9.0,0.029433302581310272
10.0,0.029280204325914383
11.0,0.0291289072483778
12.0,0.028982019051909447
13.0,0.028840981423854828
14.0,0.02870103344321251
15.0,0.02856719307601452
16.0,0.02843596041202545
18.0,0.0281747505068779
20.0,0.02792448364198208
22.0,0.027673665434122086
24.0,0.027431895956397057
26.0,0.027188407257199287
28.0,0.02692989632487297
30.0,0.02667093835771084
32.0,0.026424070820212364
36.0,0.02593296766281128
40.0,0.02545670047402382
44.0,0.025010300800204277
48.0,0.02458178997039795
52.0,0.02415323443710804
56.0,0.02371583692729473
60.0,0.023292887955904007
64.0,0.02287922240793705
72.0,0.02212829701602459
80.0,0.021436437964439392
88.0,0.020831400528550148
96.0,0.020240163430571556
104.0,0.01971844956278801
112.0,0.019233761355280876
120.0,0.018782615661621094
128.0,0.018329810351133347
144.0,0.017547685652971268
160.0,0.016953174024820328
176.0,0.016372162848711014
192.0,0.01583941839635372
208.0,0.01528339646756649
224.0,0.014557601884007454
240.0,0.01368953101336956
256.0,0.01284125167876482
288.0,0.01104147732257843
320.0,0.009455391205847263
352.0,0.008090567775070667
384.0,0.007047508377581835
416.0,0.006582457106560469
448.0,0.0056769694201648235
480.0,0.004755466245114803
512.0,0.004358014091849327
576.0,0.004181707743555307
640.0,0.004592045210301876
704.0,0.005260222591459751
768.0,0.006403226405382156
832.0,0.005886157974600792
896.0,0.004953998606652021
960.0,0.0038410041015595198
1024.0,0.0025240539107471704
1152.0,0.0002595105324871838
1280.0,-0.003022132208570838
1408.0,-0.003430903423577547
1536.0,-0.001280449447222054
1664.0,0.0002272500132676214
1792.0,0.002345797372981906
1920.0,0.0013909275876358151
2048.0,-0.0003855256945826113
2304.0,-0.0020155981183052063
2560.0,-0.0002545354946050793
2816.0,-0.0002745755191426724
3072.0,-0.0009482466266490519
3328.0,-0.0013632389018312097
3584.0,-0.003053873311728239
3840.0,-0.004335738718509674
4096.0,-0.003571096109226346
4608.0,-0.0054418896324932575
5120.0,0.0022625187411904335
5632.0,-0.001233524875715375
6144.0,-0.0036686721723526716
6656.0,0.004022166132926941
7168.0,0.002643027575686574
7680.0,0.0023935148492455482
8192.0,-0.005336602218449116
end
