version,3.0
numOfCh,1
type,point
parent_name,714af_0dot069-0dot01
ch_type,1_1
kcount,1
numberNandB,1
brightnessNandB,1
carpet pos,0
pc,0
Time (ms),CH1 Auto-Correlation
1.0,0.01950305700302124
2.0,0.01930486410856247
3.0,0.019108036532998085
4.0,0.018918508663773537
5.0,0.018743054941296577
6.0,0.01857883110642433
7.0,0.018422245979309082
8.0,0.018261153250932693
9.0,0.01810302399098873
10.0,0.01794765703380108
11.0,0.017798086628317833
12.0,0.017645742744207382
13.0,0.01749023050069809
14.0,0.01733364537358284
15.0,0.017174620181322098
16.0,0.017017733305692673
18.0,0.01672358438372612
20.0,0.016441676765680313
22.0,0.01618720032274723
24.0,0.01592939719557762
26.0,0.015671050176024437
28.0,0.015412741340696812
30.0,0.015158000402152538
32.0,0.014913832768797874
36.0,0.014432605355978012
40.0,0.01394147053360939
44.0,0.013478807173669338
48.0,0.013050896115601063
52.0,0.012686353176832199
56.0,0.012324010953307152
60.0,0.011964297853410244
64.0,0.011638465337455273
72.0,0.010960683226585388
80.0,0.010211889632046223
88.0,0.009439527988433838
96.0,0.008760333992540836
104.0,0.008040149696171284
112.0,0.007336334325373173
120.0,0.006701970472931862
128.0,0.006133267655968666
144.0,0.0052428413182497025
160.0,0.00433874037116766
176.0,0.003379849949851632
192.0,0.0025588420685380697
208.0,0.0020562654826790094
224.0,0.001672731596045196
240.0,0.0014626537449657917
256.0,0.0010218549286946654
288.0,0.00040386305772699416
320.0,0.0002956136886496097
352.0,9.788948955247179e-05
384.0,0.000412178022088483
416.0,0.000940825673751533
448.0,0.0017511630430817604
480.0,0.002549551660194993
512.0,0.0029103984124958515
576.0,0.0026486539281904697
640.0,0.002707291627302766
704.0,0.0028568855486810207
768.0,0.0034607676789164543
832.0,0.0035766586661338806
896.0,0.002141892910003662
960.0,0.0011240552412346005
1024.0,0.0010840772883966565
1152.0,-0.0006720828823745251
1280.0,-0.002461243886500597
1408.0,-0.0013646286679431796
1536.0,0.002398850629106164
1664.0,0.00035614403896033764
1792.0,-0.004202527925372124
1920.0,-0.005699196830391884
2048.0,-0.0039250850677490234
2304.0,-0.00187144975643605
2560.0,-0.005564979277551174
2816.0,-0.0034720594994723797
3072.0,-0.0019298105034977198
3328.0,-0.005154767073690891
3584.0,-0.003627998987212777
3840.0,0.004235987551510334
4096.0,-0.0020492207258939743
end
