version,3.0
numOfCh,1
type,point
parent_name,714af_0dot069-0dot01
ch_type,1_1
kcount,1
numberNandB,1
brightnessNandB,1
carpet pos,0
pc,0
Time (ms),CH1 Auto-Correlation
1.0,0.02749377116560936
2.0,0.027287796139717102
3.0,0.027088670060038567
4.0,0.026895631104707718
5.0,0.02669556997716427
6.0,0.026504147797822952
7.0,0.026312801986932755
8.0,0.026120491325855255
9.0,0.02593376114964485
10.0,0.025745347142219543
11.0,0.025554906576871872
12.0,0.025364568457007408
13.0,0.025172295048832893
14.0,0.024987077340483665
15.0,0.024808431044220924
16.0,0.024628473445773125
18.0,0.02427978627383709
20.0,0.023940907791256905
22.0,0.023613177239894867
24.0,0.023296890780329704
26.0,0.02299514412879944
28.0,0.022697297856211662
30.0,0.022398505359888077
32.0,0.022103004157543182
36.0,0.021531259641051292
40.0,0.020998774096369743
44.0,0.02052130177617073
48.0,0.02008235640823841
52.0,0.01965782232582569
56.0,0.019248558208346367
60.0,0.0188290998339653
64.0,0.018394745886325836
72.0,0.017563335597515106
80.0,0.01682463102042675
88.0,0.01612943224608898
96.0,0.015473614446818829
104.0,0.014888865873217583
112.0,0.014342863112688065
120.0,0.013819616287946701
128.0,0.013308114372193813
144.0,0.012568794190883636
160.0,0.011872059665620327
176.0,0.011177638545632362
192.0,0.010398180224001408
208.0,0.00957135483622551
224.0,0.008801310323178768
240.0,0.008069761097431183
256.0,0.007531268056482077
288.0,0.006793495733290911
320.0,0.006344877183437347
352.0,0.005782784428447485
384.0,0.005242069251835346
416.0,0.0045038145035505295
448.0,0.003573748981580138
480.0,0.002653182949870825
512.0,0.002476187190040946
576.0,0.0023256519343703985
640.0,0.001347505720332265
704.0,-0.001207015011459589
768.0,-0.0028176414780318737
832.0,-0.003295373637229204
896.0,-0.0035014180466532707
960.0,-0.0032723317854106426
1024.0,-0.002966150874271989
1152.0,-0.002483634976670146
1280.0,-0.002467348938807845
1408.0,-0.002313525415956974
1536.0,-0.0017988666659221053
1664.0,-0.0010385379428043962
1792.0,-0.002142329467460513
1920.0,-0.003548604669049382
2048.0,-0.003927683457732201
2304.0,-0.0035637454129755497
2560.0,-0.002438014606013894
2816.0,0.0006239034701138735
3072.0,0.0011794369202107191
3328.0,-0.00015264654939528555
3584.0,-0.0002132122899638489
3840.0,0.0003784065484069288
4096.0,-0.0012884630123153329
4608.0,-0.0020564114674925804
5120.0,-0.0004843843635171652
5632.0,0.0005148321506567299
6144.0,0.000866709859110415
6656.0,0.0029991278424859047
7168.0,-0.0019182349788025022
7680.0,-0.004801688250154257
8192.0,-0.002802372444421053
end
