version,3.0
numOfCh,1
type,point
parent_name,714af_0dot069-0dot01
ch_type,1_1
kcount,1
numberNandB,1
brightnessNandB,1
carpet pos,0
pc,0
Time (ms),CH1 Auto-Correlation
1.0,0.02484193816781044
2.0,0.024637017399072647
3.0,0.0244315043091774
4.0,0.024226825684309006
5.0,0.024026891216635704
6.0,0.023829462006688118
7.0,0.02363312989473343
8.0,0.023439642041921616
9.0,0.023251358419656754
10.0,0.023061688989400864
11.0,0.022873686626553535
12.0,0.0226881243288517
13.0,0.02250678651034832
14.0,0.022324588149785995
15.0,0.022148173302412033
16.0,0.021973229944705963
18.0,0.021622996777296066
20.0,0.02129565179347992
22.0,0.02098699100315571
24.0,0.020689070224761963
26.0,0.020408399403095245
28.0,0.02014785446226597
30.0,0.0198935829102993
32.0,0.01964075118303299
36.0,0.0191563218832016
40.0,0.018678802996873856
44.0,0.01821400411427021
48.0,0.01777224987745285
52.0,0.017361897975206375
56.0,0.016985172405838966
60.0,0.016624221578240395
64.0,0.016283424571156502
72.0,0.01569419354200363
80.0,0.015153395012021065
88.0,0.014666398987174034
96.0,0.014180214144289494
104.0,0.01366911455988884
112.0,0.013083430007100105
120.0,0.012507242150604725
128.0,0.011934131383895874
144.0,0.010794918052852154
160.0,0.00971045158803463
176.0,0.008835144340991974
192.0,0.008035694248974323
208.0,0.007350964471697807
224.0,0.006951815914362669
240.0,0.006466398481279612
256.0,0.006067241542041302
288.0,0.005281739868223667
320.0,0.004508597310632467
352.0,0.0035621500574052334
384.0,0.00267017656005919
416.0,0.001962983049452305
448.0,0.0019366020569577813
480.0,0.002161342417821288
512.0,0.0019872335251420736
576.0,0.0013185599818825722
640.0,0.0005391211598180234
704.0,0.00036747270496562123
768.0,0.0007164842681959271
832.0,0.000418738869484514
896.0,-0.0009368276805616915
960.0,-0.0021972497925162315
1024.0,-0.0030848700553178787
1152.0,-0.0032259866129606962
1280.0,-0.003887220285832882
1408.0,-0.003324099350720644
1536.0,-0.0018893762025982141
1664.0,0.0002051415794994682
1792.0,0.000957295298576355
1920.0,-0.0005912833730690181
2048.0,-0.0011758037144318223
2304.0,0.0006656315526925027
2560.0,0.0007055187597870827
2816.0,0.0022200210951268673
3072.0,0.001347981160506606
3328.0,0.0017863573739305139
3584.0,0.003153397236019373
3840.0,-0.0002358187921345234
4096.0,0.0021734086330980062
4608.0,0.00027889214106835425
5120.0,0.002320333383977413
5632.0,-0.003772868076339364
6144.0,-0.006255331449210644
6656.0,-0.0019372721435502172
7168.0,0.0032385324593633413
7680.0,0.002412219066172838
8192.0,-0.007174792233854532
end
