version,3.0
numOfCh,1
type,point
parent_name,714af_0dot069-0dot01
ch_type,1_1
kcount,1
numberNandB,1
brightnessNandB,1
carpet pos,0
pc,0
Time (ms),CH1 Auto-Correlation
1.0,0.027092220261693
2.0,0.026906276121735573
3.0,0.026725422590970993
4.0,0.026549527421593666
5.0,0.026377953588962555
6.0,0.02620793506503105
7.0,0.026037048548460007
8.0,0.025872426107525826
9.0,0.02570836804807186
10.0,0.025539470836520195
11.0,0.025372596457600594
12.0,0.02520807646214962
13.0,0.025042403489351273
14.0,0.024875864386558533
15.0,0.02470872923731804
16.0,0.02454327791929245
18.0,0.024213671684265137
20.0,0.023889118805527687
22.0,0.023574544116854668
24.0,0.02326567843556404
26.0,0.02296406403183937
28.0,0.022665228694677353
30.0,0.022363709285855293
32.0,0.022073732689023018
36.0,0.02154126949608326
40.0,0.021028609946370125
44.0,0.02054039016366005
48.0,0.020077545195817947
52.0,0.01964973285794258
56.0,0.01923294924199581
60.0,0.018822424113750458
64.0,0.018418096005916595
72.0,0.01765887625515461
80.0,0.016949662938714027
88.0,0.016255633905529976
96.0,0.015605837106704712
104.0,0.015085031278431416
112.0,0.014611923135817051
120.0,0.014185900799930096
128.0,0.013799159787595272
144.0,0.013122014701366425
160.0,0.012433827854692936
176.0,0.011848230846226215
192.0,0.011485802941024303
208.0,0.011123310774564743
224.0,0.010756032541394234
240.0,0.01052896585315466
256.0,0.010464133694767952
288.0,0.01032280083745718
320.0,0.010157686658203602
352.0,0.010001109912991524
384.0,0.009687736630439758
416.0,0.009380275383591652
448.0,0.009171617217361927
480.0,0.00917040091007948
512.0,0.009231874719262123
576.0,0.008527535945177078
640.0,0.0074254292994737625
704.0,0.006123047787696123
768.0,0.00516753364354372
832.0,0.005842271260917187
896.0,0.006220268085598946
960.0,0.005713131744414568
1024.0,0.004552720580250025
1152.0,0.003505035536363721
1280.0,0.0030465906020253897
1408.0,0.0017829836579039693
1536.0,0.0009821148123592138
1664.0,1.6514843082404695e-05
1792.0,-0.0012121471809223294
1920.0,-0.0009211376891471446
2048.0,0.00020824492094106972
2304.0,0.00027011852944269776
2560.0,-0.0018951023230329156
2816.0,-0.004051229916512966
3072.0,-0.005118382629007101
3328.0,-0.00406115036457777
3584.0,-0.00460070138797164
3840.0,-0.003473668359220028
4096.0,-0.0036320697981864214
4608.0,0.0008011687314137816
5120.0,-0.0006314686615951359
5632.0,-0.0011963533470407128
6144.0,-0.0032789725810289383
6656.0,-0.007934961467981339
7168.0,-0.00792561937123537
7680.0,-0.006102238316088915
8192.0,-0.002822819398716092
end
