version,3.0
numOfCh,1
type,point
parent_name,714af_0dot069-0dot01
ch_type,1_1
kcount,1
numberNandB,1
brightnessNandB,1
carpet pos,0
pc,0
Time (ms),CH1 Auto-Correlation
1.0,0.02462082728743553
2.0,0.02442065067589283
3.0,0.024220779538154602
4.0,0.02402437850832939
5.0,0.023836934939026833
6.0,0.0236519705504179
7.0,0.023474195972085
8.0,0.023299800232052803
9.0,0.023129910230636597
10.0,0.02295878157019615
11.0,0.02278974838554859
12.0,0.02262483909726143
13.0,0.022462384775280952
14.0,0.02230563387274742
15.0,0.022156784310936928
16.0,0.022009441629052162
18.0,0.021726438775658607
20.0,0.02145109698176384
22.0,0.021191377192735672
24.0,0.02094171568751335
26.0,0.020702119916677475
28.0,0.020459860563278198
30.0,0.02021915465593338
32.0,0.01997736282646656
36.0,0.019514836370944977
40.0,0.01907464861869812
44.0,0.018640438094735146
48.0,0.0181976817548275
52.0,0.017744846642017365
56.0,0.017294447869062424
60.0,0.016860567033290863
64.0,0.016423387452960014
72.0,0.015566790476441383
80.0,0.014711202122271061
88.0,0.01387517899274826
96.0,0.013075470924377441
104.0,0.012329388409852982
112.0,0.011600535362958908
120.0,0.010846609249711037
128.0,0.010043242946267128
144.0,0.008615106344223022
160.0,0.0076351771131157875
176.0,0.0070701176300644875
192.0,0.0065465993247926235
208.0,0.00607666838914156
224.0,0.005812179762870073
240.0,0.005629270803183317
256.0,0.005574134178459644
288.0,0.005396836902946234
320.0,0.005250684916973114
352.0,0.004873506259173155
384.0,0.004162727855145931
416.0,0.0034780732821673155
448.0,0.0026139277033507824
480.0,0.0019033999415114522
512.0,0.001281601027585566
576.0,0.00020716944709420204
640.0,-0.0008819852373562753
704.0,-0.0021718747448176146
768.0,-0.002887031529098749
832.0,-0.002356167882680893
896.0,-0.002479156479239464
960.0,-0.0028003354091197252
1024.0,-0.002428039675578475
1152.0,-0.0016461507184430957
1280.0,-0.0014691493706777692
1408.0,0.00037817723932676017
1536.0,-0.0006248588324524462
1664.0,-0.00015744889969937503
1792.0,0.0007122402312234044
1920.0,-0.00015578189049847424
2048.0,2.1011954231653363e-05
2304.0,0.0011721469927579165
2560.0,0.003910955507308245
2816.0,0.004241384100168943
3072.0,0.0005408207653090358
3328.0,-0.0021133676636964083
3584.0,-0.002510968130081892
3840.0,-0.0022633392363786697
4096.0,0.00044211489148437977
4608.0,0.0008925723959691823
5120.0,-0.0019973863381892443
5632.0,-0.00022077401808928698
6144.0,-0.0001309760846197605
6656.0,0.0012419810518622398
7168.0,-0.0013708476908504963
7680.0,-0.0020770321134477854
8192.0,-0.0002692581620067358
end
