version,3.0
numOfCh,1
type,point
parent_name,714af_0dot069-0dot01
ch_type,1_1
kcount,1
numberNandB,1
brightnessNandB,1
carpet pos,0
pc,0
Time (ms),CH1 Auto-Correlation
1.0,0.040292415767908096
2.0,0.04006010293960571
3.0,0.039833832532167435
4.0,0.03960849344730377
5.0,0.03937792405486107
6.0,0.039147231727838516
7.0,0.0389244481921196
8.0,0.03869687393307686
9.0,0.038475535809993744
10.0,0.03825864940881729
11.0,0.03803684934973717
12.0,0.03781736642122269
13.0,0.037598419934511185
14.0,0.037383999675512314
15.0,0.03717270866036415
16.0,0.036968547850847244
18.0,0.03655749931931496
20.0,0.03615564480423927
22.0,0.035776469856500626
24.0,0.0353965200483799
26.0,0.03501848503947258
28.0,0.034632083028554916
30.0,0.034237828105688095
32.0,0.03385365009307861
36.0,0.033091407269239426
40.0,0.03240887075662613
44.0,0.03182043507695198
48.0,0.03124770149588585
52.0,0.030691560357809067
56.0,0.03014083206653595
60.0,0.029619036242365837
64.0,0.029157141223549843
72.0,0.028370287269353867
80.0,0.027664748951792717
88.0,0.027142774313688278
96.0,0.02686568908393383
104.0,0.02671210840344429
112.0,0.026566430926322937
120.0,0.02637455053627491
128.0,0.026141203939914703
144.0,0.02527901530265808
160.0,0.024386465549468994
176.0,0.02351248264312744
192.0,0.02267460711300373
208.0,0.0219512190669775
224.0,0.021432455629110336
240.0,0.02093425951898098
256.0,0.020313778892159462
288.0,0.01942252181470394
320.0,0.01829778216779232
352.0,0.01633724942803383
384.0,0.014236696995794773
416.0,0.012424345128238201
448.0,0.011430572718381882
480.0,0.010370561853051186
512.0,0.009619343094527721
576.0,0.007556569296866655
640.0,0.00464145140722394
704.0,0.002027374692261219
768.0,0.0005011672619730234
832.0,0.0002590743824839592
896.0,5.0929411372635514e-05
960.0,-0.0019224974093958735
1024.0,-0.002471251878887415
1152.0,-0.0023725552018731833
1280.0,-0.005350572522729635
1408.0,-0.006784883327782154
1536.0,-0.007976382970809937
1664.0,-0.008424986153841019
1792.0,-0.007313974667340517
1920.0,-0.006817210465669632
2048.0,-0.003734525991603732
2304.0,-0.0018737438367679715
2560.0,-0.005380191840231419
2816.0,-0.010159315541386604
3072.0,-0.008806409314274788
3328.0,-0.005181443877518177
3584.0,-0.00173164380248636
3840.0,0.003086210461333394
4096.0,0.005656593479216099
4608.0,0.0017348859691992402
5120.0,-0.009408973157405853
5632.0,-0.011595254763960838
6144.0,-0.010868496261537075
6656.0,-0.007689049933105707
7168.0,0.0028399729635566473
7680.0,0.021957840770483017
8192.0,0.028635138645768166
end
