version,3.0
numOfCh,1
type,point
parent_name,714af_0dot069-0dot01
ch_type,1_1
kcount,1
numberNandB,1
brightnessNandB,1
carpet pos,0
pc,0
Time (ms),CH1 Auto-Correlation
1.0,0.028643585741519928
2.0,0.028443804010748863
3.0,0.028246259316802025
4.0,0.028051448985934258
5.0,0.02785665914416313
6.0,0.02766418270766735
7.0,0.02747577801346779
8.0,0.0272909477353096
9.0,0.02711154893040657
10.0,0.02693677507340908
11.0,0.026765037328004837
12.0,0.02659410797059536
13.0,0.02642466314136982
14.0,0.02626683935523033
15.0,0.02611297182738781
16.0,0.025960145518183708
18.0,0.02564728446304798
20.0,0.025344572961330414
22.0,0.02504287287592888
24.0,0.024741655215620995
26.0,0.024445274844765663
28.0,0.02415144443511963
30.0,0.02386009320616722
32.0,0.023573754355311394
36.0,0.023036034777760506
40.0,0.022537212818861008
44.0,0.022067930549383163
48.0,0.02162368968129158
52.0,0.021182190626859665
56.0,0.020751910284161568
60.0,0.020328450947999954
64.0,0.019931050017476082
72.0,0.019110433757305145
80.0,0.01827681064605713
88.0,0.01747041754424572
96.0,0.01661076210439205
104.0,0.01577955111861229
112.0,0.015010705217719078
120.0,0.014384345151484013
128.0,0.013790580444037914
144.0,0.012605275958776474
160.0,0.01160367950797081
176.0,0.010654249228537083
192.0,0.009874747134745121
208.0,0.00919080339372158
224.0,0.008634189143776894
240.0,0.008243256248533726
256.0,0.00786075834184885
288.0,0.006936567835509777
320.0,0.005994711071252823
352.0,0.005451416131108999
384.0,0.005193499848246574
416.0,0.005120820365846157
448.0,0.004864830058068037
480.0,0.004255142994225025
512.0,0.003220041049644351
576.0,0.0008352998411282897
640.0,-0.00037404996692202985
704.0,-0.0003716248320415616
768.0,0.00015849022020120174
832.0,-6.099759411881678e-05
896.0,-0.0010780628072097898
960.0,-0.0017958994721993804
1024.0,-0.0026911108288913965
1152.0,-0.0025336844846606255
1280.0,-0.0008352017030119896
1408.0,-6.506154022645205e-05
1536.0,-0.0004892196739092469
1664.0,0.0006661399966105819
1792.0,0.000697054376360029
1920.0,0.0006503170588985085
2048.0,-0.0007989754085429013
2304.0,0.001955675892531872
2560.0,0.0037334533408284187
2816.0,0.0021975410636514425
3072.0,0.0010990160517394543
3328.0,-0.0023478507064282894
3584.0,-0.00727993156760931
3840.0,-0.007991070859134197
4096.0,-0.0028637780342251062
4608.0,0.00025684459251351655
5120.0,-0.002811882644891739
5632.0,-0.003582784440368414
6144.0,-0.006028683856129646
6656.0,-0.005379336420446634
7168.0,-4.1143499402096495e-05
7680.0,0.0032478133216500282
8192.0,0.0017908767331391573
end
