version,3.0
numOfCh,1
type,point
parent_name,714af_0dot069-0dot01
ch_type,1_1
kcount,1
numberNandB,1
brightnessNandB,1
carpet pos,0
pc,0
Time (ms),CH1 Auto-Correlation
1.0,0.018515879288315773
2.0,0.018298810347914696
3.0,0.01809270679950714
4.0,0.01788789965212345
5.0,0.017682021483778954
6.0,0.017475243657827377
7.0,0.01727116107940674
8.0,0.01707703061401844
9.0,0.016888190060853958
10.0,0.01670248992741108
11.0,0.016521740704774857
12.0,0.016343997791409492
13.0,0.01617051102221012
14.0,0.016008388251066208
15.0,0.01584671437740326
16.0,0.015680905431509018
18.0,0.015354268252849579
20.0,0.015045786276459694
22.0,0.014735990203917027
24.0,0.014432575553655624
26.0,0.014131753705441952
28.0,0.013842363841831684
30.0,0.013560663908720016
32.0,0.013294458389282227
36.0,0.012811103835701942
40.0,0.012362666428089142
44.0,0.011924110352993011
48.0,0.01150395255535841
52.0,0.011091272346675396
56.0,0.010657240636646748
60.0,0.010254266671836376
64.0,0.009876026771962643
72.0,0.009182884357869625
80.0,0.008658012375235558
88.0,0.008266014978289604
96.0,0.007843337021768093
104.0,0.007444323506206274
112.0,0.007166013121604919
120.0,0.006933006923645735
128.0,0.006655222736299038
144.0,0.006501311901956797
160.0,0.006472480017691851
176.0,0.0066155497916042805
192.0,0.006848130840808153
208.0,0.00724374782294035
224.0,0.007363791577517986
240.0,0.00722826924175024
256.0,0.00684922793880105
288.0,0.005507420748472214
320.0,0.004376654513180256
352.0,0.00405897619202733
384.0,0.004162326920777559
416.0,0.004231079015880823
448.0,0.003775097895413637
480.0,0.003163812682032585
512.0,0.002705370308831334
576.0,0.002527541248127818
640.0,0.003474252298474312
704.0,0.0031698436941951513
768.0,0.0022441139444708824
832.0,0.001958010718226433
896.0,0.0007255966193042696
960.0,-0.0009421759750694036
1024.0,-0.0016064606606960297
1152.0,-0.002059594029560685
1280.0,-0.0011263041524216533
1408.0,-0.001785064465366304
1536.0,-0.0014852636959403753
1664.0,-0.0013272699434310198
1792.0,-0.0029700074810534716
1920.0,-0.0015655625611543655
2048.0,-0.0014717776793986559
2304.0,-0.0009303570841439068
2560.0,0.0008035970386117697
2816.0,0.0012042340822517872
3072.0,-0.0021262632217258215
3328.0,-0.0041892952285707
3584.0,-0.0060905953869223595
3840.0,-0.006813278421759605
4096.0,-0.004242827650159597
4608.0,-0.0012946604983881116
5120.0,0.0012499222066253424
5632.0,0.0017604430904611945
6144.0,0.0011434281477704644
6656.0,0.0003151026030536741
7168.0,0.0035689028445631266
7680.0,0.005241838749498129
8192.0,-0.0013279672712087631
end
