version,3.0
numOfCh,1
type,point
parent_name,714af_0dot069-0dot01
ch_type,1_1
kcount,1
numberNandB,1
brightnessNandB,1
carpet pos,0
pc,0
Time (ms),CH1 Auto-Correlation
1.0,0.025711942464113235
2.0,0.02549475058913231
3.0,0.025280892848968506
4.0,0.025074202567338943
5.0,0.024882052093744278
6.0,0.024689411744475365
7.0,0.024495447054505348
8.0,0.024301115423440933
9.0,0.024108225479722023
10.0,0.02391454577445984
11.0,0.023731442168354988
12.0,0.02354557253420353
13.0,0.023363186046481133
14.0,0.023189565166831017
15.0,0.02302164025604725
16.0,0.022858114913105965
18.0,0.022542783990502357
20.0,0.022240230813622475
22.0,0.021941542625427246
24.0,0.021646039560437202
26.0,0.021358072757720947
28.0,0.021089067682623863
30.0,0.020830152556300163
32.0,0.020582035183906555
36.0,0.02011948451399803
40.0,0.01967708021402359
44.0,0.01925855129957199
48.0,0.01885557547211647
52.0,0.018475454300642014
56.0,0.018077082931995392
60.0,0.017684590071439743
64.0,0.017272043973207474
72.0,0.016479017212986946
80.0,0.015796275809407234
88.0,0.015245209448039532
96.0,0.014717702753841877
104.0,0.01407315582036972
112.0,0.013471839018166065
120.0,0.01288249995559454
128.0,0.012325643561780453
144.0,0.011444012634456158
160.0,0.010652762837707996
176.0,0.009790654294192791
192.0,0.008863681927323341
208.0,0.008028105832636356
224.0,0.007368042599409819
240.0,0.006835396401584148
256.0,0.006660854443907738
288.0,0.006111766677349806
320.0,0.005495837889611721
352.0,0.00581990834325552
384.0,0.006445751059800386
416.0,0.007117172237485647
448.0,0.007042529061436653
480.0,0.00674210162833333
512.0,0.006259025074541569
576.0,0.003468291601166129
640.0,0.0009140578913502395
704.0,6.032996680005454e-07
768.0,0.0002388952998444438
832.0,0.002091758418828249
896.0,0.003437689272686839
960.0,0.0039594159461557865
1024.0,0.0031108646653592587
1152.0,0.0030972580425441265
1280.0,0.004019223153591156
1408.0,0.003829764202237129
1536.0,0.0010461397469043732
1664.0,-0.0012183577055111527
1792.0,-0.00217938213609159
1920.0,-0.0026021222583949566
2048.0,-0.0036395483184605837
2304.0,-0.0034029176458716393
2560.0,-0.005739294458180666
2816.0,-0.004472851753234863
3072.0,-0.004417888820171356
3328.0,-0.003867230610921979
3584.0,-0.005406433250755072
3840.0,-0.006439540535211563
4096.0,-0.006003521848469973
4608.0,0.00019680254627019167
5120.0,-0.002881422871723771
5632.0,-0.0019392016110941768
6144.0,0.00172101566568017
6656.0,0.0068830507807433605
7168.0,0.004760621581226587
7680.0,0.008119281381368637
8192.0,-0.011339965276420116
end
