version,3.0
numOfCh,1
type,point
parent_name,714af_0dot069-0dot01
ch_type,1_1
kcount,1
numberNandB,1
brightnessNandB,1
carpet pos,0
pc,0
Time (ms),CH1 Auto-Correlation
1.0,0.028095198795199394
2.0,0.027639612555503845
3.0,0.02718694694340229
4.0,0.026726985350251198
5.0,0.02628133073449135
6.0,0.025831393897533417
7.0,0.025408567860722542
8.0,0.02497951127588749
9.0,0.02454390563070774
10.0,0.024110477417707443
11.0,0.02369784750044346
12.0,0.023271437734365463
13.0,0.022831842303276062
14.0,0.02240085043013096
15.0,0.02198333665728569
16.0,0.021558264270424843
18.0,0.020454008132219315
20.0,0.019664378836750984
22.0,0.01933368481695652
24.0,0.01900292932987213
26.0,0.018672404810786247
28.0,0.018350230529904366
30.0,0.018046775832772255
32.0,0.01776365004479885
36.0,0.017162209376692772
40.0,0.016630448400974274
44.0,0.016139332205057144
48.0,0.015654759481549263
52.0,0.015161246992647648
56.0,0.014691773802042007
60.0,0.014257500879466534
64.0,0.013842660933732986
72.0,0.01318167895078659
80.0,0.012625494040548801
88.0,0.012052440084517002
96.0,0.011428480967879295
104.0,0.010883189737796783
112.0,0.010500017553567886
120.0,0.010185247287154198
128.0,0.009851355105638504
144.0,0.00893131922930479
160.0,0.00834179949015379
176.0,0.007565722800791264
192.0,0.006741906516253948
208.0,0.005725963041186333
224.0,0.004582215566188097
240.0,0.0037082417402416468
256.0,0.003364335745573044
288.0,0.0027543005999177694
320.0,0.0022746918257325888
352.0,0.0019986985716968775
384.0,0.002062596380710602
416.0,0.00183001602999866
448.0,0.0013793986290693283
480.0,0.0008388884016312659
512.0,0.0004774032859131694
576.0,5.171945667825639e-05
640.0,-0.000287737202597782
704.0,0.0005445002461783588
768.0,0.0022133279126137495
832.0,0.00328547740355134
896.0,0.004962974693626165
960.0,0.005098386202007532
1024.0,0.0038557352963835
1152.0,0.0032390307169407606
1280.0,0.001930638449266553
1408.0,0.0019680780824273825
1536.0,0.0009071027743630111
1664.0,0.001560891279950738
1792.0,0.002473595552146435
1920.0,0.0013829172821715474
2048.0,-0.00044181160046719015
2304.0,-0.0004565507988445461
2560.0,0.0003383822913747281
2816.0,0.001358628156594932
3072.0,1.9376826458028518e-05
3328.0,-0.001950699370354414
3584.0,-0.003169355448335409
3840.0,-0.003016191767528653
4096.0,-0.003771591931581497
4608.0,-0.002821794245392084
5120.0,-0.001985639799386263
5632.0,-0.0036736787296831608
6144.0,-0.0037686170544475317
6656.0,-0.003383397590368986
7168.0,-0.0015799913089722395
7680.0,-0.00042272344580851495
8192.0,0.001882050884887576
end
