version,3.0
numOfCh,1
type,point
parent_name,714af_0dot069-0dot01
ch_type,1_1
kcount,1
numberNandB,1
brightnessNandB,1
carpet pos,0
pc,0
Time (ms),CH1 Auto-Correlation
1.0,0.019133081659674644
2.0,0.01890675351023674
3.0,0.0186859630048275
4.0,0.018457135185599327
5.0,0.018226824700832367
6.0,0.018000371754169464
7.0,0.01778988540172577
8.0,0.017581801861524582
9.0,0.01737673208117485
10.0,0.017182568088173866
11.0,0.016991594806313515
12.0,0.016808463260531425
13.0,0.016625311225652695
14.0,0.01645541936159134
15.0,0.016291208565235138
16.0,0.016128214076161385
18.0,0.01580551266670227
20.0,0.01548680942505598
22.0,0.015169459395110607
24.0,0.014851802960038185
26.0,0.014554578810930252
28.0,0.014267576858401299
30.0,0.013997568748891354
32.0,0.013742438517510891
36.0,0.013251232914626598
40.0,0.01280712429434061
44.0,0.012424974702298641
48.0,0.01210066955536604
52.0,0.011805571615695953
56.0,0.011486713774502277
60.0,0.011154253967106342
64.0,0.010899681597948074
72.0,0.010543432086706161
80.0,0.010208585299551487
88.0,0.009919154457747936
96.0,0.009568221867084503
104.0,0.009228992275893688
112.0,0.008894156664609909
120.0,0.008539426140487194
128.0,0.008084533736109734
144.0,0.0072328513488173485
160.0,0.006786264944821596
176.0,0.006393129471689463
192.0,0.006067486945539713
208.0,0.005612176842987537
224.0,0.005145832896232605
240.0,0.00483072130009532
256.0,0.004530050326138735
288.0,0.0038697505369782448
320.0,0.0029029797296971083
352.0,0.0019906354136765003
384.0,0.0012693513417616487
416.0,0.000997884082607925
448.0,0.0008040449465624988
480.0,0.0007040621130727232
512.0,0.0011341923382133245
576.0,0.0020348650868982077
640.0,0.002676348201930523
704.0,0.0032578667160123587
768.0,0.003159820567816496
832.0,0.0017855156911537051
896.0,0.00043096323497593403
960.0,-0.0007162448018789291
1024.0,-0.0007079144706949592
1152.0,3.2706386264180765e-05
1280.0,0.0019676159135997295
1408.0,0.00342718418687582
1536.0,0.003150172298774123
1664.0,0.0005841907113790512
1792.0,0.0005252695991657674
1920.0,0.00017576872778590769
2048.0,0.0010163458064198494
2304.0,-0.00175317598041147
2560.0,-0.0010538826463744044
2816.0,0.0006012237281538546
3072.0,-0.000341224716976285
3328.0,0.00052422791486606
3584.0,-0.0005437778308987617
3840.0,-0.002396285068243742
4096.0,-0.0022151402663439512
4608.0,-0.003020934062078595
5120.0,-0.005640978924930096
5632.0,-0.0031144223175942898
6144.0,-0.0006725313141942024
6656.0,-0.004826415795832872
7168.0,-0.0015880626160651445
7680.0,0.004222190007567406
8192.0,-0.0043680183589458466
end
