version,3.0
numOfCh,1
type,point
parent_name,714af_0dot069-0dot01
ch_type,1_1
kcount,1
numberNandB,1
brightnessNandB,1
carpet pos,0
pc,0
Time (ms),CH1 Auto-Correlation
1.0,0.018027082085609436
2.0,0.017810476943850517
3.0,0.017599498853087425
4.0,0.01739439368247986
5.0,0.017192231491208076
6.0,0.01699031889438629
7.0,0.01679243892431259
8.0,0.016598744317889214
9.0,0.016400709748268127
10.0,0.016212502494454384
11.0,0.016029784455895424
12.0,0.015846777707338333
13.0,0.015667835250496864
14.0,0.015496200881898403
15.0,0.015334025956690311
16.0,0.015179055742919445
18.0,0.01487430278211832
20.0,0.014565243385732174
22.0,0.01425238698720932
24.0,0.013928010128438473
26.0,0.013604537583887577
28.0,0.013295182958245277
30.0,0.012993068434298038
32.0,0.012672770768404007
36.0,0.012053566984832287
40.0,0.011497962288558483
44.0,0.010986140929162502
48.0,0.010513792745769024
52.0,0.010038184002041817
56.0,0.009623906575143337
60.0,0.009302741847932339
64.0,0.008974749594926834
72.0,0.008265379816293716
80.0,0.007542409934103489
88.0,0.0068188197910785675
96.0,0.006329447962343693
104.0,0.005856050178408623
112.0,0.00532319862395525
120.0,0.004889124073088169
128.0,0.004414027091115713
144.0,0.003596663009375334
160.0,0.0026369914412498474
176.0,0.002007216913625598
192.0,0.001668049138970673
208.0,0.001645315787754953
224.0,0.0016569013241678476
240.0,0.0016194649506360292
256.0,0.0014611193910241127
288.0,0.0003917688736692071
320.0,-0.00029939928208477795
352.0,-0.0008013048209249973
384.0,-0.0007564718835055828
416.0,-0.0009606837993487716
448.0,-0.0007928400882519782
480.0,-0.00040644078399054706
512.0,-0.0008160289726220071
576.0,-0.002726138336583972
640.0,-0.003843854181468487
704.0,-0.002243801485747099
768.0,-0.002139848656952381
832.0,-0.0029762887861579657
896.0,-0.0034619453363120556
960.0,-0.0027258172631263733
1024.0,-0.0031859460286796093
1152.0,-0.0008994195377454162
1280.0,-0.0005644827615469694
1408.0,-0.001733694109134376
1536.0,0.0011933539062738419
1664.0,0.00022613172768615186
1792.0,-0.0017834390746429563
1920.0,0.0006520226015709341
2048.0,0.004376994911581278
2304.0,0.0014997894177213311
2560.0,-0.0001685476745478809
2816.0,-0.004605830647051334
3072.0,-0.0015421044081449509
3328.0,0.0021080917213112116
3584.0,0.0015487618511542678
3840.0,-0.0006398874102160335
4096.0,-0.001137092593125999
end
