version,3.0
numOfCh,1
type,point
parent_name,714af_0dot069-0dot01
ch_type,1_1
kcount,1
numberNandB,1
brightnessNandB,1
carpet pos,0
pc,0
Time (ms),CH1 Auto-Correlation
1.0,0.02999342791736126
2.0,0.029766447842121124
3.0,0.02954644337296486
4.0,0.029328754171729088
5.0,0.02911284752190113
6.0,0.028902221471071243
7.0,0.02868664637207985
8.0,0.02847297117114067
9.0,0.028269875794649124
10.0,0.02806866355240345
11.0,0.0278694536536932
12.0,0.02767157554626465
13.0,0.02748296409845352
14.0,0.027294490486383438
15.0,0.027104362845420837
16.0,0.02691510319709778
18.0,0.026545900851488113
20.0,0.026194628328084946
22.0,0.025857260450720787
24.0,0.025520240887999535
26.0,0.025195065885782242
28.0,0.02488645352423191
30.0,0.024589525535702705
32.0,0.024295059964060783
36.0,0.02376726269721985
40.0,0.0232993196696043
44.0,0.02286696434020996
48.0,0.022466136142611504
52.0,0.022091567516326904
56.0,0.021683229133486748
60.0,0.021278729662299156
64.0,0.02090972289443016
72.0,0.02024913765490055
80.0,0.019614320248365402
88.0,0.01903989538550377
96.0,0.018464552238583565
104.0,0.017859451472759247
112.0,0.017273545265197754
120.0,0.016714021563529968
128.0,0.016196297481656075
144.0,0.015195384621620178
160.0,0.014060204848647118
176.0,0.01309860497713089
192.0,0.01231972686946392
208.0,0.011542069725692272
224.0,0.010613885708153248
240.0,0.009721927344799042
256.0,0.008871673606336117
288.0,0.007466111797839403
320.0,0.006698338780552149
352.0,0.0061342110857367516
384.0,0.005266261287033558
416.0,0.005089557264000177
448.0,0.004891798831522465
480.0,0.005113775841891766
512.0,0.005006605293601751
576.0,0.005241951439529657
640.0,0.005374191328883171
704.0,0.0053537446074187756
768.0,0.005660167429596186
832.0,0.005723156966269016
896.0,0.005367711652070284
960.0,0.00520310178399086
1024.0,0.004633196629583836
1152.0,0.003694485407322645
1280.0,0.0029320865869522095
1408.0,0.0008797459304332733
1536.0,7.410108082694933e-05
1664.0,0.00045837584184482694
1792.0,0.000877087120898068
1920.0,-0.0003701363457366824
2048.0,-0.0018289139261469245
2304.0,-0.004948930814862251
2560.0,-0.006056356709450483
2816.0,-0.005359516479074955
3072.0,-0.004699315410107374
3328.0,-0.0009215309983119369
3584.0,0.0020022999960929155
3840.0,-0.0001725945621728897
4096.0,0.0030802697874605656
4608.0,0.0017817526822909713
5120.0,-0.0032307279761880636
5632.0,-0.005984192714095116
6144.0,-0.009003853425383568
6656.0,-0.016143085435032845
7168.0,-0.008965697139501572
7680.0,-0.004707688931375742
8192.0,0.0008548335754312575
end
