version,3.0
numOfCh,1
type,point
parent_name,714af_0dot069-0dot01
ch_type,1_1
kcount,1
numberNandB,1
brightnessNandB,1
carpet pos,0
pc,0
Time (ms),CH1 Auto-Correlation
1.0,0.022481178864836693
2.0,0.022286759689450264
3.0,0.022092759609222412
4.0,0.021907804533839226
5.0,0.021721838042140007
6.0,0.021535389125347137
7.0,0.021349402144551277
8.0,0.021167024970054626
9.0,0.02098226547241211
10.0,0.020795848220586777
11.0,0.020607227459549904
12.0,0.020418141037225723
13.0,0.0202348455786705
14.0,0.02005230262875557
15.0,0.019869593903422356
16.0,0.01969050243496895
18.0,0.019328968599438667
20.0,0.018965523689985275
22.0,0.018593665212392807
24.0,0.018219083547592163
26.0,0.017849745228886604
28.0,0.017493590712547302
30.0,0.0171598382294178
32.0,0.016833513975143433
36.0,0.01620498299598694
40.0,0.01560673676431179
44.0,0.01502254605293274
48.0,0.014456088654696941
52.0,0.013945967890322208
56.0,0.01344598364084959
60.0,0.012928973883390427
64.0,0.012416798621416092
72.0,0.011426250450313091
80.0,0.010523156262934208
88.0,0.009624721482396126
96.0,0.008785231038928032
104.0,0.008020607754588127
112.0,0.007325630635023117
120.0,0.006654074415564537
128.0,0.0060257636941969395
144.0,0.005036130081862211
160.0,0.004355992656201124
176.0,0.0038518118672072887
192.0,0.003555858274921775
208.0,0.0032150624319911003
224.0,0.0028224235866218805
240.0,0.002427501603960991
256.0,0.0021509984508156776
288.0,0.001898798975162208
320.0,0.0011853730538859963
352.0,0.0007192986086010933
384.0,0.00042128702625632286
416.0,0.0001437989849364385
448.0,-0.00031264041899703443
480.0,-0.0004405714862514287
512.0,-0.0001956098567461595
576.0,0.00027306051924824715
640.0,0.00022039448958821595
704.0,-0.00016625510761514306
768.0,-0.0013941441429778934
832.0,-0.0014245974598452449
896.0,0.0005743429064750671
960.0,0.002421034500002861
1024.0,0.0023293483536690474
1152.0,0.0006064651533961296
1280.0,-0.000897380115929991
1408.0,-0.0012053747195750475
1536.0,-0.00147607724647969
1664.0,-0.00209120474755764
1792.0,-0.004166500177234411
1920.0,-0.004383861552923918
2048.0,-0.0033484352752566338
2304.0,0.000510979734826833
2560.0,0.0008196599665097892
2816.0,-0.0029231547378003597
3072.0,-0.001617336762137711
3328.0,0.005266775842756033
3584.0,0.0036978053394705057
3840.0,0.0004295289108995348
4096.0,-0.00038035496254451573
4608.0,0.00025799594004638493
5120.0,-0.0023186993785202503
5632.0,0.0013601899845525622
6144.0,-0.0029059622902423143
6656.0,-0.0008228422957472503
7168.0,-0.00010428092355141416
7680.0,-0.0030336834024637938
8192.0,0.0018443657318130136
end
