version,3.0
numOfCh,1
type,point
parent_name,714af_0dot069-0dot01
ch_type,1_1
kcount,1
numberNandB,1
brightnessNandB,1
carpet pos,0
pc,0
Time (ms),CH1 Auto-Correlation
1.0,0.021335890516638756
2.0,0.02115078642964363
3.0,0.02096528559923172
4.0,0.020786507055163383
5.0,0.020609596744179726
6.0,0.020435409620404243
7.0,0.02026524767279625
8.0,0.020101921632885933
9.0,0.019939113408327103
10.0,0.019782552495598793
11.0,0.019625116139650345
12.0,0.01947113312780857
13.0,0.01931542344391346
14.0,0.019164524972438812
15.0,0.0190124548971653
16.0,0.01886375993490219
18.0,0.01857835054397583
20.0,0.01829778589308262
22.0,0.018018117174506187
24.0,0.017738603055477142
26.0,0.017458150163292885
28.0,0.01718352921307087
30.0,0.016914652660489082
32.0,0.016654595732688904
36.0,0.01618027128279209
40.0,0.01574832946062088
44.0,0.015340644866228104
48.0,0.014955401420593262
52.0,0.014572660438716412
56.0,0.014190084300935268
60.0,0.013810005970299244
64.0,0.013423112221062183
72.0,0.012749187648296356
80.0,0.012086124159395695
88.0,0.011432423256337643
96.0,0.010831739753484726
104.0,0.010216549970209599
112.0,0.009613275527954102
120.0,0.009095082059502602
128.0,0.00862694252282381
144.0,0.007845375686883926
160.0,0.007276289630681276
176.0,0.006885735783725977
192.0,0.006449345499277115
208.0,0.006073363125324249
224.0,0.005597281269729137
240.0,0.005185152404010296
256.0,0.004915708210319281
288.0,0.004665841814130545
320.0,0.004561778623610735
352.0,0.004751559812575579
384.0,0.004828731529414654
416.0,0.004890423268079758
448.0,0.004558257758617401
480.0,0.004342322703450918
512.0,0.0037505528889596462
576.0,0.0028120605275034904
640.0,0.002994972513988614
704.0,0.003620295552536845
768.0,0.0038965402636677027
832.0,0.004450855776667595
896.0,0.003973829094320536
960.0,0.0016993251629173756
1024.0,-2.2263055143412203e-05
1152.0,-0.0003589468833524734
1280.0,-0.001182981883175671
1408.0,-0.0013709302293136716
1536.0,-0.0008595678955316544
1664.0,-0.001970282755792141
1792.0,-0.004646757617592812
1920.0,-0.005851752124726772
2048.0,-0.005326433107256889
2304.0,-0.004135087598115206
2560.0,-0.004916535224765539
2816.0,-0.003862476907670498
3072.0,-0.003559625241905451
3328.0,-0.0010641211410984397
3584.0,0.00025715716765262187
3840.0,0.0020992315839976072
4096.0,0.00267636775970459
4608.0,0.002805648371577263
5120.0,0.0005467599839903414
5632.0,0.0007157339132390916
6144.0,-0.0018260728102177382
6656.0,-0.0021149551030248404
7168.0,-0.002325702691450715
7680.0,-0.0007791545358486474
8192.0,0.0009225870599038899
end
