version,3.0
numOfCh,1
type,point
parent_name,714af_0dot069-0dot01
ch_type,1_1
kcount,1
numberNandB,1
brightnessNandB,1
carpet pos,0
pc,0
Time (ms),CH1 Auto-Correlation
1.0,0.03556731715798378
2.0,0.035363391041755676
3.0,0.03515928238630295
4.0,0.03495444729924202
5.0,0.03475154563784599
6.0,0.034556642174720764
7.0,0.03436063602566719
8.0,0.03416989743709564
9.0,0.03398491069674492
10.0,0.03379909694194794
11.0,0.03361673653125763
12.0,0.03343869000673294
13.0,0.03326331824064255
14.0,0.033092204481363297
15.0,0.03291906416416168
16.0,0.03274563327431679
18.0,0.03241695463657379
20.0,0.03211231529712677
22.0,0.0318213552236557
24.0,0.03153359144926071
26.0,0.031242243945598602
28.0,0.030957095324993134
30.0,0.030674206092953682
32.0,0.0303926020860672
36.0,0.029803724959492683
40.0,0.029233084991574287
44.0,0.028626037761569023
48.0,0.028052791953086853
52.0,0.02752871811389923
56.0,0.027019139379262924
60.0,0.026535606011748314
64.0,0.026074284687638283
72.0,0.02511352300643921
80.0,0.0242147333920002
88.0,0.02333725430071354
96.0,0.02244490198791027
104.0,0.021503113210201263
112.0,0.020620403811335564
120.0,0.01972261629998684
128.0,0.018872404471039772
144.0,0.017308387905359268
160.0,0.01588663086295128
176.0,0.014844327233731747
192.0,0.01379377581179142
208.0,0.012875213287770748
224.0,0.012361988425254822
240.0,0.011893650516867638
256.0,0.011244167573750019
288.0,0.0104762502014637
320.0,0.010536404326558113
352.0,0.010175313800573349
384.0,0.010030164383351803
416.0,0.010212709195911884
448.0,0.010347314178943634
480.0,0.010302064009010792
512.0,0.009851079434156418
576.0,0.00919187068939209
640.0,0.008334559388458729
704.0,0.007682475261390209
768.0,0.0070224483497440815
832.0,0.006664744112640619
896.0,0.006083495914936066
960.0,0.006205824203789234
1024.0,0.0064991191029548645
1152.0,0.0068313954398036
1280.0,0.006998369935899973
1408.0,0.007989981211721897
1536.0,0.008098497055470943
1664.0,0.0052565629594028
1792.0,0.0025262620765715837
1920.0,5.89953524468001e-05
2048.0,-0.001988602802157402
2304.0,-0.0006450249929912388
2560.0,0.0021941442973911762
2816.0,-0.0013472909340634942
3072.0,0.0027522651944309473
3328.0,-0.004049905575811863
3584.0,-0.0057189990766346455
3840.0,-0.002340630628168583
4096.0,-0.00027599348686635494
4608.0,-0.0046216449700295925
5120.0,-0.013338129967451096
5632.0,-0.010218128561973572
6144.0,-0.014387250877916813
6656.0,-0.016051949933171272
7168.0,-9.555823635309935e-05
7680.0,-0.011902015656232834
8192.0,-0.014450307004153728
end
