version,3.0
numOfCh,1
type,point
parent_name,714af_0dot069-0dot01
ch_type,1_1
kcount,1
numberNandB,1
brightnessNandB,1
carpet pos,0
pc,0
Time (ms),CH1 Auto-Correlation
1.0,0.04252926632761955
2.0,0.04226179048418999
3.0,0.04199817031621933
4.0,0.041739486157894135
5.0,0.04149680957198143
6.0,0.04126298055052757
7.0,0.041032712906599045
8.0,0.04080221801996231
9.0,0.04057585448026657
10.0,0.0403648316860199
11.0,0.040159016847610474
12.0,0.039944443851709366
13.0,0.039732977747917175
14.0,0.03951325640082359
15.0,0.039294563233852386
16.0,0.03909188136458397
18.0,0.03865116089582443
20.0,0.038244135677814484
22.0,0.037833571434020996
24.0,0.037419963628053665
26.0,0.03700575977563858
28.0,0.036644112318754196
30.0,0.036313723772764206
32.0,0.035972412675619125
36.0,0.03530525416135788
40.0,0.03463112935423851
44.0,0.033970583230257034
48.0,0.03336474671959877
52.0,0.03278142958879471
56.0,0.032203372567892075
60.0,0.031578246504068375
64.0,0.030965669080615044
72.0,0.029704498127102852
80.0,0.028469538316130638
88.0,0.027304939925670624
96.0,0.02614036202430725
104.0,0.024995023384690285
112.0,0.024123502895236015
120.0,0.023539729416370392
128.0,0.022874794900417328
144.0,0.021196143701672554
160.0,0.019429108127951622
176.0,0.01759420335292816
192.0,0.01594563014805317
208.0,0.014633746817708015
224.0,0.013649404980242252
240.0,0.012704210355877876
256.0,0.01151454821228981
288.0,0.009449699893593788
320.0,0.007643451448529959
352.0,0.005684505682438612
384.0,0.00356720807030797
416.0,0.0014122427674010396
448.0,0.0006058757426217198
480.0,-0.0006661471561528742
512.0,-0.0018309784354642034
576.0,-0.00227388390339911
640.0,-0.002398656914010644
704.0,-0.0048148189671337605
768.0,-0.0057588848285377026
832.0,-0.006299210246652365
896.0,-0.0049710399471223354
960.0,-0.0033495896495878696
1024.0,-0.005134894512593746
1152.0,-0.013966832309961319
1280.0,-0.022265834733843803
1408.0,-0.021230878308415413
1536.0,-0.015754805877804756
1664.0,-0.009622297249734402
1792.0,-0.00959594827145338
1920.0,-0.002024188172072172
2048.0,0.007171690464019775
2304.0,0.008853454142808914
2560.0,0.007498264312744141
2816.0,0.0024146854411810637
3072.0,0.008984407410025597
3328.0,0.00406492967158556
3584.0,-0.013815346173942089
3840.0,-0.004117690958082676
4096.0,0.01249699853360653
end
