version,3.0
numOfCh,1
type,point
parent_name,714af_0dot069-0dot01
ch_type,1_1
kcount,1
numberNandB,1
brightnessNandB,1
carpet pos,0
pc,0
Time (ms),CH1 Auto-Correlation
1.0,0.026669293642044067
2.0,0.02647210657596588
3.0,0.02627433091402054
4.0,0.02607790380716324
5.0,0.025885891169309616
6.0,0.025701982900500298
7.0,0.025522714480757713
8.0,0.025344278663396835
9.0,0.02516895905137062
10.0,0.02499266527593136
11.0,0.024818185716867447
12.0,0.024643488228321075
13.0,0.024475842714309692
14.0,0.024311114102602005
15.0,0.024146143347024918
16.0,0.023981973528862
18.0,0.02366485446691513
20.0,0.023351017385721207
22.0,0.023048700764775276
24.0,0.022744275629520416
26.0,0.022444941103458405
28.0,0.022147634997963905
30.0,0.021857472136616707
32.0,0.021571628749370575
36.0,0.02101694792509079
40.0,0.020454807206988335
44.0,0.01992996782064438
48.0,0.019445911049842834
52.0,0.019002238288521767
56.0,0.01860366389155388
60.0,0.018221134319901466
64.0,0.01786755584180355
72.0,0.01713389717042446
80.0,0.016393190249800682
88.0,0.015719007700681686
96.0,0.01513724122196436
104.0,0.014576886780560017
112.0,0.014114147052168846
120.0,0.013711313717067242
128.0,0.013312648050487041
144.0,0.012643512338399887
160.0,0.011987686157226562
176.0,0.011174073442816734
192.0,0.010240374132990837
208.0,0.009211177937686443
224.0,0.008096297271549702
240.0,0.007142534479498863
256.0,0.006545342039316893
288.0,0.0057423789985477924
320.0,0.004817470908164978
352.0,0.004396454896777868
384.0,0.004537042696028948
416.0,0.004731934051960707
448.0,0.004449093248695135
480.0,0.004278277046978474
512.0,0.0048720864579081535
576.0,0.006010516081005335
640.0,0.006512750871479511
704.0,0.006209828890860081
768.0,0.005530363880097866
832.0,0.00430289376527071
896.0,0.002951991744339466
960.0,0.0012126624351367354
1024.0,0.00015272846212610602
1152.0,-0.0013578054495155811
1280.0,6.613600999116898e-05
1408.0,-0.00038235887768678367
1536.0,-0.002772509353235364
1664.0,-0.0036655208095908165
1792.0,-0.0017854245379567146
1920.0,0.0005657541332766414
2048.0,0.0004047136171720922
2304.0,-0.002581101143732667
2560.0,-0.0034409305080771446
2816.0,-0.002148929750546813
3072.0,-0.005389938596636057
3328.0,-0.006027501542121172
3584.0,-0.008256088942289352
3840.0,-0.008571038953959942
4096.0,-0.0077351853251457214
4608.0,-0.0025582206435501575
5120.0,0.0034222814720124006
5632.0,0.005655036307871342
6144.0,0.008967367932200432
6656.0,0.004086184315383434
7168.0,0.003852801164612174
7680.0,0.0016427312511950731
8192.0,0.0017935932846739888
end
