version,3.0
numOfCh,1
type,point
parent_name,714af_0dot069-0dot01
ch_type,1_1
kcount,1
numberNandB,1
brightnessNandB,1
carpet pos,0
pc,0
Time (ms),CH1 Auto-Correlation
1.0,0.040104787796735764
2.0,0.039906684309244156
3.0,0.03971019387245178
4.0,0.039514150470495224
5.0,0.03931841999292374
6.0,0.03912412375211716
7.0,0.038938723504543304
8.0,0.038754746317863464
9.0,0.03857818618416786
10.0,0.03840428590774536
11.0,0.03823322802782059
12.0,0.03806448355317116
13.0,0.03789826110005379
14.0,0.03773230314254761
15.0,0.03756449371576309
16.0,0.03740042448043823
18.0,0.037074390798807144
20.0,0.036755576729774475
22.0,0.036461200565099716
24.0,0.03617770969867706
26.0,0.035900164395570755
28.0,0.03561713546514511
30.0,0.03532683476805687
32.0,0.0350351445376873
36.0,0.034486107528209686
40.0,0.0339638814330101
44.0,0.03343651443719864
48.0,0.032904379069805145
52.0,0.03239881992340088
56.0,0.031923748552799225
60.0,0.03146709129214287
64.0,0.031035665422677994
72.0,0.030170312151312828
80.0,0.029318397864699364
88.0,0.02852686494588852
96.0,0.02767195925116539
104.0,0.026757994666695595
112.0,0.025871263816952705
120.0,0.025045091286301613
128.0,0.02432655356824398
144.0,0.02302817814052105
160.0,0.02193818800151348
176.0,0.021074922755360603
192.0,0.02028193138539791
208.0,0.019563430920243263
224.0,0.019089633598923683
240.0,0.018891671672463417
256.0,0.01877894625067711
288.0,0.018542513251304626
320.0,0.018275553360581398
352.0,0.017666421830654144
384.0,0.016241244971752167
416.0,0.014659189619123936
448.0,0.012972750701010227
480.0,0.011596244759857655
512.0,0.010829013772308826
576.0,0.009549384005367756
640.0,0.009137260727584362
704.0,0.009976968169212341
768.0,0.009992608800530434
832.0,0.008689068257808685
896.0,0.006655938923358917
960.0,0.006024297792464495
1024.0,0.006453520152717829
1152.0,0.006589796859771013
1280.0,0.0038664459716528654
1408.0,0.0024368776939809322
1536.0,0.003454160876572132
1664.0,0.002968468237668276
1792.0,0.004251737147569656
1920.0,0.005791625007987022
2048.0,0.0074826693162322044
2304.0,0.009485499933362007
2560.0,0.009782171808183193
2816.0,0.00673666363582015
3072.0,0.0038861497305333614
3328.0,0.0011720015900209546
3584.0,-0.0039669121615588665
3840.0,-0.005973938852548599
4096.0,-0.004567828495055437
4608.0,-0.0017660378944128752
5120.0,-0.002493521897122264
5632.0,-0.005209684371948242
6144.0,-0.009322836995124817
6656.0,-0.00694842915982008
7168.0,-0.005157974548637867
7680.0,-0.002124013612046838
8192.0,-0.010330270044505596
end
