version,3.0
numOfCh,1
type,point
parent_name,19e3e_0dot069-0dot1
ch_type,1_1
kcount,1
numberNandB,1
brightnessNandB,1
carpet pos,0
pc,0
Time (ms),CH1 Auto-Correlation
1.0,0.07950849831104279
2.0,0.07902930676937103
3.0,0.07857867330312729
4.0,0.07815428823232651
5.0,0.07773984968662262
6.0,0.07733877748250961
7.0,0.07694984972476959
8.0,0.07657723873853683
9.0,0.07619114220142365
10.0,0.07580652832984924
11.0,0.07544983178377151
12.0,0.07509363442659378
13.0,0.07474332302808762
14.0,0.07438033819198608
15.0,0.07402227073907852
16.0,0.07366060465574265
18.0,0.0729793906211853
20.0,0.07234340906143188
22.0,0.07174203544855118
24.0,0.07114281505346298
26.0,0.07057297229766846
28.0,0.07005210965871811
30.0,0.06953924894332886
32.0,0.0690118595957756
36.0,0.06791982054710388
40.0,0.06684926897287369
44.0,0.06575244665145874
48.0,0.06470051407814026
52.0,0.06368610262870789
56.0,0.06277256458997726
60.0,0.06198261305689812
64.0,0.06129486486315727
72.0,0.05987715721130371
80.0,0.05838043987751007
88.0,0.0568598136305809
96.0,0.05542236566543579
104.0,0.054173123091459274
112.0,0.0530228354036808
120.0,0.05192360654473305
128.0,0.05088808387517929
144.0,0.048507314175367355
160.0,0.0460786372423172
176.0,0.04365484416484833
192.0,0.041809793561697006
208.0,0.040353406220674515
224.0,0.03916425257921219
240.0,0.03817060589790344
256.0,0.03742477670311928
288.0,0.036989469081163406
320.0,0.03649379312992096
352.0,0.03585962951183319
384.0,0.03561081737279892
416.0,0.03438704460859299
448.0,0.031380873173475266
480.0,0.028248026967048645
512.0,0.025508057326078415
576.0,0.018894385546445847
640.0,0.014972629956901073
704.0,0.01365648116916418
768.0,0.013722971081733704
832.0,0.012109742499887943
896.0,0.00823709275573492
960.0,0.0023683886975049973
1024.0,-0.0025263167917728424
1152.0,-0.010346973314881325
1280.0,-0.014707118272781372
1408.0,-0.018626175820827484
1536.0,-0.020827842876315117
1664.0,-0.01868991181254387
1792.0,-0.021493686363101006
1920.0,-0.024773282930254936
2048.0,-0.022928843274712563
2304.0,-0.018631761893630028
2560.0,-0.012625792995095253
2816.0,-0.007109704427421093
3072.0,-0.004496045410633087
3328.0,0.004332050681114197
3584.0,0.010862745344638824
3840.0,0.013412472791969776
4096.0,0.011889645829796791
4608.0,0.013900871388614178
5120.0,0.008702794089913368
5632.0,-0.0055104210041463375
6144.0,-0.025660885497927666
6656.0,-0.031379442662000656
7168.0,-0.017322078347206116
7680.0,0.006385790649801493
8192.0,0.02886654995381832
end
