version,3.0
numOfCh,1
type,point
parent_name,19e3e_0dot069-0dot1
ch_type,1_1
kcount,1
numberNandB,1
brightnessNandB,1
carpet pos,0
pc,0
Time (ms),CH1 Auto-Correlation
1.0,0.08107133209705353
2.0,0.08058106154203415
3.0,0.08010640740394592
4.0,0.07963359355926514
5.0,0.0791688784956932
6.0,0.07870147377252579
7.0,0.07822710275650024
8.0,0.07775106281042099
9.0,0.07727790623903275
10.0,0.07682222872972488
11.0,0.07637909799814224
12.0,0.07593120634555817
13.0,0.07550106942653656
14.0,0.07507873326539993
15.0,0.07465903460979462
16.0,0.07424959540367126
18.0,0.07344510406255722
20.0,0.07263552397489548
22.0,0.07187750935554504
24.0,0.07113214582204819
26.0,0.07039853930473328
28.0,0.06967049837112427
30.0,0.06894110143184662
32.0,0.06822598725557327
36.0,0.06692104786634445
40.0,0.06561737507581711
44.0,0.06439600139856339
48.0,0.06317537277936935
52.0,0.061926595866680145
56.0,0.06077205389738083
60.0,0.05968630686402321
64.0,0.05867887660861015
72.0,0.05677075311541557
80.0,0.054997172206640244
88.0,0.05331908166408539
96.0,0.05177413672208786
104.0,0.05036285147070885
112.0,0.04913149029016495
120.0,0.04803325608372688
128.0,0.047058433294296265
144.0,0.04545615613460541
160.0,0.04393918812274933
176.0,0.042662665247917175
192.0,0.0417945496737957
208.0,0.040854450315237045
224.0,0.039992522448301315
240.0,0.039413537830114365
256.0,0.03915158659219742
288.0,0.038274601101875305
320.0,0.036690644919872284
352.0,0.034974776208400726
384.0,0.033508673310279846
416.0,0.031644221395254135
448.0,0.028255248442292213
480.0,0.02574957348406315
512.0,0.023029448464512825
576.0,0.021390119567513466
640.0,0.019553428515791893
704.0,0.014900722540915012
768.0,0.010007641278207302
832.0,0.009062855504453182
896.0,0.008943876251578331
960.0,0.008983825333416462
1024.0,0.010573945939540863
1152.0,0.005189010873436928
1280.0,0.003968145232647657
1408.0,0.0025360211730003357
1536.0,0.006484993267804384
1664.0,0.005754515063017607
1792.0,0.002883931854739785
1920.0,0.004191248212009668
2048.0,0.002132548252120614
2304.0,0.002726702019572258
2560.0,0.002845537383109331
2816.0,-0.0019270938355475664
3072.0,-0.01295914314687252
3328.0,-0.02210349775850773
3584.0,-0.0324014350771904
3840.0,-0.035972725600004196
4096.0,-0.03674401342868805
4608.0,-0.023640919476747513
5120.0,-0.01657417044043541
5632.0,-0.013909435831010342
6144.0,-0.005480076186358929
6656.0,0.0035405391827225685
7168.0,0.01009790413081646
7680.0,0.019972342997789383
8192.0,0.026134323328733444
end
