version,3.0
numOfCh,1
type,point
parent_name,19e3e_0dot069-0dot1
ch_type,1_1
kcount,1
numberNandB,1
brightnessNandB,1
carpet pos,0
pc,0
Time (ms),CH1 Auto-Correlation
1.0,0.06063258275389671
2.0,0.060127753764390945
3.0,0.0596562996506691
4.0,0.05918876454234123
5.0,0.05873258411884308
6.0,0.05830724909901619
7.0,0.057887155562639236
8.0,0.0574674978852272
9.0,0.05707171931862831
10.0,0.05669078603386879
11.0,0.05630957707762718
12.0,0.05593663826584816
13.0,0.05557075887918472
14.0,0.055199675261974335
15.0,0.05483328923583031
16.0,0.05446798726916313
18.0,0.05376451089978218
20.0,0.05308564752340317
22.0,0.05242178216576576
24.0,0.051774173974990845
26.0,0.05112788826227188
28.0,0.05048641189932823
30.0,0.04987144097685814
32.0,0.04926152154803276
36.0,0.047993116080760956
40.0,0.046783871948719025
44.0,0.045588817447423935
48.0,0.044301848858594894
52.0,0.04310714825987816
56.0,0.04198330268263817
60.0,0.04095393419265747
64.0,0.04000520333647728
72.0,0.0382661335170269
80.0,0.03681197762489319
88.0,0.03555401414632797
96.0,0.03434262424707413
104.0,0.033194005489349365
112.0,0.03213847056031227
120.0,0.03111574612557888
128.0,0.03011511266231537
144.0,0.02796771563589573
160.0,0.026050107553601265
176.0,0.02453378587961197
192.0,0.023417038843035698
208.0,0.022879697382450104
224.0,0.022603116929531097
240.0,0.022110871970653534
256.0,0.021203437820076942
288.0,0.018914591521024704
320.0,0.01714959740638733
352.0,0.015467071905732155
384.0,0.013122014701366425
416.0,0.010412531904876232
448.0,0.00841878168284893
480.0,0.007052225526422262
512.0,0.005257742945104837
576.0,0.002240759087726474
640.0,0.0007460285560227931
704.0,-0.00022396475833375007
768.0,0.0003969878889620304
832.0,-0.0011871258029714227
896.0,-0.0025400728918612003
960.0,-0.002224503317847848
1024.0,-0.004042215179651976
1152.0,-0.0049012163653969765
1280.0,-0.0026795414742082357
1408.0,-0.0019353486131876707
1536.0,0.00428979704156518
1664.0,0.009343266487121582
1792.0,0.01273093931376934
1920.0,0.01280384324491024
2048.0,0.00866441149264574
2304.0,-0.00039920976269058883
2560.0,-0.005095756147056818
2816.0,-0.0055666109547019005
3072.0,-0.00585258100181818
3328.0,-0.007581154350191355
3584.0,-0.010797074064612389
3840.0,-0.011253508739173412
4096.0,-0.0016971080331131816
4608.0,0.00393685232847929
5120.0,-0.0032178389374166727
5632.0,-0.012165588326752186
6144.0,-0.0002738908806350082
6656.0,0.0018564218189567327
7168.0,-0.014724534936249256
7680.0,-0.01195426844060421
8192.0,0.003054291708394885
end
