version,3.0
numOfCh,1
type,point
parent_name,19e3e_0dot069-0dot1
ch_type,1_1
kcount,1
numberNandB,1
brightnessNandB,1
carpet pos,0
pc,0
Time (ms),CH1 Auto-Correlation
1.0,0.04741383716464043
2.0,0.04680320620536804
3.0,0.046230655163526535
4.0,0.04566025733947754
5.0,0.04510630667209625
6.0,0.04458159953355789
7.0,0.04407669976353645
8.0,0.04356767609715462
9.0,0.04308893159031868
10.0,0.0426190122961998
11.0,0.04216841980814934
12.0,0.04174454137682915
13.0,0.04134805500507355
14.0,0.04096546024084091
15.0,0.0406000018119812
16.0,0.04025527089834213
18.0,0.03953748568892479
20.0,0.03883599862456322
22.0,0.03813667967915535
24.0,0.03746078535914421
26.0,0.036805056035518646
28.0,0.0361885204911232
30.0,0.03555861487984657
32.0,0.03496367484331131
36.0,0.033805739134550095
40.0,0.032842688262462616
44.0,0.03199971467256546
48.0,0.031160060316324234
52.0,0.030307069420814514
56.0,0.029454246163368225
60.0,0.028575902804732323
64.0,0.027816511690616608
72.0,0.026361016556620598
80.0,0.02495684288442135
88.0,0.02383335679769516
96.0,0.02291247621178627
104.0,0.022218015044927597
112.0,0.021519096568226814
120.0,0.020851682871580124
128.0,0.02025599591434002
144.0,0.018689580261707306
160.0,0.016979672014713287
176.0,0.015491224825382233
192.0,0.01453233603388071
208.0,0.01372977439314127
224.0,0.013003834523260593
240.0,0.012595928274095058
256.0,0.012331058271229267
288.0,0.011632989160716534
320.0,0.010461847297847271
352.0,0.008657412603497505
384.0,0.006815464235842228
416.0,0.005981925874948502
448.0,0.006108054891228676
480.0,0.005416213534772396
512.0,0.005136939696967602
576.0,0.006870257668197155
640.0,0.006832436192780733
704.0,0.0051722233183681965
768.0,0.0030940277501940727
832.0,0.002444575307890773
896.0,0.004133736249059439
960.0,0.001473111449740827
1024.0,-0.0002452292828820646
1152.0,-0.0017833097372204065
1280.0,-0.007067420054227114
1408.0,-0.005963530857115984
1536.0,-0.005494454875588417
1664.0,-0.004896111786365509
1792.0,-0.00607595918700099
1920.0,-0.0060261948965489864
2048.0,-0.009406480006873608
2304.0,-0.0055436184629797935
2560.0,-0.0028380630537867546
2816.0,-0.006558784283697605
3072.0,-0.0034118476323783398
3328.0,-0.0011643277248367667
3584.0,4.839034590986557e-05
3840.0,0.005627647507935762
4096.0,0.00697350176051259
4608.0,0.004975275602191687
5120.0,-0.00036311824806034565
5632.0,-0.007739019580185413
6144.0,-0.017106691375374794
6656.0,-0.011733779683709145
7168.0,-0.0006796402158215642
7680.0,0.00632576085627079
8192.0,0.011964606121182442
end
