version,3.0
numOfCh,1
type,point
parent_name,19e3e_0dot069-0dot1
ch_type,1_1
kcount,1
numberNandB,1
brightnessNandB,1
carpet pos,0
pc,0
Time (ms),CH1 Auto-Correlation
1.0,0.06899486482143402
2.0,0.06843164563179016
3.0,0.06786059588193893
4.0,0.0672716349363327
5.0,0.06669072061777115
6.0,0.06612734496593475
7.0,0.06558973342180252
8.0,0.06507055461406708
9.0,0.06458647549152374
10.0,0.06411883980035782
11.0,0.06364317983388901
12.0,0.06319690495729446
13.0,0.06274501979351044
14.0,0.062326688319444656
15.0,0.06190263479948044
16.0,0.06148765981197357
18.0,0.06067868694663048
20.0,0.05985744670033455
22.0,0.05903405323624611
24.0,0.0582057386636734
26.0,0.05742407217621803
28.0,0.05670018494129181
30.0,0.05602368339896202
32.0,0.055360034108161926
36.0,0.0539969727396965
40.0,0.05271632969379425
44.0,0.05154765024781227
48.0,0.050432074815034866
52.0,0.04929636791348457
56.0,0.04803268611431122
60.0,0.046781763434410095
64.0,0.04554329812526703
72.0,0.043563127517700195
80.0,0.04157916083931923
88.0,0.04003317654132843
96.0,0.03872440755367279
104.0,0.037714555859565735
112.0,0.03698945790529251
120.0,0.036448970437049866
128.0,0.03575342148542404
144.0,0.033742811530828476
160.0,0.032474834471940994
176.0,0.03170783445239067
192.0,0.030310655012726784
208.0,0.028041096404194832
224.0,0.025963814929127693
240.0,0.024272223934531212
256.0,0.022662019357085228
288.0,0.022027157247066498
320.0,0.021984323859214783
352.0,0.02147568203508854
384.0,0.02074749581515789
416.0,0.019644498825073242
448.0,0.019361892715096474
480.0,0.020353645086288452
512.0,0.02081877365708351
576.0,0.016917873173952103
640.0,0.013998612761497498
704.0,0.016269834712147713
768.0,0.01565733179450035
832.0,0.013799645937979221
896.0,0.013835758902132511
960.0,0.012894551269710064
1024.0,0.013215332292020321
1152.0,0.009867994114756584
1280.0,0.0053541879169642925
1408.0,0.002888009650632739
1536.0,0.005906957201659679
1664.0,0.005157569423317909
1792.0,0.008451949805021286
1920.0,0.011097784154117107
2048.0,0.008876602165400982
2304.0,0.006205278914421797
2560.0,0.009817053563892841
2816.0,0.00701445946469903
3072.0,0.011664465069770813
3328.0,0.0074974549934268
3584.0,0.0035564301069825888
3840.0,-0.0014340670313686132
4096.0,0.005210111383348703
4608.0,-3.1160022899712203e-06
5120.0,0.00013473410217557102
5632.0,-0.002183109289035201
6144.0,-0.01078522577881813
6656.0,-0.01700364053249359
7168.0,-0.007941791787743568
7680.0,-0.009455056861042976
8192.0,-0.021661408245563507
end
