version,3.0
numOfCh,1
type,point
parent_name,19e3e_0dot069-0dot1
ch_type,1_1
kcount,1
numberNandB,1
brightnessNandB,1
carpet pos,0
pc,0
Time (ms),CH1 Auto-Correlation
1.0,0.07509469985961914
2.0,0.07460030168294907
3.0,0.07409543544054031
4.0,0.07360376417636871
5.0,0.07310520857572556
6.0,0.07261666655540466
7.0,0.07213382422924042
8.0,0.07164884358644485
9.0,0.07118646800518036
10.0,0.0707145482301712
11.0,0.07025960832834244
12.0,0.06982079148292542
13.0,0.06936842948198318
14.0,0.06891827285289764
15.0,0.06846710294485092
16.0,0.06802710890769958
18.0,0.06714417785406113
20.0,0.066292904317379
22.0,0.06547953188419342
24.0,0.06468653678894043
26.0,0.06387774646282196
28.0,0.06307032704353333
30.0,0.062279097735881805
32.0,0.06150682270526886
36.0,0.060009170323610306
40.0,0.05863777548074722
44.0,0.057269368320703506
48.0,0.05598319321870804
52.0,0.0548258051276207
56.0,0.05365623161196709
60.0,0.05250649154186249
64.0,0.051392242312431335
72.0,0.049054473638534546
80.0,0.04679243639111519
88.0,0.04452550411224365
96.0,0.0426618754863739
104.0,0.04117196053266525
112.0,0.03980615735054016
120.0,0.03882576897740364
128.0,0.03798731788992882
144.0,0.036443453282117844
160.0,0.03537610545754433
176.0,0.03475245460867882
192.0,0.034345582127571106
208.0,0.033243875950574875
224.0,0.031565312296152115
240.0,0.029844533652067184
256.0,0.028216132894158363
288.0,0.024714140221476555
320.0,0.021770713850855827
352.0,0.02047804184257984
384.0,0.02049698680639267
416.0,0.021547839045524597
448.0,0.02130911685526371
480.0,0.019797183573246002
512.0,0.016962341964244843
576.0,0.012881986796855927
640.0,0.01252605952322483
704.0,0.013295910321176052
768.0,0.013154990039765835
832.0,0.013494839891791344
896.0,0.013815967366099358
960.0,0.012288480065762997
1024.0,0.009547708556056023
1152.0,0.006841531954705715
1280.0,0.0009096432477235794
1408.0,-0.0044971369206905365
1536.0,-0.00421134615316987
1664.0,0.0034212092868983746
1792.0,0.002211717888712883
1920.0,0.004560958128422499
2048.0,0.0073734852485358715
2304.0,-0.002231230027973652
2560.0,-0.008227862417697906
2816.0,-0.005848676897585392
3072.0,-0.013194197788834572
3328.0,-0.02198537439107895
3584.0,-0.018193760886788368
3840.0,-0.01270008273422718
4096.0,-0.013190917670726776
4608.0,0.004001454450190067
5120.0,0.008265102282166481
5632.0,-0.001858147094026208
6144.0,0.004549921955913305
6656.0,0.010326972231268883
7168.0,0.002002218971028924
7680.0,-0.011104159988462925
8192.0,-0.023903293535113335
end
