version,3.0
numOfCh,1
type,point
parent_name,19e3e_0dot069-0dot1
ch_type,1_1
kcount,1
numberNandB,1
brightnessNandB,1
carpet pos,0
pc,0
Time (ms),CH1 Auto-Correlation
1.0,0.047522448003292084
2.0,0.04706411063671112
3.0,0.046606261283159256
4.0,0.04615921899676323
5.0,0.04572248086333275
6.0,0.0453147366642952
7.0,0.04490745812654495
8.0,0.04450032487511635
9.0,0.044106025248765945
10.0,0.04373253509402275
11.0,0.04337030276656151
12.0,0.0430118590593338
13.0,0.042655397206544876
14.0,0.04228668287396431
15.0,0.04191616550087929
16.0,0.04157015681266785
18.0,0.040892697870731354
20.0,0.0402146615087986
22.0,0.039555441588163376
24.0,0.038937829434871674
26.0,0.03837570548057556
28.0,0.0378325954079628
30.0,0.03732706233859062
32.0,0.03684912994503975
36.0,0.03592948988080025
40.0,0.03512392193078995
44.0,0.034377213567495346
48.0,0.033607859164476395
52.0,0.03284232318401337
56.0,0.03214631602168083
60.0,0.0314139761030674
64.0,0.030730118975043297
72.0,0.02957300655543804
80.0,0.02849280647933483
88.0,0.02738833986222744
96.0,0.026289837434887886
104.0,0.025294657796621323
112.0,0.02438342571258545
120.0,0.023460064083337784
128.0,0.022607346996665
144.0,0.021132828667759895
160.0,0.019812408834695816
176.0,0.018273228779435158
192.0,0.017295697703957558
208.0,0.016264941543340683
224.0,0.015137501060962677
240.0,0.014400883577764034
256.0,0.013491897843778133
288.0,0.011469654738903046
320.0,0.009508492425084114
352.0,0.008552164770662785
384.0,0.008515127934515476
416.0,0.007707059849053621
448.0,0.006637074053287506
480.0,0.005496286787092686
512.0,0.003938667941838503
576.0,0.0032363415230065584
640.0,0.0029160254634916782
704.0,0.0017778235487639904
768.0,0.0027306622359901667
832.0,0.00234992615878582
896.0,0.0022556143812835217
960.0,0.002220294438302517
1024.0,0.001957937376573682
1152.0,0.0008135674870572984
1280.0,0.004772350192070007
1408.0,0.0066288975067436695
1536.0,0.0056586842983961105
1664.0,0.00393845047801733
1792.0,0.005203723441809416
1920.0,0.006475357338786125
2048.0,0.007811130490154028
2304.0,0.004973641596734524
2560.0,-0.0006110293907113373
2816.0,-0.005172461736947298
3072.0,-0.007636177819222212
3328.0,-0.0021573740523308516
3584.0,0.0043517909944057465
3840.0,0.005720001645386219
4096.0,0.0031369966454803944
4608.0,-0.011672050692141056
5120.0,-0.010186980478465557
5632.0,-0.010451046749949455
6144.0,-0.007699400186538696
6656.0,-0.015326577238738537
7168.0,-0.003125984687358141
7680.0,-0.0004365817876532674
8192.0,0.0003457428247202188
end
