version,3.0
numOfCh,1
type,point
parent_name,19e3e_0dot069-0dot1
ch_type,1_1
kcount,1
numberNandB,1
brightnessNandB,1
carpet pos,0
pc,0
Time (ms),CH1 Auto-Correlation
1.0,0.044882792979478836
2.0,0.04427024722099304
3.0,0.043702591210603714
4.0,0.0431690514087677
5.0,0.04263830929994583
6.0,0.042116835713386536
7.0,0.04162641614675522
8.0,0.04115733876824379
9.0,0.040701791644096375
10.0,0.04023836925625801
11.0,0.039795804768800735
12.0,0.03937242925167084
13.0,0.03893618285655975
14.0,0.03849436715245247
15.0,0.03807905688881874
16.0,0.03768157213926315
18.0,0.0368633009493351
20.0,0.03605607524514198
22.0,0.03526106849312782
24.0,0.03446104750037193
26.0,0.03370390832424164
28.0,0.03296840563416481
30.0,0.032262690365314484
32.0,0.031600940972566605
36.0,0.030439255759119987
40.0,0.02933027595281601
44.0,0.028297431766986847
48.0,0.027453670278191566
52.0,0.026651134714484215
56.0,0.025905242189764977
60.0,0.025281159207224846
64.0,0.024718984961509705
72.0,0.023373035714030266
80.0,0.02216753549873829
88.0,0.020844900980591774
96.0,0.019615570083260536
104.0,0.018520278856158257
112.0,0.01771211437880993
120.0,0.01716797798871994
128.0,0.016409583389759064
144.0,0.01495013851672411
160.0,0.013416001573204994
176.0,0.012161255814135075
192.0,0.011098316870629787
208.0,0.010243101976811886
224.0,0.009679323993623257
240.0,0.009022027254104614
256.0,0.008199443109333515
288.0,0.005711712874472141
320.0,0.0037318780086934566
352.0,0.0014054037164896727
384.0,-0.0004779855953529477
416.0,-0.001868761028163135
448.0,-0.0017492504557594657
480.0,-0.0011826634872704744
512.0,-0.001421454711817205
576.0,-0.004798984620720148
640.0,-0.004974045790731907
704.0,-0.0033181512262672186
768.0,-0.002186983358114958
832.0,9.455878898734227e-05
896.0,0.0021812820341438055
960.0,0.0031572075095027685
1024.0,0.001525073777884245
1152.0,0.0012555326102301478
1280.0,0.00012578027963172644
1408.0,-0.0013898063916713
1536.0,0.004692043177783489
1664.0,0.011839249171316624
1792.0,0.014591983519494534
1920.0,0.006164730526506901
2048.0,0.00042256503365933895
2304.0,-0.0033478327095508575
2560.0,-0.0005571917863562703
2816.0,0.0010592718608677387
3072.0,-0.0008499959367327392
3328.0,0.000310427974909544
3584.0,0.0025545659009367228
3840.0,-0.002971451496705413
4096.0,-0.003690349869430065
4608.0,0.002252271631732583
5120.0,0.001017692149616778
5632.0,-0.0028417177964001894
6144.0,-0.004041444510221481
6656.0,-0.0004051231371704489
7168.0,-0.0014813835732638836
7680.0,-0.008907039649784565
8192.0,-0.0056336731649935246
end
