version,3.0
numOfCh,1
type,point
parent_name,19e3e_0dot069-0dot1
ch_type,1_1
kcount,1
numberNandB,1
brightnessNandB,1
carpet pos,0
pc,0
Time (ms),CH1 Auto-Correlation
1.0,0.052862513810396194
2.0,0.05236321687698364
3.0,0.05188274383544922
4.0,0.051412567496299744
5.0,0.05095876753330231
6.0,0.05053313449025154
7.0,0.0501105934381485
8.0,0.04969470947980881
9.0,0.04930610582232475
10.0,0.0489085428416729
11.0,0.04851276054978371
12.0,0.048130374401807785
13.0,0.04775122553110123
14.0,0.04737318307161331
15.0,0.0470215268433094
16.0,0.04666866734623909
18.0,0.045979276299476624
20.0,0.04529007151722908
22.0,0.04460204392671585
24.0,0.04392760992050171
26.0,0.04326537251472473
28.0,0.04262499511241913
30.0,0.042007554322481155
32.0,0.04139973968267441
36.0,0.04027078300714493
40.0,0.03924993798136711
44.0,0.038257043808698654
48.0,0.037210363894701004
52.0,0.03615591302514076
56.0,0.035232964903116226
60.0,0.03435207158327103
64.0,0.033525269478559494
72.0,0.03212370723485947
80.0,0.030785206705331802
88.0,0.02929353527724743
96.0,0.027746908366680145
104.0,0.026152469217777252
112.0,0.024755191057920456
120.0,0.023492004722356796
128.0,0.022364646196365356
144.0,0.020536771044135094
160.0,0.019012821838259697
176.0,0.017443647608160973
192.0,0.016001790761947632
208.0,0.01485793013125658
224.0,0.01411355659365654
240.0,0.013326599262654781
256.0,0.01239355094730854
288.0,0.010578501038253307
320.0,0.009928573854267597
352.0,0.010258190333843231
384.0,0.010367371141910553
416.0,0.010786999017000198
448.0,0.010468099266290665
480.0,0.009389681741595268
512.0,0.008466416969895363
576.0,0.008659248240292072
640.0,0.007599835749715567
704.0,0.0069581205025315285
768.0,0.00612668227404356
832.0,0.008107805624604225
896.0,0.007534036412835121
960.0,0.007427026517689228
1024.0,0.009740428067743778
1152.0,0.010815241374075413
1280.0,0.010055062361061573
1408.0,0.007020432502031326
1536.0,0.002166680758818984
1664.0,0.0032971997279673815
1792.0,0.004573877900838852
1920.0,0.0044115278869867325
2048.0,0.005656469613313675
2304.0,-0.001039949245750904
2560.0,-0.006914688739925623
2816.0,-0.006293564103543758
3072.0,-0.007299983873963356
3328.0,-0.004165914840996265
3584.0,-0.004293318837881088
3840.0,-0.00700364587828517
4096.0,-0.0061477902345359325
4608.0,-0.003870035521686077
5120.0,-0.0017829877324402332
5632.0,0.00432803388684988
6144.0,0.0015237684128805995
6656.0,0.011307860724627972
7168.0,0.012648874893784523
7680.0,0.00819303747266531
8192.0,0.002054444281384349
end
