version,3.0
numOfCh,1
type,point
parent_name,19e3e_0dot069-0dot1
ch_type,1_1
kcount,1
numberNandB,1
brightnessNandB,1
carpet pos,0
pc,0
Time (ms),CH1 Auto-Correlation
1.0,0.05847126618027687
2.0,0.058012690395116806
3.0,0.057548947632312775
4.0,0.05710727348923683
5.0,0.056671641767024994
6.0,0.05623501166701317
7.0,0.055812545120716095
8.0,0.05539604648947716
9.0,0.054991599172353745
10.0,0.054584801197052
11.0,0.05418078601360321
12.0,0.053795021027326584
13.0,0.05338761955499649
14.0,0.0529780350625515
15.0,0.05257135257124901
16.0,0.05217861384153366
18.0,0.05141499638557434
20.0,0.050704456865787506
22.0,0.05001886934041977
24.0,0.04937734827399254
26.0,0.04874499514698982
28.0,0.048111241310834885
30.0,0.047468919306993484
32.0,0.04680928587913513
36.0,0.0455816388130188
40.0,0.04444640502333641
44.0,0.04340529441833496
48.0,0.04237094148993492
52.0,0.041417185217142105
56.0,0.040583536028862
60.0,0.03977726399898529
64.0,0.038970258086919785
72.0,0.03748290240764618
80.0,0.03626452013850212
88.0,0.03513021394610405
96.0,0.034108422696590424
104.0,0.03321535885334015
112.0,0.032516948878765106
120.0,0.0319175086915493
128.0,0.031213704496622086
144.0,0.029701106250286102
160.0,0.028069060295820236
176.0,0.02631848119199276
192.0,0.024864226579666138
208.0,0.023912258446216583
224.0,0.022654788568615913
240.0,0.02192521281540394
256.0,0.02174391783773899
288.0,0.020108070224523544
320.0,0.018822481855750084
352.0,0.017744500190019608
384.0,0.015867728739976883
416.0,0.013751796446740627
448.0,0.012564348988234997
480.0,0.011814042925834656
512.0,0.011021154001355171
576.0,0.009039564058184624
640.0,0.008819682523608208
704.0,0.010373255237936974
768.0,0.011669403873383999
832.0,0.009553969837725163
896.0,0.006889833137392998
960.0,0.00786280445754528
1024.0,0.00901072472333908
1152.0,0.009512585587799549
1280.0,0.006462154909968376
1408.0,0.008436615578830242
1536.0,0.005776780657470226
1664.0,0.0017060069367289543
1792.0,-0.0017801359063014388
1920.0,-0.006459061987698078
2048.0,-0.007678123190999031
2304.0,-0.009800695814192295
2560.0,-0.009878382086753845
2816.0,-0.009663653559982777
3072.0,-0.017401879653334618
3328.0,-0.015593240037560463
3584.0,-0.010331720113754272
3840.0,-0.011680006980895996
4096.0,-0.0072033461183309555
4608.0,-0.001351004932075739
5120.0,0.013046559877693653
5632.0,0.009336578659713268
6144.0,0.010773641057312489
6656.0,0.01072603464126587
7168.0,0.0006333064520731568
7680.0,-0.0003245975822210312
8192.0,-0.015092185698449612
end
