version,3.0
numOfCh,1
type,point
parent_name,19e3e_0dot069-0dot1
ch_type,1_1
kcount,1
numberNandB,1
brightnessNandB,1
carpet pos,0
pc,0
Time (ms),CH1 Auto-Correlation
1.0,0.052079688757658005
2.0,0.051566481590270996
3.0,0.05105121433734894
4.0,0.05052764341235161
5.0,0.0500040203332901
6.0,0.049488794058561325
7.0,0.048988692462444305
8.0,0.0485222227871418
9.0,0.04808334633708
10.0,0.04765051230788231
11.0,0.04723436012864113
12.0,0.04682234302163124
13.0,0.046406276524066925
14.0,0.04600446671247482
15.0,0.04561007767915726
16.0,0.045231252908706665
18.0,0.04448074847459793
20.0,0.04372788965702057
22.0,0.04298032447695732
24.0,0.042266104370355606
26.0,0.04159386083483696
28.0,0.040991973131895065
30.0,0.0404241569340229
32.0,0.03985321521759033
36.0,0.03867652267217636
40.0,0.037529245018959045
44.0,0.03633436560630798
48.0,0.03512758016586304
52.0,0.034045156091451645
56.0,0.0331026166677475
60.0,0.03219706937670708
64.0,0.03129097446799278
72.0,0.029658444225788116
80.0,0.028154896572232246
88.0,0.02677636779844761
96.0,0.025446565821766853
104.0,0.024242565035820007
112.0,0.02312312461435795
120.0,0.022120241075754166
128.0,0.021096793934702873
144.0,0.01892249472439289
160.0,0.017090654000639915
176.0,0.015093552879989147
192.0,0.012820669449865818
208.0,0.01140135433524847
224.0,0.010144153609871864
240.0,0.009562013670802116
256.0,0.009234033524990082
288.0,0.007835042662918568
320.0,0.007018411532044411
352.0,0.00688283471390605
384.0,0.006341659929603338
416.0,0.005645905155688524
448.0,0.004389137029647827
480.0,0.003762181382626295
512.0,0.0030599229503422976
576.0,0.0003447092021815479
640.0,-0.0002781207440420985
704.0,0.0010387157090008259
768.0,0.0038260705769062042
832.0,0.005607824772596359
896.0,0.005234074778854847
960.0,0.003819934790953994
1024.0,0.0020817203912883997
1152.0,0.0014735587174072862
1280.0,0.0035847602412104607
1408.0,0.0022498422767966986
1536.0,-0.0003507547080516815
1664.0,-0.0001237486576428637
1792.0,-0.001963011221960187
1920.0,-0.0006216788897290826
2048.0,4.2459934775251895e-05
2304.0,0.0035227672196924686
2560.0,0.005910868290811777
2816.0,0.0020555108785629272
3072.0,-0.003426882205531001
3328.0,0.0018241213401779532
3584.0,0.0022232409100979567
3840.0,0.000806354102678597
4096.0,0.002574253361672163
4608.0,-0.005400396417826414
5120.0,-0.00010692363866837695
5632.0,-0.009850041009485722
6144.0,-0.007017967291176319
6656.0,-0.006991429254412651
7168.0,-0.00797742698341608
7680.0,-0.005030172877013683
8192.0,-0.014379357919096947
end
