version,3.0
numOfCh,1
type,point
parent_name,19e3e_0dot069-0dot1
ch_type,1_1
kcount,1
numberNandB,1
brightnessNandB,1
carpet pos,0
pc,0
Time (ms),CH1 Auto-Correlation
1.0,0.07152538746595383
2.0,0.0709906592965126
3.0,0.07048634439706802
4.0,0.06998652219772339
5.0,0.0695088729262352
6.0,0.06904517114162445
7.0,0.06858304888010025
8.0,0.06810330599546432
9.0,0.06763724982738495
10.0,0.06717745214700699
11.0,0.06672938913106918
12.0,0.06627991050481796
13.0,0.06583083420991898
14.0,0.06538429111242294
15.0,0.06493676453828812
16.0,0.06448376178741455
18.0,0.0636405274271965
20.0,0.0628284439444542
22.0,0.06205711513757706
24.0,0.0612727589905262
26.0,0.060526322573423386
28.0,0.05979875475168228
30.0,0.05914134532213211
32.0,0.058519817888736725
36.0,0.05736631900072098
40.0,0.056308213621377945
44.0,0.05535382777452469
48.0,0.05442698672413826
52.0,0.053600504994392395
56.0,0.05281011760234833
60.0,0.05208742246031761
64.0,0.051438041031360626
72.0,0.05015523359179497
80.0,0.048859648406505585
88.0,0.04764372110366821
96.0,0.04643890634179115
104.0,0.045289263129234314
112.0,0.044067904353141785
120.0,0.042754821479320526
128.0,0.04150385782122612
144.0,0.039204757660627365
160.0,0.03697030618786812
176.0,0.03517249599099159
192.0,0.03356223180890083
208.0,0.032058168202638626
224.0,0.030572112649679184
240.0,0.02914663963019848
256.0,0.02760709822177887
288.0,0.025415359064936638
320.0,0.024035455659031868
352.0,0.021918512880802155
384.0,0.01991444081068039
416.0,0.01774277165532112
448.0,0.01551151741296053
480.0,0.013403292745351791
512.0,0.011778526939451694
576.0,0.009709763340651989
640.0,0.008740787394344807
704.0,0.009276443161070347
768.0,0.010016893967986107
832.0,0.011728382669389248
896.0,0.011006806045770645
960.0,0.008236002177000046
1024.0,0.005100071430206299
1152.0,0.0030491792131215334
1280.0,0.0013890804257243872
1408.0,0.0005495325312949717
1536.0,0.0014106696471571922
1664.0,0.0032267612405121326
1792.0,0.0034650226589292288
1920.0,0.001143918838351965
2048.0,-0.001275531598366797
2304.0,-0.002761226613074541
2560.0,-0.007852674461901188
2816.0,-0.008996337652206421
3072.0,-0.008938041515648365
3328.0,-0.004460748750716448
3584.0,-0.0032238157000392675
3840.0,-0.00355586688965559
4096.0,0.002876745769754052
4608.0,-0.008011736907064915
5120.0,-0.017247403040528297
5632.0,-0.014175674878060818
6144.0,-0.011018941178917885
6656.0,-0.0020928592421114445
7168.0,-0.0047918870113790035
7680.0,-0.001967770978808403
8192.0,0.008657107129693031
end
