version,3.0
numOfCh,1
type,point
parent_name,19e3e_0dot069-0dot1
ch_type,1_1
kcount,1
numberNandB,1
brightnessNandB,1
carpet pos,0
pc,0
Time (ms),CH1 Auto-Correlation
1.0,0.07580257952213287
2.0,0.0747571662068367
3.0,0.07380153238773346
4.0,0.07286525517702103
5.0,0.07192398607730865
6.0,0.07097964733839035
7.0,0.07016023248434067
8.0,0.06939603388309479
9.0,0.06862778961658478
10.0,0.06787564605474472
11.0,0.06717176735401154
12.0,0.06650631874799728
13.0,0.06589332967996597
14.0,0.06531360000371933
15.0,0.06464867293834686
16.0,0.06401456147432327
18.0,0.0627342239022255
20.0,0.06145638972520828
22.0,0.06014294922351837
24.0,0.05887658894062042
26.0,0.057689178735017776
28.0,0.05647450312972069
30.0,0.055340658873319626
32.0,0.05436282604932785
36.0,0.05264262482523918
40.0,0.051079344004392624
44.0,0.04966023191809654
48.0,0.048255015164613724
52.0,0.047044798731803894
56.0,0.04597248509526253
60.0,0.04505239427089691
64.0,0.04427410289645195
72.0,0.043160032480955124
80.0,0.04215578734874725
88.0,0.04141769930720329
96.0,0.04095219075679779
104.0,0.039891984313726425
112.0,0.03877129405736923
120.0,0.037479765713214874
128.0,0.03617582097649574
144.0,0.03390311449766159
160.0,0.03189262002706528
176.0,0.029881836846470833
192.0,0.028998546302318573
208.0,0.02879115380346775
224.0,0.028409114107489586
240.0,0.027877552434802055
256.0,0.026573294773697853
288.0,0.023804625496268272
320.0,0.02124372124671936
352.0,0.01853756047785282
384.0,0.018519282341003418
416.0,0.01909523271024227
448.0,0.018348542973399162
480.0,0.017335109412670135
512.0,0.01565929874777794
576.0,0.013107686303555965
640.0,0.015040355734527111
704.0,0.018489589914679527
768.0,0.020712362602353096
832.0,0.021755637601017952
896.0,0.022101042792201042
960.0,0.02245076186954975
1024.0,0.0190495066344738
1152.0,0.013293171301484108
1280.0,0.017860902473330498
1408.0,0.013203447684645653
1536.0,0.0077370512299239635
1664.0,0.0056555368937551975
1792.0,0.004674166440963745
1920.0,0.001107707037590444
2048.0,0.0037623359821736813
2304.0,0.0024530128575861454
2560.0,-0.008433667942881584
2816.0,-0.009120513685047626
3072.0,-0.010925994254648685
3328.0,-0.013108095154166222
3584.0,-0.015836400911211967
3840.0,-0.03346819058060646
4096.0,-0.02684290148317814
4608.0,-0.02317875623703003
5120.0,-0.019476482644677162
5632.0,-0.011999828740954399
6144.0,-0.008803870528936386
6656.0,0.0026473451871424913
7168.0,-0.004934933036565781
7680.0,0.009346340782940388
8192.0,0.022110169753432274
end
