version,3.0
numOfCh,1
type,point
parent_name,19e3e_0dot069-0dot1
ch_type,1_1
kcount,1
numberNandB,1
brightnessNandB,1
carpet pos,0
pc,0
Time (ms),CH1 Auto-Correlation
1.0,0.0847826600074768
2.0,0.08419539779424667
3.0,0.08362987637519836
4.0,0.0830882117152214
5.0,0.08257430046796799
6.0,0.08205683529376984
7.0,0.08158205449581146
8.0,0.08114264905452728
9.0,0.08074048161506653
10.0,0.08034318685531616
11.0,0.07994140684604645
12.0,0.07953033596277237
13.0,0.07912730425596237
14.0,0.07872012257575989
15.0,0.07829028367996216
16.0,0.07787435501813889
18.0,0.0770631656050682
20.0,0.07623948901891708
22.0,0.07545052468776703
24.0,0.07471006363630295
26.0,0.07402516901493073
28.0,0.07334377616643906
30.0,0.07269015908241272
32.0,0.0720469206571579
36.0,0.07089461386203766
40.0,0.06984410434961319
44.0,0.0688176080584526
48.0,0.06783759593963623
52.0,0.06688429415225983
56.0,0.06594451516866684
60.0,0.06510429084300995
64.0,0.0642445906996727
72.0,0.06261996179819107
80.0,0.06086373329162598
88.0,0.05901402235031128
96.0,0.05723438784480095
104.0,0.0556984506547451
112.0,0.05438418313860893
120.0,0.05310143530368805
128.0,0.05175160989165306
144.0,0.049325406551361084
160.0,0.047032009810209274
176.0,0.04534519463777542
192.0,0.04429018124938011
208.0,0.042869437485933304
224.0,0.04103654623031616
240.0,0.039093274623155594
256.0,0.03720344975590706
288.0,0.034655943512916565
320.0,0.03149155154824257
352.0,0.028772477060556412
384.0,0.02728976123034954
416.0,0.02683926746249199
448.0,0.02512076310813427
480.0,0.023734143003821373
512.0,0.023427212610840797
576.0,0.02314062789082527
640.0,0.01931251399219036
704.0,0.016631005331873894
768.0,0.017058998346328735
832.0,0.016709085553884506
896.0,0.012922205030918121
960.0,0.006887223105877638
1024.0,0.004358180798590183
1152.0,0.006852507591247559
1280.0,0.009560992009937763
1408.0,0.011635887436568737
1536.0,0.008917201310396194
1664.0,0.002096826210618019
1792.0,-0.005909080151468515
1920.0,-0.010129185393452644
2048.0,-0.011385973542928696
2304.0,-0.026285674422979355
2560.0,-0.027962274849414825
2816.0,-0.023161442950367928
3072.0,-0.025318337604403496
3328.0,-0.01685897633433342
3584.0,-0.008066448383033276
3840.0,-0.006651822943240404
4096.0,0.0036077687982469797
4608.0,0.008419705554842949
5120.0,0.01697942242026329
5632.0,0.008193843998014927
6144.0,-0.012087550945580006
6656.0,-0.011964764446020126
7168.0,-0.029744502156972885
7680.0,-0.036034371703863144
8192.0,-0.02233309857547283
end
