version,3.0
numOfCh,1
type,point
parent_name,19e3e_0dot069-0dot1
ch_type,1_1
kcount,1
numberNandB,1
brightnessNandB,1
carpet pos,0
pc,0
Time (ms),CH1 Auto-Correlation
1.0,0.06996041536331177
2.0,0.06938938051462173
3.0,0.06888008862733841
4.0,0.06839516758918762
5.0,0.0679134875535965
6.0,0.06744647771120071
7.0,0.06700640171766281
8.0,0.06654664874076843
9.0,0.06610751152038574
10.0,0.06569387018680573
11.0,0.06527654081583023
12.0,0.06485352665185928
13.0,0.06442772597074509
14.0,0.06398674100637436
15.0,0.0635567381978035
16.0,0.06315057724714279
18.0,0.062353167682886124
20.0,0.06161108985543251
22.0,0.06094479188323021
24.0,0.060295410454273224
26.0,0.05966887250542641
28.0,0.059054236859083176
30.0,0.05840950831770897
32.0,0.05774999409914017
36.0,0.05657067894935608
40.0,0.055380597710609436
44.0,0.05419299006462097
48.0,0.053037650883197784
52.0,0.05195566639304161
56.0,0.050861719995737076
60.0,0.04976724833250046
64.0,0.04870264604687691
72.0,0.04683792218565941
80.0,0.04507071152329445
88.0,0.04358585551381111
96.0,0.04213171452283859
104.0,0.0405358150601387
112.0,0.039092641323804855
120.0,0.037922658026218414
128.0,0.036916621029376984
144.0,0.03522973135113716
160.0,0.03387504443526268
176.0,0.0325716957449913
192.0,0.03144310787320137
208.0,0.030289839953184128
224.0,0.02935868315398693
240.0,0.028450602665543556
256.0,0.02788844332098961
288.0,0.025666091591119766
320.0,0.024000568315386772
352.0,0.023518729954957962
384.0,0.022978290915489197
416.0,0.021711712703108788
448.0,0.02042723447084427
480.0,0.018418073654174805
512.0,0.015994569286704063
576.0,0.011889968067407608
640.0,0.008567421697080135
704.0,0.008062899112701416
768.0,0.0061202156357467175
832.0,0.0032765783835202456
896.0,-0.0006965924403630197
960.0,-0.001253779511898756
1024.0,-0.0019175984198227525
1152.0,-0.005475264508277178
1280.0,-0.009853691793978214
1408.0,-0.0090164290741086
1536.0,-0.00721652852371335
1664.0,-0.010678726248443127
1792.0,-0.011893602088093758
1920.0,-0.006471139378845692
2048.0,-0.005956229753792286
2304.0,0.005738839041441679
2560.0,0.008977548219263554
2816.0,0.009225677698850632
3072.0,0.00822625681757927
3328.0,0.005145114380866289
3584.0,-0.003969158511608839
3840.0,-0.005874004680663347
4096.0,-0.011515612713992596
4608.0,-0.017643800005316734
5120.0,-0.009088960476219654
5632.0,0.01066955178976059
6144.0,0.01638367958366871
6656.0,-0.005065225996077061
7168.0,-0.0260729119181633
7680.0,-0.028420304879546165
8192.0,-0.013572695665061474
end
