version,3.0
numOfCh,1
type,point
parent_name,19e3e_0dot069-0dot1
ch_type,1_1
kcount,1
numberNandB,1
brightnessNandB,1
carpet pos,0
pc,0
Time (ms),CH1 Auto-Correlation
1.0,0.06718754023313522
2.0,0.06661666184663773
3.0,0.06605939567089081
4.0,0.06551946699619293
5.0,0.0649840459227562
6.0,0.06446131318807602
7.0,0.06394707411527634
8.0,0.06345757842063904
9.0,0.06294602900743484
10.0,0.06245220825076103
11.0,0.061959829181432724
12.0,0.061500467360019684
13.0,0.06108573451638222
14.0,0.06065724417567253
15.0,0.060261934995651245
16.0,0.059860892593860626
18.0,0.059060078114271164
20.0,0.05829296633601189
22.0,0.05759184807538986
24.0,0.05690295249223709
26.0,0.05626093968749046
28.0,0.05567605793476105
30.0,0.05512755364179611
32.0,0.05456477776169777
36.0,0.05347065627574921
40.0,0.05243637040257454
44.0,0.05138804763555527
48.0,0.050306953489780426
52.0,0.04916303604841232
56.0,0.04807604104280472
60.0,0.04699701815843582
64.0,0.04588470607995987
72.0,0.04365410655736923
80.0,0.0414433516561985
88.0,0.039526522159576416
96.0,0.037842605262994766
104.0,0.036253318190574646
112.0,0.035012055188417435
120.0,0.033720940351486206
128.0,0.03257504478096962
144.0,0.030441388487815857
160.0,0.02819495089352131
176.0,0.026319390162825584
192.0,0.02481616847217083
208.0,0.023556949570775032
224.0,0.022934051230549812
240.0,0.02286185324192047
256.0,0.02276100218296051
288.0,0.021971160545945168
320.0,0.021344244480133057
352.0,0.01993296667933464
384.0,0.018627041950821877
416.0,0.017412247136235237
448.0,0.01517481729388237
480.0,0.012301049195230007
512.0,0.009391773492097855
576.0,0.008146347478032112
640.0,0.008076011203229427
704.0,0.009059520438313484
768.0,0.008581804111599922
832.0,0.006122854072600603
896.0,0.00541120208799839
960.0,0.004880542866885662
1024.0,0.005254231858998537
1152.0,-0.0009976363508030772
1280.0,-0.008816499263048172
1408.0,-0.010130512528121471
1536.0,-0.00811480451375246
1664.0,-0.00694242212921381
1792.0,-0.007924217730760574
1920.0,-0.009519695304334164
2048.0,-0.010710666887462139
2304.0,-0.003671658458188176
2560.0,0.00044499419163912535
2816.0,-0.0022847626823931932
3072.0,-0.006670170929282904
3328.0,-0.0059469323605299
3584.0,-0.006356153637170792
3840.0,-0.008338232524693012
4096.0,-0.011269849725067616
4608.0,-0.01515800878405571
5120.0,-0.008531357161700726
5632.0,-0.002578950021415949
6144.0,0.009807685390114784
6656.0,0.008105551823973656
7168.0,0.011421937495470047
7680.0,0.005146053619682789
8192.0,-0.0013621177058666945
end
