version,3.0
numOfCh,1
type,point
parent_name,19e3e_0dot069-0dot1
ch_type,1_1
kcount,1
numberNandB,1
brightnessNandB,1
carpet pos,0
pc,0
Time (ms),CH1 Auto-Correlation
1.0,0.08231095969676971
2.0,0.08174118399620056
3.0,0.08118953555822372
4.0,0.08064568787813187
5.0,0.08011826127767563
6.0,0.07960129529237747
7.0,0.07908888906240463
8.0,0.07861372828483582
9.0,0.07814785093069077
10.0,0.07769007235765457
11.0,0.07724563777446747
12.0,0.07680095732212067
13.0,0.07636997103691101
14.0,0.0759596899151802
15.0,0.07555726915597916
16.0,0.07517696171998978
18.0,0.07444118708372116
20.0,0.0737391859292984
22.0,0.07306218147277832
24.0,0.07242469489574432
26.0,0.07179703563451767
28.0,0.07112523913383484
30.0,0.07047157734632492
32.0,0.069804348051548
36.0,0.06850405037403107
40.0,0.06737172603607178
44.0,0.06629257649183273
48.0,0.0652371197938919
52.0,0.06417425721883774
56.0,0.06309562176465988
60.0,0.06203221529722214
64.0,0.06098654121160507
72.0,0.059198521077632904
80.0,0.057798098772764206
88.0,0.056738659739494324
96.0,0.055635202676057816
104.0,0.0543174184858799
112.0,0.05279487371444702
120.0,0.05116146802902222
128.0,0.04958110675215721
144.0,0.04712850973010063
160.0,0.04502341151237488
176.0,0.043437208980321884
192.0,0.042720016092061996
208.0,0.042617395520210266
224.0,0.04250125586986542
240.0,0.04195330664515495
256.0,0.04145199432969093
288.0,0.04051274061203003
320.0,0.03929722309112549
352.0,0.037623919546604156
384.0,0.03495084494352341
416.0,0.03296201676130295
448.0,0.03250884264707565
480.0,0.03175780177116394
512.0,0.03144288435578346
576.0,0.03240446746349335
640.0,0.03289917856454849
704.0,0.03150119632482529
768.0,0.032970353960990906
832.0,0.03260983154177666
896.0,0.03137023374438286
960.0,0.029880095273256302
1024.0,0.02739013358950615
1152.0,0.023617509752511978
1280.0,0.01747146248817444
1408.0,0.01592639833688736
1536.0,0.013013992458581924
1664.0,0.011965948157012463
1792.0,0.019190164282917976
1920.0,0.02286205254495144
2048.0,0.020761361345648766
2304.0,0.010191535577178001
2560.0,0.008446664549410343
2816.0,0.013652832247316837
3072.0,0.007814033888280392
3328.0,-0.004591132048517466
3584.0,-0.008556464686989784
3840.0,-0.008788127452135086
4096.0,-0.009343462996184826
4608.0,-0.020938631147146225
5120.0,-0.0310014970600605
5632.0,-0.03429359942674637
6144.0,-0.031132439151406288
6656.0,-0.02579226903617382
7168.0,-0.022046305239200592
7680.0,-0.028113897889852524
8192.0,-0.026155885308980942
end
