version,3.0
numOfCh,1
type,point
parent_name,19e3e_0dot069-0dot1
ch_type,1_1
kcount,1
numberNandB,1
brightnessNandB,1
carpet pos,0
pc,0
Time (ms),CH1 Auto-Correlation
1.0,0.0643073096871376
2.0,0.0636347085237503
3.0,0.06304411590099335
4.0,0.06248567998409271
5.0,0.061943769454956055
6.0,0.06143281236290932
7.0,0.06093490496277809
8.0,0.0604792982339859
9.0,0.06002286821603775
10.0,0.05957561358809471
11.0,0.05910595506429672
12.0,0.05865894630551338
13.0,0.0582316592335701
14.0,0.05781547352671623
15.0,0.057431261986494064
16.0,0.05705137178301811
18.0,0.0562945120036602
20.0,0.055517736822366714
22.0,0.05476713553071022
24.0,0.05406266450881958
26.0,0.053376588970422745
28.0,0.05271542817354202
30.0,0.05207763612270355
32.0,0.05147004872560501
36.0,0.050428591668605804
40.0,0.04945603385567665
44.0,0.04845535382628441
48.0,0.04742564633488655
52.0,0.046315357089042664
56.0,0.04508404806256294
60.0,0.0438753217458725
64.0,0.04278000444173813
72.0,0.040753111243247986
80.0,0.03870481252670288
88.0,0.03668077290058136
96.0,0.03490830585360527
104.0,0.03331519290804863
112.0,0.032082460820674896
120.0,0.031038857996463776
128.0,0.030108554288744926
144.0,0.027745230123400688
160.0,0.025655724108219147
176.0,0.023955941200256348
192.0,0.02241579256951809
208.0,0.021286286413669586
224.0,0.020244017243385315
240.0,0.018883053213357925
256.0,0.017687229439616203
288.0,0.01527478639036417
320.0,0.013786330819129944
352.0,0.013196930289268494
384.0,0.012394973076879978
416.0,0.01157214492559433
448.0,0.011755860410630703
480.0,0.010959789156913757
512.0,0.009958949871361256
576.0,0.006929941475391388
640.0,0.004139239899814129
704.0,0.001969799166545272
768.0,0.0008517106180079281
832.0,0.0013493385631591082
896.0,0.0006051126983948052
960.0,-0.0017032157629728317
1024.0,-0.004424101207405329
1152.0,-0.011238626204431057
1280.0,-0.015239124186336994
1408.0,-0.013130499050021172
1536.0,-0.01902790553867817
1664.0,-0.019072989001870155
1792.0,-0.015246964991092682
1920.0,-0.012874115258455276
2048.0,-0.015899429097771645
2304.0,-0.010564169846475124
2560.0,-0.0030925623141229153
2816.0,0.004784374497830868
3072.0,0.011873765848577023
3328.0,0.021456800401210785
3584.0,0.01551477424800396
3840.0,0.007960646413266659
4096.0,-0.0026542185805737972
4608.0,-0.003169670235365629
5120.0,-0.0063198585994541645
5632.0,-0.01034772302955389
6144.0,-0.0032153911888599396
6656.0,0.0015534190461039543
7168.0,-0.00344914966262877
7680.0,0.00015490087389480323
8192.0,0.0020959803368896246
end
