version,3.0
numOfCh,1
type,point
parent_name,19e3e_0dot069-0dot1
ch_type,1_1
kcount,1
numberNandB,1
brightnessNandB,1
carpet pos,0
pc,0
Time (ms),CH1 Auto-Correlation
1.0,0.06511939316987991
2.0,0.06446642428636551
3.0,0.0638231486082077
4.0,0.06320866197347641
5.0,0.0626555010676384
6.0,0.06211124360561371
7.0,0.061612293124198914
8.0,0.06110219657421112
9.0,0.06061660870909691
10.0,0.060145776718854904
11.0,0.059676118195056915
12.0,0.059225644916296005
13.0,0.05876891314983368
14.0,0.05829678848385811
15.0,0.05782739818096161
16.0,0.05735233426094055
18.0,0.056413620710372925
20.0,0.05551385134458542
22.0,0.05472060292959213
24.0,0.05392773449420929
26.0,0.05313921719789505
28.0,0.052304334938526154
30.0,0.05153147876262665
32.0,0.05079835653305054
36.0,0.049355167895555496
40.0,0.047945693135261536
44.0,0.04644741117954254
48.0,0.04514944553375244
52.0,0.04390155151486397
56.0,0.04272060468792915
60.0,0.04154167324304581
64.0,0.0403546467423439
72.0,0.03819046914577484
80.0,0.03607304394245148
88.0,0.034131914377212524
96.0,0.03222573176026344
104.0,0.03036080114543438
112.0,0.028371768072247505
120.0,0.0265275239944458
128.0,0.025122834369540215
144.0,0.023071039468050003
160.0,0.02121288888156414
176.0,0.019520379602909088
192.0,0.01863713189959526
208.0,0.017967838793992996
224.0,0.016713283956050873
240.0,0.015283876098692417
256.0,0.014085279777646065
288.0,0.011742587201297283
320.0,0.009454252198338509
352.0,0.00847626756876707
384.0,0.008091703988611698
416.0,0.008633517660200596
448.0,0.008484583348035812
480.0,0.00813746266067028
512.0,0.007910131476819515
576.0,0.005201979540288448
640.0,0.00445377454161644
704.0,0.003473810851573944
768.0,0.005045237485319376
832.0,0.007987056858837605
896.0,0.01149100624024868
960.0,0.013833966106176376
1024.0,0.01461735274642706
1152.0,0.00898713804781437
1280.0,0.007660290226340294
1408.0,0.005876024253666401
1536.0,0.005092646926641464
1664.0,0.00591378565877676
1792.0,0.006568100769072771
1920.0,0.007505207788199186
2048.0,0.0034019150771200657
2304.0,-0.0019365851767361164
2560.0,-0.001286461716517806
2816.0,0.0026774860452860594
3072.0,-0.0027193985879421234
3328.0,-0.004580223932862282
3584.0,-0.015543236397206783
3840.0,-0.014629903249442577
4096.0,-0.008435055613517761
4608.0,-0.007138894870877266
5120.0,-0.009777056984603405
5632.0,-0.011228960007429123
6144.0,-0.009890364482998848
6656.0,-0.016336165368556976
7168.0,-0.0009802819695323706
7680.0,-0.007557291071861982
8192.0,0.002414652146399021
end
