version,3.0
numOfCh,1
type,point
parent_name,19e3e_0dot069-0dot1
ch_type,1_1
kcount,1
numberNandB,1
brightnessNandB,1
carpet pos,0
pc,0
Time (ms),CH1 Auto-Correlation
1.0,0.06549221277236938
2.0,0.06496123969554901
3.0,0.06446117162704468
4.0,0.06397633254528046
5.0,0.06349624693393707
6.0,0.06302495300769806
7.0,0.06257982552051544
8.0,0.06212763488292694
9.0,0.061666715890169144
10.0,0.061225563287734985
11.0,0.06079401820898056
12.0,0.060368720442056656
13.0,0.059974633157253265
14.0,0.05957317724823952
15.0,0.059182729572057724
16.0,0.058779604732990265
18.0,0.05798810347914696
20.0,0.057239994406700134
22.0,0.0565204881131649
24.0,0.05581992119550705
26.0,0.05511252209544182
28.0,0.05443897098302841
30.0,0.053800228983163834
32.0,0.05318797379732132
36.0,0.05212933197617531
40.0,0.051236651837825775
44.0,0.050395429134368896
48.0,0.04954438656568527
52.0,0.04870590940117836
56.0,0.04784410074353218
60.0,0.046898674219846725
64.0,0.04598046839237213
72.0,0.04435655102133751
80.0,0.04276077821850777
88.0,0.041366081684827805
96.0,0.040117669850587845
104.0,0.03908473253250122
112.0,0.03842798247933388
120.0,0.038091495633125305
128.0,0.037828270345926285
144.0,0.03676183149218559
160.0,0.03550959751009941
176.0,0.034321412444114685
192.0,0.03309907019138336
208.0,0.031984779983758926
224.0,0.03022792562842369
240.0,0.02870580181479454
256.0,0.027264244854450226
288.0,0.02420942485332489
320.0,0.02242417447268963
352.0,0.021261626854538918
384.0,0.019473573192954063
416.0,0.016605708748102188
448.0,0.014250261709094048
480.0,0.01346239261329174
512.0,0.013177335262298584
576.0,0.013742469251155853
640.0,0.013376764953136444
704.0,0.011840378865599632
768.0,0.009830673225224018
832.0,0.0083454679697752
896.0,0.006659253966063261
960.0,0.0027165617793798447
1024.0,-0.0010032106656581163
1152.0,-0.0013126807752996683
1280.0,-0.0032248590141534805
1408.0,-0.002555303741246462
1536.0,-0.00244120298884809
1664.0,-0.003743185894563794
1792.0,0.001478190184570849
1920.0,0.0023460581433027983
2048.0,0.004575128201395273
2304.0,0.014437589794397354
2560.0,0.014934996142983437
2816.0,0.014599962159991264
3072.0,0.014608274213969707
3328.0,0.006748652551323175
3584.0,0.00034274565405212343
3840.0,-0.0046898797154426575
4096.0,-0.006342706736177206
4608.0,-0.0027140153106302023
5120.0,-0.00120560044888407
5632.0,-0.007242615334689617
6144.0,-0.013292012736201286
6656.0,-0.01779228076338768
7168.0,-0.01882746070623398
7680.0,-0.0306580550968647
8192.0,-0.013605333864688873
end
