version,3.0
numOfCh,1
type,point
parent_name,19e3e_0dot069-0dot1
ch_type,1_1
kcount,1
numberNandB,1
brightnessNandB,1
carpet pos,0
pc,0
Time (ms),CH1 Auto-Correlation
1.0,0.062382299453020096
2.0,0.061817966401576996
3.0,0.06126528978347778
4.0,0.060706015676259995
5.0,0.06014043837785721
6.0,0.05957246944308281
7.0,0.059029288589954376
8.0,0.05849715694785118
9.0,0.057989735156297684
10.0,0.05750596523284912
11.0,0.0570262111723423
12.0,0.05652064457535744
13.0,0.05603868514299393
14.0,0.05556828901171684
15.0,0.05508772283792496
16.0,0.054615508764982224
18.0,0.05366554856300354
20.0,0.052751217037439346
22.0,0.05187298730015755
24.0,0.05103716254234314
26.0,0.05022516846656799
28.0,0.04941825568675995
30.0,0.04860410466790199
32.0,0.04781171306967735
36.0,0.046359557658433914
40.0,0.04505090042948723
44.0,0.04381796717643738
48.0,0.04257640615105629
52.0,0.04140316694974899
56.0,0.04022228717803955
60.0,0.039026953279972076
64.0,0.037851639091968536
72.0,0.035602327436208725
80.0,0.03357050195336342
88.0,0.03169319033622742
96.0,0.02998999133706093
104.0,0.02846415527164936
112.0,0.027117973193526268
120.0,0.025898145511746407
128.0,0.02488075941801071
144.0,0.02275387942790985
160.0,0.020659511908888817
176.0,0.018724072724580765
192.0,0.01655736193060875
208.0,0.014587730169296265
224.0,0.013660929165780544
240.0,0.012577947229146957
256.0,0.011468948796391487
288.0,0.009045074693858624
320.0,0.008386190980672836
352.0,0.007213712669909
384.0,0.005670144688338041
416.0,0.005167002324014902
448.0,0.005577727220952511
480.0,0.006268134340643883
512.0,0.005062021780759096
576.0,0.002376565942540765
640.0,-0.0013102557277306914
704.0,-0.0031077954918146133
768.0,-0.0019213894847780466
832.0,0.0005046520382165909
896.0,0.0026049239095300436
960.0,0.002693407004699111
1024.0,-0.002424165839329362
1152.0,-0.010880730114877224
1280.0,-0.002672855742275715
1408.0,0.003026234917342663
1536.0,-0.001041505835019052
1664.0,-0.0038126574363559484
1792.0,-0.0018262496450915933
1920.0,0.00021704458049498498
2048.0,-0.0006871321238577366
2304.0,0.003873201785609126
2560.0,0.001958501525223255
2816.0,0.006191000808030367
3072.0,-0.002614552853628993
3328.0,-0.006600352935492992
3584.0,3.0283046726253815e-05
3840.0,0.002139354357495904
4096.0,-0.0014207573840394616
4608.0,-0.0015991971595212817
5120.0,-0.005998412612825632
5632.0,-0.001904912875033915
6144.0,-0.003655283711850643
6656.0,-0.0038769228849560022
7168.0,-0.007030719891190529
7680.0,0.0020949295721948147
8192.0,0.007525341585278511
end
