version,3.0
numOfCh,1
type,point
parent_name,19e3e_0dot069-0dot1
ch_type,1_1
kcount,1
numberNandB,1
brightnessNandB,1
carpet pos,0
pc,0
Time (ms),CH1 Auto-Correlation
1.0,0.053919773548841476
2.0,0.053322575986385345
3.0,0.052750326693058014
4.0,0.05219554901123047
5.0,0.05168294161558151
6.0,0.05120227113366127
7.0,0.05073093622922897
8.0,0.0502651110291481
9.0,0.04978833720088005
10.0,0.04931497946381569
11.0,0.04885487258434296
12.0,0.04838808625936508
13.0,0.04793456196784973
14.0,0.04749005287885666
15.0,0.04704863578081131
16.0,0.046631600707769394
18.0,0.045822497457265854
20.0,0.04506424069404602
22.0,0.04434363171458244
24.0,0.04362915828824043
26.0,0.04289878532290459
28.0,0.042170941829681396
30.0,0.041439592838287354
32.0,0.040734171867370605
36.0,0.03937793895602226
40.0,0.038089197129011154
44.0,0.03678411617875099
48.0,0.03555016964673996
52.0,0.03432534635066986
56.0,0.03312966972589493
60.0,0.03191119059920311
64.0,0.030690275132656097
72.0,0.028379442170262337
80.0,0.02643573097884655
88.0,0.024757815524935722
96.0,0.0232622642070055
104.0,0.021858537569642067
112.0,0.020646952092647552
120.0,0.0193131435662508
128.0,0.017977450042963028
144.0,0.01594243384897709
160.0,0.014285903424024582
176.0,0.012976674363017082
192.0,0.012018473818898201
208.0,0.011160884983837605
224.0,0.010858001187443733
240.0,0.010957814753055573
256.0,0.010699719190597534
288.0,0.011483144015073776
320.0,0.012956901453435421
352.0,0.01283000223338604
384.0,0.010103371925652027
416.0,0.006690777838230133
448.0,0.004911923781037331
480.0,0.0030351008754223585
512.0,0.001758124679327011
576.0,0.0030198285821825266
640.0,0.005301104858517647
704.0,0.00538240559399128
768.0,0.006294554565101862
832.0,0.009228908456861973
896.0,0.009073230437934399
960.0,0.011354763060808182
1024.0,0.011303434148430824
1152.0,0.007333605550229549
1280.0,0.0007260442362166941
1408.0,-0.0036746514961123466
1536.0,-0.0055328551679849625
1664.0,-0.00388186052441597
1792.0,-0.00020355403830762953
1920.0,0.006975983269512653
2048.0,0.007046205922961235
2304.0,-0.00022034287394490093
2560.0,-0.002427811501547694
2816.0,-0.000355151278199628
3072.0,-0.0023853746242821217
3328.0,-0.00801312830299139
3584.0,-0.010341803543269634
3840.0,-0.007439992856234312
4096.0,-0.008422479033470154
4608.0,-0.001909433281980455
5120.0,-0.0025151968002319336
5632.0,0.0015714329201728106
6144.0,-0.009452076628804207
6656.0,0.00171001220587641
7168.0,-0.0070730214938521385
7680.0,0.006100782658904791
8192.0,-0.011979405768215656
end
