version,3.0
numOfCh,1
type,point
parent_name,19e3e_0dot069-0dot1
ch_type,1_1
kcount,1
numberNandB,1
brightnessNandB,1
carpet pos,0
pc,0
Time (ms),CH1 Auto-Correlation
1.0,0.07849139720201492
2.0,0.07800506055355072
3.0,0.07752320170402527
4.0,0.07706397026777267
5.0,0.07661935687065125
6.0,0.07618235796689987
7.0,0.07575993984937668
8.0,0.07533781975507736
9.0,0.0749121606349945
10.0,0.07449591904878616
11.0,0.07408510148525238
12.0,0.07369360327720642
13.0,0.073309525847435
14.0,0.07294436544179916
15.0,0.07258648425340652
16.0,0.07223498076200485
18.0,0.07156088203191757
20.0,0.07092564553022385
22.0,0.07030840963125229
24.0,0.06972750276327133
26.0,0.06916895508766174
28.0,0.06860829144716263
30.0,0.06802231818437576
32.0,0.06741277128458023
36.0,0.06622125953435898
40.0,0.06501585990190506
44.0,0.0638541728258133
48.0,0.06275235861539841
52.0,0.06171998009085655
56.0,0.06070833280682564
60.0,0.05978868156671524
64.0,0.058981072157621384
72.0,0.05759890750050545
80.0,0.05646100267767906
88.0,0.05536279082298279
96.0,0.05428373068571091
104.0,0.053248852491378784
112.0,0.052123695611953735
120.0,0.05095120891928673
128.0,0.049816783517599106
144.0,0.04792295768857002
160.0,0.04622039198875427
176.0,0.04494044929742813
192.0,0.04380951076745987
208.0,0.04318820685148239
224.0,0.04263029247522354
240.0,0.0422077439725399
256.0,0.04189123958349228
288.0,0.04149921238422394
320.0,0.04046493023633957
352.0,0.03895030915737152
384.0,0.03672349825501442
416.0,0.03438907861709595
448.0,0.03213087096810341
480.0,0.029246743768453598
512.0,0.026456590741872787
576.0,0.02487519197165966
640.0,0.024468624964356422
704.0,0.023226289078593254
768.0,0.02077183686196804
832.0,0.019753472879529
896.0,0.019626691937446594
960.0,0.01891624927520752
1024.0,0.018968358635902405
1152.0,0.01664801500737667
1280.0,0.01981647126376629
1408.0,0.018949657678604126
1536.0,0.0172418225556612
1664.0,0.012920831330120564
1792.0,0.010010934434831142
1920.0,0.007522829808294773
2048.0,0.003354639047756791
2304.0,0.0007839536410756409
2560.0,-0.000375367293599993
2816.0,0.0017177698900923133
3072.0,0.0008695344440639019
3328.0,0.003054663771763444
3584.0,0.0018271382432430983
3840.0,-0.0025805355980992317
4096.0,-0.008909647352993488
4608.0,-0.0039485152810812
5120.0,-0.018092622980475426
5632.0,-0.03564073145389557
6144.0,-0.030207956209778786
6656.0,-0.029393469914793968
7168.0,-0.04181066155433655
7680.0,-0.032766878604888916
8192.0,-0.016074229031801224
end
