version,3.0
numOfCh,1
type,point
parent_name,19e3e_0dot069-0dot1
ch_type,1_1
kcount,1
numberNandB,1
brightnessNandB,1
carpet pos,0
pc,0
Time (ms),CH1 Auto-Correlation
1.0,0.0773605927824974
2.0,0.07686931639909744
3.0,0.0763949528336525
4.0,0.0759093388915062
5.0,0.07542826235294342
6.0,0.07496598362922668
7.0,0.07451806962490082
8.0,0.07408314943313599
9.0,0.07365573942661285
10.0,0.07324253767728806
11.0,0.07284985482692719
12.0,0.07247628271579742
13.0,0.07212071120738983
14.0,0.07175514847040176
15.0,0.07137621939182281
16.0,0.07098949700593948
18.0,0.07023900747299194
20.0,0.06952811777591705
22.0,0.06881311535835266
24.0,0.06809184700250626
26.0,0.06737757474184036
28.0,0.0667014792561531
30.0,0.06602007895708084
32.0,0.0653427392244339
36.0,0.06398988515138626
40.0,0.06269337236881256
44.0,0.061459437012672424
48.0,0.060295477509498596
52.0,0.059221502393484116
56.0,0.058244358748197556
60.0,0.05738716199994087
64.0,0.05654449760913849
72.0,0.05485714226961136
80.0,0.05328722298145294
88.0,0.051737166941165924
96.0,0.050175733864307404
104.0,0.04867130517959595
112.0,0.04715521261096001
120.0,0.04575673118233681
128.0,0.044367462396621704
144.0,0.04167259484529495
160.0,0.039116520434617996
176.0,0.036491043865680695
192.0,0.03430493548512459
208.0,0.032388411462306976
224.0,0.030407272279262543
240.0,0.028343990445137024
256.0,0.026099974289536476
288.0,0.020847342908382416
320.0,0.016163688153028488
352.0,0.011947056278586388
384.0,0.009270349517464638
416.0,0.008104151114821434
448.0,0.006318817380815744
480.0,0.004147996660321951
512.0,0.0016740632709115744
576.0,-0.0013341547455638647
640.0,-0.000600044266320765
704.0,0.0031654490157961845
768.0,0.008016330190002918
832.0,0.009846796281635761
896.0,0.012323731556534767
960.0,0.013931216672062874
1024.0,0.01309581845998764
1152.0,0.009215716272592545
1280.0,0.0011542669963091612
1408.0,-0.004573754034936428
1536.0,-0.007710400503128767
1664.0,-0.0021787271834909916
1792.0,-0.0010994812473654747
1920.0,0.0059646014124155045
2048.0,0.011382265947759151
2304.0,0.0024275698233395815
2560.0,-0.001451718038879335
2816.0,0.003842411795631051
3072.0,0.013180705718696117
3328.0,0.005326883401721716
3584.0,0.0013234054204076529
3840.0,0.007704917341470718
4096.0,0.007532219402492046
4608.0,0.00222010794095695
5120.0,-0.008414779789745808
5632.0,-0.014926914125680923
6144.0,0.0007408215897157788
6656.0,-0.006540787406265736
7168.0,-0.00041774011333473027
7680.0,-0.009767619892954826
8192.0,-0.014658169820904732
end
