version,3.0
numOfCh,1
type,point
parent_name,19e3e_0dot069-0dot1
ch_type,1_1
kcount,1
numberNandB,1
brightnessNandB,1
carpet pos,0
pc,0
Time (ms),CH1 Auto-Correlation
1.0,0.07641305029392242
2.0,0.07572013884782791
3.0,0.07501894980669022
4.0,0.07437306642532349
5.0,0.0737563818693161
6.0,0.07316092401742935
7.0,0.07261190563440323
8.0,0.07211089879274368
9.0,0.07162625342607498
10.0,0.07112886011600494
11.0,0.07065895199775696
12.0,0.07020395249128342
13.0,0.06974674761295319
14.0,0.0693117007613182
15.0,0.0689026340842247
16.0,0.0684804916381836
18.0,0.06772061437368393
20.0,0.06695570796728134
22.0,0.06621939688920975
24.0,0.06543629616498947
26.0,0.06460978090763092
28.0,0.06382664293050766
30.0,0.06314125657081604
32.0,0.06251300871372223
36.0,0.06115268915891647
40.0,0.05982962250709534
44.0,0.058725856244564056
48.0,0.057603638619184494
52.0,0.056544072926044464
56.0,0.05550234764814377
60.0,0.05436399206519127
64.0,0.053148411214351654
72.0,0.051110610365867615
80.0,0.04951135814189911
88.0,0.04788687452673912
96.0,0.046338945627212524
104.0,0.04492366686463356
112.0,0.04333358258008957
120.0,0.04143481329083443
128.0,0.03961127996444702
144.0,0.0365995392203331
160.0,0.03408263251185417
176.0,0.03175552561879158
192.0,0.029782215133309364
208.0,0.028316855430603027
224.0,0.027237575501203537
240.0,0.026044387370347977
256.0,0.02549947239458561
288.0,0.025821279734373093
320.0,0.026651553809642792
352.0,0.02687605656683445
384.0,0.027803456410765648
416.0,0.02819121442735195
448.0,0.0283968485891819
480.0,0.027922211214900017
512.0,0.027160314843058586
576.0,0.02378975972533226
640.0,0.018990682438015938
704.0,0.01664081960916519
768.0,0.01585991680622101
832.0,0.017245374619960785
896.0,0.021248767152428627
960.0,0.023546623066067696
1024.0,0.022466391324996948
1152.0,0.014229142107069492
1280.0,0.012922350317239761
1408.0,0.013177161104977131
1536.0,0.010038630105555058
1664.0,0.004174289293587208
1792.0,0.002641049213707447
1920.0,0.0011963857105001807
2048.0,-0.0025919766630977392
2304.0,-0.008098096586763859
2560.0,-0.010204637423157692
2816.0,-0.01018940843641758
3072.0,-0.016487138345837593
3328.0,-0.01814069226384163
3584.0,-0.020663060247898102
3840.0,-0.017427487298846245
4096.0,-0.011843138374388218
4608.0,-0.0005738356267102063
5120.0,0.004441889468580484
5632.0,0.00628517335280776
6144.0,0.011892975308001041
6656.0,0.02296033501625061
7168.0,0.014330346137285233
7680.0,0.0017541444394737482
8192.0,0.008857411332428455
end
