version,3.0
numOfCh,1
type,point
parent_name,19e3e_0dot069-0dot1
ch_type,1_1
kcount,1
numberNandB,1
brightnessNandB,1
carpet pos,0
pc,0
Time (ms),CH1 Auto-Correlation
1.0,0.07756734639406204
2.0,0.07693333923816681
3.0,0.07633495330810547
4.0,0.07580408453941345
5.0,0.07530581951141357
6.0,0.07481788843870163
7.0,0.07434144616127014
8.0,0.07383958995342255
9.0,0.07335979491472244
10.0,0.07288452982902527
11.0,0.07240509986877441
12.0,0.0719432681798935
13.0,0.07150346785783768
14.0,0.07107394188642502
15.0,0.07064613699913025
16.0,0.07019542157649994
18.0,0.06935963034629822
20.0,0.06857763975858688
22.0,0.06787487119436264
24.0,0.06720361113548279
26.0,0.06649032235145569
28.0,0.06579510122537613
30.0,0.06514604389667511
32.0,0.06449095904827118
36.0,0.06316064298152924
40.0,0.061801355332136154
44.0,0.06050720438361168
48.0,0.059320028871297836
52.0,0.05830246955156326
56.0,0.05735887214541435
60.0,0.05639100819826126
64.0,0.055479858070611954
72.0,0.053801681846380234
80.0,0.052263639867305756
88.0,0.05094839259982109
96.0,0.049476705491542816
104.0,0.04816555231809616
112.0,0.04717199131846428
120.0,0.04619395732879639
128.0,0.04520713537931442
144.0,0.04392259567975998
160.0,0.042708270251750946
176.0,0.04168548807501793
192.0,0.04056472331285477
208.0,0.039451222866773605
224.0,0.03819199651479721
240.0,0.03739914298057556
256.0,0.036873139441013336
288.0,0.03553823009133339
320.0,0.0350341834127903
352.0,0.035175621509552
384.0,0.035682011395692825
416.0,0.034061286598443985
448.0,0.03253138065338135
480.0,0.030224429443478584
512.0,0.028041090816259384
576.0,0.02710404247045517
640.0,0.02512209303677082
704.0,0.020965201780200005
768.0,0.017758062109351158
832.0,0.015274704433977604
896.0,0.013850504532456398
960.0,0.013327485881745815
1024.0,0.012611554004251957
1152.0,0.01184677705168724
1280.0,0.011401434428989887
1408.0,0.009038541465997696
1536.0,0.005655723158270121
1664.0,0.008664989843964577
1792.0,0.008231795392930508
1920.0,0.0038669155910611153
2048.0,-0.0007408489473164082
2304.0,-0.0017833213787525892
2560.0,-0.012728960253298283
2816.0,-0.02203965187072754
3072.0,-0.03265469893813133
3328.0,-0.036893099546432495
3584.0,-0.03342156857252121
3840.0,-0.026443082839250565
4096.0,-0.02247789315879345
4608.0,-0.03432019427418709
5120.0,-0.021072354167699814
5632.0,-0.005957005545496941
6144.0,0.006072890479117632
6656.0,0.013679487630724907
7168.0,0.021562691777944565
7680.0,0.024099409580230713
8192.0,0.020027443766593933
end
