version,3.0
numOfCh,1
type,point
parent_name,19e3e_0dot069-0dot1
ch_type,1_1
kcount,1
numberNandB,1
brightnessNandB,1
carpet pos,0
pc,0
Time (ms),CH1 Auto-Correlation
1.0,0.07692452520132065
2.0,0.07585326582193375
3.0,0.07489318400621414
4.0,0.07403109967708588
5.0,0.07322554290294647
6.0,0.07241998612880707
7.0,0.0717310905456543
8.0,0.07111487537622452
9.0,0.07053134590387344
10.0,0.06997286528348923
11.0,0.0694422498345375
12.0,0.06893394887447357
13.0,0.0684308335185051
14.0,0.06793283671140671
15.0,0.06748098880052567
16.0,0.0671209990978241
18.0,0.06639440357685089
20.0,0.06569217890501022
22.0,0.06500575691461563
24.0,0.06424572318792343
26.0,0.06344325095415115
28.0,0.06272204220294952
30.0,0.06205175817012787
32.0,0.06131823733448982
36.0,0.05997210368514061
40.0,0.05862059444189072
44.0,0.05710379779338837
48.0,0.05571262538433075
52.0,0.05435303971171379
56.0,0.05351648107171059
60.0,0.052690282464027405
64.0,0.05170824006199837
72.0,0.04978370666503906
80.0,0.04819559305906296
88.0,0.046660102903842926
96.0,0.0454406775534153
104.0,0.04406020790338516
112.0,0.042691074311733246
120.0,0.04129840061068535
128.0,0.040187686681747437
144.0,0.03767826780676842
160.0,0.03559930995106697
176.0,0.03333175182342529
192.0,0.0306423120200634
208.0,0.027846457436680794
224.0,0.02425243705511093
240.0,0.020912326872348785
256.0,0.018537349998950958
288.0,0.01436726562678814
320.0,0.010822352021932602
352.0,0.00898960791528225
384.0,0.007657613139599562
416.0,0.006157579831779003
448.0,0.004973904695361853
480.0,0.0034873669501394033
512.0,0.0021642595529556274
576.0,0.0005321854259818792
640.0,-0.003945368342101574
704.0,-0.008267279714345932
768.0,-0.01189853623509407
832.0,-0.012954017147421837
896.0,-0.012090473435819149
960.0,-0.008476277813315392
1024.0,-0.005608822219073772
1152.0,0.0033536141272634268
1280.0,0.005418005865067244
1408.0,-1.5959558368194848e-05
1536.0,-0.010630352422595024
1664.0,-0.017660444602370262
1792.0,-0.02063625492155552
1920.0,-0.022745655849575996
2048.0,-0.02071683295071125
2304.0,-0.0008903142879717052
2560.0,0.009589390829205513
2816.0,0.015586345456540585
3072.0,0.00805113185197115
3328.0,0.009297178126871586
3584.0,0.0024109790101647377
3840.0,-0.0031817166600376368
4096.0,-0.0011388123966753483
4608.0,-0.005808085203170776
5120.0,-0.0069318194873631
5632.0,0.004536230582743883
6144.0,-0.0017832114826887846
6656.0,-0.009684661403298378
7168.0,-0.005965153221040964
7680.0,-0.008177384734153748
8192.0,0.01025509461760521
end
