version,3.0
numOfCh,1
type,point
parent_name,19e3e_0dot6-1dot0
ch_type,1_1
kcount,1
numberNandB,1
brightnessNandB,1
carpet pos,0
pc,0
Time (ms),CH1 Auto-Correlation
1.0,0.04727137088775635
2.0,0.04491160064935684
3.0,0.04284607619047165
4.0,0.04101903736591339
5.0,0.03930480778217316
6.0,0.03779733553528786
7.0,0.03639601543545723
8.0,0.03508220613002777
9.0,0.03391949459910393
10.0,0.03279915452003479
11.0,0.03173838555812836
12.0,0.03072194568812847
13.0,0.02976229600608349
14.0,0.02890433557331562
15.0,0.028044745326042175
16.0,0.027272848412394524
18.0,0.02583852969110012
20.0,0.024478184059262276
22.0,0.02336406521499157
24.0,0.02246791496872902
26.0,0.021586529910564423
28.0,0.02078085020184517
30.0,0.020115002989768982
32.0,0.019453374668955803
36.0,0.018327416852116585
40.0,0.0170733705163002
44.0,0.015774602070450783
48.0,0.014592304825782776
52.0,0.013705112971365452
56.0,0.01316398847848177
60.0,0.01251948717981577
64.0,0.012064307928085327
72.0,0.01072722114622593
80.0,0.009468020871281624
88.0,0.008298753760755062
96.0,0.007152064237743616
104.0,0.0062451171688735485
112.0,0.005707028787583113
120.0,0.0049330079928040504
128.0,0.0039922213181853294
144.0,0.0022723167203366756
160.0,0.0010336788836866617
176.0,0.0003097564622294158
192.0,0.0003996763553004712
208.0,0.0011129940394312143
224.0,0.0007498865597881377
240.0,0.0006640839274041355
256.0,-0.0003065411583520472
288.0,-0.0008815551991574466
320.0,0.000284972891677171
352.0,0.0004005570081062615
384.0,0.0009211971773765981
416.0,0.00010319116699974984
448.0,0.0005391507875174284
480.0,-3.461846063146368e-05
512.0,-0.0007337415590882301
576.0,-0.0015573280397802591
640.0,0.0010390696115791798
704.0,0.0026310861576348543
768.0,0.0018665727693587542
832.0,0.0017965969163924456
896.0,0.001516302116215229
960.0,0.00034250071621499956
1024.0,0.0005445883725769818
1152.0,-0.0013212525518611073
1280.0,-0.0025186981074512005
1408.0,-0.003272966481745243
1536.0,-0.0024702888913452625
1664.0,0.00032196365646086633
1792.0,-0.00021747588471043855
1920.0,-0.002625857712700963
2048.0,-0.002606223803013563
2304.0,-0.0025870692916214466
2560.0,0.0011606287444010377
2816.0,5.931383930146694e-05
3072.0,0.002257375279441476
3328.0,0.00357721745967865
3584.0,0.0028479937463998795
3840.0,7.725543400738388e-05
4096.0,-0.0009902567835524678
4608.0,0.0003316389920655638
5120.0,-0.0017612023511901498
5632.0,-0.002391118323430419
6144.0,-0.0001004543955787085
6656.0,0.0004047647234983742
7168.0,-0.0003940416208934039
7680.0,0.002577729756012559
8192.0,-0.0003619138151407242
end
