version,3.0
numOfCh,1
type,point
parent_name,19e3e_0dot6-1dot0
ch_type,1_1
kcount,1
numberNandB,1
brightnessNandB,1
carpet pos,0
pc,0
Time (ms),CH1 Auto-Correlation
1.0,0.046368714421987534
2.0,0.04417004436254501
3.0,0.04221312329173088
4.0,0.04049383103847504
5.0,0.03894337639212608
6.0,0.037493977695703506
7.0,0.036215826869010925
8.0,0.03498353809118271
9.0,0.03384123370051384
10.0,0.032783325761556625
11.0,0.031740620732307434
12.0,0.03069199249148369
13.0,0.0297516118735075
14.0,0.028904441744089127
15.0,0.02807489037513733
16.0,0.0272805318236351
18.0,0.025909801945090294
20.0,0.02461426332592964
22.0,0.02351514808833599
24.0,0.022488242015242577
26.0,0.021435845643281937
28.0,0.020478630438447
30.0,0.019580824300646782
32.0,0.018854182213544846
36.0,0.017598086968064308
40.0,0.01661757379770279
44.0,0.015648946166038513
48.0,0.014674333855509758
52.0,0.013474521227180958
56.0,0.012508268468081951
60.0,0.011725182645022869
64.0,0.010976869612932205
72.0,0.010545358061790466
80.0,0.01014297641813755
88.0,0.009241336956620216
96.0,0.007960095070302486
104.0,0.0068006692454218864
112.0,0.006141211837530136
120.0,0.0057257432490587234
128.0,0.004806153476238251
144.0,0.002792487619444728
160.0,0.0018788536544889212
176.0,0.001185328932479024
192.0,0.0009308301378041506
208.0,0.0019483165815472603
224.0,0.002852934878319502
240.0,0.0033915636595338583
256.0,0.0035845227539539337
288.0,0.002667545573785901
320.0,0.0028676169458776712
352.0,0.003377241315320134
384.0,0.002301145112141967
416.0,-4.365942004369572e-05
448.0,-0.0010016149608418345
480.0,-0.0014049127930775285
512.0,-0.0021350113674998283
576.0,-0.001776094431988895
640.0,-0.0005510089686140418
704.0,-0.0011052082991227508
768.0,0.001428371062502265
832.0,0.003013265784829855
896.0,0.003093642182648182
960.0,0.003166626440361142
1024.0,0.0001426471135346219
1152.0,-0.00135977438185364
1280.0,-0.0036726482212543488
1408.0,-0.002052749739959836
1536.0,-0.0038808807730674744
1664.0,-0.002800949150696397
1792.0,-0.001865910948254168
1920.0,-0.002958479570224881
2048.0,-0.0015441408613696694
2304.0,-0.003289975691586733
2560.0,-0.0012834238586947322
2816.0,0.000596653379034251
3072.0,-0.0018981099128723145
3328.0,1.1141175491502509e-05
3584.0,0.0027846009470522404
3840.0,0.0030984622426331043
4096.0,-0.001249530934728682
4608.0,0.003043575445190072
5120.0,-0.0014040757669135928
5632.0,0.001601236523129046
6144.0,-0.005180885083973408
6656.0,-0.00040344861918129027
7168.0,0.0012435171520337462
7680.0,0.00142342085018754
8192.0,0.003040092997252941
end
