version,3.0
numOfCh,1
type,point
parent_name,19e3e_0dot6-1dot0
ch_type,1_1
kcount,1
numberNandB,1
brightnessNandB,1
carpet pos,0
pc,0
Time (ms),CH1 Auto-Correlation
1.0,0.043784406036138535
2.0,0.04147614166140556
3.0,0.03942469507455826
4.0,0.03763730451464653
5.0,0.03601812571287155
6.0,0.03450821340084076
7.0,0.03316565230488777
8.0,0.03191734477877617
9.0,0.030687524005770683
10.0,0.02958027832210064
11.0,0.028534362092614174
12.0,0.027540257200598717
13.0,0.026630956679582596
14.0,0.025772951543331146
15.0,0.02490849979221821
16.0,0.024020781740546227
18.0,0.02246789261698723
20.0,0.021170521154999733
22.0,0.020014287903904915
24.0,0.018948392942547798
26.0,0.01785031333565712
28.0,0.016986379399895668
30.0,0.01625208929181099
32.0,0.015654796734452248
36.0,0.014181393198668957
40.0,0.013100852258503437
44.0,0.012392225675284863
48.0,0.011681859381496906
52.0,0.010953645221889019
56.0,0.0103059196844697
60.0,0.010064123198390007
64.0,0.009856021963059902
72.0,0.01017376221716404
80.0,0.010011475533246994
88.0,0.009698170237243176
96.0,0.0087599977850914
104.0,0.008111827075481415
112.0,0.00812461506575346
120.0,0.007668264675885439
128.0,0.0069634877145290375
144.0,0.005142224486917257
160.0,0.004273543134331703
176.0,0.003527640597894788
192.0,0.0036322916857898235
208.0,0.003053060732781887
224.0,0.002890101633965969
240.0,0.002713446971029043
256.0,0.001673371996730566
288.0,0.0007718662382103503
320.0,0.0011543533764779568
352.0,0.0027851678896695375
384.0,0.0020749943796545267
416.0,0.003149086842313409
448.0,0.00342938001267612
480.0,0.0034874780103564262
512.0,0.002507007448002696
576.0,0.00014953054778743535
640.0,-0.0005829738220199943
704.0,0.00041132664773613214
768.0,0.0021052840165793896
832.0,0.0016566581325605512
896.0,0.001167129841633141
960.0,0.00010753125388873741
1024.0,0.0016994712641462684
1152.0,0.0016216399380937219
1280.0,0.0034856454003602266
1408.0,0.0021732915192842484
1536.0,0.0005045570433139801
1664.0,-0.001320507493801415
1792.0,-0.0021797753870487213
1920.0,-0.0017649990040808916
2048.0,-0.001583245350047946
2304.0,0.0008240712922997773
2560.0,0.00045936371316201985
2816.0,-0.00011022136459359899
3072.0,-0.0002041030820691958
3328.0,-0.0032180442940443754
3584.0,0.00012699484068434685
3840.0,0.0002571154327597469
4096.0,0.0012492273235693574
4608.0,-0.0011282383929938078
5120.0,0.0009883681777864695
5632.0,-0.002271930919960141
6144.0,-0.0027306759729981422
6656.0,-0.0038704227190464735
7168.0,-0.0036207004450261593
7680.0,-0.00015181351045612246
8192.0,-0.0011939766118302941
end
