version,3.0
numOfCh,1
type,point
parent_name,19e3e_0dot6-1dot0
ch_type,1_1
kcount,1
numberNandB,1
brightnessNandB,1
carpet pos,0
pc,0
Time (ms),CH1 Auto-Correlation
1.0,0.04555192217230797
2.0,0.04323601722717285
3.0,0.04106247425079346
4.0,0.039088305085897446
5.0,0.03721074014902115
6.0,0.03554949536919594
7.0,0.03402160480618477
8.0,0.0326140858232975
9.0,0.03121705912053585
10.0,0.029909804463386536
11.0,0.028713254258036613
12.0,0.027644183486700058
13.0,0.02670166827738285
14.0,0.025784941390156746
15.0,0.02488819882273674
16.0,0.02400835230946541
18.0,0.022425761446356773
20.0,0.020999370142817497
22.0,0.01969478465616703
24.0,0.018523726612329483
26.0,0.017490902915596962
28.0,0.016572723165154457
30.0,0.01579226925969124
32.0,0.015003606677055359
36.0,0.013514827005565166
40.0,0.012431913055479527
44.0,0.01187021192163229
48.0,0.011208249256014824
52.0,0.010583140887320042
56.0,0.009794626384973526
60.0,0.009168866090476513
64.0,0.008591879159212112
72.0,0.008096891455352306
80.0,0.007373727858066559
88.0,0.007025599014014006
96.0,0.0071094706654548645
104.0,0.007037715520709753
112.0,0.006432679947465658
120.0,0.0059693739749491215
128.0,0.005567128304392099
144.0,0.0052327606827020645
160.0,0.00537086883559823
176.0,0.005241184029728174
192.0,0.004089350812137127
208.0,0.0035893660970032215
224.0,0.0033026947639882565
240.0,0.003257238771766424
256.0,0.0033359797671437263
288.0,0.002861129119992256
320.0,0.0016524444799870253
352.0,0.0013247588649392128
384.0,0.0018094569677487016
416.0,0.0020834319293498993
448.0,0.002643660642206669
480.0,0.002857328625395894
512.0,0.0027124318294227123
576.0,0.0015753229381516576
640.0,-0.0005975873209536076
704.0,-0.00237597175873816
768.0,-0.00199165684171021
832.0,-0.0037314409855753183
896.0,-0.0036572697572410107
960.0,-0.003749100025743246
1024.0,-0.0019171781605109572
1152.0,-0.0010198827367275953
1280.0,-0.002764355856925249
1408.0,-0.004017147701233625
1536.0,-0.0019104572711512446
1664.0,-0.002175187226384878
1792.0,-0.0010532307205721736
1920.0,-0.0013648178428411484
2048.0,-0.0018676003674045205
2304.0,-0.0014293876010924578
2560.0,-0.0011115201050415635
2816.0,0.0017826351104304194
3072.0,0.002071436494588852
3328.0,0.0012973921839147806
3584.0,0.0004215056833345443
3840.0,0.0015247624833136797
4096.0,0.0029105516150593758
4608.0,0.00038902097730897367
5120.0,-0.0011765755480155349
5632.0,-0.002922530984506011
6144.0,-0.0009825821034610271
6656.0,0.002406248589977622
7168.0,0.002291707322001457
7680.0,-0.0010890623088926077
8192.0,-0.000629429065156728
end
