version,3.0
numOfCh,1
type,point
parent_name,19e3e_0dot6-1dot0
ch_type,1_1
kcount,1
numberNandB,1
brightnessNandB,1
carpet pos,0
pc,0
Time (ms),CH1 Auto-Correlation
1.0,0.04441433772444725
2.0,0.04211147502064705
3.0,0.040003471076488495
4.0,0.038071226328611374
5.0,0.036381352692842484
6.0,0.03480587154626846
7.0,0.03336413577198982
8.0,0.03205901011824608
9.0,0.030840635299682617
10.0,0.029743561521172523
11.0,0.028772439807653427
12.0,0.02785520628094673
13.0,0.026979438960552216
14.0,0.026230664923787117
15.0,0.02541770040988922
16.0,0.0246632881462574
18.0,0.023184901103377342
20.0,0.02178969979286194
22.0,0.02049047127366066
24.0,0.01936141960322857
26.0,0.018344692885875702
28.0,0.01751476339995861
30.0,0.01680900529026985
32.0,0.0161829125136137
36.0,0.015380316413939
40.0,0.014756398275494576
44.0,0.01379600539803505
48.0,0.012721025384962559
52.0,0.011702507734298706
56.0,0.01085061114281416
60.0,0.00994024332612753
64.0,0.008981677703559399
72.0,0.008131788112223148
80.0,0.007747426629066467
88.0,0.0073506878688931465
96.0,0.007070143241435289
104.0,0.006540436763316393
112.0,0.006360327824950218
120.0,0.0056806327775120735
128.0,0.004945898428559303
144.0,0.005175276193767786
160.0,0.004682301543653011
176.0,0.0033859633840620518
192.0,0.0028934546280652285
208.0,0.0018253622110933065
224.0,0.0018747224239632487
240.0,0.002130409236997366
256.0,0.0022243931889533997
288.0,0.0009902726160362363
320.0,0.0015263826353475451
352.0,0.0017998050898313522
384.0,0.0014803089434280992
416.0,0.0015396791277453303
448.0,-0.00016383858746849
480.0,0.0010491139255464077
512.0,0.0020164004527032375
576.0,0.0024437953252345324
640.0,0.0010738699929788709
704.0,0.00052434834651649
768.0,0.002017325023189187
832.0,0.0013779298169538379
896.0,0.0009734389605000615
960.0,0.002334301359951496
1024.0,0.0015089138178154826
1152.0,0.000665808969642967
1280.0,0.001080821850337088
1408.0,-0.0007152812322601676
1536.0,-0.002091385191306472
1664.0,-0.0007017660536803305
1792.0,-0.00016628277080599219
1920.0,-0.0005399590008892119
2048.0,1.0806238606164698e-06
2304.0,0.0014960611006245017
2560.0,0.0009454504470340908
2816.0,0.000659940589684993
3072.0,-0.0011874813353642821
3328.0,0.001773617696017027
3584.0,-0.000620619161054492
3840.0,-0.0012702465755864978
4096.0,-0.001227378728799522
4608.0,-0.0011228156508877873
5120.0,-0.003500323509797454
5632.0,-0.0016304674791172147
6144.0,-0.001322887372225523
6656.0,-0.0002459386014379561
7168.0,-0.0013166324933990836
7680.0,-0.0007265919703058898
8192.0,0.001388843054883182
end
