version,3.0
numOfCh,1
type,point
parent_name,19e3e_0dot6-1dot0
ch_type,1_1
kcount,1
numberNandB,1
brightnessNandB,1
carpet pos,0
pc,0
Time (ms),CH1 Auto-Correlation
1.0,0.047031864523887634
2.0,0.04460161551833153
3.0,0.04247799888253212
4.0,0.040531937032938004
5.0,0.03881554305553436
6.0,0.03723549470305443
7.0,0.0357595793902874
8.0,0.03435669466853142
9.0,0.03304479271173477
10.0,0.031835537403821945
11.0,0.030658656731247902
12.0,0.0295732282102108
13.0,0.02854926511645317
14.0,0.027570493519306183
15.0,0.026639707386493683
16.0,0.025772005319595337
18.0,0.024154258891940117
20.0,0.022730136290192604
22.0,0.021443255245685577
24.0,0.02023058570921421
26.0,0.019011450931429863
28.0,0.01783992536365986
30.0,0.016809873282909393
32.0,0.01582205668091774
36.0,0.014163409359753132
40.0,0.01281694509088993
44.0,0.011717228218913078
48.0,0.010551818646490574
52.0,0.00952582061290741
56.0,0.008729901164770126
60.0,0.008621210232377052
64.0,0.008568824268877506
72.0,0.00699474336579442
80.0,0.0049521964974701405
88.0,0.0033121369779109955
96.0,0.002386966720223427
104.0,0.0025224993005394936
112.0,0.0029511102475225925
120.0,0.002409078646451235
128.0,0.0018691077129915357
144.0,0.002851393772289157
160.0,0.004502305760979652
176.0,0.005037339404225349
192.0,0.004941680934280157
208.0,0.004145886283367872
224.0,0.0035797725431621075
240.0,0.0033959338907152414
256.0,0.0037225729320198298
288.0,0.003913338761776686
320.0,0.00331692467443645
352.0,0.0032769201789051294
384.0,0.003007463878020644
416.0,0.0021069671493023634
448.0,0.0022614928893744946
480.0,0.0015571365365758538
512.0,0.0015078943688422441
576.0,0.0003118016757071018
640.0,0.002530361758545041
704.0,0.001658660126850009
768.0,0.0006355950608849525
832.0,-0.0008778713527135551
896.0,0.0031249960884451866
960.0,0.0017232082318514585
1024.0,0.0026896605268120766
1152.0,0.0027583965566009283
1280.0,0.00039222752093337476
1408.0,0.0007984552066773176
1536.0,0.00014256643771659583
1664.0,0.0016904526855796576
1792.0,-0.0004810747632291168
1920.0,0.0006301443791016936
2048.0,0.0003487176727503538
2304.0,-0.0007067330880090594
2560.0,-9.748953743837774e-05
2816.0,0.0012494111433625221
3072.0,0.0013423667987808585
3328.0,-0.0013402712065726519
3584.0,-0.002017314312979579
3840.0,-0.0023855436593294144
4096.0,-0.0025597165804356337
4608.0,-0.0005640780436806381
5120.0,-0.0020837141200900078
5632.0,0.0001191205665236339
6144.0,-0.0008351973374374211
6656.0,-0.0022531121503561735
7168.0,-0.002197002526372671
7680.0,-0.002191675128415227
8192.0,-0.0014424901455640793
end
