version,3.0
numOfCh,1
type,point
parent_name,19e3e_0dot6-1dot0
ch_type,1_1
kcount,1
numberNandB,1
brightnessNandB,1
carpet pos,0
pc,0
Time (ms),CH1 Auto-Correlation
1.0,0.047279395163059235
2.0,0.0449955053627491
3.0,0.04292704537510872
4.0,0.041017599403858185
5.0,0.03930624946951866
6.0,0.03772825002670288
7.0,0.036261819303035736
8.0,0.03491741418838501
9.0,0.03363460302352905
10.0,0.03236779198050499
11.0,0.031193146482110023
12.0,0.030067812651395798
13.0,0.02905653417110443
14.0,0.02812041901051998
15.0,0.027239182963967323
16.0,0.026395833119750023
18.0,0.02481439709663391
20.0,0.023354394361376762
22.0,0.022055085748434067
24.0,0.02096172422170639
26.0,0.019891992211341858
28.0,0.018905438482761383
30.0,0.01792770065367222
32.0,0.017184549942612648
36.0,0.016155876219272614
40.0,0.015196643769741058
44.0,0.014419634826481342
48.0,0.013812514953315258
52.0,0.01339463796466589
56.0,0.013098129071295261
60.0,0.012869861908257008
64.0,0.012776602059602737
72.0,0.01184819731861353
80.0,0.010569894686341286
88.0,0.00954115018248558
96.0,0.008569224737584591
104.0,0.007530955597758293
112.0,0.006602153182029724
120.0,0.005715499632060528
128.0,0.00412128446623683
144.0,0.0025108279660344124
160.0,0.0014395031612366438
176.0,0.001582652679644525
192.0,0.0024544461630284786
208.0,0.0013711422216147184
224.0,0.0004954306059516966
240.0,0.0003990122932009399
256.0,0.0011845180997624993
288.0,0.0013594509800896049
320.0,0.0025859458837658167
352.0,0.0015680287033319473
384.0,0.0017045316053554416
416.0,0.0014368155971169472
448.0,0.0019400464370846748
480.0,0.0006043938337825239
512.0,0.0017833637539297342
576.0,0.0006144312210381031
640.0,-0.0007603435078635812
704.0,-0.0017780793132260442
768.0,-0.002569841220974922
832.0,0.000711677479557693
896.0,0.0005444778362289071
960.0,-0.000717802089639008
1024.0,-0.00012028373748762533
1152.0,0.0019874460995197296
1280.0,-0.0018247375264763832
1408.0,0.0005419786903075874
1536.0,0.0018260960932821035
1664.0,0.0021749944426119328
1792.0,0.0024226042442023754
1920.0,-0.00011287030065432191
2048.0,0.0005610419320873916
2304.0,0.0018555076094344258
2560.0,-0.0042859227396547794
2816.0,2.9952923796372488e-05
3072.0,-0.0004610911710187793
3328.0,-0.0037015127018094063
3584.0,-0.002539527602493763
3840.0,-0.0014226892963051796
4096.0,0.00041034314199350774
4608.0,-0.0009453803650103509
5120.0,-0.0016400720924139023
5632.0,-0.002389018889516592
6144.0,0.0005629411316476762
6656.0,-0.0012085827765986323
7168.0,-0.002629281487315893
7680.0,-0.001281335367821157
8192.0,0.000714016321580857
end
