version,3.0
numOfCh,1
type,point
parent_name,19e3e_0dot6-1dot0
ch_type,1_1
kcount,1
numberNandB,1
brightnessNandB,1
carpet pos,0
pc,0
Time (ms),CH1 Auto-Correlation
1.0,0.04497891291975975
2.0,0.04272886738181114
3.0,0.04070154204964638
4.0,0.03891541808843613
5.0,0.03730776160955429
6.0,0.03584174066781998
7.0,0.034510668367147446
8.0,0.033273641020059586
9.0,0.03210821747779846
10.0,0.030974846333265305
11.0,0.02986852265894413
12.0,0.028906244784593582
13.0,0.027893250808119774
14.0,0.026973959058523178
15.0,0.02612541802227497
16.0,0.025291725993156433
18.0,0.023833876475691795
20.0,0.022603299468755722
22.0,0.021568816155195236
24.0,0.02060096338391304
26.0,0.019754795357584953
28.0,0.019016049802303314
30.0,0.01838955469429493
32.0,0.017779957503080368
36.0,0.01669004186987877
40.0,0.015702100470662117
44.0,0.014725291170179844
48.0,0.014077659696340561
52.0,0.013514969497919083
56.0,0.012849715538322926
60.0,0.01192347053438425
64.0,0.011174994520843029
72.0,0.009807084687054157
80.0,0.008479016833007336
88.0,0.00723052816465497
96.0,0.0065360888838768005
104.0,0.0056727249175310135
112.0,0.004839479457587004
120.0,0.003985744901001453
128.0,0.0032854843884706497
144.0,0.0033496785908937454
160.0,0.003499107202515006
176.0,0.003481474472209811
192.0,0.0034570933785289526
208.0,0.0032931349705904722
224.0,0.004308330826461315
240.0,0.0046789865009486675
256.0,0.004338657017797232
288.0,0.004018247593194246
320.0,0.003983054310083389
352.0,0.0039368364959955215
384.0,0.0017035900382325053
416.0,0.0010957602644339204
448.0,0.0007916882168501616
480.0,0.0009781480766832829
512.0,-9.460956789553165e-06
576.0,-0.0007363824406638741
640.0,-0.0021086321212351322
704.0,-0.0033252115827053785
768.0,-0.0021195553708821535
832.0,-0.003315230133011937
896.0,-0.0030779873486608267
960.0,-0.003941456787288189
1024.0,-0.005447016097605228
1152.0,-0.003667391138151288
1280.0,-0.0006348029710352421
1408.0,-0.0031984313391149044
1536.0,-0.00027555180713534355
1664.0,-0.0001836406154325232
1792.0,-0.0006348420865833759
1920.0,-0.00040645021363161504
2048.0,0.003452711272984743
2304.0,0.0006164844380691648
2560.0,0.0023431386798620224
2816.0,0.0013199802488088608
3072.0,0.0015209169359877706
3328.0,0.0010611872421577573
3584.0,-0.00015365662693511695
3840.0,-0.001934284926392138
4096.0,-0.003802865743637085
4608.0,-0.003821371588855982
5120.0,0.00254625640809536
5632.0,0.004447088111191988
6144.0,0.0002525361196603626
6656.0,-0.004853060934692621
7168.0,-0.002327583497390151
7680.0,0.0040629468858242035
8192.0,0.0020722162444144487
end
