version,3.0
numOfCh,1
type,point
parent_name,19e3e_0dot6-1dot0
ch_type,1_1
kcount,1
numberNandB,1
brightnessNandB,1
carpet pos,0
pc,0
Time (ms),CH1 Auto-Correlation
1.0,0.046307217329740524
2.0,0.043898846954107285
3.0,0.041767653077840805
4.0,0.039834022521972656
5.0,0.0381300263106823
6.0,0.036584075540304184
7.0,0.03510415181517601
8.0,0.03370753303170204
9.0,0.03248327970504761
10.0,0.031333137303590775
11.0,0.030169392004609108
12.0,0.029068414121866226
13.0,0.028037026524543762
14.0,0.0270951259881258
15.0,0.026262247934937477
16.0,0.02548392489552498
18.0,0.0240692850202322
20.0,0.022815009579062462
22.0,0.021714728325605392
24.0,0.020619694143533707
26.0,0.019631611183285713
28.0,0.018811604008078575
30.0,0.018028251826763153
32.0,0.01731712557375431
36.0,0.016138074919581413
40.0,0.015178433619439602
44.0,0.014519496820867062
48.0,0.013888132758438587
52.0,0.013092259876430035
56.0,0.012477976270020008
60.0,0.011900391429662704
64.0,0.011150055564939976
72.0,0.01023329608142376
80.0,0.009800982661545277
88.0,0.009785203263163567
96.0,0.009182721376419067
104.0,0.008194172754883766
112.0,0.007170888129621744
120.0,0.006053096614778042
128.0,0.005174899939447641
144.0,0.00517314812168479
160.0,0.0049024950712919235
176.0,0.005026967264711857
192.0,0.006844361778348684
208.0,0.007380286231637001
224.0,0.00585025642067194
240.0,0.005142922978848219
256.0,0.005386370234191418
288.0,0.0054335398599505424
320.0,0.004662072751671076
352.0,0.00428497139364481
384.0,0.0024302287492901087
416.0,0.0009072470129467547
448.0,-0.0013078742194920778
480.0,-0.0031073761638253927
512.0,-0.0031103850342333317
576.0,0.00010008060053223744
640.0,0.0001183318963740021
704.0,4.794987034983933e-05
768.0,0.00279237306676805
832.0,0.0012169602559879422
896.0,0.001101184170693159
960.0,0.0029956514481455088
1024.0,0.002129926811903715
1152.0,0.0012918375432491302
1280.0,0.0020067556761205196
1408.0,0.0013109593419358134
1536.0,0.0008043492562137544
1664.0,-0.0005981598515063524
1792.0,-0.002751376712694764
1920.0,-0.0038995493669062853
2048.0,-0.0018707686103880405
2304.0,0.0012570042163133621
2560.0,0.00018472640658728778
2816.0,-0.0009866292821243405
3072.0,-0.0010118292411789298
3328.0,-0.0047090742737054825
3584.0,-0.005959292408078909
3840.0,-0.003770251991227269
4096.0,-0.002526959404349327
4608.0,-0.001393485232256353
5120.0,0.0018512783572077751
5632.0,0.00010498652409296483
6144.0,-0.0008416239288635552
6656.0,-0.0017551409546285868
7168.0,0.0003682042588479817
7680.0,-0.0001671207428444177
8192.0,0.002968277782201767
end
