version,3.0
numOfCh,1
type,point
parent_name,19e3e_0dot6-1dot0
ch_type,1_1
kcount,1
numberNandB,1
brightnessNandB,1
carpet pos,0
pc,0
Time (ms),CH1 Auto-Correlation
1.0,0.04203972965478897
2.0,0.03966843709349632
3.0,0.03754273056983948
4.0,0.03567301109433174
5.0,0.034061335027217865
6.0,0.032554659992456436
7.0,0.03113611228764057
8.0,0.029787039384245872
9.0,0.028535516932606697
10.0,0.027364566922187805
11.0,0.02625521458685398
12.0,0.025202902033925056
13.0,0.02432422898709774
14.0,0.023438869044184685
15.0,0.022619709372520447
16.0,0.0217985101044178
18.0,0.020432477816939354
20.0,0.019075702875852585
22.0,0.01796460896730423
24.0,0.017021028324961662
26.0,0.01628849282860756
28.0,0.01567498780786991
30.0,0.015051767230033875
32.0,0.014397353865206242
36.0,0.013322200626134872
40.0,0.012452464550733566
44.0,0.01166164968162775
48.0,0.011104540899395943
52.0,0.010488102212548256
56.0,0.010000315494835377
60.0,0.00968907866626978
64.0,0.009339207783341408
72.0,0.008695222437381744
80.0,0.007927805185317993
88.0,0.007468957919627428
96.0,0.007642393931746483
104.0,0.0077674975618720055
112.0,0.007456461898982525
120.0,0.0070628272369503975
128.0,0.006747295614331961
144.0,0.0043164505623281
160.0,0.002517856191843748
176.0,0.0015181000344455242
192.0,0.0011558200931176543
208.0,0.0006206161924637854
224.0,0.00045876213698647916
240.0,0.0006044763140380383
256.0,0.0017065559513866901
288.0,0.0035181224811822176
320.0,0.00406621303409338
352.0,0.002308668103069067
384.0,0.002349209738895297
416.0,0.0032509558368474245
448.0,0.0015132081462070346
480.0,-0.0020791487768292427
512.0,-0.0017945338040590286
576.0,-0.00018947997887153178
640.0,0.0020810954738408327
704.0,0.0028529183473438025
768.0,0.0026071774773299694
832.0,0.0007327426574192941
896.0,-0.0009934422560036182
960.0,-0.0015658208867534995
1024.0,-0.0007592531619593501
1152.0,-0.00243902625516057
1280.0,0.0007967738201841712
1408.0,-0.0023343416396528482
1536.0,-0.005231690127402544
1664.0,-0.00262348516844213
1792.0,-0.003404294140636921
1920.0,-0.00263174157589674
2048.0,0.00030638754833489656
2304.0,0.0009024552418850362
2560.0,0.0027668026741594076
2816.0,9.208763367496431e-05
3072.0,-0.001280197873711586
3328.0,0.0020411417353898287
3584.0,0.0023513888008892536
3840.0,-0.00034675232018344104
4096.0,-0.002428352367132902
4608.0,-0.0008263828349299729
5120.0,-0.003829860594123602
5632.0,0.0012124133063480258
6144.0,0.0025735022500157356
6656.0,-0.0006366302259266376
7168.0,0.0006228757556527853
7680.0,-0.003489461960271001
8192.0,0.0022043895442038774
end
