version,3.0
numOfCh,1
type,point
parent_name,19e3e_0dot6-1dot0
ch_type,1_1
kcount,1
numberNandB,1
brightnessNandB,1
carpet pos,0
pc,0
Time (ms),CH1 Auto-Correlation
1.0,0.05316517502069473
2.0,0.05076192691922188
3.0,0.04862641543149948
4.0,0.04676377773284912
5.0,0.045093655586242676
6.0,0.04360824078321457
7.0,0.04214552044868469
8.0,0.040785226970911026
9.0,0.03942623734474182
10.0,0.03821248561143875
11.0,0.03712073713541031
12.0,0.03613390028476715
13.0,0.035171959549188614
14.0,0.034289561212062836
15.0,0.033444587141275406
16.0,0.03262167051434517
18.0,0.03113412857055664
20.0,0.029771799221634865
22.0,0.028584906831383705
24.0,0.027596062049269676
26.0,0.02663332410156727
28.0,0.025568995624780655
30.0,0.02466576173901558
32.0,0.023979641497135162
36.0,0.022703727707266808
40.0,0.021550964564085007
44.0,0.020379148423671722
48.0,0.019530408084392548
52.0,0.018773214891552925
56.0,0.01814195141196251
60.0,0.017439354211091995
64.0,0.01674654148519039
72.0,0.016134750097990036
80.0,0.015304738655686378
88.0,0.014075317420065403
96.0,0.013398286886513233
104.0,0.01378766167908907
112.0,0.014076482504606247
120.0,0.01376951765269041
128.0,0.012923026457428932
144.0,0.011996418237686157
160.0,0.011657706461846828
176.0,0.01034686341881752
192.0,0.00991761777549982
208.0,0.008561101742088795
224.0,0.007148501928895712
240.0,0.005896405782550573
256.0,0.004039401188492775
288.0,0.003871432039886713
320.0,0.003797693643718958
352.0,0.0031466211657971144
384.0,0.0016026045195758343
416.0,0.0015855972887948155
448.0,0.0026725814677774906
480.0,0.0016407942166551948
512.0,-6.789851613575593e-05
576.0,0.0003302179975435138
640.0,0.0012701007071882486
704.0,-0.00033232124405913055
768.0,0.002249256009235978
832.0,0.0009517600410617888
896.0,0.0019101533107459545
960.0,0.001810393761843443
1024.0,0.0009287834400311112
1152.0,-0.00023113410861697048
1280.0,-0.001029493403621018
1408.0,-0.00043407344492152333
1536.0,0.001992173958569765
1664.0,0.0028878229204565287
1792.0,0.004106995649635792
1920.0,0.004086649511009455
2048.0,0.0026453181635588408
2304.0,-0.0005448575248010457
2560.0,-0.002091930015012622
2816.0,-0.004290974698960781
3072.0,-0.0051817200146615505
3328.0,-0.002716198330745101
3584.0,-0.003925825469195843
3840.0,-0.0011981178540736437
4096.0,-0.0009956604335457087
4608.0,-0.00473397970199585
5120.0,-0.0016316138207912445
5632.0,-0.0007709419005550444
6144.0,-0.0012903651222586632
6656.0,0.0036306232213974
7168.0,0.0042113508097827435
7680.0,-0.002688083564862609
8192.0,-0.0029237607959657907
end
