version,3.0
numOfCh,1
type,point
parent_name,19e3e_0dot6-1dot0
ch_type,1_1
kcount,1
numberNandB,1
brightnessNandB,1
carpet pos,0
pc,0
Time (ms),CH1 Auto-Correlation
1.0,0.04045487567782402
2.0,0.038131535053253174
3.0,0.03603830188512802
4.0,0.03421948850154877
5.0,0.032490700483322144
6.0,0.0308576337993145
7.0,0.029299257323145866
8.0,0.027878405526280403
9.0,0.026506783440709114
10.0,0.025256721302866936
11.0,0.02410297840833664
12.0,0.022978994995355606
13.0,0.02183794230222702
14.0,0.020757118239998817
15.0,0.019819261506199837
16.0,0.018963247537612915
18.0,0.01758000999689102
20.0,0.016317687928676605
22.0,0.01525683980435133
24.0,0.014374935999512672
26.0,0.013509376905858517
28.0,0.012688505463302135
30.0,0.011885788291692734
32.0,0.011007225140929222
36.0,0.009717080742120743
40.0,0.008747388608753681
44.0,0.008042532950639725
48.0,0.007601571269333363
52.0,0.0071059297770261765
56.0,0.006762808188796043
60.0,0.006376605946570635
64.0,0.0061187450774014
72.0,0.005680329166352749
80.0,0.005818548146635294
88.0,0.00616981228813529
96.0,0.006022632587701082
104.0,0.00544691039249301
112.0,0.004768469836562872
120.0,0.0038955521304160357
128.0,0.0030145575292408466
144.0,0.00239082844927907
160.0,0.0018184793880209327
176.0,0.0010384100023657084
192.0,0.0007733794627711177
208.0,0.0012188047403469682
224.0,0.0001643449068069458
240.0,-0.0002932355855591595
256.0,-0.0011545319575816393
288.0,-0.00035509400186128914
320.0,2.8878275770694017e-05
352.0,-0.001136014354415238
384.0,-0.001907800673507154
416.0,-0.001960667548701167
448.0,-0.0015402709832414985
480.0,-0.0016503512160852551
512.0,-0.0015020103892311454
576.0,-0.002977615687996149
640.0,-0.0009334075730293989
704.0,-0.0026317185256630182
768.0,-0.001118473126552999
832.0,-0.00020552138448692858
896.0,-0.0007918779156170785
960.0,-0.0012178021715953946
1024.0,-0.0016151601448655128
1152.0,-0.0009074013214558363
1280.0,-0.001138717052526772
1408.0,-0.00021849741460755467
1536.0,0.00047864302177913487
1664.0,0.00017082426347769797
1792.0,-0.0014200164005160332
1920.0,-0.0007082768715918064
2048.0,0.0013329616049304605
2304.0,0.0006347624585032463
2560.0,-0.001579921692609787
2816.0,-0.0019533399026840925
3072.0,-0.0014486032305285335
3328.0,-0.0017797020263969898
3584.0,0.0021663096267729998
3840.0,0.0027227916289120913
4096.0,0.0001583661651238799
4608.0,0.0009534478886052966
5120.0,-0.0003585761005524546
5632.0,0.0013241359265521169
6144.0,-0.0012748395092785358
6656.0,0.0005219330778345466
7168.0,-0.001829485991038382
7680.0,-6.672022209386341e-06
8192.0,0.0005011184839531779
end
