version,3.0
numOfCh,1
type,point
parent_name,19e3e_0dot6-1dot0
ch_type,1_1
kcount,1
numberNandB,1
brightnessNandB,1
carpet pos,0
pc,0
Time (ms),CH1 Auto-Correlation
1.0,0.043325308710336685
2.0,0.04108083248138428
3.0,0.039055634289979935
4.0,0.03723033517599106
5.0,0.03566897660493851
6.0,0.03416220843791962
7.0,0.03280105069279671
8.0,0.031477510929107666
9.0,0.03028559684753418
10.0,0.029127711430191994
11.0,0.028017349541187286
12.0,0.026958219707012177
13.0,0.025985918939113617
14.0,0.02512422762811184
15.0,0.02429501712322235
16.0,0.02353283390402794
18.0,0.02223462611436844
20.0,0.021090015769004822
22.0,0.020018436014652252
24.0,0.019093003123998642
26.0,0.018130455166101456
28.0,0.017091823741793633
30.0,0.01608343981206417
32.0,0.015122407115995884
36.0,0.013640432618558407
40.0,0.012359917163848877
44.0,0.011557487770915031
48.0,0.010972818359732628
52.0,0.010573375038802624
56.0,0.010207060724496841
60.0,0.009554672986268997
64.0,0.008858687244355679
72.0,0.007758050691336393
80.0,0.007443735376000404
88.0,0.00714349327608943
96.0,0.0067055607214570045
104.0,0.0062376935966312885
112.0,0.005424016155302525
120.0,0.0048152548260986805
128.0,0.003782475832849741
144.0,0.0019272803328931332
160.0,0.0017477055080235004
176.0,0.002149356296285987
192.0,0.0021061317529529333
208.0,0.002007164992392063
224.0,0.0030018631368875504
240.0,0.0033764345571398735
256.0,0.003110807156190276
288.0,0.0009433031664229929
320.0,-2.0846147890551947e-05
352.0,-0.001123545691370964
384.0,-0.003811138216406107
416.0,-0.004275457467883825
448.0,-0.0036096079275012016
480.0,-0.0031047712545841932
512.0,-0.002496865810826421
576.0,-0.00238808523863554
640.0,-0.0017149687046185136
704.0,-0.0014525022124871612
768.0,0.0015339805977419019
832.0,0.0013276688987389207
896.0,0.0022811756934970617
960.0,0.0017317685997113585
1024.0,0.0003771845658775419
1152.0,-0.0033209791872650385
1280.0,-0.0016579730436205864
1408.0,-0.001288091647438705
1536.0,0.0008963097934611142
1664.0,0.0034690042957663536
1792.0,0.0010100426152348518
1920.0,2.2178126528160647e-05
2048.0,-0.0007471698336303234
2304.0,-0.002436448121443391
2560.0,-0.0022785135079175234
2816.0,-0.0014407001435756683
3072.0,0.0010353378020226955
3328.0,0.0022261745762079954
3584.0,0.002009675372391939
3840.0,-0.000941963866353035
4096.0,-0.00323294335976243
4608.0,-0.0008531794883310795
5120.0,0.0017289776587858796
5632.0,-0.0002675172290764749
6144.0,-0.000914214935619384
6656.0,0.0011569098569452763
7168.0,0.0016522356308996677
7680.0,-0.0027861588168889284
8192.0,0.0018033637898042798
end
