version,3.0
numOfCh,1
type,point
parent_name,19e3e_0dot6-1dot0
ch_type,1_1
kcount,1
numberNandB,1
brightnessNandB,1
carpet pos,0
pc,0
Time (ms),CH1 Auto-Correlation
1.0,0.04181818291544914
2.0,0.039340414106845856
3.0,0.03713478893041611
4.0,0.035175785422325134
5.0,0.03341461718082428
6.0,0.031829170882701874
7.0,0.030309027060866356
8.0,0.028890524059534073
9.0,0.02754661813378334
10.0,0.026340430602431297
11.0,0.025280045345425606
12.0,0.02430717647075653
13.0,0.023409156128764153
14.0,0.02255454659461975
15.0,0.02179723232984543
16.0,0.02111099846661091
18.0,0.019745023921132088
20.0,0.018522249534726143
22.0,0.017486726865172386
24.0,0.01657487452030182
26.0,0.01565977744758129
28.0,0.014910426922142506
30.0,0.014091713353991508
32.0,0.013245761394500732
36.0,0.011734762229025364
40.0,0.010544663295149803
44.0,0.009671016596257687
48.0,0.009110037237405777
52.0,0.0085044139996171
56.0,0.007882080040872097
60.0,0.0074660140089690685
64.0,0.007207702845335007
72.0,0.007156555540859699
80.0,0.007303399033844471
88.0,0.006855492014437914
96.0,0.006103850435465574
104.0,0.005187439266592264
112.0,0.00468793511390686
120.0,0.004319629166275263
128.0,0.0039658499881625175
144.0,0.0034929418470710516
160.0,0.0038063570391386747
176.0,0.0030873860232532024
192.0,0.002473268425092101
208.0,0.0016274865483865142
224.0,0.000828828546218574
240.0,0.0009467406780458987
256.0,0.0008017613436095417
288.0,0.0020884049590677023
320.0,0.0021728496067225933
352.0,0.0022807351779192686
384.0,0.0022234239149838686
416.0,8.396747580263764e-05
448.0,-0.00021558762819040567
480.0,-0.0010376160498708487
512.0,-0.0018873625667765737
576.0,-0.001868888852186501
640.0,-0.0019809543155133724
704.0,-0.002624752465635538
768.0,-0.001303026219829917
832.0,-0.0023977726232260466
896.0,-0.002942982129752636
960.0,-0.0027015595696866512
1024.0,-0.0019963684026151896
1152.0,-0.0028934627771377563
1280.0,-0.0009753857157193124
1408.0,-0.0009363698191009462
1536.0,0.0004996391362510622
1664.0,0.0010937632760033011
1792.0,6.434721581172198e-05
1920.0,-0.0004025659873150289
2048.0,0.0013278578408062458
2304.0,0.00012646877439692616
2560.0,0.0011093104258179665
2816.0,-0.0008282873895950615
3072.0,-0.0020655898842960596
3328.0,-0.0016800615703687072
3584.0,2.9969487513881177e-06
3840.0,0.0011054360074922442
4096.0,0.0018340847454965115
4608.0,-0.00011837177589768544
5120.0,0.0009882374433800578
5632.0,1.0290164027537685e-05
6144.0,-0.0015521515160799026
6656.0,0.001775084645487368
7168.0,-0.0020289476960897446
7680.0,0.000866833608597517
8192.0,0.0032111024484038353
end
