version,3.0
numOfCh,1
type,point
parent_name,19e3e_0dot6-1dot0
ch_type,1_1
kcount,1
numberNandB,1
brightnessNandB,1
carpet pos,0
pc,0
Time (ms),CH1 Auto-Correlation
1.0,0.042018137872219086
2.0,0.03971511498093605
3.0,0.03767493739724159
4.0,0.03575119376182556
5.0,0.03402532637119293
6.0,0.03244439512491226
7.0,0.03105185367166996
8.0,0.029769722372293472
9.0,0.028592921793460846
10.0,0.027478942647576332
11.0,0.026473985984921455
12.0,0.0255749374628067
13.0,0.02476438134908676
14.0,0.024031074717640877
15.0,0.023260891437530518
16.0,0.02264532633125782
18.0,0.021513931453227997
20.0,0.020601678639650345
22.0,0.019724100828170776
24.0,0.018904943019151688
26.0,0.01813172921538353
28.0,0.01741647906601429
30.0,0.016707811504602432
32.0,0.015842542052268982
36.0,0.01408333145081997
40.0,0.01268056221306324
44.0,0.011351273395121098
48.0,0.01011798158288002
52.0,0.009142808616161346
56.0,0.008393615484237671
60.0,0.0077639068476855755
64.0,0.006890587974339724
72.0,0.0056909010745584965
80.0,0.004655564669519663
88.0,0.004090622998774052
96.0,0.0036921866703778505
104.0,0.0040086559019982815
112.0,0.004718975629657507
120.0,0.004755841102451086
128.0,0.004735953640192747
144.0,0.005049137398600578
160.0,0.005718371365219355
176.0,0.005442912690341473
192.0,0.005389299709349871
208.0,0.003942406270653009
224.0,0.0017958447569981217
240.0,0.00014001490490045398
256.0,3.803559593507089e-05
288.0,0.0009791402844712138
320.0,0.0009635378373786807
352.0,0.0005773157463409007
384.0,0.0005975407548248768
416.0,7.908803672762588e-05
448.0,0.001973806880414486
480.0,0.0034087032545357943
512.0,0.00306524196639657
576.0,0.0008308357791975141
640.0,0.0005048858001828194
704.0,-0.0002479048853274435
768.0,-0.001680057612247765
832.0,-0.0005886760773137212
896.0,-0.003079525427892804
960.0,-0.0029137381352484226
1024.0,-0.0036540562286973
1152.0,-0.00361610553227365
1280.0,-0.0026882097590714693
1408.0,-0.0013255944941192865
1536.0,-0.0022368549834936857
1664.0,-0.001472789328545332
1792.0,-0.0023171158973127604
1920.0,-8.02192953415215e-05
2048.0,0.00018345015996601433
2304.0,0.0008102926658466458
2560.0,0.0018141488544642925
2816.0,0.00021820160327479243
3072.0,0.00038672931259498
3328.0,-0.0018799470271915197
3584.0,0.0017291208496317267
3840.0,0.0011779963970184326
4096.0,-0.0004263710870873183
4608.0,-0.0011452994076535106
5120.0,-0.003449871903285384
5632.0,-0.0012510883389040828
6144.0,0.002909406553953886
6656.0,0.0015851760981604457
7168.0,-0.00030965296900831163
7680.0,-0.0026095903012901545
8192.0,0.00031976395985111594
end
