version,3.0
numOfCh,1
type,point
parent_name,19e3e_0dot6-1dot0
ch_type,1_1
kcount,1
numberNandB,1
brightnessNandB,1
carpet pos,0
pc,0
Time (ms),CH1 Auto-Correlation
1.0,0.04257810115814209
2.0,0.04029347002506256
3.0,0.03823833540081978
4.0,0.03630591928958893
5.0,0.034459926187992096
6.0,0.03280230984091759
7.0,0.031201347708702087
8.0,0.02982804924249649
9.0,0.028517480939626694
10.0,0.027397196739912033
11.0,0.026371639221906662
12.0,0.02539869211614132
13.0,0.02442082390189171
14.0,0.0235251747071743
15.0,0.02264593541622162
16.0,0.02178521826863289
18.0,0.02025705575942993
20.0,0.018930308520793915
22.0,0.017972975969314575
24.0,0.017090370878577232
26.0,0.016373809427022934
28.0,0.01558134239166975
30.0,0.014926218427717686
32.0,0.014280426315963268
36.0,0.012755933217704296
40.0,0.01160366553813219
44.0,0.01088840514421463
48.0,0.01012241467833519
52.0,0.009541945531964302
56.0,0.008940907195210457
60.0,0.008296383544802666
64.0,0.007739902939647436
72.0,0.006960519589483738
80.0,0.005972192157059908
88.0,0.005686365067958832
96.0,0.005090130493044853
104.0,0.0051529137417674065
112.0,0.005402662325650454
120.0,0.0054823472164571285
128.0,0.0050383880734443665
144.0,0.0035197518300265074
160.0,0.0019679279066622257
176.0,0.0010589082958176732
192.0,0.0003678349603433162
208.0,0.0009775778744369745
224.0,0.0026772136334329844
240.0,0.0042967465706169605
256.0,0.005048546474426985
288.0,0.004838303662836552
320.0,0.002176108304411173
352.0,0.00047580504906363785
384.0,0.0013982361415401101
416.0,0.0004424809303600341
448.0,-9.517021680949256e-05
480.0,3.107938391622156e-05
512.0,0.00047965827980078757
576.0,0.00019468508253339678
640.0,0.0023333937861025333
704.0,0.002962957601994276
768.0,0.0030559443403035402
832.0,0.002023516921326518
896.0,0.0022849971428513527
960.0,0.0030336701311171055
1024.0,0.001344420830719173
1152.0,0.0008991480572149158
1280.0,0.0021189874969422817
1408.0,-0.0002967716718558222
1536.0,-0.00038348964881151915
1664.0,0.0013621828984469175
1792.0,0.0014434397453442216
1920.0,0.002480593742802739
2048.0,0.002825883449986577
2304.0,0.001619613147340715
2560.0,-0.0010339559521526098
2816.0,-0.00039367328281514347
3072.0,9.677305934019387e-05
3328.0,-0.0011559437261894345
3584.0,-0.0007195675862021744
3840.0,0.001522465725429356
4096.0,0.0009539969614706933
4608.0,-2.542750007705763e-05
5120.0,-9.213407611241564e-05
5632.0,4.5561304432339966e-05
6144.0,-0.00036787844146601856
6656.0,0.0006312525947578251
7168.0,-0.0004034856101498008
7680.0,0.0013513853773474693
8192.0,0.0015138278249651194
end
