version,3.0
numOfCh,1
type,point
parent_name,19e3e_0dot6-1dot0
ch_type,1_1
kcount,1
numberNandB,1
brightnessNandB,1
carpet pos,0
pc,0
Time (ms),CH1 Auto-Correlation
1.0,0.04078657552599907
2.0,0.03837376460433006
3.0,0.03617865592241287
4.0,0.03418218716979027
5.0,0.03243011236190796
6.0,0.03082922287285328
7.0,0.029459739103913307
8.0,0.02818300575017929
9.0,0.02695918269455433
10.0,0.025788500905036926
11.0,0.024730468168854713
12.0,0.023714661598205566
13.0,0.022642051801085472
14.0,0.021645938977599144
15.0,0.02073543332517147
16.0,0.019895141944289207
18.0,0.01838298700749874
20.0,0.017148468643426895
22.0,0.01611544005572796
24.0,0.0152282128110528
26.0,0.014465820975601673
28.0,0.013852724805474281
30.0,0.013299253769218922
32.0,0.012896229512989521
36.0,0.012116925790905952
40.0,0.011296573095023632
44.0,0.010445576161146164
48.0,0.00961210671812296
52.0,0.009123491123318672
56.0,0.008750056847929955
60.0,0.008292955346405506
64.0,0.007804492954164743
72.0,0.007059906143695116
80.0,0.006065078545361757
88.0,0.0053947363048791885
96.0,0.004861499648541212
104.0,0.0043587652035057545
112.0,0.003918745089322329
120.0,0.0028795157559216022
128.0,0.002036438090726733
144.0,0.0001603933924343437
160.0,0.0010101678781211376
176.0,0.0032764230854809284
192.0,0.003059682436287403
208.0,0.0017045116983354092
224.0,0.0009082310716621578
240.0,0.0007245224551297724
256.0,0.001071218866854906
288.0,0.0018671437865123153
320.0,0.0008968476322479546
352.0,0.0011164289899170399
384.0,0.0009473711252212524
416.0,0.0022711632773280144
448.0,0.0015335261123254895
480.0,0.0003923257754649967
512.0,-0.0010653047356754541
576.0,-0.002460549585521221
640.0,-0.003694324754178524
704.0,-0.0003611580468714237
768.0,0.001427719253115356
832.0,0.0014218924334272742
896.0,0.0018663279479369521
960.0,-0.00090301368618384
1024.0,-0.0018920482834801078
1152.0,0.00121684605255723
1280.0,0.001620116992853582
1408.0,0.00022962820366956294
1536.0,1.5637839169357903e-05
1664.0,0.0017734766006469727
1792.0,0.0009247469715774059
1920.0,0.0004658941470552236
2048.0,-0.0012032738886773586
2304.0,0.0005722423666156828
2560.0,-0.0005716154118999839
2816.0,-0.00311935949139297
3072.0,0.0011586088221520185
3328.0,4.2989145185856614e-06
3584.0,-0.0017671796958893538
3840.0,-0.001708350726403296
4096.0,-0.0008404680993407965
4608.0,0.00019011434051208198
5120.0,0.0005460433894768357
5632.0,0.00078147544991225
6144.0,0.00026824604719877243
6656.0,-0.0008862100075930357
7168.0,-0.0018586989026516676
7680.0,-0.0008602158632129431
8192.0,-0.003044176148250699
end
