version,3.0
numOfCh,1
type,point
parent_name,19e3e_0dot6-1dot0
ch_type,1_1
kcount,1
numberNandB,1
brightnessNandB,1
carpet pos,0
pc,0
Time (ms),CH1 Auto-Correlation
1.0,0.04898037016391754
2.0,0.04642428085207939
3.0,0.04415086656808853
4.0,0.04214626923203468
5.0,0.0402330607175827
6.0,0.03849279507994652
7.0,0.03702596575021744
8.0,0.03565410152077675
9.0,0.03450571000576019
10.0,0.0334257073700428
11.0,0.03239791840314865
12.0,0.03144523501396179
13.0,0.030605928972363472
14.0,0.029831290245056152
15.0,0.029064534232020378
16.0,0.028255200013518333
18.0,0.02688642404973507
20.0,0.025712978094816208
22.0,0.024546410888433456
24.0,0.023329881951212883
26.0,0.022351836785674095
28.0,0.021578732877969742
30.0,0.02089788019657135
32.0,0.020073631778359413
36.0,0.018669400364160538
40.0,0.017788825556635857
44.0,0.01726304553449154
48.0,0.01656016707420349
52.0,0.01582757569849491
56.0,0.014931434765458107
60.0,0.013954324647784233
64.0,0.01316002570092678
72.0,0.012451265007257462
80.0,0.012033471837639809
88.0,0.011856526136398315
96.0,0.011472515761852264
104.0,0.010595381259918213
112.0,0.009443257004022598
120.0,0.008565345779061317
128.0,0.007547748740762472
144.0,0.005921355914324522
160.0,0.004252152983099222
176.0,0.0022805766202509403
192.0,0.001367154880426824
208.0,0.0014570573111996055
224.0,0.0013641554396599531
240.0,0.0008317879401147366
256.0,0.00020204528118483722
288.0,-0.0006489865481853485
320.0,0.00043139306944794953
352.0,0.001874782727099955
384.0,0.001373945502564311
416.0,0.00010088609997183084
448.0,0.0006072717369534075
480.0,-0.0003219532372895628
512.0,-0.002814557868987322
576.0,-0.003694095415994525
640.0,-0.0045739635825157166
704.0,-0.004220313858240843
768.0,-0.0017319346079602838
832.0,-0.0016666346928104758
896.0,-1.3093019333609845e-05
960.0,-0.000903273350559175
1024.0,-0.0013510622084140778
1152.0,0.003707221243530512
1280.0,0.004682647529989481
1408.0,-0.0005831804010085762
1536.0,-0.0007188051822595298
1664.0,0.0012876512482762337
1792.0,-4.19961943407543e-05
1920.0,-0.001569658750668168
2048.0,0.0009370568441227078
2304.0,-0.001907428610138595
2560.0,-0.0014878938673064113
2816.0,-0.0012014504754915833
3072.0,-9.282618702854961e-05
3328.0,0.0006405793828889728
3584.0,-7.281929720193148e-05
3840.0,-0.0010468718828633428
4096.0,-0.004399718251079321
4608.0,-0.0037634619511663914
5120.0,0.0008111884235404432
5632.0,0.00031702202977612615
6144.0,-0.0009323027916252613
6656.0,0.0017903340049088001
7168.0,0.002817254513502121
7680.0,-0.0011533077340573072
8192.0,0.0017942413687705994
end
