version,3.0
numOfCh,1
type,point
parent_name,19e3e_0dot6-1dot0
ch_type,1_1
kcount,1
numberNandB,1
brightnessNandB,1
carpet pos,0
pc,0
Time (ms),CH1 Auto-Correlation
1.0,0.039837051182985306
2.0,0.037556424736976624
3.0,0.035511936992406845
4.0,0.033627841621637344
5.0,0.03193407133221626
6.0,0.030316071584820747
7.0,0.028758326545357704
8.0,0.027323421090841293
9.0,0.026041168719530106
10.0,0.024809084832668304
11.0,0.023762112483382225
12.0,0.02273935079574585
13.0,0.021809561178088188
14.0,0.020963894203305244
15.0,0.020099157467484474
16.0,0.019327687099575996
18.0,0.018006974831223488
20.0,0.01675039902329445
22.0,0.015600930899381638
24.0,0.01449806708842516
26.0,0.013582124374806881
28.0,0.012769856490194798
30.0,0.01203716266900301
32.0,0.01136834267526865
36.0,0.010341485030949116
40.0,0.009299525991082191
44.0,0.008627709932625294
48.0,0.008348650299012661
52.0,0.008037297986447811
56.0,0.0075724502094089985
60.0,0.007359146606177092
64.0,0.007295128423720598
72.0,0.006913935299962759
80.0,0.006365007720887661
88.0,0.0056852912530303
96.0,0.004416156094521284
104.0,0.0034329958725720644
112.0,0.002700183540582657
120.0,0.002594605553895235
128.0,0.002754060085862875
144.0,0.0023557418026030064
160.0,0.00292727118358016
176.0,0.0027853294741362333
192.0,0.0024085803888738155
208.0,0.0015487222699448466
224.0,0.001629627076908946
240.0,0.001985265640541911
256.0,0.0019955874886363745
288.0,0.0029073995538055897
320.0,0.0009924437617883086
352.0,0.0003493477706797421
384.0,0.001782419509254396
416.0,0.0021926239132881165
448.0,0.0012080470332875848
480.0,0.0024022383149713278
512.0,0.002088723471388221
576.0,0.0003432917583268136
640.0,0.00022381065355148166
704.0,0.001803601742722094
768.0,0.0011183040915057063
832.0,0.0010638140374794602
896.0,0.001473180134780705
960.0,0.0015687741106376052
1024.0,0.00033279371564276516
1152.0,0.0002887886657845229
1280.0,-0.0003000138676725328
1408.0,0.0016070229467004538
1536.0,-0.00021767783618997782
1664.0,-0.00021732738241553307
1792.0,-0.0011711381375789642
1920.0,-0.0014333248836919665
2048.0,-0.0029167705215513706
2304.0,-0.0020523122511804104
2560.0,-0.0008726210216991603
2816.0,-0.002048264490440488
3072.0,-0.0014579551061615348
3328.0,-0.0013039674377068877
3584.0,-0.0020480998791754246
3840.0,-0.00023121251433622092
4096.0,0.00022432461264543235
4608.0,-0.00039143426693044603
5120.0,0.0011234841076657176
5632.0,0.0016905333613976836
6144.0,-0.00038350775139406323
6656.0,0.00021288283460307866
7168.0,-0.0017027737339958549
7680.0,-0.001399929285980761
8192.0,-2.6916655770037323e-05
end
