version,3.0
numOfCh,1
type,point
parent_name,19e3e_0dot6-1dot0
ch_type,1_1
kcount,1
numberNandB,1
brightnessNandB,1
carpet pos,0
pc,0
Time (ms),CH1 Auto-Correlation
1.0,0.04085942730307579
2.0,0.03859378397464752
3.0,0.036598753184080124
4.0,0.034788236021995544
5.0,0.03312058374285698
6.0,0.03164540231227875
7.0,0.030233191326260567
8.0,0.028893738985061646
9.0,0.027617385610938072
10.0,0.026468375697731972
11.0,0.02537916973233223
12.0,0.024266017600893974
13.0,0.02331092581152916
14.0,0.02240898460149765
15.0,0.02151915244758129
16.0,0.020736979320645332
18.0,0.019229603931307793
20.0,0.017913207411766052
22.0,0.016773033887147903
24.0,0.01579110138118267
26.0,0.014951495453715324
28.0,0.0142000587657094
30.0,0.013456731103360653
32.0,0.012749300338327885
36.0,0.011358708143234253
40.0,0.009920090436935425
44.0,0.008909299969673157
48.0,0.008409135043621063
52.0,0.008075705729424953
56.0,0.007704740855842829
60.0,0.007288587745279074
64.0,0.006928164046257734
72.0,0.0068886191584169865
80.0,0.006949655711650848
88.0,0.006830402184277773
96.0,0.006362252868711948
104.0,0.005301619879901409
112.0,0.004228298552334309
120.0,0.0036514236126095057
128.0,0.0035221180878579617
144.0,0.003713390789926052
160.0,0.0033127188216894865
176.0,0.0027918389532715082
192.0,0.0013789859367534518
208.0,-0.0004137860960327089
224.0,-0.00022990988509263843
240.0,0.0003415740793570876
256.0,0.001218351419083774
288.0,0.0029259894508868456
320.0,0.0017484460258856416
352.0,0.0006863568560220301
384.0,0.0012889574281871319
416.0,0.0011645253980532289
448.0,0.0011301321210339665
480.0,0.0011170889483764768
512.0,-0.0010893488069996238
576.0,-0.0011249835370108485
640.0,-0.0023681765887886286
704.0,-0.0010778214782476425
768.0,0.0006090418319217861
832.0,0.00042104421299882233
896.0,0.0020728965755552053
960.0,0.0037657106295228004
1024.0,0.0015218864427879453
1152.0,0.0008052562479861081
1280.0,-0.0006910536321811378
1408.0,-0.001384833361953497
1536.0,-0.0019048405811190605
1664.0,-0.0029303438495844603
1792.0,-0.001377280568704009
1920.0,-0.0014675958082079887
2048.0,-0.0008728238171897829
2304.0,-0.0011350164422765374
2560.0,-0.0025047743692994118
2816.0,-0.002141327131539583
3072.0,0.0016171653987839818
3328.0,-0.0013463848736137152
3584.0,-0.00021539238514378667
3840.0,0.0008089155307970941
4096.0,-0.00021569411910604686
4608.0,-0.0005186288035474718
5120.0,0.0016959661152213812
5632.0,-0.00257295579649508
6144.0,0.002595308469608426
6656.0,-0.0015699061332270503
7168.0,0.0013907079119235277
7680.0,0.00018418309628032148
8192.0,0.0007944849785417318
end
