version,3.0
numOfCh,1
type,point
parent_name,20-cuts
ch_type,1_1
kcount,1
numberNandB,1
brightnessNandB,1
carpet pos,0
pc,0
Time (ms),CH1 Auto-Correlation
1.0,0.04355029761791229
2.0,0.04289698228240013
3.0,0.042260538786649704
4.0,0.04164723679423332
5.0,0.04106125235557556
6.0,0.04051171988248825
7.0,0.03997187316417694
8.0,0.0394587479531765
9.0,0.03897552937269211
10.0,0.03851151838898659
11.0,0.038066741079092026
12.0,0.03762885928153992
13.0,0.03718731179833412
14.0,0.03677036985754967
15.0,0.036363791674375534
16.0,0.03596234694123268
18.0,0.03523626551032066
20.0,0.034552399069070816
22.0,0.03388088941574097
24.0,0.03321746364235878
26.0,0.03258781507611275
28.0,0.03195248916745186
30.0,0.03128749504685402
32.0,0.03064362332224846
36.0,0.029518045485019684
40.0,0.028547052294015884
44.0,0.027643226087093353
48.0,0.026817278936505318
52.0,0.026016823947429657
56.0,0.025248391553759575
60.0,0.02451438270509243
64.0,0.023771192878484726
72.0,0.02239621803164482
80.0,0.021364672109484673
88.0,0.02057630755007267
96.0,0.019998179748654366
104.0,0.019576912745833397
112.0,0.019087616354227066
120.0,0.01852322369813919
128.0,0.018047550693154335
144.0,0.017402946949005127
160.0,0.01643195189535618
176.0,0.014886029995977879
192.0,0.013957928866147995
208.0,0.013613885268568993
224.0,0.013203484006226063
240.0,0.01265482697635889
256.0,0.012675226666033268
288.0,0.012372721917927265
320.0,0.011609788052737713
352.0,0.010007931850850582
384.0,0.007744118105620146
416.0,0.005969752557575703
448.0,0.005495685152709484
480.0,0.005157906096428633
512.0,0.005329028237611055
576.0,0.00559154711663723
640.0,0.0035793446004390717
704.0,0.0026737137231975794
768.0,0.0032736281864345074
832.0,0.003040097188204527
896.0,0.0029821852222085
960.0,0.0017423947574570775
1024.0,0.000478989677503705
1152.0,-0.00016141888045240194
1280.0,-0.0007594451890327036
1408.0,0.0001108592696255073
1536.0,0.00016364798648282886
1664.0,-0.0031405529007315636
1792.0,-0.0035176167730242014
1920.0,-0.006822812370955944
2048.0,-0.007733555976301432
2304.0,-0.009574122726917267
2560.0,-0.008991716429591179
2816.0,-0.002868263516575098
3072.0,-0.004159552976489067
3328.0,-0.0023522188421338797
3584.0,0.00038445694372057915
3840.0,0.002782581839710474
4096.0,0.004876427352428436
4608.0,0.007458870764821768
5120.0,0.0029682114254683256
5632.0,-0.0007225110894069076
6144.0,-0.0031660490203648806
6656.0,-0.010236654430627823
7168.0,-0.0049729556776583195
7680.0,-0.003680025227367878
8192.0,0.0020241516176611185
9216.0,0.005296268966048956
10240.0,-0.005716245621442795
11264.0,-0.014171740040183067
12288.0,-0.0035881991498172283
13312.0,0.01141726691275835
14336.0,0.014496034942567348
end
