version,3.0
numOfCh,1
type,point
parent_name,20-cuts
ch_type,1_1
kcount,1
numberNandB,1
brightnessNandB,1
carpet pos,0
pc,0
Time (ms),CH1 Auto-Correlation
1.0,0.03811260312795639
2.0,0.03747274726629257
3.0,0.03684482350945473
4.0,0.03624125197529793
5.0,0.03563815355300903
6.0,0.03505368158221245
7.0,0.034472979605197906
8.0,0.033904172480106354
9.0,0.03336334973573685
10.0,0.03284866735339165
11.0,0.0323367565870285
12.0,0.03184777498245239
13.0,0.03136507421731949
14.0,0.030904345214366913
15.0,0.030460175126791
16.0,0.030019056051969528
18.0,0.029162008315324783
20.0,0.02834383212029934
22.0,0.027578381821513176
24.0,0.026882924139499664
26.0,0.026223143562674522
28.0,0.025630801916122437
30.0,0.025084378197789192
32.0,0.024572327733039856
36.0,0.023567529395222664
40.0,0.02263275347650051
44.0,0.02178771235048771
48.0,0.020999127998948097
52.0,0.020254626870155334
56.0,0.019620580598711967
60.0,0.018935933709144592
64.0,0.018299942836165428
72.0,0.017511781305074692
80.0,0.0168655626475811
88.0,0.015901094302535057
96.0,0.014953010715544224
104.0,0.014079539105296135
112.0,0.013262036256492138
120.0,0.012480794452130795
128.0,0.011840042658150196
144.0,0.010846023447811604
160.0,0.00982748344540596
176.0,0.008705505169928074
192.0,0.008135051466524601
208.0,0.007652298081666231
224.0,0.007047888822853565
240.0,0.006809548009186983
256.0,0.006990063935518265
288.0,0.007157284300774336
320.0,0.0062472084537148476
352.0,0.005027606151998043
384.0,0.004024833906441927
416.0,0.0025438424199819565
448.0,0.0016729736234992743
480.0,0.0008174780523404479
512.0,-4.073507079738192e-05
576.0,-0.0015685530379414558
640.0,-0.0026789898984134197
704.0,-0.0005380281363613904
768.0,-0.00209406903013587
832.0,-0.0015543816844001412
896.0,-0.0013208006275817752
960.0,-0.0016561279771849513
1024.0,-0.0019051559502258897
1152.0,-0.0014734745491296053
1280.0,-0.00011072900815634057
1408.0,0.0013540837680920959
1536.0,0.0011749730911105871
1664.0,0.001183842308819294
1792.0,-0.0002868297742679715
1920.0,-0.0009304256527684629
2048.0,-0.003397913882508874
2304.0,-0.0016838526353240013
2560.0,0.00039788466528989375
2816.0,0.0003969565441366285
3072.0,-0.0015885308384895325
3328.0,-0.002515807282179594
3584.0,-0.002511240541934967
3840.0,0.0007222217391245067
4096.0,0.0012304971460253
4608.0,0.0005180478328838944
5120.0,0.0007197468657977879
5632.0,0.0021314402110874653
6144.0,-0.0055100745521485806
6656.0,-0.0023456162307411432
7168.0,0.0055663022212684155
7680.0,0.0007161934045143425
8192.0,-0.0026201889850199223
9216.0,0.004121087491512299
10240.0,-0.002547558629885316
11264.0,-0.0057305097579956055
12288.0,-0.003635111963376403
13312.0,-0.0038734476547688246
14336.0,0.01753881573677063
end
