version,3.0
numOfCh,1
type,point
parent_name,20-cuts
ch_type,1_1
kcount,1
numberNandB,1
brightnessNandB,1
carpet pos,0
pc,0
Time (ms),CH1 Auto-Correlation
1.0,0.023436086252331734
2.0,0.023037655279040337
3.0,0.02264763042330742
4.0,0.02227942831814289
5.0,0.021928299218416214
6.0,0.02159123122692108
7.0,0.021253906190395355
8.0,0.020932281389832497
9.0,0.02062194235622883
10.0,0.020324040204286575
11.0,0.02002694085240364
12.0,0.019742872565984726
13.0,0.01946433074772358
14.0,0.019182953983545303
15.0,0.018899034708738327
16.0,0.018623938784003258
18.0,0.018075624480843544
20.0,0.01754862628877163
22.0,0.01705167442560196
24.0,0.016583461314439774
26.0,0.016144460067152977
28.0,0.01574023999273777
30.0,0.015349265187978745
32.0,0.014978919178247452
36.0,0.01426461897790432
40.0,0.01359700970351696
44.0,0.013002192601561546
48.0,0.012472657486796379
52.0,0.01195613108575344
56.0,0.011487960815429688
60.0,0.010995502583682537
64.0,0.010527129285037518
72.0,0.00965988077223301
80.0,0.008956671692430973
88.0,0.00845359917730093
96.0,0.008200458250939846
104.0,0.007948123849928379
112.0,0.007678286638110876
120.0,0.0072421967051923275
128.0,0.0068263765424489975
144.0,0.006122911814600229
160.0,0.005318837705999613
176.0,0.004424284677952528
192.0,0.0035329852253198624
208.0,0.0028886101208627224
224.0,0.002421361394226551
240.0,0.0021520343143492937
256.0,0.0018624578369781375
288.0,0.0011948987375944853
320.0,0.0008472898625768721
352.0,0.0008844517287798226
384.0,0.0011106894817203283
416.0,0.0009140793699771166
448.0,0.0007363131735473871
480.0,0.00012446394248399884
512.0,-0.0005602790042757988
576.0,-6.878213753225282e-05
640.0,-0.0005076469387859106
704.0,-0.00033772480674088
768.0,0.00020698795560747385
832.0,0.00047979241935536265
896.0,0.0013230018084868789
960.0,0.0021390309557318687
1024.0,0.0016909448895603418
1152.0,0.0017913010669872165
1280.0,0.002535628154873848
1408.0,0.0031759561970829964
1536.0,0.0025429113302379847
1664.0,0.0025359687861055136
1792.0,0.0013402887852862477
1920.0,0.0001954563776962459
2048.0,-0.0004353475815150887
2304.0,0.000787236203905195
2560.0,0.0008209238876588643
2816.0,9.859103738563135e-05
3072.0,-0.0019239600514993072
3328.0,-0.001724822330288589
3584.0,0.0005086745950393379
3840.0,-4.127866486669518e-05
4096.0,-0.0007085636607371271
4608.0,-0.003441945882514119
5120.0,-0.0012449109926819801
5632.0,-0.002742209704592824
6144.0,-0.0024564589839428663
6656.0,-0.0013328234199434519
7168.0,-0.001762289204634726
7680.0,-0.0009596560266800225
8192.0,-0.00246879062615335
9216.0,0.00041982028051279485
10240.0,0.0017259519081562757
11264.0,0.0001470771385356784
12288.0,0.0019415932474657893
13312.0,0.0005616769776679575
14336.0,0.0022801272571086884
end
