version,3.0
numOfCh,1
type,point
parent_name,20-cuts
ch_type,1_1
kcount,1
numberNandB,1
brightnessNandB,1
carpet pos,0
pc,0
Time (ms),CH1 Auto-Correlation
1.0,0.03366175293922424
2.0,0.03308034688234329
3.0,0.03253788873553276
4.0,0.03200412914156914
5.0,0.03149954229593277
6.0,0.031010204926133156
7.0,0.030537443235516548
8.0,0.03009912371635437
9.0,0.029660949483513832
10.0,0.029214732348918915
11.0,0.028770938515663147
12.0,0.028333397582173347
13.0,0.02790626510977745
14.0,0.027480417862534523
15.0,0.02706620842218399
16.0,0.02666044421494007
18.0,0.02593180164694786
20.0,0.025225384160876274
22.0,0.02454111911356449
24.0,0.023857727646827698
26.0,0.023177942261099815
28.0,0.022529272362589836
30.0,0.02192399464547634
32.0,0.021359113976359367
36.0,0.020371299237012863
40.0,0.019461216405034065
44.0,0.018610963597893715
48.0,0.017775919288396835
52.0,0.01701097935438156
56.0,0.016331885010004044
60.0,0.015637405216693878
64.0,0.014974056743085384
72.0,0.013642889447510242
80.0,0.012613337486982346
88.0,0.0117074865847826
96.0,0.011046519502997398
104.0,0.010593801736831665
112.0,0.010029492899775505
120.0,0.009580043144524097
128.0,0.009168935008347034
144.0,0.008006098680198193
160.0,0.006738040596246719
176.0,0.005706154741346836
192.0,0.00504856463521719
208.0,0.004247606266289949
224.0,0.0035654495004564524
240.0,0.002916723256930709
256.0,0.002397041767835617
288.0,0.0019259513355791569
320.0,0.0029022768139839172
352.0,0.0033553889952600002
384.0,0.00284442282281816
416.0,0.0019368695793673396
448.0,0.002028530230745673
480.0,0.0016833137487992644
512.0,0.001393828191794455
576.0,0.0008058137027546763
640.0,0.0009342128760181367
704.0,0.0013552724849432707
768.0,-0.0009460569708608091
832.0,-0.0011134510859847069
896.0,-0.0010900840861722827
960.0,0.0003476879792287946
1024.0,-0.000607367604970932
1152.0,-0.0012378093088045716
1280.0,-0.0037244376726448536
1408.0,-0.0030125873163342476
1536.0,-0.0021319733932614326
1664.0,-0.0003794599906541407
1792.0,-0.0010412308620288968
1920.0,-0.0008952321950346231
2048.0,-0.001333568710833788
2304.0,-0.002862071618437767
2560.0,-0.0037862241733819246
2816.0,-0.003061655443161726
3072.0,-0.0009577483288012445
3328.0,0.005103019531816244
3584.0,0.002142112236469984
3840.0,0.0019824192859232426
4096.0,0.0012123616179451346
4608.0,-0.0016687419265508652
5120.0,0.0008363221422769129
5632.0,-0.0008481849799863994
6144.0,-0.003474091412499547
6656.0,-0.0027521939482539892
7168.0,-0.0005150164943188429
7680.0,0.0023775154259055853
8192.0,0.001191460876725614
9216.0,-0.0001197697056340985
10240.0,-0.0026366375386714935
11264.0,0.0025596467312425375
12288.0,0.00026601363788358867
13312.0,-0.002203290816396475
14336.0,0.0032963361591100693
end
