version,3.0
numOfCh,1
type,point
parent_name,20-cuts
ch_type,1_1
kcount,1
numberNandB,1
brightnessNandB,1
carpet pos,0
pc,0
Time (ms),CH1 Auto-Correlation
1.0,0.07322898507118225
2.0,0.07185572385787964
3.0,0.07052946090698242
4.0,0.06926819682121277
5.0,0.06802795827388763
6.0,0.06685435026884079
7.0,0.06575386971235275
8.0,0.06471343338489532
9.0,0.06371795386075974
10.0,0.06274017691612244
11.0,0.0617617592215538
12.0,0.06085105985403061
13.0,0.059952814131975174
14.0,0.059103187173604965
15.0,0.05826424062252045
16.0,0.05745641142129898
18.0,0.05586807429790497
20.0,0.054352764040231705
22.0,0.05291556566953659
24.0,0.05153683200478554
26.0,0.05018942058086395
28.0,0.0489441379904747
30.0,0.04775730520486832
32.0,0.046622198075056076
36.0,0.04458390921354294
40.0,0.04270965978503227
44.0,0.040875185281038284
48.0,0.03905542939901352
52.0,0.037475425750017166
56.0,0.03602104261517525
60.0,0.03469241037964821
64.0,0.03327643498778343
72.0,0.030238334089517593
80.0,0.02728266641497612
88.0,0.02495364286005497
96.0,0.023215854540467262
104.0,0.021326923742890358
112.0,0.01994750276207924
120.0,0.018857041373848915
128.0,0.018053391948342323
144.0,0.01585039310157299
160.0,0.01320626214146614
176.0,0.010597351007163525
192.0,0.009274878539144993
208.0,0.008075600489974022
224.0,0.0074789561331272125
240.0,0.006530233193188906
256.0,0.005809387657791376
288.0,0.002889887196943164
320.0,0.001202525570988655
352.0,-0.0008030866738408804
384.0,-0.0011953843059018254
416.0,-0.0017629904905334115
448.0,-0.0028830282390117645
480.0,-0.004459033720195293
512.0,-0.004904689267277718
576.0,-0.005943012423813343
640.0,-0.009970542043447495
704.0,-0.0098086167126894
768.0,-0.005693192593753338
832.0,-0.0020382264629006386
896.0,0.002485445933416486
960.0,0.0029286604840308428
1024.0,0.0012136512668803334
1152.0,0.006628254894167185
1280.0,0.005385418888181448
1408.0,0.004017391707748175
1536.0,0.002317331964150071
1664.0,-0.0026087728329002857
1792.0,-0.0033458874095231295
1920.0,-0.0025527088437229395
2048.0,-0.0034370035864412785
2304.0,0.0001763564650900662
2560.0,0.0004911721334792674
2816.0,-0.00022373355750460178
3072.0,-0.004490688443183899
3328.0,0.001267633168026805
3584.0,-0.0011255093850195408
3840.0,-0.00354385981336236
4096.0,-0.007143425289541483
4608.0,-0.0012970928801223636
5120.0,-0.007867186330258846
5632.0,0.0003395390813238919
6144.0,0.001510070520453155
6656.0,-0.006794587709009647
7168.0,0.0062403897754848
7680.0,-0.00589127279818058
8192.0,0.0008764916565269232
9216.0,0.004586204420775175
10240.0,0.0022246427834033966
11264.0,0.002240533009171486
12288.0,-0.000882486579939723
13312.0,-0.004509873688220978
14336.0,-0.0037588090635836124
end
