version,3.0
numOfCh,1
type,point
parent_name,20-cuts
ch_type,1_1
kcount,1
numberNandB,1
brightnessNandB,1
carpet pos,0
pc,0
Time (ms),CH1 Auto-Correlation
1.0,0.06070626527070999
2.0,0.05957809090614319
3.0,0.058465633541345596
4.0,0.0574028417468071
5.0,0.05636592209339142
6.0,0.055378347635269165
7.0,0.05441122502088547
8.0,0.05344857648015022
9.0,0.05252150446176529
10.0,0.05160553380846977
11.0,0.05071847885847092
12.0,0.0498390719294548
13.0,0.04897157475352287
14.0,0.048120591789484024
15.0,0.0473017580807209
16.0,0.046518463641405106
18.0,0.04504948481917381
20.0,0.04361061379313469
22.0,0.042228445410728455
24.0,0.040866851806640625
26.0,0.03953471779823303
28.0,0.03821751847863197
30.0,0.036977872252464294
32.0,0.03579776734113693
36.0,0.033545076847076416
40.0,0.031513724476099014
44.0,0.02968776971101761
48.0,0.028040019795298576
52.0,0.026574550196528435
56.0,0.02520996704697609
60.0,0.024082200601696968
64.0,0.023102056235074997
72.0,0.02146892063319683
80.0,0.02018819935619831
88.0,0.01916409097611904
96.0,0.018354153260588646
104.0,0.017428848892450333
112.0,0.016447221860289574
120.0,0.015531504526734352
128.0,0.014462954364717007
144.0,0.012772364541888237
160.0,0.011073540896177292
176.0,0.010074643418192863
192.0,0.009860114194452763
208.0,0.010536563582718372
224.0,0.010062026791274548
240.0,0.00860788393765688
256.0,0.006889328360557556
288.0,0.005445308052003384
320.0,0.004982806742191315
352.0,0.004330738447606564
384.0,0.00273266457952559
416.0,0.0008733056602068245
448.0,0.00036731749423779547
480.0,0.0002544510643929243
512.0,-0.0018037871923297644
576.0,-0.002745045116171241
640.0,-0.00502506410703063
704.0,-0.005778247490525246
768.0,-0.004816322587430477
832.0,-0.003348639700561762
896.0,0.0005132738733664155
960.0,0.004114118404686451
1024.0,0.00527828698977828
1152.0,0.0035475939512252808
1280.0,0.0025032544508576393
1408.0,0.0037213643081486225
1536.0,0.005868329666554928
1664.0,-0.0010652224300429225
1792.0,-0.0004821123438887298
1920.0,0.000451928935945034
2048.0,-0.0009307095897383988
2304.0,-0.005922678392380476
2560.0,-0.006373757496476173
2816.0,-0.0019773265812546015
3072.0,0.0017729885876178741
3328.0,-0.0005290553090162575
3584.0,-0.004798393230885267
3840.0,-0.003574640955775976
4096.0,-0.002930355491116643
4608.0,0.0011231249663978815
5120.0,3.464204564807005e-05
5632.0,0.0028094088193029165
6144.0,0.00036843324778601527
6656.0,-0.003232976421713829
7168.0,-0.0024618608877062798
7680.0,0.0005172791425138712
8192.0,0.000903890875633806
9216.0,-0.001944350660778582
10240.0,-0.0044533563777804375
11264.0,0.001686325529590249
12288.0,0.0011355759343132377
13312.0,-0.0025293701328337193
14336.0,-0.0017021686071529984
end
