version,3.0
numOfCh,1
type,point
parent_name,20-cuts
ch_type,1_1
kcount,1
numberNandB,1
brightnessNandB,1
carpet pos,0
pc,0
Time (ms),CH1 Auto-Correlation
1.0,0.06952948123216629
2.0,0.06810827553272247
3.0,0.0667216032743454
4.0,0.06537308543920517
5.0,0.06407240033149719
6.0,0.06280919909477234
7.0,0.0615609809756279
8.0,0.06038764491677284
9.0,0.05925256758928299
10.0,0.05814002826809883
11.0,0.05703986808657646
12.0,0.05600370466709137
13.0,0.05497952550649643
14.0,0.05399813875555992
15.0,0.05307690054178238
16.0,0.05217040330171585
18.0,0.050405751913785934
20.0,0.04868584871292114
22.0,0.04699287191033363
24.0,0.04534263536334038
26.0,0.04377711936831474
28.0,0.042267341166734695
30.0,0.04082533344626427
32.0,0.039454542100429535
36.0,0.03684702888131142
40.0,0.03456119820475578
44.0,0.03257463499903679
48.0,0.03089097887277603
52.0,0.029423506930470467
56.0,0.02796579711139202
60.0,0.02665000967681408
64.0,0.02530098520219326
72.0,0.022533275187015533
80.0,0.020059173926711082
88.0,0.018368961289525032
96.0,0.016875682398676872
104.0,0.015395691618323326
112.0,0.013914442621171474
120.0,0.012838996946811676
128.0,0.011771099641919136
144.0,0.008761707693338394
160.0,0.006601483095437288
176.0,0.004873496945947409
192.0,0.0038307292852550745
208.0,0.0017853458411991596
224.0,-0.0001790717215044424
240.0,-0.001952073653228581
256.0,-0.0026767258532345295
288.0,-0.0009340494289062917
320.0,0.00044109916780143976
352.0,0.0007305623730644584
384.0,-0.0014613753883168101
416.0,-0.00035767609369941056
448.0,-0.0005997046828269958
480.0,-0.0030571292154490948
512.0,-0.00554683618247509
576.0,-0.009271591901779175
640.0,-0.006074110511690378
704.0,-0.0017766263335943222
768.0,0.0031601579394191504
832.0,0.0015209588455036283
896.0,0.0007925165118649602
960.0,-0.003382659051567316
1024.0,-0.0029695509001612663
1152.0,0.0016551382141187787
1280.0,-0.0008026653667911887
1408.0,-0.0017218122957274318
1536.0,0.007377653382718563
1664.0,0.005523421335965395
1792.0,0.006374926771968603
1920.0,0.0066505661234259605
2048.0,0.00015046269982121885
2304.0,0.0015812193742021918
2560.0,-0.0032336965668946505
2816.0,0.0006534423446282744
3072.0,1.0058281986857764e-05
3328.0,-0.0038521969690918922
3584.0,0.0035562049597501755
3840.0,0.002589958952739835
4096.0,-0.005547245033085346
4608.0,-0.0004317495913710445
5120.0,-0.001365086529403925
5632.0,-0.00011278408783255145
6144.0,-0.0017495023785158992
6656.0,-0.003733134362846613
7168.0,-0.0006446376210078597
7680.0,-0.004125113599002361
8192.0,-0.0020447024144232273
9216.0,-0.004041958600282669
10240.0,0.0023721717298030853
11264.0,-0.0009167126845568419
12288.0,0.003714674850925803
13312.0,-0.0018695509061217308
14336.0,-0.0015364981954917312
end
