version,3.0
numOfCh,1
type,point
parent_name,20-cuts
ch_type,1_1
kcount,1
numberNandB,1
brightnessNandB,1
carpet pos,0
pc,0
Time (ms),CH1 Auto-Correlation
1.0,0.04192193225026131
2.0,0.04129732400178909
3.0,0.04068531468510628
4.0,0.040096282958984375
5.0,0.039524417370557785
6.0,0.0389796681702137
7.0,0.03845955803990364
8.0,0.03795512765645981
9.0,0.03746053948998451
10.0,0.0369780957698822
11.0,0.03650299459695816
12.0,0.03604336827993393
13.0,0.035602957010269165
14.0,0.035165976732969284
15.0,0.034736111760139465
16.0,0.034329794347286224
18.0,0.033541321754455566
20.0,0.03277701139450073
22.0,0.03203849494457245
24.0,0.03134934976696968
26.0,0.03067663311958313
28.0,0.030031410977244377
30.0,0.029413454234600067
32.0,0.028791077435016632
36.0,0.027551529929041862
40.0,0.026427537202835083
44.0,0.02535685896873474
48.0,0.02429715357720852
52.0,0.023315520957112312
56.0,0.02241901122033596
60.0,0.021575404331088066
64.0,0.02079964615404606
72.0,0.019257042557001114
80.0,0.01801329478621483
88.0,0.017014576122164726
96.0,0.016112102195620537
104.0,0.015442168340086937
112.0,0.014963467605412006
120.0,0.014333924278616905
128.0,0.013899053446948528
144.0,0.01363848801702261
160.0,0.013538548722863197
176.0,0.012970949523150921
192.0,0.012346471659839153
208.0,0.011823594570159912
224.0,0.01131324004381895
240.0,0.010892384685575962
256.0,0.01090256031602621
288.0,0.010624305345118046
320.0,0.010039829649031162
352.0,0.008910722099244595
384.0,0.007735540624707937
416.0,0.006394367665052414
448.0,0.004885468631982803
480.0,0.0041937255300581455
512.0,0.0038436581380665302
576.0,0.004419813863933086
640.0,0.0037193181924521923
704.0,0.0013828645460307598
768.0,-0.0014471386093646288
832.0,-0.0009966997895389795
896.0,-0.0019020382314920425
960.0,-0.0034767156466841698
1024.0,-0.0035572033375501633
1152.0,-0.0031933102291077375
1280.0,0.0008107409230433404
1408.0,0.00035133337951265275
1536.0,-0.0007590682944282889
1664.0,-0.0007889961125329137
1792.0,-0.0015008453046903014
1920.0,0.0008573047816753387
2048.0,0.00021677064069081098
2304.0,-0.005645570810884237
2560.0,-0.007402793504297733
2816.0,-0.007608643267303705
3072.0,-0.005280012730509043
3328.0,-0.00209764763712883
3584.0,4.140792225371115e-05
3840.0,0.0020877269562333822
4096.0,0.002850306686013937
4608.0,0.002519113477319479
5120.0,0.0038181464187800884
5632.0,0.006456569768488407
6144.0,0.00211848015896976
6656.0,-0.004222603049129248
7168.0,-0.003651127452030778
7680.0,-0.003798479912802577
8192.0,-0.00990754459053278
9216.0,-0.0027238153852522373
10240.0,0.007481356617063284
11264.0,-0.001940953079611063
12288.0,-0.0041645597666502
13312.0,0.00046620634384453297
14336.0,0.0017719111638143659
end
