version,3.0
numOfCh,1
type,point
parent_name,20-cuts
ch_type,1_1
kcount,1
numberNandB,1
brightnessNandB,1
carpet pos,0
pc,0
Time (ms),CH1 Auto-Correlation
1.0,0.07345199584960938
2.0,0.0721236914396286
3.0,0.07083491235971451
4.0,0.06960222125053406
5.0,0.068422332406044
6.0,0.06726198643445969
7.0,0.06615149229764938
8.0,0.06509172171354294
9.0,0.0640735849738121
10.0,0.06310806423425674
11.0,0.06217920035123825
12.0,0.06126232072710991
13.0,0.06037979945540428
14.0,0.05949674919247627
15.0,0.058625053614377975
16.0,0.057737208902835846
18.0,0.05596071109175682
20.0,0.05426650494337082
22.0,0.052694763988256454
24.0,0.05121401697397232
26.0,0.04976724833250046
28.0,0.04834248498082161
30.0,0.04694218188524246
32.0,0.04559803754091263
36.0,0.043120019137859344
40.0,0.04077882692217827
44.0,0.03859414905309677
48.0,0.03662651404738426
52.0,0.034839458763599396
56.0,0.03312884271144867
60.0,0.03135855123400688
64.0,0.029610944911837578
72.0,0.026669658720493317
80.0,0.023920802399516106
88.0,0.02146393619477749
96.0,0.01945515163242817
104.0,0.01777908205986023
112.0,0.01653713919222355
120.0,0.015867792069911957
128.0,0.015373848378658295
144.0,0.013965143822133541
160.0,0.014045227319002151
176.0,0.014092421159148216
192.0,0.013609955087304115
208.0,0.012408050708472729
224.0,0.011745203286409378
240.0,0.010876613669097424
256.0,0.009404195472598076
288.0,0.0041928477585315704
320.0,-0.001196202589198947
352.0,-0.003083938965573907
384.0,-0.0013398280134424567
416.0,-0.000576178019400686
448.0,-0.001530214911326766
480.0,-0.0018694075988605618
512.0,-0.0004960760707035661
576.0,0.0011254334822297096
640.0,0.0017928553279489279
704.0,0.003995709586888552
768.0,0.005706778261810541
832.0,0.004417357966303825
896.0,0.0013238670071586967
960.0,3.4917353332275525e-05
1024.0,-0.0017296832520514727
1152.0,-0.0004062847001478076
1280.0,0.00099170149769634
1408.0,0.003563986625522375
1536.0,0.0008280411129817367
1664.0,0.0009347150917164981
1792.0,0.0007668266189284623
1920.0,0.007854324765503407
2048.0,0.007026731502264738
2304.0,0.0025291615165770054
2560.0,0.002115529030561447
2816.0,0.004443387500941753
3072.0,0.0007768474170006812
3328.0,-0.00044058854109607637
3584.0,0.000864529749378562
3840.0,0.007715844549238682
4096.0,0.008720907382667065
4608.0,0.0010717320255935192
5120.0,-0.0044843051582574844
5632.0,-0.002428403589874506
6144.0,0.0044805449433624744
6656.0,0.0022720876149833202
7168.0,-0.006249335594475269
7680.0,-0.002916339784860611
8192.0,0.0009435733663849533
9216.0,-0.010412804782390594
10240.0,-0.002344448585063219
11264.0,-0.006036372389644384
12288.0,-0.005321080330759287
13312.0,-0.012380033731460571
14336.0,-0.0016742260195314884
end
