version,3.0
numOfCh,1
type,point
parent_name,20-cuts
ch_type,1_1
kcount,1
numberNandB,1
brightnessNandB,1
carpet pos,0
pc,0
Time (ms),CH1 Auto-Correlation
1.0,0.02432064153254032
2.0,0.02391161024570465
3.0,0.023509152233600616
4.0,0.023137284442782402
5.0,0.022783728316426277
6.0,0.02243356592953205
7.0,0.02209887094795704
8.0,0.021764595061540604
9.0,0.021443184465169907
10.0,0.02113185077905655
11.0,0.020833848044276237
12.0,0.02053898572921753
13.0,0.020261477679014206
14.0,0.01998785138130188
15.0,0.019714495167136192
16.0,0.019453395158052444
18.0,0.018986230716109276
20.0,0.018531223759055138
22.0,0.01807965710759163
24.0,0.017648620530962944
26.0,0.017235131934285164
28.0,0.016832368448376656
30.0,0.01642557978630066
32.0,0.01601407304406166
36.0,0.01526816189289093
40.0,0.014541557058691978
44.0,0.013930512592196465
48.0,0.013407097198069096
52.0,0.01285494863986969
56.0,0.012300672009587288
60.0,0.011717856861650944
64.0,0.011160231195390224
72.0,0.010250763967633247
80.0,0.009443231858313084
88.0,0.008694157004356384
96.0,0.008050772361457348
104.0,0.007518760859966278
112.0,0.007053936365991831
120.0,0.006659593898802996
128.0,0.006348864175379276
144.0,0.005676022730767727
160.0,0.005195917561650276
176.0,0.00482221832498908
192.0,0.004453141707926989
208.0,0.004142512567341328
224.0,0.003505576401948929
240.0,0.002982534933835268
256.0,0.0027073845267295837
288.0,0.0024326241109520197
320.0,0.0020773832220584154
352.0,0.002114348579198122
384.0,0.002023178618401289
416.0,0.0015269594732671976
448.0,0.0011851595481857657
480.0,0.0007899797055870295
512.0,0.0005505730514414608
576.0,0.0016194430645555258
640.0,0.0026775705628097057
704.0,0.0025653354823589325
768.0,0.0017237979918718338
832.0,0.0009681947994977236
896.0,0.0013944300590083003
960.0,0.0023842311929911375
1024.0,0.002123311161994934
1152.0,0.00015865259047131985
1280.0,0.00149394606705755
1408.0,0.0011169103672727942
1536.0,-0.00047706018085591495
1664.0,-5.714990766136907e-05
1792.0,-0.0018885229947045445
1920.0,-0.0008825937984511256
2048.0,-0.000250363809755072
2304.0,-0.0009106716024689376
2560.0,-0.0015919585712254047
2816.0,0.00021796782675664872
3072.0,-0.0013409416424110532
3328.0,-0.0007096236804500222
3584.0,-0.0006305901915766299
3840.0,-0.0021838441025465727
4096.0,-0.002942085498943925
4608.0,-0.0024307749699801207
5120.0,-0.0011738445609807968
5632.0,-0.0017176433466374874
6144.0,0.0008593364036642015
6656.0,-0.0005512278294190764
7168.0,0.00197429908439517
7680.0,0.0009182135108858347
8192.0,0.001831158995628357
9216.0,0.0009122782503254712
10240.0,0.0014421993400901556
11264.0,-0.00044771432294510305
12288.0,-0.004632411524653435
13312.0,-0.004114254843443632
14336.0,-0.001779860001988709
end
