version,3.0
numOfCh,1
type,point
parent_name,20-cuts
ch_type,1_1
kcount,1
numberNandB,1
brightnessNandB,1
carpet pos,0
pc,0
Time (ms),CH1 Auto-Correlation
1.0,0.0227541234344244
2.0,0.022335462272167206
3.0,0.0219365656375885
4.0,0.02155248634517193
5.0,0.021187184378504753
6.0,0.02082829549908638
7.0,0.020482787862420082
8.0,0.02014641836285591
9.0,0.019817983731627464
10.0,0.019503232091665268
11.0,0.01920665241777897
12.0,0.01892702840268612
13.0,0.01866099238395691
14.0,0.018405623733997345
15.0,0.01815170608460903
16.0,0.017895592376589775
18.0,0.01738344132900238
20.0,0.016893994063138962
22.0,0.016401799395680428
24.0,0.015922393649816513
26.0,0.015466835349798203
28.0,0.015030681155622005
30.0,0.014592515304684639
32.0,0.01418232824653387
36.0,0.0134055707603693
40.0,0.012708025984466076
44.0,0.012078187428414822
48.0,0.011495384387671947
52.0,0.010976666584610939
56.0,0.010494322516024113
60.0,0.010077905841171741
64.0,0.009642250835895538
72.0,0.008879948407411575
80.0,0.008113063871860504
88.0,0.007321690674871206
96.0,0.006606074050068855
104.0,0.005945771466940641
112.0,0.005353582091629505
120.0,0.004923124797642231
128.0,0.004425746854394674
144.0,0.003872679779306054
160.0,0.0035576075315475464
176.0,0.0032738149166107178
192.0,0.00338916527107358
208.0,0.0034993886947631836
224.0,0.0033836213406175375
240.0,0.002955330302938819
256.0,0.0025927317328751087
288.0,0.0020209604408591986
320.0,0.0010248977923765779
352.0,0.0001668539916863665
384.0,-0.00039459799882024527
416.0,-0.00043863570317626
448.0,7.118675966921728e-06
480.0,0.0004908643895760179
512.0,0.0010316967964172363
576.0,0.0007342890603467822
640.0,-5.453959965961985e-05
704.0,-0.00038771372055634856
768.0,-0.001184887601993978
832.0,-0.0013298547128215432
896.0,0.0004023892979603261
960.0,0.0012602497590705752
1024.0,0.0009794665966182947
1152.0,-0.00030832993797957897
1280.0,-0.0003240743826609105
1408.0,-0.0011691879481077194
1536.0,-0.0006231041043065488
1664.0,-0.0027838866226375103
1792.0,-0.0012220272328704596
1920.0,-0.0004276465333532542
2048.0,0.00039871668559499085
2304.0,-0.0009831372881308198
2560.0,-0.002220358233898878
2816.0,-0.0009747437434270978
3072.0,8.432901813648641e-05
3328.0,0.002943547675386071
3584.0,0.0005311935674399137
3840.0,0.0012855281820520759
4096.0,-0.0006471687229350209
4608.0,-0.0002813088067341596
5120.0,-0.0007213284261524677
5632.0,-0.0007435051375068724
6144.0,-0.0006230100407265127
6656.0,0.0012138612801209092
7168.0,0.0020835897885262966
7680.0,-0.0016866695368662477
8192.0,0.001142516965046525
9216.0,-0.0018795664655044675
10240.0,-0.0015892620431259274
11264.0,0.0006371059571392834
12288.0,0.0009802158456295729
13312.0,0.0005255521391518414
14336.0,-0.000556965300347656
end
