version,3.0
numOfCh,1
type,point
parent_name,20-cuts
ch_type,1_1
kcount,1
numberNandB,1
brightnessNandB,1
carpet pos,0
pc,0
Time (ms),CH1 Auto-Correlation
1.0,0.06253313273191452
2.0,0.06126467511057854
3.0,0.06002437323331833
4.0,0.058843906968832016
5.0,0.057672999799251556
6.0,0.056510064750909805
7.0,0.05539940297603607
8.0,0.05434391275048256
9.0,0.053341638296842575
10.0,0.05233694985508919
11.0,0.05134376510977745
12.0,0.05037164315581322
13.0,0.04941953346133232
14.0,0.048491645604372025
15.0,0.04757342115044594
16.0,0.04667272791266441
18.0,0.04499296471476555
20.0,0.04338495805859566
22.0,0.04188196733593941
24.0,0.040445487946271896
26.0,0.03907550498843193
28.0,0.037787869572639465
30.0,0.036546509712934494
32.0,0.035308048129081726
36.0,0.03326507285237312
40.0,0.03159400075674057
44.0,0.030053304508328438
48.0,0.028720006346702576
52.0,0.027510639280080795
56.0,0.02639702521264553
60.0,0.025348573923110962
64.0,0.024430526420474052
72.0,0.02291882038116455
80.0,0.021422848105430603
88.0,0.02000521682202816
96.0,0.01826915331184864
104.0,0.016524283215403557
112.0,0.015041390433907509
120.0,0.013963156379759312
128.0,0.01308814063668251
144.0,0.011839807033538818
160.0,0.010737678967416286
176.0,0.009031510911881924
192.0,0.007918908260762691
208.0,0.007768111303448677
224.0,0.008334160782396793
240.0,0.008110747672617435
256.0,0.007438302040100098
288.0,0.007035327609628439
320.0,0.006412266753613949
352.0,0.005595568101853132
384.0,0.005576718132942915
416.0,0.005739261861890554
448.0,0.007389968726783991
480.0,0.008738449774682522
512.0,0.009385804645717144
576.0,0.006415774114429951
640.0,0.0024496924597769976
704.0,-0.0017044581472873688
768.0,-0.0007510483264923096
832.0,0.0007214671932160854
896.0,-0.0017447930295020342
960.0,-0.003219757927581668
1024.0,-0.0016293402295559645
1152.0,-0.0052764941938221455
1280.0,-0.0071294899098575115
1408.0,-0.003506320994347334
1536.0,-0.0018513078102841973
1664.0,0.00225278758443892
1792.0,0.002951516769826412
1920.0,-0.000772812229115516
2048.0,0.0005288096726872027
2304.0,-0.001991984201595187
2560.0,-0.00019402767065912485
2816.0,-0.0073413546197116375
3072.0,-0.005669738631695509
3328.0,-0.00821974128484726
3584.0,-0.0038065295666456223
3840.0,-0.0022299750708043575
4096.0,0.0012944357004016638
4608.0,-0.0007559231598861516
5120.0,0.001364507363177836
5632.0,0.0009542032494209707
6144.0,-6.913789547979832e-05
6656.0,0.0033994249533861876
7168.0,0.003721589222550392
7680.0,-0.0010652553755789995
8192.0,-0.008895765990018845
9216.0,0.000884649227373302
10240.0,-0.00041407180833630264
11264.0,0.0018405147129669785
12288.0,0.0018991908291354775
13312.0,-0.004401230253279209
14336.0,0.00555324275046587
end
