version,3.0
numOfCh,1
type,point
parent_name,20-cuts
ch_type,1_1
kcount,1
numberNandB,1
brightnessNandB,1
carpet pos,0
pc,0
Time (ms),CH1 Auto-Correlation
1.0,0.020015040412545204
2.0,0.019621748477220535
3.0,0.019250141456723213
4.0,0.018893733620643616
5.0,0.01854684017598629
6.0,0.018201516941189766
7.0,0.01787644997239113
8.0,0.01756424456834793
9.0,0.017262140288949013
10.0,0.01697285659611225
11.0,0.016682695597410202
12.0,0.016392963007092476
13.0,0.01610030233860016
14.0,0.015806879848241806
15.0,0.015523294918239117
16.0,0.015235372819006443
18.0,0.014689379371702671
20.0,0.014157688245177269
22.0,0.013660110533237457
24.0,0.01319305319339037
26.0,0.012747406028211117
28.0,0.012311228550970554
30.0,0.011926146224141121
32.0,0.01158351730555296
36.0,0.010936031118035316
40.0,0.010330628603696823
44.0,0.009804879315197468
48.0,0.009312092326581478
52.0,0.008792543783783913
56.0,0.008285364136099815
60.0,0.007845159620046616
64.0,0.007469551172107458
72.0,0.0067479172721505165
80.0,0.006042025983333588
88.0,0.0053632925264537334
96.0,0.004747862461954355
104.0,0.004309060052037239
112.0,0.0038375556468963623
120.0,0.003395615378394723
128.0,0.0030844812281429768
144.0,0.0025668281596153975
160.0,0.0017474745400249958
176.0,0.0012013663072139025
192.0,0.0008966272580437362
208.0,0.00033246236853301525
224.0,-5.1592323870863765e-05
240.0,-0.000421165197622031
256.0,-0.0004919225466437638
288.0,-3.332195774419233e-05
320.0,0.00012849362974520773
352.0,0.00029523755074478686
384.0,0.000552240468095988
416.0,0.0007729990174993873
448.0,0.0008845425327308476
480.0,0.00048819868243299425
512.0,0.00016152163152582943
576.0,-0.00038600355037488043
640.0,-0.0004960546502843499
704.0,-0.00034193354076705873
768.0,-0.00045353954192250967
832.0,-0.0010078251361846924
896.0,-0.0014958966057747602
960.0,-0.0015453093219548464
1024.0,-0.001358321402221918
1152.0,-0.0008831958984956145
1280.0,-0.0013855710858479142
1408.0,-0.0005411425954662263
1536.0,0.002310068579390645
1664.0,0.0016140680527314544
1792.0,0.0006864084862172604
1920.0,-0.0011175740510225296
2048.0,-0.0018892515217885375
2304.0,-0.0008426046697422862
2560.0,-0.0022167328279465437
2816.0,-0.0019370093941688538
3072.0,-7.310255750780925e-05
3328.0,0.0003654056345112622
3584.0,0.0007692487561143935
3840.0,0.0005175850819796324
4096.0,-0.00010320049477741122
4608.0,0.0005376776098273695
5120.0,0.0014097339008003473
5632.0,-0.0002112175861839205
6144.0,-0.0003247108543291688
6656.0,-0.0006462330929934978
7168.0,-0.000920488906558603
7680.0,-0.0011314706644043326
8192.0,-0.0006480472511611879
9216.0,0.0014144709566608071
10240.0,0.0007973249303176999
11264.0,-0.0005623578908853233
12288.0,-0.0005815867916680872
13312.0,0.0005985915777273476
14336.0,0.0006203314987942576
end
