version,3.0
numOfCh,1
type,point
parent_name,20-cuts
ch_type,1_1
kcount,1
numberNandB,1
brightnessNandB,1
carpet pos,0
pc,0
Time (ms),CH1 Auto-Correlation
1.0,0.024319566786289215
2.0,0.023849371820688248
3.0,0.023398973047733307
4.0,0.022972196340560913
5.0,0.022573376074433327
6.0,0.02219880372285843
7.0,0.021839458495378494
8.0,0.021489445120096207
9.0,0.02114984393119812
10.0,0.02082766219973564
11.0,0.0205158069729805
12.0,0.020216507837176323
13.0,0.019914424046874046
14.0,0.019621992483735085
15.0,0.019348599016666412
16.0,0.01907743513584137
18.0,0.01855512149631977
20.0,0.018048377707600594
22.0,0.017599014565348625
24.0,0.017170261591672897
26.0,0.016746021807193756
28.0,0.016313131898641586
30.0,0.015868237242102623
32.0,0.015416045673191547
36.0,0.014552797190845013
40.0,0.013783643953502178
44.0,0.013124164193868637
48.0,0.012508065439760685
52.0,0.011884472332894802
56.0,0.011304725892841816
60.0,0.010773581452667713
64.0,0.01023357268422842
72.0,0.009299521334469318
80.0,0.008466922678053379
88.0,0.007813003845512867
96.0,0.0072291637770831585
104.0,0.006560728885233402
112.0,0.006085511762648821
120.0,0.0057230438105762005
128.0,0.005321873351931572
144.0,0.004691189154982567
160.0,0.003990241326391697
176.0,0.003501222236081958
192.0,0.002989437896758318
208.0,0.0025149541907012463
224.0,0.002406488638371229
240.0,0.0026082503609359264
256.0,0.0028176140040159225
288.0,0.003174274228513241
320.0,0.0033133490942418575
352.0,0.0028040939942002296
384.0,0.0023174521047621965
416.0,0.0018378796521574259
448.0,0.0019498553592711687
480.0,0.002003429690375924
512.0,0.0018786478321999311
576.0,0.001089376979507506
640.0,0.001533747068606317
704.0,0.0017208498902618885
768.0,0.0014955283841118217
832.0,0.0006121061160229146
896.0,-0.0003706369607243687
960.0,-0.0003787422610912472
1024.0,0.00013900322664994746
1152.0,-0.0008254083222709596
1280.0,-0.0006001394358463585
1408.0,-0.00034695520298555493
1536.0,-0.0008843261166475713
1664.0,-0.001089654047973454
1792.0,-0.0015748032601550221
1920.0,-0.0017680770251899958
2048.0,-0.00400980981066823
2304.0,-0.0012121145846322179
2560.0,-0.0009698286303319037
2816.0,-0.0010132195893675089
3072.0,-0.001311193103902042
3328.0,-0.0014719344908371568
3584.0,6.028183634043671e-05
3840.0,0.0027243420481681824
4096.0,0.001570974593050778
4608.0,-0.0006404609302990139
5120.0,-0.0020499497186392546
5632.0,-0.0010398466838523746
6144.0,-0.0014634215040132403
6656.0,-0.0022968158591538668
7168.0,-0.0009994290303438902
7680.0,-0.000345462845871225
8192.0,0.0036007456947118044
9216.0,0.0012101568281650543
10240.0,0.0007906834944151342
11264.0,-0.0025924688670784235
12288.0,0.002677413634955883
13312.0,-0.0032519863452762365
14336.0,-0.001613537548109889
end
