version,3.0
numOfCh,1
type,point
parent_name,20-cuts
ch_type,1_1
kcount,1
numberNandB,1
brightnessNandB,1
carpet pos,0
pc,0
Time (ms),CH1 Auto-Correlation
1.0,0.06768859177827835
2.0,0.06653726100921631
3.0,0.06539253145456314
4.0,0.06430153548717499
5.0,0.06324554979801178
6.0,0.06222311779856682
7.0,0.061232682317495346
8.0,0.060252364724874496
9.0,0.05931735038757324
10.0,0.058395616710186005
11.0,0.057548411190509796
12.0,0.05674540251493454
13.0,0.056001245975494385
14.0,0.05526062473654747
15.0,0.05452823266386986
16.0,0.05381202697753906
18.0,0.05246850103139877
20.0,0.05124552547931671
22.0,0.05006006732583046
24.0,0.04888484254479408
26.0,0.04770370200276375
28.0,0.046591319143772125
30.0,0.04554644599556923
32.0,0.044539425522089005
36.0,0.04266293719410896
40.0,0.0409952849149704
44.0,0.039575569331645966
48.0,0.038160696625709534
52.0,0.03675844520330429
56.0,0.03537585213780403
60.0,0.034045930951833725
64.0,0.03273705020546913
72.0,0.030231498181819916
80.0,0.027869142591953278
88.0,0.025359759107232094
96.0,0.02326256036758423
104.0,0.02214345522224903
112.0,0.02140418067574501
120.0,0.02085365727543831
128.0,0.020171208307147026
144.0,0.019429123029112816
160.0,0.017434515058994293
176.0,0.015445117838680744
192.0,0.01348050870001316
208.0,0.01193633209913969
224.0,0.010627666488289833
240.0,0.009745302610099316
256.0,0.009142342954874039
288.0,0.006778552196919918
320.0,0.004931129980832338
352.0,0.0036953131202608347
384.0,0.0025073757860809565
416.0,0.002245645970106125
448.0,0.0029048286378383636
480.0,0.0017578690312802792
512.0,8.348759729415178e-05
576.0,-0.0018968310905620456
640.0,-0.006486548576503992
704.0,-0.008243232034146786
768.0,-0.008543908596038818
832.0,-0.00867147371172905
896.0,-0.00764082744717598
960.0,-0.006735337898135185
1024.0,-0.00805957056581974
1152.0,-0.0034671102184802294
1280.0,-0.0024065421894192696
1408.0,-0.0011287396773695946
1536.0,0.002519813133403659
1664.0,0.0025273566134274006
1792.0,0.002696746727451682
1920.0,-0.0010864774230867624
2048.0,-0.0012004398740828037
2304.0,-0.0038118583615869284
2560.0,-0.0005507644382305443
2816.0,-0.00019241031259298325
3072.0,0.004464347381144762
3328.0,0.00181475596036762
3584.0,-0.0006113459821790457
3840.0,-0.0052528297528624535
4096.0,3.448039205977693e-05
4608.0,0.001229272224009037
5120.0,-0.012479503639042377
5632.0,0.00030652357963845134
6144.0,0.004522422794252634
6656.0,0.00032620414276607335
7168.0,0.001581355114467442
7680.0,0.003191806608811021
8192.0,-0.0036236478481441736
9216.0,0.000276402075542137
10240.0,0.0003137193853035569
11264.0,-0.001781619619578123
12288.0,-0.0007062683580443263
13312.0,-0.0007672181236557662
14336.0,-0.0003617234469857067
end
