version,3.0
numOfCh,1
type,point
parent_name,20-cuts
ch_type,1_1
kcount,1
numberNandB,1
brightnessNandB,1
carpet pos,0
pc,0
Time (ms),CH1 Auto-Correlation
1.0,0.06784249097108841
2.0,0.06664368510246277
3.0,0.06547088176012039
4.0,0.06434466689825058
5.0,0.0632394328713417
6.0,0.062184203416109085
7.0,0.06116152182221413
8.0,0.060173530131578445
9.0,0.05920663848519325
10.0,0.058252353221178055
11.0,0.057329967617988586
12.0,0.0564127117395401
13.0,0.05553063377737999
14.0,0.05469144508242607
15.0,0.05386693403124809
16.0,0.053055327385663986
18.0,0.05155961588025093
20.0,0.050129715353250504
22.0,0.048709601163864136
24.0,0.047315336763858795
26.0,0.04596256464719772
28.0,0.044604476541280746
30.0,0.04329662397503853
32.0,0.042043138295412064
36.0,0.039706751704216
40.0,0.03780132904648781
44.0,0.036144692450761795
48.0,0.034603264182806015
52.0,0.032989080995321274
56.0,0.03136324882507324
60.0,0.02981468290090561
64.0,0.028378404676914215
72.0,0.025693954899907112
80.0,0.02316090650856495
88.0,0.020918196067214012
96.0,0.01906612701714039
104.0,0.017494065687060356
112.0,0.015723001211881638
120.0,0.01410589087754488
128.0,0.013112930580973625
144.0,0.011525058187544346
160.0,0.009816492907702923
176.0,0.007909821346402168
192.0,0.00642532529309392
208.0,0.0054985894821584225
224.0,0.005117036402225494
240.0,0.0038351393304765224
256.0,0.0023312149569392204
288.0,0.0012297033099457622
320.0,0.001137416111305356
352.0,0.001572732231579721
384.0,0.0028912401758134365
416.0,0.002839301945641637
448.0,0.0026692308019846678
480.0,0.0007314013782888651
512.0,-0.0010812550317496061
576.0,-0.003260659286752343
640.0,-0.0030647097155451775
704.0,-0.005119070876389742
768.0,-0.004327076021581888
832.0,-0.003307132516056299
896.0,-0.0010598237859085202
960.0,-0.0013715970562770963
1024.0,-0.0009588695829734206
1152.0,-0.00048098640399985015
1280.0,-0.0005421286332421005
1408.0,-0.002768328646197915
1536.0,-0.000517557084094733
1664.0,-0.0006414139643311501
1792.0,-0.004070919938385487
1920.0,-0.002920314436778426
2048.0,-0.0021536871790885925
2304.0,-0.004213993903249502
2560.0,-0.005874618422240019
2816.0,-0.002602887572720647
3072.0,-0.000773018691688776
3328.0,0.003960869740694761
3584.0,0.0006703732651658356
3840.0,0.0026353849098086357
4096.0,0.005904583726078272
4608.0,0.00023243442410603166
5120.0,-0.0017104765865951777
5632.0,-0.0065557220950722694
6144.0,-0.006938007194548845
6656.0,-0.0005338647169992328
7168.0,-0.00022678676759824157
7680.0,-0.0018321532988920808
8192.0,0.008012478239834309
9216.0,0.001528637483716011
10240.0,-0.0056440569460392
11264.0,0.0021426042076200247
12288.0,0.0053275832906365395
13312.0,0.0002997427654918283
14336.0,-0.006296092178672552
end
