version,3.0
numOfCh,1
type,point
parent_name,20-cuts
ch_type,1_1
kcount,1
numberNandB,1
brightnessNandB,1
carpet pos,0
pc,0
Time (ms),CH1 Auto-Correlation
1.0,0.018418557941913605
2.0,0.01796584762632847
3.0,0.017527474090456963
4.0,0.01711925119161606
5.0,0.016725832596421242
6.0,0.0163482166826725
7.0,0.015991337597370148
8.0,0.015640558674931526
9.0,0.015299336984753609
10.0,0.014970105141401291
11.0,0.014645824208855629
12.0,0.014323651790618896
13.0,0.014000587165355682
14.0,0.01370758842676878
15.0,0.013435701839625835
16.0,0.013159614987671375
18.0,0.01264882367104292
20.0,0.012182249687612057
22.0,0.011732487939298153
24.0,0.011305609717965126
26.0,0.01089871022850275
28.0,0.010503070428967476
30.0,0.010115480050444603
32.0,0.009770439937710762
36.0,0.009140215814113617
40.0,0.008578442968428135
44.0,0.008071129210293293
48.0,0.0076355962082743645
52.0,0.007228394504636526
56.0,0.006829181220382452
60.0,0.006510286126285791
64.0,0.006196069531142712
72.0,0.005665566772222519
80.0,0.005076318979263306
88.0,0.004412641748785973
96.0,0.003768829395994544
104.0,0.003253515576943755
112.0,0.002782966010272503
120.0,0.002382961567491293
128.0,0.0020753121934831142
144.0,0.001407848671078682
160.0,0.0009123522322624922
176.0,0.0005348684499040246
192.0,0.0002572311204858124
208.0,-4.516348781180568e-05
224.0,-0.00037736271042376757
240.0,-0.0003567788517102599
256.0,-0.00022996874758973718
288.0,8.914769568946213e-05
320.0,0.0009264242253266275
352.0,0.0014747210079804063
384.0,0.0016296126414090395
416.0,0.0017100055702030659
448.0,0.0018384890863671899
480.0,0.002011295175179839
512.0,0.002424490638077259
576.0,0.0013142258394509554
640.0,-0.0005174335092306137
704.0,-0.0009608851396478713
768.0,-0.001247771317139268
832.0,-0.001309152110479772
896.0,-0.0006359273684211075
960.0,-0.0002704549697227776
1024.0,-0.00019029960094485432
1152.0,-0.0012166815577074885
1280.0,-0.0006442223093472421
1408.0,0.0006677349447272718
1536.0,0.0006064900080673397
1664.0,-0.0007342771859839559
1792.0,0.0005254735588096082
1920.0,0.0014080851105973125
2048.0,-0.00033246047678403556
2304.0,0.000288514798739925
2560.0,-0.0006253276951611042
2816.0,0.0006731845205649734
3072.0,-0.0007105335826054215
3328.0,-0.0020408211275935173
3584.0,-0.003462183754891157
3840.0,-0.0022470855619758368
4096.0,-0.001961156725883484
4608.0,0.0006130332476459444
5120.0,0.0006455713300965726
5632.0,8.595007238909602e-05
6144.0,-0.00018230629211757332
6656.0,0.000557370949536562
7168.0,0.0025481213815510273
7680.0,0.0016311340732499957
8192.0,-0.00048404480912722647
9216.0,-0.00025518613983877003
10240.0,-0.0013910542475059628
11264.0,-0.0010722092119976878
12288.0,0.00017785998352337629
13312.0,0.00031915062572807074
14336.0,0.0018194306176155806
end
