version,3.0
numOfCh,1
type,point
parent_name,20-cuts
ch_type,1_1
kcount,1
numberNandB,1
brightnessNandB,1
carpet pos,0
pc,0
Time (ms),CH1 Auto-Correlation
1.0,0.02197686769068241
2.0,0.021566232666373253
3.0,0.021154383197426796
4.0,0.020766731351614
5.0,0.020410988479852676
6.0,0.020062528550624847
7.0,0.019732093438506126
8.0,0.019418515264987946
9.0,0.019111832603812218
10.0,0.018792660906910896
11.0,0.018493246287107468
12.0,0.018204765394330025
13.0,0.017931174486875534
14.0,0.017673147842288017
15.0,0.01741974428296089
16.0,0.017172707244753838
18.0,0.016701215878129005
20.0,0.016255216673016548
22.0,0.015840869396924973
24.0,0.015454661101102829
26.0,0.015082413330674171
28.0,0.014710778370499611
30.0,0.014356196857988834
32.0,0.014024093747138977
36.0,0.013517790473997593
40.0,0.013041490688920021
44.0,0.01258344016969204
48.0,0.012154744006693363
52.0,0.011731279082596302
56.0,0.011303423903882504
60.0,0.010922730900347233
64.0,0.01056468952447176
72.0,0.00979657657444477
80.0,0.009140374138951302
88.0,0.008471915498375893
96.0,0.007899528369307518
104.0,0.007414680439978838
112.0,0.007016676943749189
120.0,0.006561918184161186
128.0,0.006141562480479479
144.0,0.005336216650903225
160.0,0.004955823998898268
176.0,0.004657787270843983
192.0,0.004185207188129425
208.0,0.0037745079025626183
224.0,0.0032513143960386515
240.0,0.0025473523419350386
256.0,0.0016988968709483743
288.0,0.00032107741571962833
320.0,-0.0003489911032374948
352.0,-0.00024216547899413854
384.0,0.00014444490079768002
416.0,0.0007473879377357662
448.0,0.0006932506803423166
480.0,0.0005750418058596551
512.0,0.0005063614225946367
576.0,0.0009581845952197909
640.0,0.0005855468334630132
704.0,-0.0012624365044757724
768.0,-0.0016856066649779677
832.0,-0.0021307659335434437
896.0,-0.0016016896115615964
960.0,-0.0010293521918356419
1024.0,-0.0002512783685233444
1152.0,0.00012988160597160459
1280.0,8.920362597564235e-05
1408.0,-0.0006984826759435236
1536.0,-0.0001940038928296417
1664.0,4.791223182110116e-05
1792.0,-0.0007194206700660288
1920.0,-0.0014589637285098433
2048.0,-0.002550592878833413
2304.0,-0.0015327789587900043
2560.0,-0.00297593348659575
2816.0,-0.002686337335035205
3072.0,0.00012929797230754048
3328.0,0.0011179579887539148
3584.0,-0.00048465680447407067
3840.0,0.001957469154149294
4096.0,0.002322892192751169
4608.0,0.0015871142968535423
5120.0,0.0003901023301295936
5632.0,0.00013286194007378072
6144.0,-0.002908294554799795
6656.0,-0.0013712593354284763
7168.0,-6.251274317037314e-05
7680.0,-0.0017383487429469824
8192.0,0.0004376027500256896
9216.0,-0.00012744801642838866
10240.0,0.0004303194291424006
11264.0,-0.0005728017422370613
12288.0,0.00037968377000652254
13312.0,-0.0027832358609884977
14336.0,0.0046951728872954845
end
