version,3.0
numOfCh,1
type,point
parent_name,20-cuts
ch_type,1_1
kcount,1
numberNandB,1
brightnessNandB,1
carpet pos,0
pc,0
Time (ms),CH1 Auto-Correlation
1.0,0.02139970287680626
2.0,0.020994950085878372
3.0,0.020605510100722313
4.0,0.02023048885166645
5.0,0.0198760237544775
6.0,0.019528893753886223
7.0,0.01918105036020279
8.0,0.018849821761250496
9.0,0.018524937331676483
10.0,0.018204573541879654
11.0,0.01789265125989914
12.0,0.017568325623869896
13.0,0.017259448766708374
14.0,0.016948003321886063
15.0,0.016634585335850716
16.0,0.016335370019078255
18.0,0.0157462265342474
20.0,0.01517761405557394
22.0,0.014648616313934326
24.0,0.014153779484331608
26.0,0.01369158923625946
28.0,0.013228862546384335
30.0,0.012780399061739445
32.0,0.012351629324257374
36.0,0.01152576133608818
40.0,0.010762806981801987
44.0,0.010061160661280155
48.0,0.009406336583197117
52.0,0.008807629346847534
56.0,0.008245378732681274
60.0,0.007719607558101416
64.0,0.0072195278480648994
72.0,0.006178692914545536
80.0,0.0051127104088664055
88.0,0.004104122053831816
96.0,0.003431570017710328
104.0,0.0031005581840872765
112.0,0.0028360625728964806
120.0,0.0027156404685229063
128.0,0.002573745558038354
144.0,0.0020884305704385042
160.0,0.001448854454793036
176.0,0.0010965494439005852
192.0,0.0005314782029017806
208.0,0.00022008034284226596
224.0,-0.00012756999058183283
240.0,-0.0002612856915220618
256.0,-0.0004915407625958323
288.0,-0.0010201685363426805
320.0,-0.0010558044305071235
352.0,-0.0007237910758703947
384.0,-8.04713781690225e-05
416.0,0.00029446513508446515
448.0,0.0014966321177780628
480.0,0.00260104495100677
512.0,0.003367225406691432
576.0,0.0021264294628053904
640.0,0.001673880498856306
704.0,0.001323177246376872
768.0,0.00041709901415742934
832.0,-0.00047035436728037894
896.0,-0.00038615052471868694
960.0,0.0013693335931748152
1024.0,0.0013131533050909638
1152.0,0.0020489164162427187
1280.0,0.0007814060081727803
1408.0,-0.00013989506987854838
1536.0,-2.8716353881463874e-06
1664.0,0.0016778784338384867
1792.0,0.0017835490871220827
1920.0,0.0012081039603799582
2048.0,-0.0006863349699415267
2304.0,0.0013322563609108329
2560.0,-0.00010655178630258888
2816.0,0.0014718816382810473
3072.0,0.0006251137820072472
3328.0,0.0005632129614241421
3584.0,0.00025738979456946254
3840.0,-0.0005081711569800973
4096.0,-0.00047463487135246396
4608.0,-0.0011933648493140936
5120.0,-0.0010838046437129378
5632.0,-0.002312032040208578
6144.0,-0.0009137448505498469
6656.0,-0.0008494395879097283
7168.0,-0.0013172426261007786
7680.0,-0.0008411940070800483
8192.0,-0.0014090953627601266
9216.0,-0.00109691615216434
10240.0,-0.0002834562910720706
11264.0,0.00011075828660978004
12288.0,0.00031164303072728217
13312.0,0.0007371475803665817
14336.0,0.00023561323178000748
end
