version,3.0
numOfCh,1
type,point
parent_name,20-cuts
ch_type,1_1
kcount,1
numberNandB,1
brightnessNandB,1
carpet pos,0
pc,0
Time (ms),CH1 Auto-Correlation
1.0,0.0349535271525383
2.0,0.03432873636484146
3.0,0.03373594582080841
4.0,0.03316744044423103
5.0,0.032617028802633286
6.0,0.03206318989396095
7.0,0.03153441473841667
8.0,0.03102056495845318
9.0,0.030528008937835693
10.0,0.030060935765504837
11.0,0.029603363946080208
12.0,0.02915177121758461
13.0,0.02871137671172619
14.0,0.02827497012913227
15.0,0.027855638414621353
16.0,0.02744521200656891
18.0,0.02663302794098854
20.0,0.0258394256234169
22.0,0.025065850466489792
24.0,0.024330977350473404
26.0,0.023633945733308792
28.0,0.02293737232685089
30.0,0.02226506546139717
32.0,0.0216220635920763
36.0,0.020395100116729736
40.0,0.019381342455744743
44.0,0.018472203984856606
48.0,0.017586976289749146
52.0,0.01673842780292034
56.0,0.01589208096265793
60.0,0.015091908164322376
64.0,0.014457670971751213
72.0,0.013548418879508972
80.0,0.012864843010902405
88.0,0.01232816930860281
96.0,0.01179414801299572
104.0,0.011363236233592033
112.0,0.01086901780217886
120.0,0.010239405557513237
128.0,0.009532607160508633
144.0,0.008849878795444965
160.0,0.008688034489750862
176.0,0.008524585515260696
192.0,0.007920111529529095
208.0,0.006744729820638895
224.0,0.005519210826605558
240.0,0.0049340128898620605
256.0,0.004306477028876543
288.0,0.0020664178300648928
320.0,0.000430295302066952
352.0,-7.626003207406029e-05
384.0,-0.0014780195197090507
416.0,-0.0017403780948370695
448.0,-0.0008558735135011375
480.0,-0.0019151684828102589
512.0,-0.0021832911297678947
576.0,-0.0011633430840447545
640.0,-0.00030353880720213056
704.0,-0.0012171828420832753
768.0,-0.0005908013554289937
832.0,0.0009060525917448103
896.0,-0.0011302272323518991
960.0,-0.002385936677455902
1024.0,-0.00263587711378932
1152.0,-0.00019806795171462
1280.0,0.0018184989457949996
1408.0,0.0013871572446078062
1536.0,-0.0001327141944784671
1664.0,-0.0007758516585454345
1792.0,-0.0011577876284718513
1920.0,-0.0007032279972918332
2048.0,-0.002157295821234584
2304.0,-0.0026295173447579145
2560.0,-0.0010777629213407636
2816.0,0.0008150795474648476
3072.0,-0.0012959910091012716
3328.0,-0.0028003414627164602
3584.0,-0.0001600214309291914
3840.0,0.0009399617556482553
4096.0,0.002606140449643135
4608.0,0.0006941985921002924
5120.0,0.0001301867887377739
5632.0,0.0007316467235796154
6144.0,0.00013529023271985352
6656.0,-0.0024988134391605854
7168.0,-0.0018684809328988194
7680.0,-0.0020883448887616396
8192.0,0.0015354567440226674
9216.0,0.0003297979128547013
10240.0,-0.0020527136512100697
11264.0,-0.0019366006599739194
12288.0,0.0010864443611353636
13312.0,0.005283781792968512
14336.0,-0.004815179854631424
end
