version,3.0
numOfCh,1
type,point
parent_name,20-cuts
ch_type,1_1
kcount,1
numberNandB,1
brightnessNandB,1
carpet pos,0
pc,0
Time (ms),CH1 Auto-Correlation
1.0,0.019493484869599342
2.0,0.019098471850156784
3.0,0.018728107213974
4.0,0.01837693713605404
5.0,0.018034009262919426
6.0,0.017707113176584244
7.0,0.017386475577950478
8.0,0.017083575949072838
9.0,0.016792140901088715
10.0,0.01650906726717949
11.0,0.016229789704084396
12.0,0.01595042273402214
13.0,0.015683522447943687
14.0,0.015424641780555248
15.0,0.015172157436609268
16.0,0.014929981902241707
18.0,0.014481458812952042
20.0,0.014071130193769932
22.0,0.013682276010513306
24.0,0.01330836396664381
26.0,0.012973465956747532
28.0,0.012674843892455101
30.0,0.012396364472806454
32.0,0.012150979600846767
36.0,0.011709799990057945
40.0,0.01129833608865738
44.0,0.010877532884478569
48.0,0.010490073822438717
52.0,0.010120776481926441
56.0,0.009724818170070648
60.0,0.00934635940939188
64.0,0.009008719585835934
72.0,0.008362356573343277
80.0,0.007669240236282349
88.0,0.007070430088788271
96.0,0.00659441901370883
104.0,0.006279534660279751
112.0,0.006036209408193827
120.0,0.005721661727875471
128.0,0.005354760680347681
144.0,0.004880388267338276
160.0,0.004348226357251406
176.0,0.0038602077402174473
192.0,0.0034129410050809383
208.0,0.003070620121434331
224.0,0.00295356847345829
240.0,0.002593185054138303
256.0,0.002382397186011076
288.0,0.002178538590669632
320.0,0.001973684411495924
352.0,0.0020443254616111517
384.0,0.0014851142186671495
416.0,0.0008891333127394319
448.0,0.0003523627819959074
480.0,0.00021048019698355347
512.0,0.000711339816916734
576.0,4.157244256930426e-05
640.0,-0.0007617085357196629
704.0,-0.0008686393266543746
768.0,-4.112046372028999e-05
832.0,0.00015658528718631715
896.0,0.0001238619879586622
960.0,-0.0004817321605514735
1024.0,-0.0005088626639917493
1152.0,-0.0014363062800839543
1280.0,-0.002420913428068161
1408.0,-0.001430898904800415
1536.0,-0.0004129241278860718
1664.0,-0.0007934730383567512
1792.0,-0.0008986904285848141
1920.0,0.0001061700313584879
2048.0,0.0013603554107248783
2304.0,0.0008152933442033827
2560.0,0.001889818930067122
2816.0,0.0007487442926503718
3072.0,-0.00038311368552967906
3328.0,-0.0020892415195703506
3584.0,-0.0016186791472136974
3840.0,-0.0008153325179591775
4096.0,0.0008506519952788949
4608.0,0.001499047502875328
5120.0,-0.00011268245725659654
5632.0,-0.00015539115702267736
6144.0,0.0006498733418993652
6656.0,0.000526671763509512
7168.0,0.0008343459339812398
7680.0,-0.002146401209756732
8192.0,-0.0014162072911858559
9216.0,-0.0013248124159872532
10240.0,0.0009451064397580922
11264.0,-0.0006875032559037209
12288.0,-0.0002683427883312106
13312.0,-0.0005087754689157009
14336.0,-0.0015286995330825448
end
