version,3.0
numOfCh,1
type,point
parent_name,20-cuts
ch_type,1_1
kcount,1
numberNandB,1
brightnessNandB,1
carpet pos,0
pc,0
Time (ms),CH1 Auto-Correlation
1.0,0.06688455492258072
2.0,0.06560307741165161
3.0,0.0643867552280426
4.0,0.06320083886384964
5.0,0.0620599240064621
6.0,0.06095459684729576
7.0,0.05989982932806015
8.0,0.05885796621441841
9.0,0.057876020669937134
10.0,0.056918635964393616
11.0,0.0559983067214489
12.0,0.055111709982156754
13.0,0.054246701300144196
14.0,0.0533796101808548
15.0,0.05254276469349861
16.0,0.05171480402350426
18.0,0.0500502772629261
20.0,0.04842173308134079
22.0,0.04679781571030617
24.0,0.04526521638035774
26.0,0.043804049491882324
28.0,0.04234226420521736
30.0,0.040955737233161926
32.0,0.03965175896883011
36.0,0.03721223399043083
40.0,0.0349702313542366
44.0,0.03295362368226051
48.0,0.031150832772254944
52.0,0.029375463724136353
56.0,0.027645427733659744
60.0,0.02638109400868416
64.0,0.025497877970337868
72.0,0.024075351655483246
80.0,0.02249855361878872
88.0,0.021229352802038193
96.0,0.019866829738020897
104.0,0.01828722283244133
112.0,0.016678817570209503
120.0,0.015180019661784172
128.0,0.014030377380549908
144.0,0.012950297445058823
160.0,0.012218441814184189
176.0,0.010762894526124
192.0,0.009338520467281342
208.0,0.0081052016466856
224.0,0.007482039742171764
240.0,0.00703627010807395
256.0,0.006888124160468578
288.0,0.006092562340199947
320.0,0.003842054633423686
352.0,0.0013881046324968338
384.0,0.0010955719044432044
416.0,3.8822778151370585e-05
448.0,0.00038659051642753184
480.0,0.00015579821774736047
512.0,0.0003143083886243403
576.0,0.0017948737367987633
640.0,0.0022352098021656275
704.0,0.0025300022680312395
768.0,0.0018253151793032885
832.0,-0.0011002975516021252
896.0,-0.0008560980786569417
960.0,0.001272322260774672
1024.0,0.0029002290684729815
1152.0,0.0027489089407026768
1280.0,0.0007767719216644764
1408.0,-0.0013846461661159992
1536.0,-0.0005735153099521995
1664.0,0.0038055696059018373
1792.0,-0.006374645046889782
1920.0,-0.010038265958428383
2048.0,-0.0070250919088721275
2304.0,-0.004990105051547289
2560.0,-0.003805900923907757
2816.0,-0.003584320191293955
3072.0,-0.003263766411691904
3328.0,0.001847657491452992
3584.0,0.0006798256072215736
3840.0,-5.26797775819432e-05
4096.0,-0.0026967793237417936
4608.0,0.002405548468232155
5120.0,-0.0016273827059194446
5632.0,-0.0026007310952991247
6144.0,-0.002963079372420907
6656.0,-0.0026974559295922518
7168.0,0.004579651635140181
7680.0,0.003914516884833574
8192.0,0.007984207011759281
9216.0,-0.004290195181965828
10240.0,-0.0031428728252649307
11264.0,0.004293248523026705
12288.0,0.004086636006832123
13312.0,-0.004148766864091158
14336.0,-0.004456889349967241
end
