version,3.0
numOfCh,1
type,point
parent_name,20-cuts
ch_type,1_1
kcount,1
numberNandB,1
brightnessNandB,1
carpet pos,0
pc,0
Time (ms),CH1 Auto-Correlation
1.0,0.028544753789901733
2.0,0.02796291746199131
3.0,0.027411330491304398
4.0,0.026879893615841866
5.0,0.026350602507591248
6.0,0.025852199643850327
7.0,0.02535478211939335
8.0,0.024881480261683464
9.0,0.024427106603980064
10.0,0.023988274857401848
11.0,0.02357429824769497
12.0,0.023169467225670815
13.0,0.022775083780288696
14.0,0.022385885939002037
15.0,0.02200719155371189
16.0,0.021635640412569046
18.0,0.020904134958982468
20.0,0.020205846056342125
22.0,0.01951318420469761
24.0,0.01888756826519966
26.0,0.018271619454026222
28.0,0.01768876425921917
30.0,0.017124619334936142
32.0,0.01657620631158352
36.0,0.015543126501142979
40.0,0.014542730525135994
44.0,0.013598153367638588
48.0,0.012773399241268635
52.0,0.012159483507275581
56.0,0.011695834808051586
60.0,0.01134526077657938
64.0,0.010990969836711884
72.0,0.010383132845163345
80.0,0.00981663167476654
88.0,0.00920141488313675
96.0,0.008608905598521233
104.0,0.00806355569511652
112.0,0.007621169555932283
120.0,0.007195064332336187
128.0,0.006741879973560572
144.0,0.006306739524006844
160.0,0.0057311817072331905
176.0,0.004958190489560366
192.0,0.00422296766191721
208.0,0.003929774276912212
224.0,0.0037595650646835566
240.0,0.003233579685911536
256.0,0.003016276750713587
288.0,0.002219383604824543
320.0,0.0007242078427225351
352.0,0.0005597700946964324
384.0,0.0007995573687367141
416.0,0.0013387941289693117
448.0,0.001154965371824801
480.0,0.0016022890340536833
512.0,0.0017656211275607347
576.0,0.0009211036376655102
640.0,-0.0008833600440993905
704.0,-0.002978323958814144
768.0,-0.0037314111832529306
832.0,-0.0028275998774915934
896.0,-0.001464877394028008
960.0,-0.0011897580698132515
1024.0,0.0016077427426353097
1152.0,0.0005456101498566568
1280.0,0.0011074687354266644
1408.0,0.0010911879362538457
1536.0,0.001388555858284235
1664.0,0.0006833410006947815
1792.0,0.001644257688894868
1920.0,-0.0014077910454943776
2048.0,-0.0012699037324637175
2304.0,0.00034106033854186535
2560.0,0.0006177889881655574
2816.0,-0.00047149660531431437
3072.0,-0.0026375395245850086
3328.0,-0.0020834305323660374
3584.0,-0.0017325668595731258
3840.0,0.0021357901860028505
4096.0,0.0020552403293550014
4608.0,-0.00125317950733006
5120.0,-0.0004597719816956669
5632.0,0.004320064559578896
6144.0,0.0021868585608899593
6656.0,0.00022804840409662575
7168.0,9.636558388592675e-05
7680.0,-0.002376374090090394
8192.0,-0.0006311738980002701
9216.0,-0.0024709077551960945
10240.0,-0.0019608954899013042
11264.0,0.0021151232067495584
12288.0,-0.00048820298979990184
13312.0,-0.002578435931354761
14336.0,-0.002586330519989133
end
