version,3.0
numOfCh,1
type,point
parent_name,20-cuts
ch_type,1_1
kcount,1
numberNandB,1
brightnessNandB,1
carpet pos,0
pc,0
Time (ms),CH1 Auto-Correlation
1.0,0.02179812826216221
2.0,0.02136455662548542
3.0,0.020947236567735672
4.0,0.02054011821746826
5.0,0.020141849294304848
6.0,0.01975361630320549
7.0,0.019369157031178474
8.0,0.019000202417373657
9.0,0.018634438514709473
10.0,0.01827322505414486
11.0,0.017923753708600998
12.0,0.01759086735546589
13.0,0.017261147499084473
14.0,0.016937527805566788
15.0,0.016629861667752266
16.0,0.016324255615472794
18.0,0.01575138047337532
20.0,0.015214622020721436
22.0,0.014723055064678192
24.0,0.01425379142165184
26.0,0.013830386102199554
28.0,0.013444618321955204
30.0,0.01308249682188034
32.0,0.012719869613647461
36.0,0.012011983431875706
40.0,0.011356727220118046
44.0,0.010746301151812077
48.0,0.010205410420894623
52.0,0.009746038354933262
56.0,0.009381386451423168
60.0,0.009089614264667034
64.0,0.00885066855698824
72.0,0.008344337344169617
80.0,0.007851806469261646
88.0,0.007405804004520178
96.0,0.007053126581013203
104.0,0.006782665383070707
112.0,0.0066361622884869576
120.0,0.006536127999424934
128.0,0.006500942166894674
144.0,0.006254056002944708
160.0,0.005657956935465336
176.0,0.004846390336751938
192.0,0.004400414414703846
208.0,0.004605100490152836
224.0,0.004721290431916714
240.0,0.004375475458800793
256.0,0.003883823985233903
288.0,0.003463344182819128
320.0,0.0035138276871293783
352.0,0.0033150427043437958
384.0,0.0028944863006472588
416.0,0.0029301962349563837
448.0,0.0025309580378234386
480.0,0.0018422113498672843
512.0,0.001474001444876194
576.0,0.0003260584780946374
640.0,-0.0004832219856325537
704.0,-0.0006394070805981755
768.0,-0.0004444171499926597
832.0,-0.0005960371345281601
896.0,-0.00041164286085404456
960.0,0.0004811298567801714
1024.0,7.779467705404386e-05
1152.0,-0.0018852334469556808
1280.0,-0.003270596032962203
1408.0,-0.002375772688537836
1536.0,-0.0010439493926241994
1664.0,-0.0008784534293226898
1792.0,-0.000980025390163064
1920.0,-0.0007928941049613059
2048.0,-0.0008835613261908293
2304.0,-0.0004884979571215808
2560.0,0.0007971060113050044
2816.0,0.002402972662821412
3072.0,0.0045179035514593124
3328.0,0.0032591477502137423
3584.0,0.0019479261245578527
3840.0,0.001088557648472488
4096.0,0.0014662521425634623
4608.0,-0.0011988580226898193
5120.0,-0.002862918423488736
5632.0,-0.0016824317863211036
6144.0,0.0014168170746415854
6656.0,-6.972099072299898e-05
7168.0,0.0003364651056472212
7680.0,0.0010341447778046131
8192.0,-0.0016216462245211005
9216.0,-0.0025726906023919582
10240.0,-0.0005179307772777975
11264.0,-0.0005612571258097887
12288.0,-0.001840286306105554
13312.0,-0.0019278371473774314
14336.0,0.002170229097828269
end
