version,3.0
numOfCh,1
type,point
parent_name,20-cuts
ch_type,1_1
kcount,1
numberNandB,1
brightnessNandB,1
carpet pos,0
pc,0
Time (ms),CH1 Auto-Correlation
1.0,0.07305062562227249
2.0,0.07176211476325989
3.0,0.07054203003644943
4.0,0.06933720409870148
5.0,0.06816213577985764
6.0,0.06702699512243271
7.0,0.06588402390480042
8.0,0.06478510051965714
9.0,0.06374609470367432
10.0,0.06274283677339554
11.0,0.06178497523069382
12.0,0.06084293872117996
13.0,0.05990978330373764
14.0,0.05901447311043739
15.0,0.05815857648849487
16.0,0.05732562392950058
18.0,0.0557110495865345
20.0,0.05419621989130974
22.0,0.05275876820087433
24.0,0.05141783133149147
26.0,0.050157949328422546
28.0,0.04908185824751854
30.0,0.04809648171067238
32.0,0.04706501215696335
36.0,0.04518099129199982
40.0,0.043535176664590836
44.0,0.042247410863637924
48.0,0.04114188626408577
52.0,0.039978694170713425
56.0,0.03888576105237007
60.0,0.0379638634622097
64.0,0.03707948699593544
72.0,0.035284049808979034
80.0,0.0338287279009819
88.0,0.032875049859285355
96.0,0.03236599639058113
104.0,0.032136086374521255
112.0,0.031990136951208115
120.0,0.031981777399778366
128.0,0.03201499208807945
144.0,0.03035307675600052
160.0,0.02870672009885311
176.0,0.027657071128487587
192.0,0.025898179039359093
208.0,0.023904291912913322
224.0,0.022324681282043457
240.0,0.02006216160953045
256.0,0.018400104716420174
288.0,0.017003152519464493
320.0,0.014507710933685303
352.0,0.01242330577224493
384.0,0.009809634648263454
416.0,0.00754172820597887
448.0,0.006073166150599718
480.0,0.0036550916265696287
512.0,0.002276666695252061
576.0,-0.002919728634878993
640.0,-0.0034371621441096067
704.0,-0.005013478919863701
768.0,-0.007377447094768286
832.0,-0.008642485365271568
896.0,-0.008657935075461864
960.0,-0.009013195522129536
1024.0,-0.00836114026606083
1152.0,-0.006302620749920607
1280.0,-0.004733928944915533
1408.0,-0.001745618530549109
1536.0,0.0003205393149983138
1664.0,0.0003854379756376147
1792.0,-0.0013446450466290116
1920.0,-0.0031192461028695107
2048.0,-0.00177497579716146
2304.0,0.0008385119144804776
2560.0,-0.003756435588002205
2816.0,-0.006159678101539612
3072.0,-0.012282083742320538
3328.0,-0.007932276464998722
3584.0,-0.0038411093410104513
3840.0,0.0031915344297885895
4096.0,0.007864944636821747
4608.0,-0.0028238773811608553
5120.0,-0.001301422598771751
5632.0,0.008030015043914318
6144.0,-0.007928307168185711
6656.0,-0.0003235620679333806
7168.0,0.0010413264390081167
7680.0,0.0019395035924389958
8192.0,0.005967569537460804
9216.0,0.00440695695579052
10240.0,-0.012618190608918667
11264.0,-0.00934341549873352
12288.0,0.004746350459754467
13312.0,0.027081025764346123
14336.0,7.454431033693254e-05
end
