version,3.0
numOfCh,1
type,point
parent_name,20-cuts
ch_type,1_1
kcount,1
numberNandB,1
brightnessNandB,1
carpet pos,0
pc,0
Time (ms),CH1 Auto-Correlation
1.0,0.018216993659734726
2.0,0.017831530421972275
3.0,0.017452124506235123
4.0,0.017082178965210915
5.0,0.016731809824705124
6.0,0.016401618719100952
7.0,0.016085108742117882
8.0,0.015781216323375702
9.0,0.015487847849726677
10.0,0.015211322344839573
11.0,0.014947629533708096
12.0,0.014686167240142822
13.0,0.014443856664001942
14.0,0.014211202971637249
15.0,0.013994846493005753
16.0,0.013787077739834785
18.0,0.013405876234173775
20.0,0.013027522712945938
22.0,0.012648307718336582
24.0,0.01226750761270523
26.0,0.011893643997609615
28.0,0.011516720987856388
30.0,0.011171494610607624
32.0,0.010842053219676018
36.0,0.01021143700927496
40.0,0.009612864814698696
44.0,0.00904060434550047
48.0,0.008507207967340946
52.0,0.008025942370295525
56.0,0.007605171762406826
60.0,0.007213274482637644
64.0,0.006881409790366888
72.0,0.006356901954859495
80.0,0.005838238168507814
88.0,0.005366891622543335
96.0,0.004997223615646362
104.0,0.004591087345033884
112.0,0.004174104426056147
120.0,0.003889498533681035
128.0,0.0037378857377916574
144.0,0.003503703512251377
160.0,0.0034806248731911182
176.0,0.0034042573533952236
192.0,0.0030928924679756165
208.0,0.0026908309664577246
224.0,0.00195071951020509
240.0,0.001412418088875711
256.0,0.0009817677782848477
288.0,0.0011743693612515926
320.0,0.00169974728487432
352.0,0.0018918843707069755
384.0,0.0016669032629579306
416.0,0.0013803314650431275
448.0,0.0009003898594528437
480.0,0.00043998085311613977
512.0,0.00012034954852424562
576.0,-0.0006371316849254072
640.0,9.135997970588505e-05
704.0,0.0010410996619611979
768.0,0.0008766718092374504
832.0,0.00041838656761683524
896.0,-0.00019822582544293255
960.0,-0.0014853805769234896
1024.0,-0.0020763601642102003
1152.0,-0.002150227315723896
1280.0,-0.002233898965641856
1408.0,-0.001132712117396295
1536.0,-4.712508962256834e-05
1664.0,0.00092212954768911
1792.0,0.0011434898478910327
1920.0,0.000160310955834575
2048.0,-1.7636709799262462e-06
2304.0,0.0012871184153482318
2560.0,0.0006027103518135846
2816.0,-0.0015563775086775422
3072.0,-0.0020047274883836508
3328.0,-0.001796005293726921
3584.0,-0.0011759368935599923
3840.0,-0.0007175423670560122
4096.0,0.0010287073673680425
4608.0,0.00025691979681141675
5120.0,-0.0007387377554550767
5632.0,-0.0004016342863906175
6144.0,0.0006342488341033459
6656.0,0.0003719451487995684
7168.0,-0.0015861187130212784
7680.0,-0.000586449634283781
8192.0,-0.00036589379305951297
9216.0,0.0011777859181165695
10240.0,0.0024298604112118483
11264.0,-0.000504047202412039
12288.0,-0.00016027307719923556
13312.0,-0.0015615489101037383
14336.0,-0.004475938621908426
end
