version,3.0
numOfCh,1
type,point
parent_name,20-cuts
ch_type,1_1
kcount,1
numberNandB,1
brightnessNandB,1
carpet pos,0
pc,0
Time (ms),CH1 Auto-Correlation
1.0,0.024265607818961143
2.0,0.02368006482720375
3.0,0.023119864985346794
4.0,0.022578096017241478
5.0,0.0220488328486681
6.0,0.021539611741900444
7.0,0.021057888865470886
8.0,0.020605046302080154
9.0,0.020171118900179863
10.0,0.019734902307391167
11.0,0.01931026577949524
12.0,0.018886180594563484
13.0,0.018483998253941536
14.0,0.018100444227457047
15.0,0.01773194782435894
16.0,0.017373979091644287
18.0,0.016732074320316315
20.0,0.016142047941684723
22.0,0.015589303337037563
24.0,0.015070258639752865
26.0,0.014549082145094872
28.0,0.01403480488806963
30.0,0.013501359149813652
32.0,0.012968063354492188
36.0,0.012047996744513512
40.0,0.011280621401965618
44.0,0.01055819634348154
48.0,0.009868275374174118
52.0,0.009208151139318943
56.0,0.008658424019813538
60.0,0.008222359232604504
64.0,0.007847143337130547
72.0,0.007207095623016357
80.0,0.006718468386679888
88.0,0.0063077048398554325
96.0,0.005835217423737049
104.0,0.0053464630618691444
112.0,0.004675271455198526
120.0,0.004125333856791258
128.0,0.003637834917753935
144.0,0.002956765703856945
160.0,0.00245259259827435
176.0,0.0022165351547300816
192.0,0.002229777630418539
208.0,0.0016268236795440316
224.0,0.0008845807169564068
240.0,6.637315527768806e-05
256.0,-0.00046120904153212905
288.0,-0.001017103553749621
320.0,-0.0011246701469644904
352.0,-0.0008097496465779841
384.0,-0.0008484147256240249
416.0,-0.0013576745986938477
448.0,-0.0016592135652899742
480.0,-0.0011280382750555873
512.0,-0.0008775853202678263
576.0,-0.0015695104375481606
640.0,-0.002936879638582468
704.0,-0.0023070822935551405
768.0,-0.0001900965435197577
832.0,0.0008100128034129739
896.0,0.0006458291900344193
960.0,0.0005962566356174648
1024.0,0.00039164829649962485
1152.0,0.0006447506602853537
1280.0,-0.00021586036018561572
1408.0,-0.0008287945529446006
1536.0,-8.038071973714978e-05
1664.0,0.0010905386880040169
1792.0,-0.0007390121463686228
1920.0,-0.0016611423343420029
2048.0,-0.0008474922506138682
2304.0,-0.0012127200607210398
2560.0,-0.0010781895834952593
2816.0,-0.002338396618142724
3072.0,-0.0003142121422570199
3328.0,0.0017804005183279514
3584.0,0.001228843815624714
3840.0,-0.00019783493189606816
4096.0,-0.0003620952775236219
4608.0,0.0011947923339903355
5120.0,-0.000646037922706455
5632.0,0.0007968151476234198
6144.0,-0.001717210398055613
6656.0,-0.0003154138976242393
7168.0,-0.0009314799099229276
7680.0,0.0011372275184839964
8192.0,0.0014565994497388601
9216.0,0.0010332190431654453
10240.0,-0.00042457805830053985
11264.0,-0.00037963135400786996
12288.0,-0.00041919894283637404
13312.0,0.0006808281759731472
14336.0,-0.0001344963238807395
end
