version,3.0
numOfCh,1
type,point
parent_name,20-cuts
ch_type,1_1
kcount,1
numberNandB,1
brightnessNandB,1
carpet pos,0
pc,0
Time (ms),CH1 Auto-Correlation
1.0,0.0241819117218256
2.0,0.023770838975906372
3.0,0.02339176833629608
4.0,0.023017415776848793
5.0,0.022646982222795486
6.0,0.022288832813501358
7.0,0.021941378712654114
8.0,0.021594775840640068
9.0,0.021256908774375916
10.0,0.02091839537024498
11.0,0.020590100437402725
12.0,0.02026357874274254
13.0,0.019944874569773674
14.0,0.019637642428278923
15.0,0.019336890429258347
16.0,0.019040223211050034
18.0,0.018487656489014626
20.0,0.01797042228281498
22.0,0.01749909296631813
24.0,0.017062637954950333
26.0,0.016655486077070236
28.0,0.016269484534859657
30.0,0.015903053805232048
32.0,0.015561496838927269
36.0,0.014908339828252792
40.0,0.014241334050893784
44.0,0.013685356825590134
48.0,0.013132389634847641
52.0,0.012601611204445362
56.0,0.012150535359978676
60.0,0.01177695207297802
64.0,0.011424961499869823
72.0,0.010900982655584812
80.0,0.010403916239738464
88.0,0.009867621585726738
96.0,0.009321682155132294
104.0,0.008762645535171032
112.0,0.008321481756865978
120.0,0.007857464253902435
128.0,0.007262318395078182
144.0,0.006343712564557791
160.0,0.005965322721749544
176.0,0.005812718067318201
192.0,0.005799008533358574
208.0,0.005384840536862612
224.0,0.004905244801193476
240.0,0.004540078807622194
256.0,0.004007908049970865
288.0,0.002914284123107791
320.0,0.002378433011472225
352.0,0.0029039327055215836
384.0,0.0029945438727736473
416.0,0.002586069516837597
448.0,0.002653785515576601
480.0,0.002048933645710349
512.0,0.00033488369081169367
576.0,0.0001744445035001263
640.0,-0.00031051592668518424
704.0,-0.0008649742812849581
768.0,0.00010730427311500534
832.0,0.0020754565484821796
896.0,0.0014519854448735714
960.0,0.0014745346270501614
1024.0,0.001811645575799048
1152.0,-0.0007842881022952497
1280.0,-0.0013838412705808878
1408.0,-0.0012228512205183506
1536.0,-0.0004914343589916825
1664.0,-0.0017017178470268846
1792.0,-0.0011231346288695931
1920.0,-0.002863057889044285
2048.0,-0.002945562358945608
2304.0,-0.0015792399644851685
2560.0,0.0021505719050765038
2816.0,0.0009892790112644434
3072.0,-0.0001368148223264143
3328.0,-0.0008794227032922208
3584.0,-0.0016825320199131966
3840.0,-0.002959352685138583
4096.0,-0.001876168418675661
4608.0,-0.0034437875729054213
5120.0,-0.0019048464018851519
5632.0,0.0005197725840844214
6144.0,0.004078446887433529
6656.0,0.0014789303531870246
7168.0,0.0013525582617148757
7680.0,-0.002420342294499278
8192.0,-0.0017690869281068444
9216.0,0.001289650215767324
10240.0,-0.0024398849345743656
11264.0,-0.0015352973714470863
12288.0,0.001136179780587554
13312.0,-0.0006224598037078977
14336.0,-6.12581497989595e-05
end
