version,3.0
numOfCh,1
type,point
parent_name,20-cuts
ch_type,1_1
kcount,1
numberNandB,1
brightnessNandB,1
carpet pos,0
pc,0
Time (ms),CH1 Auto-Correlation
1.0,0.020967761054635048
2.0,0.02055281028151512
3.0,0.020159438252449036
4.0,0.01978396251797676
5.0,0.019425544887781143
6.0,0.019072815775871277
7.0,0.018729237839579582
8.0,0.01839407905936241
9.0,0.018071798607707024
10.0,0.01776069961488247
11.0,0.017450464889407158
12.0,0.01714506186544895
13.0,0.016848839819431305
14.0,0.016545383259654045
15.0,0.016242176294326782
16.0,0.01594468578696251
18.0,0.01537761278450489
20.0,0.014853707514703274
22.0,0.014352698810398579
24.0,0.013880567625164986
26.0,0.013402391225099564
28.0,0.012933515012264252
30.0,0.01249665766954422
32.0,0.012088467366993427
36.0,0.011348237283527851
40.0,0.010663971304893494
44.0,0.010021758265793324
48.0,0.009457813575863838
52.0,0.008930125273764133
56.0,0.008477805182337761
60.0,0.008114533498883247
64.0,0.00776440417394042
72.0,0.007116875611245632
80.0,0.0066153621301054955
88.0,0.006224415730684996
96.0,0.005826020147651434
104.0,0.005360059440135956
112.0,0.00497862696647644
120.0,0.004755598027259111
128.0,0.004530469421297312
144.0,0.004157009068876505
160.0,0.003439777297899127
176.0,0.0027078292332589626
192.0,0.0019840491004288197
208.0,0.0017750916304066777
224.0,0.0018400063272565603
240.0,0.0018217229517176747
256.0,0.0017811465077102184
288.0,0.0019255435327067971
320.0,0.0013703313888981938
352.0,0.0013328433269634843
384.0,0.0005422142567113042
416.0,-0.0006362986168824136
448.0,-0.001141331740655005
480.0,-0.0006067028734833002
512.0,0.000660043559037149
576.0,-4.004936636192724e-05
640.0,-0.00011672800610540435
704.0,-0.0012605460360646248
768.0,-0.0016401538159698248
832.0,-0.0008093744982033968
896.0,0.000502864713780582
960.0,0.0003765924193430692
1024.0,-0.0006163018406368792
1152.0,-0.00033627080847509205
1280.0,0.0005083409487269819
1408.0,0.0007717720000073314
1536.0,0.00018467509653419256
1664.0,-0.00016343110473826528
1792.0,0.0006241127266548574
1920.0,8.810898725641891e-05
2048.0,-0.0003890403895638883
2304.0,-0.0005619637668132782
2560.0,-0.00030653219437226653
2816.0,-0.0010255230590701103
3072.0,0.0004681350546889007
3328.0,0.0010470108827576041
3584.0,0.001022511743940413
3840.0,-0.0013287425972521305
4096.0,-0.002490413375198841
4608.0,-0.0012512421235442162
5120.0,-3.499774174997583e-05
5632.0,-0.002326234709471464
6144.0,0.00040330778574571013
6656.0,-5.109377525513992e-05
7168.0,-0.0004070022259838879
7680.0,-0.001955630723387003
8192.0,0.0003966443473473191
9216.0,0.001053971005603671
10240.0,0.0006009919452480972
11264.0,0.002084469422698021
12288.0,0.001958640059456229
13312.0,-0.001798838609829545
14336.0,-0.0015854011289775372
end
