version,3.0
numOfCh,1
type,point
parent_name,20-cuts
ch_type,1_1
kcount,1
numberNandB,1
brightnessNandB,1
carpet pos,0
pc,0
Time (ms),CH1 Auto-Correlation
1.0,0.03193313255906105
2.0,0.031302474439144135
3.0,0.0306813083589077
4.0,0.030075378715991974
5.0,0.02945864573121071
6.0,0.02886316552758217
7.0,0.028273850679397583
8.0,0.02769945003092289
9.0,0.02712724544107914
10.0,0.02658584527671337
11.0,0.026065519079566002
12.0,0.025553742423653603
13.0,0.02505640499293804
14.0,0.024591445922851562
15.0,0.024130193516612053
16.0,0.02368921972811222
18.0,0.022835146635770798
20.0,0.02201223000884056
22.0,0.021214256063103676
24.0,0.020452572032809258
26.0,0.019756626337766647
28.0,0.019111143425107002
30.0,0.018529145047068596
32.0,0.018038321286439896
36.0,0.017122041434049606
40.0,0.016248606145381927
44.0,0.015483126044273376
48.0,0.014802900142967701
52.0,0.01425331924110651
56.0,0.013773770071566105
60.0,0.013292752206325531
64.0,0.012726783752441406
72.0,0.011506929993629456
80.0,0.010348488576710224
88.0,0.009275367483496666
96.0,0.008249240927398205
104.0,0.007424828130751848
112.0,0.00692196236923337
120.0,0.006603668909519911
128.0,0.006330257281661034
144.0,0.006347149144858122
160.0,0.006143259350210428
176.0,0.005956421606242657
192.0,0.0058440775610506535
208.0,0.005216315854340792
224.0,0.0048135751858353615
240.0,0.004831967409700155
256.0,0.004596843384206295
288.0,0.004209190607070923
320.0,0.004234991502016783
352.0,0.004371734336018562
384.0,0.0038522721733897924
416.0,0.0043289270251989365
448.0,0.003165939124301076
480.0,0.0016232940834015608
512.0,-5.532141585717909e-05
576.0,0.00034342697472311556
640.0,-3.220937287551351e-05
704.0,0.0007628008024767041
768.0,0.0019475530134513974
832.0,0.0006670259172096848
896.0,0.00030607235385105014
960.0,0.0017654973780736327
1024.0,0.0005928233731538057
1152.0,-0.0014081093249842525
1280.0,-0.00012893507664557546
1408.0,0.0007088768179528415
1536.0,0.001593459746800363
1664.0,0.003366527846083045
1792.0,0.004536258056759834
1920.0,0.004137299954891205
2048.0,0.0031555083114653826
2304.0,0.0033943618182092905
2560.0,0.0022044219076633453
2816.0,0.0010803102049976587
3072.0,-0.0002163834433304146
3328.0,0.0003789982874877751
3584.0,0.0002115609822794795
3840.0,-0.0004982621176168323
4096.0,0.0008002116810530424
4608.0,-3.090219252044335e-05
5120.0,-9.851579670794308e-05
5632.0,-0.0018037384143099189
6144.0,-0.00210391404107213
6656.0,-0.0022313264198601246
7168.0,-0.0035825895611196756
7680.0,-0.0025765805039554834
8192.0,-0.0014864645199850202
9216.0,-0.004559952765703201
10240.0,-0.00037363122100941837
11264.0,-0.0016193740302696824
12288.0,-0.0008695783326402307
13312.0,0.0008748037507757545
14336.0,0.0014463327825069427
end
