version,3.0
numOfCh,1
type,point
parent_name,20-cuts
ch_type,1_1
kcount,1
numberNandB,1
brightnessNandB,1
carpet pos,0
pc,0
Time (ms),CH1 Auto-Correlation
1.0,0.021082844585180283
2.0,0.02068093791604042
3.0,0.020302709192037582
4.0,0.019920896738767624
5.0,0.019543392583727837
6.0,0.019165989011526108
7.0,0.018795911222696304
8.0,0.018430199474096298
9.0,0.018077440559864044
10.0,0.017735661938786507
11.0,0.017407771199941635
12.0,0.01709131896495819
13.0,0.0167880617082119
14.0,0.016495930030941963
15.0,0.016212036833167076
16.0,0.015940848737955093
18.0,0.015439205802977085
20.0,0.014957074075937271
22.0,0.014506867155432701
24.0,0.014079142361879349
26.0,0.013690532185137272
28.0,0.01332836039364338
30.0,0.012947333045303822
32.0,0.012578948400914669
36.0,0.011871911585330963
40.0,0.011233577504754066
44.0,0.01066402904689312
48.0,0.010155145078897476
52.0,0.009722737595438957
56.0,0.009390166960656643
60.0,0.009098820388317108
64.0,0.008808757178485394
72.0,0.008365267887711525
80.0,0.008036691695451736
88.0,0.007742116693407297
96.0,0.007470893207937479
104.0,0.007187418173998594
112.0,0.006866775453090668
120.0,0.00658077746629715
128.0,0.006349473260343075
144.0,0.005652289371937513
160.0,0.005149149335920811
176.0,0.004718185402452946
192.0,0.004563626367598772
208.0,0.004192141816020012
224.0,0.003941049799323082
240.0,0.004111020360141993
256.0,0.004250003956258297
288.0,0.00371261453256011
320.0,0.002579703461378813
352.0,0.0022729269694536924
384.0,0.0019766134209930897
416.0,0.0020597295369952917
448.0,0.0020343842916190624
480.0,0.0018677193438634276
512.0,0.0023879099171608686
576.0,0.0018681029323488474
640.0,0.0007440457702614367
704.0,-0.0002859965024981648
768.0,-0.00025325294700451195
832.0,-2.820155532390345e-05
896.0,0.0005680687027052045
960.0,0.0010787161299958825
1024.0,0.0008526124292984605
1152.0,-0.0002617203863337636
1280.0,-0.000852496363222599
1408.0,-0.0022014810238033533
1536.0,-0.0019607136491686106
1664.0,-0.0021565211936831474
1792.0,-0.0013371320674195886
1920.0,-0.0010952240554615855
2048.0,-0.0016825657803565264
2304.0,-0.002045714994892478
2560.0,-0.00024367496371269226
2816.0,-0.00031304953154176474
3072.0,0.0005411017336882651
3328.0,-0.000189742844668217
3584.0,-0.0004465583770070225
3840.0,-0.0006198311457410455
4096.0,-6.14936143392697e-05
4608.0,0.0009158707107417285
5120.0,0.000992575311101973
5632.0,0.0004518477653618902
6144.0,-0.0009598458418622613
6656.0,-0.002270879689604044
7168.0,-0.0023182169534265995
7680.0,-0.0012884591706097126
8192.0,0.0008011086611077189
9216.0,0.001198622747324407
10240.0,-0.0015681324293836951
11264.0,0.0003208994457963854
12288.0,0.001087590935640037
13312.0,0.0013436668086797
14336.0,-0.0011788267875090241
end
