version,3.0
numOfCh,1
type,point
parent_name,20-cuts
ch_type,1_1
kcount,1
numberNandB,1
brightnessNandB,1
carpet pos,0
pc,0
Time (ms),CH1 Auto-Correlation
1.0,0.018508948385715485
2.0,0.018112782388925552
3.0,0.01773778535425663
4.0,0.017356544733047485
5.0,0.016981186345219612
6.0,0.01661350019276142
7.0,0.016259538009762764
8.0,0.01591319777071476
9.0,0.015581914223730564
10.0,0.015254785306751728
11.0,0.014947783201932907
12.0,0.014654861763119698
13.0,0.014368254691362381
14.0,0.014085814356803894
15.0,0.013807146809995174
16.0,0.013544001616537571
18.0,0.013060379773378372
20.0,0.01260184682905674
22.0,0.012179778888821602
24.0,0.01178763434290886
26.0,0.011416548863053322
28.0,0.011063768528401852
30.0,0.0107343764975667
32.0,0.01042279414832592
36.0,0.00990134198218584
40.0,0.009468167088925838
44.0,0.00905374251306057
48.0,0.008682804182171822
52.0,0.008347772993147373
56.0,0.008054884150624275
60.0,0.007695535197854042
64.0,0.0072861057706177235
72.0,0.0065199872478842735
80.0,0.005814437288790941
88.0,0.005225432571023703
96.0,0.004718352574855089
104.0,0.004301073960959911
112.0,0.004037106409668922
120.0,0.0037420494481921196
128.0,0.003427495714277029
144.0,0.0026103102136403322
160.0,0.001896840170957148
176.0,0.0015847051981836557
192.0,0.0014591299695894122
208.0,0.0010981818195432425
224.0,0.0006813073996454477
240.0,0.0005281301564536989
256.0,0.00031794587266631424
288.0,0.00031158042838796973
320.0,0.000264970789430663
352.0,-0.0004238369583617896
384.0,-0.0007278235862031579
416.0,-0.0005341797950677574
448.0,-0.0005258102319203317
480.0,0.00031631466117687523
512.0,0.0012398529797792435
576.0,0.0004143820551689714
640.0,0.0013485185336321592
704.0,0.0006046581547707319
768.0,-0.00044550420716404915
832.0,-0.0004147960862610489
896.0,-6.385753658832982e-05
960.0,0.0001601386466063559
1024.0,0.000621348968707025
1152.0,0.00020502474217209965
1280.0,-0.00029574811924248934
1408.0,-0.0004824710194952786
1536.0,0.0002813614846672863
1664.0,-0.0009225729736499488
1792.0,-0.00045648860395886004
1920.0,0.001061434973962605
2048.0,0.0015478404238820076
2304.0,-0.00010481796198291704
2560.0,-0.000893038755748421
2816.0,-0.00047440314665436745
3072.0,0.0010724226012825966
3328.0,0.00045345688704401255
3584.0,0.0005162513698451221
3840.0,0.0013750649522989988
4096.0,0.001361879170872271
4608.0,-0.0006171992281451821
5120.0,-0.0002106645260937512
5632.0,-9.369096915179398e-06
6144.0,-0.0002733085711952299
6656.0,-0.00043893614201806486
7168.0,-0.0013434856664389372
7680.0,-0.0002963200968224555
8192.0,-0.0006137999007478356
9216.0,-0.0006566932424902916
10240.0,-0.0007916230242699385
11264.0,-0.0018434871453791857
12288.0,-0.0006984416395425797
13312.0,0.00046265427954494953
14336.0,0.0012041794834658504
end
