version,3.0
numOfCh,1
type,point
parent_name,20-cuts
ch_type,1_1
kcount,1
numberNandB,1
brightnessNandB,1
carpet pos,0
pc,0
Time (ms),CH1 Auto-Correlation
1.0,0.05914520472288132
2.0,0.05780213326215744
3.0,0.0564955435693264
4.0,0.05524894595146179
5.0,0.05403091013431549
6.0,0.052853796631097794
7.0,0.05174335837364197
8.0,0.0506623350083828
9.0,0.049624763429164886
10.0,0.04863595962524414
11.0,0.04768707603216171
12.0,0.04675428196787834
13.0,0.04587126523256302
14.0,0.0450340174138546
15.0,0.044185440987348557
16.0,0.04334308207035065
18.0,0.04170859977602959
20.0,0.040129560977220535
22.0,0.03862081840634346
24.0,0.037145841866731644
26.0,0.03571385517716408
28.0,0.03437351435422897
30.0,0.03310361132025719
32.0,0.03191077336668968
36.0,0.02973710186779499
40.0,0.02777509205043316
44.0,0.025988364592194557
48.0,0.024498406797647476
52.0,0.023373208940029144
56.0,0.022270549088716507
60.0,0.021110037341713905
64.0,0.02016507275402546
72.0,0.018699176609516144
80.0,0.017254779115319252
88.0,0.015901250764727592
96.0,0.014597597531974316
104.0,0.013371584936976433
112.0,0.01260573323816061
120.0,0.01195012591779232
128.0,0.011376584880053997
144.0,0.009381759911775589
160.0,0.0069985156878829
176.0,0.005415792111307383
192.0,0.0047711958177387714
208.0,0.004020904656499624
224.0,0.0038378562312573195
240.0,0.005011419765651226
256.0,0.006015643943101168
288.0,0.007382825016975403
320.0,0.006597003433853388
352.0,0.0028155522886663675
384.0,0.0015543445479124784
416.0,0.0001678150292718783
448.0,-0.0031067095696926117
480.0,-0.005378284957259893
512.0,-0.008314196951687336
576.0,-0.006099315360188484
640.0,-0.0030129714868962765
704.0,0.0007635155925527215
768.0,0.00018137673032470047
832.0,0.0012288792058825493
896.0,0.00428451644256711
960.0,0.0037635904736816883
1024.0,0.00392478983849287
1152.0,0.0015254357131198049
1280.0,0.003201583866029978
1408.0,0.0012987005757167935
1536.0,0.0030944542959332466
1664.0,0.00026263296604156494
1792.0,0.0006877437117509544
1920.0,0.0015975855058059096
2048.0,-0.0020515979267656803
2304.0,0.0021472179796546698
2560.0,0.0017339320620521903
2816.0,-0.0026240902952849865
3072.0,-0.0023666999768465757
3328.0,0.001747420523315668
3584.0,0.006150278728455305
3840.0,0.004338544327765703
4096.0,-0.002443908713757992
4608.0,0.0008588361088186502
5120.0,-0.002005206421017647
5632.0,-0.0027514335233718157
6144.0,-0.0012669138377532363
6656.0,-0.006223000586032867
7168.0,0.004743318539112806
7680.0,-0.006922805681824684
8192.0,-0.0022441979963332415
9216.0,-0.00019887906091753393
10240.0,-0.0020638704299926758
11264.0,-0.0006942062173038721
12288.0,-0.00166689557954669
13312.0,-0.0005857577198185027
14336.0,-0.00021483089949470013
end
