version,3.0
numOfCh,1
type,point
parent_name,20-cuts
ch_type,1_1
kcount,1
numberNandB,1
brightnessNandB,1
carpet pos,0
pc,0
Time (ms),CH1 Auto-Correlation
1.0,0.030151771381497383
2.0,0.029575955122709274
3.0,0.029031870886683464
4.0,0.02850744128227234
5.0,0.027984777465462685
6.0,0.027466407045722008
7.0,0.026959972456097603
8.0,0.026476740837097168
9.0,0.02599969319999218
10.0,0.025529896840453148
11.0,0.025069154798984528
12.0,0.024634219706058502
13.0,0.024227166548371315
14.0,0.023831797763705254
15.0,0.023435739800333977
16.0,0.023045238107442856
18.0,0.02228960394859314
20.0,0.02156931348145008
22.0,0.020879343152046204
24.0,0.020267734304070473
26.0,0.01967509277164936
28.0,0.01908300630748272
30.0,0.018532443791627884
32.0,0.01802658475935459
36.0,0.017082834616303444
40.0,0.01623634807765484
44.0,0.015442906878888607
48.0,0.014754924923181534
52.0,0.014129864983260632
56.0,0.013483905233442783
60.0,0.012887954711914062
64.0,0.012376159429550171
72.0,0.01154467836022377
80.0,0.010724806226789951
88.0,0.00995565578341484
96.0,0.009171254932880402
104.0,0.008256218396127224
112.0,0.0073861111886799335
120.0,0.006820225156843662
128.0,0.0065360828302800655
144.0,0.0061951144598424435
160.0,0.005508521106094122
176.0,0.005124032963067293
192.0,0.00519574386999011
208.0,0.005529266316443682
224.0,0.005401356145739555
240.0,0.005053878761827946
256.0,0.004724606405943632
288.0,0.005081819836050272
320.0,0.004923349712044001
352.0,0.004372343886643648
384.0,0.003551728092133999
416.0,0.0035088693257421255
448.0,0.0033759288489818573
480.0,0.002402248792350292
512.0,0.0021616558078676462
576.0,0.001448715920560062
640.0,0.00015036496915854514
704.0,-0.0005831774906255305
768.0,-0.00023730858811177313
832.0,0.0016827898798510432
896.0,0.0023689439985901117
960.0,-0.00014799243945162743
1024.0,-0.001952080288901925
1152.0,-0.002658142475411296
1280.0,-0.004278155043721199
1408.0,-0.003971861209720373
1536.0,-0.003523859428241849
1664.0,-0.0029088458977639675
1792.0,-0.0015571702970191836
1920.0,-0.001939153065904975
2048.0,-0.0011286423541605473
2304.0,-0.0005629335646517575
2560.0,0.00043402041774243116
2816.0,0.0018967414507642388
3072.0,0.0001681801222730428
3328.0,-0.0006401400896720588
3584.0,0.00014886313874740154
3840.0,-0.0028214091435074806
4096.0,-0.003665221855044365
4608.0,-0.00043504766654223204
5120.0,0.00273767183534801
5632.0,0.0008061121916398406
6144.0,-0.0030522351153194904
6656.0,-0.004381595645099878
7168.0,-0.002154200104996562
7680.0,0.0032391012646257877
8192.0,0.005303580313920975
9216.0,0.00026491357129998505
10240.0,0.00032953318441286683
11264.0,-0.00017175661923829466
12288.0,-0.0020409475546330214
13312.0,0.001859898678958416
14336.0,-0.000989563181065023
end
