version,3.0
numOfCh,1
type,point
parent_name,20-cuts
ch_type,1_1
kcount,1
numberNandB,1
brightnessNandB,1
carpet pos,0
pc,0
Time (ms),CH1 Auto-Correlation
1.0,0.01996377855539322
2.0,0.019555963575839996
3.0,0.01914995163679123
4.0,0.018771493807435036
5.0,0.018405606970191002
6.0,0.018057025969028473
7.0,0.017736176028847694
8.0,0.01742507331073284
9.0,0.01710362359881401
10.0,0.016779741272330284
11.0,0.016474545001983643
12.0,0.01618032343685627
13.0,0.01588945835828781
14.0,0.015606225468218327
15.0,0.015333295799791813
16.0,0.015059767290949821
18.0,0.014553048647940159
20.0,0.014086214825510979
22.0,0.01364943291991949
24.0,0.013213053345680237
26.0,0.012787493877112865
28.0,0.012382381595671177
30.0,0.012009188532829285
32.0,0.01166658103466034
36.0,0.011027362197637558
40.0,0.010445762425661087
44.0,0.009947111830115318
48.0,0.009438528679311275
52.0,0.008915271610021591
56.0,0.008457189425826073
60.0,0.008094528689980507
64.0,0.007806702051311731
72.0,0.007217050064355135
80.0,0.0065320641733706
88.0,0.005813580006361008
96.0,0.00518403435125947
104.0,0.004720634780824184
112.0,0.0043269554153084755
120.0,0.003954675979912281
128.0,0.003641510847955942
144.0,0.002885386347770691
160.0,0.0021845661103725433
176.0,0.0015372325433418155
192.0,0.0011485629947856069
208.0,0.000977902440354228
224.0,0.0005177290295250714
240.0,-0.00023362932552117854
256.0,-0.0008989735506474972
288.0,-0.001072837971150875
320.0,-0.0006078690639697015
352.0,-0.0005839822115376592
384.0,-0.0007988736033439636
416.0,-0.00015228458505589515
448.0,0.0002028063900070265
480.0,-0.00036058572004549205
512.0,-0.00035335635766386986
576.0,-0.000840049993712455
640.0,-0.00113945291377604
704.0,-0.0008890877943485975
768.0,-0.0006774818757548928
832.0,0.00023976694501470774
896.0,0.0009127601515501738
960.0,-0.000639800971839577
1024.0,-0.0012896982952952385
1152.0,-0.002670031040906906
1280.0,-0.001837084419094026
1408.0,-0.0012945664348080754
1536.0,-0.0003111169207841158
1664.0,-0.0003353889042045921
1792.0,-0.00024137055152095854
1920.0,-0.0007593106711283326
2048.0,-0.0006524899508804083
2304.0,-0.0008161821751855314
2560.0,0.001170508679933846
2816.0,-6.150155240902677e-05
3072.0,-0.0008916172664612532
3328.0,-0.000586370297241956
3584.0,-5.808924470329657e-05
3840.0,-0.000413174566347152
4096.0,-0.00045791917364113033
4608.0,0.0016059029148891568
5120.0,6.54867326375097e-05
5632.0,0.0015336662763729692
6144.0,-0.0011691036634147167
6656.0,-0.0015738754300400615
7168.0,-0.0007701138383708894
7680.0,0.00025224999990314245
8192.0,0.0015125684440135956
9216.0,0.0001165591602330096
10240.0,0.0007363442564383149
11264.0,-0.0010708534391596913
12288.0,-0.0012297180946916342
13312.0,0.0020658448338508606
14336.0,-0.000525159586686641
end
