version,3.0
numOfCh,1
type,point
parent_name,20-cuts
ch_type,1_1
kcount,1
numberNandB,1
brightnessNandB,1
carpet pos,0
pc,0
Time (ms),CH1 Auto-Correlation
1.0,0.039738841354846954
2.0,0.03911511227488518
3.0,0.03849733620882034
4.0,0.03790467232465744
5.0,0.03731644153594971
6.0,0.03674862161278725
7.0,0.0361957885324955
8.0,0.035664599388837814
9.0,0.03515588492155075
10.0,0.03466463461518288
11.0,0.03418542444705963
12.0,0.03372856229543686
13.0,0.03328285366296768
14.0,0.03284924849867821
15.0,0.03241861239075661
16.0,0.03199784457683563
18.0,0.031232818961143494
20.0,0.03050246834754944
22.0,0.029807768762111664
24.0,0.029137616977095604
26.0,0.028502818197011948
28.0,0.027943719178438187
30.0,0.02744208835065365
32.0,0.02694682963192463
36.0,0.0259464830160141
40.0,0.024996347725391388
44.0,0.024065906181931496
48.0,0.02318885736167431
52.0,0.022370025515556335
56.0,0.021642500534653664
60.0,0.020944645628333092
64.0,0.02018175832927227
72.0,0.01868259720504284
80.0,0.01732870563864708
88.0,0.0161929652094841
96.0,0.015212544240057468
104.0,0.014410634525120258
112.0,0.013536443002521992
120.0,0.012768401764333248
128.0,0.011985914781689644
144.0,0.010601291432976723
160.0,0.009398125112056732
176.0,0.008090748451650143
192.0,0.006818162743002176
208.0,0.006153473164886236
224.0,0.006167813669890165
240.0,0.005746495444327593
256.0,0.0049910275265574455
288.0,0.00363160646520555
320.0,0.0024152537807822227
352.0,0.0012664466630667448
384.0,0.001185386092402041
416.0,0.0012102683540433645
448.0,0.0011174676474183798
480.0,0.0014302170602604747
512.0,0.0017370478017255664
576.0,-0.0006699353107251227
640.0,-0.0027659116312861443
704.0,-0.0028525162488222122
768.0,-0.0019055308075621724
832.0,-0.0006565384683199227
896.0,-0.0019468864193186164
960.0,-0.0023381549399346113
1024.0,-0.0014628455974161625
1152.0,-0.0029270900413393974
1280.0,-0.0002161734737455845
1408.0,-0.0016668337630107999
1536.0,-0.002640931634232402
1664.0,-0.002424143487587571
1792.0,-0.0004801775503437966
1920.0,-0.002653789473697543
2048.0,-0.005401600152254105
2304.0,-0.0017325355438515544
2560.0,0.0002124776365235448
2816.0,0.002881006570532918
3072.0,0.006842305883765221
3328.0,0.003501367289572954
3584.0,-0.0011625608894973993
3840.0,0.0011778644984588027
4096.0,0.0039662146009504795
4608.0,0.0003604697994887829
5120.0,-0.003224119544029236
5632.0,-0.0051615373231470585
6144.0,-0.002610349329188466
6656.0,0.004459538962692022
7168.0,0.004527275450527668
7680.0,-0.0004195206274744123
8192.0,-0.00020092251361347735
9216.0,-0.004089917056262493
10240.0,0.001960323192179203
11264.0,-0.0007347472128458321
12288.0,-0.00475514167919755
13312.0,-0.0019421259639784694
14336.0,-0.002091542584821582
end
