version,3.0
numOfCh,1
type,point
parent_name,20-cuts
ch_type,1_1
kcount,1
numberNandB,1
brightnessNandB,1
carpet pos,0
pc,0
Time (ms),CH1 Auto-Correlation
1.0,0.02127504162490368
2.0,0.020887037739157677
3.0,0.020512539893388748
4.0,0.020151548087596893
5.0,0.01979932375252247
6.0,0.019467374309897423
7.0,0.019136404618620872
8.0,0.01881212182343006
9.0,0.018506715074181557
10.0,0.01821029558777809
11.0,0.017913423478603363
12.0,0.01763117127120495
13.0,0.017362752929329872
14.0,0.017088187858462334
15.0,0.01682290807366371
16.0,0.016569970175623894
18.0,0.016103072091937065
20.0,0.0156896710395813
22.0,0.015306565910577774
24.0,0.014963517896831036
26.0,0.014651439152657986
28.0,0.014365999959409237
30.0,0.014084691181778908
32.0,0.013809647411108017
36.0,0.013310877606272697
40.0,0.012845193967223167
44.0,0.012374674901366234
48.0,0.011914827860891819
52.0,0.011455731466412544
56.0,0.010983592830598354
60.0,0.010495509020984173
64.0,0.010063758119940758
72.0,0.009372904896736145
80.0,0.008843467570841312
88.0,0.008428452536463737
96.0,0.00810540933161974
104.0,0.007883447222411633
112.0,0.007776038255542517
120.0,0.007541081868112087
128.0,0.007073124870657921
144.0,0.0060474746860563755
160.0,0.004979009740054607
176.0,0.003927047364413738
192.0,0.0030519412830471992
208.0,0.0027063635643571615
224.0,0.0025721730198711157
240.0,0.002519558882340789
256.0,0.00218184688128531
288.0,0.0015533148543909192
320.0,0.0008636576822027564
352.0,0.0004247231117915362
384.0,-3.696819476317614e-05
416.0,-0.0005223529879003763
448.0,-0.00021156889852136374
480.0,0.00045053078792989254
512.0,0.0008871186291798949
576.0,0.0003799168043769896
640.0,-0.00020114303333684802
704.0,-0.0010618694359436631
768.0,-0.0014007920399308205
832.0,-0.0019737379625439644
896.0,-0.0028989710845053196
960.0,-0.0033134636469185352
1024.0,-0.003254076698794961
1152.0,-0.0025789716746658087
1280.0,-0.001376328174956143
1408.0,-0.0003599781484808773
1536.0,0.000968180422205478
1664.0,0.0008203345350921154
1792.0,-0.00023670536756981164
1920.0,-0.00045486135059036314
2048.0,4.593332505464787e-06
2304.0,-1.9762879674090073e-05
2560.0,-0.0018299749353900552
2816.0,-0.000857116945553571
3072.0,0.00023771903943270445
3328.0,0.0009718326036818326
3584.0,0.0018314215121790767
3840.0,0.0018703110981732607
4096.0,0.0010497112525627017
4608.0,-0.00020547762687783688
5120.0,-0.0012820570264011621
5632.0,0.000979196047410369
6144.0,0.001623304095119238
6656.0,-0.0011179657885804772
7168.0,-0.0023615709505975246
7680.0,-0.001399112748913467
8192.0,0.0003000926517415792
9216.0,-0.0007559483638033271
10240.0,-0.0004306533664930612
11264.0,-5.036964012106182e-06
12288.0,-0.0010605681454762816
13312.0,-0.0008668201044201851
14336.0,-0.00023047365539241582
end
