version,3.0
numOfCh,1
type,point
parent_name,20-cuts
ch_type,1_1
kcount,1
numberNandB,1
brightnessNandB,1
carpet pos,0
pc,0
Time (ms),CH1 Auto-Correlation
1.0,0.021377382799983025
2.0,0.020937643945217133
3.0,0.020493848249316216
4.0,0.020060325041413307
5.0,0.019630400463938713
6.0,0.019218645989894867
7.0,0.018815798684954643
8.0,0.018428178504109383
9.0,0.01806359924376011
10.0,0.017703760415315628
11.0,0.017356248572468758
12.0,0.017021754756569862
13.0,0.01669943891465664
14.0,0.01639120653271675
15.0,0.01609821245074272
16.0,0.015821687877178192
18.0,0.01529770903289318
20.0,0.014797162264585495
22.0,0.014307483099400997
24.0,0.013860123232007027
26.0,0.013441910035908222
28.0,0.013078558258712292
30.0,0.012746087275445461
32.0,0.01242238562554121
36.0,0.011835278011858463
40.0,0.011336674913764
44.0,0.010867747478187084
48.0,0.010371818207204342
52.0,0.009848320856690407
56.0,0.009355851449072361
60.0,0.008944831788539886
64.0,0.008644132874906063
72.0,0.008061268366873264
80.0,0.007470914628356695
88.0,0.006961452309042215
96.0,0.006387308705598116
104.0,0.005905088968575001
112.0,0.0055571612901985645
120.0,0.00532730296254158
128.0,0.005047628656029701
144.0,0.00406504375860095
160.0,0.0031386008486151695
176.0,0.0023389626294374466
192.0,0.0020522598642855883
208.0,0.002210388658568263
224.0,0.0019322728039696813
240.0,0.0015831033233553171
256.0,0.001333371503278613
288.0,0.0016626069555059075
320.0,0.002148471539840102
352.0,0.002369973808526993
384.0,0.0017838914645835757
416.0,0.0006828661425970495
448.0,0.00016108810086734593
480.0,-0.00031794721144251525
512.0,-0.0010438828030601144
576.0,-0.0010772041277959943
640.0,-1.6704965673852712e-05
704.0,0.0024650422856211662
768.0,0.0030298547353595495
832.0,0.002697603777050972
896.0,0.0010189308086410165
960.0,0.0008764583035372198
1024.0,0.001718353247269988
1152.0,0.0010439119068905711
1280.0,-0.0016291245119646192
1408.0,-0.00214726896956563
1536.0,-0.00042986441985704005
1664.0,-0.001809798995964229
1792.0,-0.0009050998487509787
1920.0,0.0008340409840457141
2048.0,-0.0002481170813553035
2304.0,0.00039547946653328836
2560.0,-0.0009782224660739303
2816.0,-0.001102312351576984
3072.0,-0.000279813859378919
3328.0,-0.001913296291604638
3584.0,-0.0031814747489988804
3840.0,-0.0018548346124589443
4096.0,-0.001104717026464641
4608.0,-0.001282866345718503
5120.0,0.0001772866671672091
5632.0,3.950953760067932e-05
6144.0,0.00015493285900447518
6656.0,0.00048212509136646986
7168.0,-0.0005639246082864702
7680.0,-0.0013692115899175406
8192.0,0.0001785721251508221
9216.0,0.002267124829813838
10240.0,0.00030771162710152566
11264.0,0.0007262848666869104
12288.0,-0.0012596844462677836
13312.0,-0.0017258507432416081
14336.0,0.0012552125845104456
end
