version,3.0
numOfCh,1
type,point
parent_name,20-cuts
ch_type,1_1
kcount,1
numberNandB,1
brightnessNandB,1
carpet pos,0
pc,0
Time (ms),CH1 Auto-Correlation
1.0,0.0626639798283577
2.0,0.06138841062784195
3.0,0.06016765534877777
4.0,0.059013787657022476
5.0,0.05790245905518532
6.0,0.056863076984882355
7.0,0.05585101991891861
8.0,0.054838042706251144
9.0,0.05388545244932175
10.0,0.05295702442526817
11.0,0.052046604454517365
12.0,0.05117454379796982
13.0,0.0503263995051384
14.0,0.0494796447455883
15.0,0.048649903386831284
16.0,0.047829221934080124
18.0,0.04620620980858803
20.0,0.044664427638053894
22.0,0.04320237785577774
24.0,0.04187207296490669
26.0,0.04061741754412651
28.0,0.03941239416599274
30.0,0.038253430277109146
32.0,0.037172429263591766
36.0,0.035246290266513824
40.0,0.03350098058581352
44.0,0.03204666078090668
48.0,0.030858928337693214
52.0,0.029753973707556725
56.0,0.028583036735653877
60.0,0.027239613234996796
64.0,0.025889014825224876
72.0,0.023428501561284065
80.0,0.0210972148925066
88.0,0.01912745088338852
96.0,0.017445091158151627
104.0,0.015887858346104622
112.0,0.014679339714348316
120.0,0.013709649443626404
128.0,0.012966453097760677
144.0,0.011968576349318027
160.0,0.011437887325882912
176.0,0.011151201091706753
192.0,0.011195016093552113
208.0,0.011221008375287056
224.0,0.010173185728490353
240.0,0.007903411984443665
256.0,0.0059483228251338005
288.0,0.0048418231308460236
320.0,0.005369107238948345
352.0,0.003991320263594389
384.0,0.003106638789176941
416.0,0.000598366663325578
448.0,-0.001332724466919899
480.0,-0.0020425564143806696
512.0,-0.0008288600365631282
576.0,-0.0002935763041023165
640.0,-0.001993904821574688
704.0,-0.0037649418227374554
768.0,-0.003987747710198164
832.0,0.0003077686997130513
896.0,0.0001105368064600043
960.0,-0.0026504157576709986
1024.0,-0.005285161081701517
1152.0,-0.0043633258901536465
1280.0,-0.0008772877627052367
1408.0,0.0008365247631445527
1536.0,-0.002483532065525651
1664.0,-0.0051873428747057915
1792.0,-0.002760346280410886
1920.0,-0.0038759796880185604
2048.0,-0.003776310011744499
2304.0,-0.0019898072350770235
2560.0,0.0009309127344749868
2816.0,0.006203946191817522
3072.0,0.0030804979614913464
3328.0,-0.0006031391676515341
3584.0,-0.0022682661656290293
3840.0,-0.001373768551275134
4096.0,-0.0047227973118424416
4608.0,0.002411884954199195
5120.0,0.007927795872092247
5632.0,-0.004231877624988556
6144.0,-0.0028867388609796762
6656.0,-0.0016825507627800107
7168.0,-0.00023772446729708463
7680.0,0.0062491632997989655
8192.0,0.0003743446141015738
9216.0,-0.0016328571364283562
10240.0,0.0002956385724246502
11264.0,-0.0018939005676656961
12288.0,-0.0032436070032417774
13312.0,-0.0014005627017468214
14336.0,0.0007917814655229449
end
