version,3.0
numOfCh,1
type,point
parent_name,20-cuts
ch_type,1_1
kcount,1
numberNandB,1
brightnessNandB,1
carpet pos,0
pc,0
Time (ms),CH1 Auto-Correlation
1.0,0.021714499220252037
2.0,0.021298423409461975
3.0,0.02088478021323681
4.0,0.02049095928668976
5.0,0.020116910338401794
6.0,0.01976005546748638
7.0,0.019394932314753532
8.0,0.01903688535094261
9.0,0.018689455464482307
10.0,0.018347470089793205
11.0,0.018026307225227356
12.0,0.017708955332636833
13.0,0.017396098002791405
14.0,0.017089489847421646
15.0,0.016792453825473785
16.0,0.016500305384397507
18.0,0.015964733436703682
20.0,0.015455241315066814
22.0,0.014960664324462414
24.0,0.01448141224682331
26.0,0.014050853438675404
28.0,0.013652860186994076
30.0,0.013272438198328018
32.0,0.012924513779580593
36.0,0.012317962013185024
40.0,0.011829077266156673
44.0,0.011391820386052132
48.0,0.010966128669679165
52.0,0.01055191457271576
56.0,0.010232600383460522
60.0,0.010065975598990917
64.0,0.009991763159632683
72.0,0.00978709477931261
80.0,0.009521842934191227
88.0,0.00914605800062418
96.0,0.008745717816054821
104.0,0.008183429017663002
112.0,0.00765274977311492
120.0,0.007201002910733223
128.0,0.006736974697560072
144.0,0.005961324088275433
160.0,0.005701060406863689
176.0,0.0056952196173369884
192.0,0.005262544844299555
208.0,0.004850221332162619
224.0,0.004246788565069437
240.0,0.003888403531163931
256.0,0.0036872588098049164
288.0,0.003086671233177185
320.0,0.002247493015602231
352.0,0.0012438521953299642
384.0,0.000818129105027765
416.0,0.00047682836884632707
448.0,0.0002081550337607041
480.0,-0.00014018313959240913
512.0,-0.0002911318151745945
576.0,9.850484639173374e-05
640.0,0.00030560369486920536
704.0,-7.949599967105314e-05
768.0,-0.0004776332643814385
832.0,-0.0007142568356357515
896.0,-0.0009940257295966148
960.0,-0.0017341645434498787
1024.0,-0.0031947388779371977
1152.0,-0.003064259886741638
1280.0,-0.0018217407632619143
1408.0,-0.0009560080361552536
1536.0,-0.00021545891650021076
1664.0,-0.0010671857744455338
1792.0,-0.001984298462048173
1920.0,-0.00044602437992580235
2048.0,0.0013494477607309818
2304.0,0.004142364487051964
2560.0,0.002087784232571721
2816.0,8.961711137089878e-05
3072.0,0.0012222069781273603
3328.0,0.0008883012342266738
3584.0,0.0002465968136675656
3840.0,8.723717655811924e-06
4096.0,-0.0021336835343390703
4608.0,-0.00010706343891797587
5120.0,0.0014710553223267198
5632.0,-0.0006304760463535786
6144.0,-0.001852931920439005
6656.0,-0.0015496667474508286
7168.0,0.0015742665855214
7680.0,-0.0009416991379112005
8192.0,-0.0013609769521281123
9216.0,-0.0009889632929116488
10240.0,-0.0008391364826820791
11264.0,-0.00024355908681172878
12288.0,-0.0004906438407488167
13312.0,-0.001876126043498516
14336.0,0.0012408022303134203
end
