version,3.0
numOfCh,1
type,point
parent_name,20-cuts
ch_type,1_1
kcount,1
numberNandB,1
brightnessNandB,1
carpet pos,0
pc,0
Time (ms),CH1 Auto-Correlation
1.0,0.031744033098220825
2.0,0.031087283045053482
3.0,0.03044268861413002
4.0,0.029833316802978516
5.0,0.02925369329750538
6.0,0.028689218685030937
7.0,0.028142444789409637
8.0,0.027599351480603218
9.0,0.027075786143541336
10.0,0.026577014476060867
11.0,0.026092279702425003
12.0,0.025642747059464455
13.0,0.025215212255716324
14.0,0.02479858696460724
15.0,0.024402175098657608
16.0,0.024008335545659065
18.0,0.023226337507367134
20.0,0.02245362475514412
22.0,0.021703749895095825
24.0,0.02097661793231964
26.0,0.020260535180568695
28.0,0.0195841733366251
30.0,0.01893908716738224
32.0,0.018307067453861237
36.0,0.01717337593436241
40.0,0.0161291491240263
44.0,0.015260732732713223
48.0,0.014491639100015163
52.0,0.013687307015061378
56.0,0.012889930978417397
60.0,0.012155064381659031
64.0,0.01142331026494503
72.0,0.010168383829295635
80.0,0.008940290659666061
88.0,0.007871357724070549
96.0,0.00706870062276721
104.0,0.006527807097882032
112.0,0.0060340240597724915
120.0,0.00545920804142952
128.0,0.004854562692344189
144.0,0.004289629403501749
160.0,0.0040740217082202435
176.0,0.0037206485867500305
192.0,0.003428518073633313
208.0,0.0030693765729665756
224.0,0.002945855725556612
240.0,0.0023980506230145693
256.0,0.0017868515569716692
288.0,0.001722742454148829
320.0,0.0016030741389840841
352.0,0.002101568505167961
384.0,0.002675451571121812
416.0,0.0032445278484374285
448.0,0.003670851932838559
480.0,0.0042142742313444614
512.0,0.0037670289166271687
576.0,0.0020190521609038115
640.0,0.0005975743406452239
704.0,0.0007106094853952527
768.0,-0.0007595684146508574
832.0,-0.0011783596128225327
896.0,-0.001317368121817708
960.0,-6.73518588882871e-05
1024.0,0.0005935991066507995
1152.0,6.169827247504145e-05
1280.0,-0.0006360635161399841
1408.0,-0.001817416283302009
1536.0,-0.0018219739431515336
1664.0,-0.0018301359377801418
1792.0,-0.0014470088062807918
1920.0,-0.00048659706953912973
2048.0,0.0013121702941134572
2304.0,0.0012976792640984058
2560.0,-0.0009939934825524688
2816.0,0.0018554003909230232
3072.0,-0.0015294026816263795
3328.0,0.0005341746145859361
3584.0,-0.0007574288174510002
3840.0,-0.003232452552765608
4096.0,0.0009347857558168471
4608.0,0.001698923297226429
5120.0,0.0009263728861697018
5632.0,-0.0014271928230300546
6144.0,-0.0014784421073272824
6656.0,-0.0008413852192461491
7168.0,0.002250920282676816
7680.0,0.0017770114354789257
8192.0,-0.0002672783157322556
9216.0,-0.002064226660877466
10240.0,0.001218294375576079
11264.0,-0.0018729764269664884
12288.0,-0.002603962318971753
13312.0,-0.00851273164153099
14336.0,-0.0026132743805646896
end
