version,3.0
numOfCh,1
type,point
parent_name,20-cuts
ch_type,1_1
kcount,1
numberNandB,1
brightnessNandB,1
carpet pos,0
pc,0
Time (ms),CH1 Auto-Correlation
1.0,0.027863558381795883
2.0,0.027237217873334885
3.0,0.026623312383890152
4.0,0.02603444829583168
5.0,0.02547384612262249
6.0,0.024932358413934708
7.0,0.024406012147665024
8.0,0.023899763822555542
9.0,0.023411449044942856
10.0,0.022955983877182007
11.0,0.022523246705532074
12.0,0.022094907239079475
13.0,0.021683920174837112
14.0,0.02129438705742359
15.0,0.020922478288412094
16.0,0.02055949717760086
18.0,0.019848758354783058
20.0,0.019190264865756035
22.0,0.018581852316856384
24.0,0.01799102872610092
26.0,0.017401058226823807
28.0,0.01682199537754059
30.0,0.01626472920179367
32.0,0.015744516626000404
36.0,0.01477094180881977
40.0,0.01386167947202921
44.0,0.01299558486789465
48.0,0.012052055448293686
52.0,0.011127755977213383
56.0,0.010374074801802635
60.0,0.00978198554366827
64.0,0.009280138649046421
72.0,0.008264890871942043
80.0,0.007270073983818293
88.0,0.0065389410592615604
96.0,0.005923362448811531
104.0,0.005364258773624897
112.0,0.004780181217938662
120.0,0.004349078051745892
128.0,0.004204793833196163
144.0,0.004074766766279936
160.0,0.0037788080517202616
176.0,0.0034831215161830187
192.0,0.002749855164438486
208.0,0.0019578044302761555
224.0,0.0015320345992222428
240.0,0.0019668275490403175
256.0,0.002267989329993725
288.0,0.0018217726610600948
320.0,0.0012353890342637897
352.0,0.0007473700679838657
384.0,0.0005939549300819635
416.0,0.00040233496110886335
448.0,0.00013742607552558184
480.0,-0.0008574530947953463
512.0,-0.001099947839975357
576.0,-0.0005400287336669862
640.0,-0.0006295968196354806
704.0,-0.000651868584100157
768.0,-0.0009984103962779045
832.0,-0.0012963480548933148
896.0,-0.001092509482987225
960.0,-0.002319889608770609
1024.0,-0.001283563207834959
1152.0,0.0005117868422530591
1280.0,-0.00024349952582269907
1408.0,0.002838781801983714
1536.0,0.001799205201677978
1664.0,0.00056904909433797
1792.0,0.00018912213272415102
1920.0,-0.00036361580714583397
2048.0,-0.001404562615789473
2304.0,-0.0013422941556200385
2560.0,-0.00034841281012631953
2816.0,-0.000380120036425069
3072.0,-0.0004022122302558273
3328.0,0.0004021604545414448
3584.0,-0.0006498615839518607
3840.0,-0.0023459112271666527
4096.0,0.0009686076664365828
4608.0,0.0015540621243417263
5120.0,-0.0008420556550845504
5632.0,-0.0010366480564698577
6144.0,-0.00038751278771087527
6656.0,-0.0006714566261507571
7168.0,-0.001775949727743864
7680.0,-1.5671970686526038e-05
8192.0,-0.0033153172116726637
9216.0,0.0009013584931381047
10240.0,0.0025138454511761665
11264.0,-0.001727589056827128
12288.0,0.00011747977987397462
13312.0,6.765533908037469e-05
14336.0,0.0027374476194381714
end
