version,3.0
numOfCh,1
type,point
parent_name,20-cuts
ch_type,1_1
kcount,1
numberNandB,1
brightnessNandB,1
carpet pos,0
pc,0
Time (ms),CH1 Auto-Correlation
1.0,0.03437170386314392
2.0,0.03377358987927437
3.0,0.03318926319479942
4.0,0.032618649303913116
5.0,0.03205515816807747
6.0,0.031502384692430496
7.0,0.030964316800236702
8.0,0.030438290908932686
9.0,0.02990538626909256
10.0,0.029386963695287704
11.0,0.028899984434247017
12.0,0.028429092839360237
13.0,0.02797926589846611
14.0,0.027546769008040428
15.0,0.02710741013288498
16.0,0.026687512174248695
18.0,0.02587723731994629
20.0,0.025091277435421944
22.0,0.024358699098229408
24.0,0.02366729825735092
26.0,0.02300526760518551
28.0,0.022423788905143738
30.0,0.021913714706897736
32.0,0.021413736045360565
36.0,0.020532183349132538
40.0,0.01970425620675087
44.0,0.01892758719623089
48.0,0.018215952441096306
52.0,0.017584575340151787
56.0,0.017028938978910446
60.0,0.016460498794913292
64.0,0.0158805213868618
72.0,0.014716622419655323
80.0,0.01358291320502758
88.0,0.012799208983778954
96.0,0.01223629992455244
104.0,0.011733364313840866
112.0,0.011151091195642948
120.0,0.010608438402414322
128.0,0.010049895383417606
144.0,0.008969360962510109
160.0,0.008308841846883297
176.0,0.008158865384757519
192.0,0.008437247015535831
208.0,0.008672751486301422
224.0,0.0084219453856349
240.0,0.007821297273039818
256.0,0.0072285509668290615
288.0,0.00658514816313982
320.0,0.0051378123462200165
352.0,0.004711504094302654
384.0,0.005264218896627426
416.0,0.005429077427834272
448.0,0.005493308417499065
480.0,0.005605687387287617
512.0,0.005328462924808264
576.0,0.005307639017701149
640.0,0.0052717081271111965
704.0,0.0043584490194916725
768.0,0.004570296034216881
832.0,0.004998687654733658
896.0,0.003921928349882364
960.0,0.003591619897633791
1024.0,0.004657442681491375
1152.0,0.004478707909584045
1280.0,0.0038278945721685886
1408.0,0.001528982538729906
1536.0,0.0022135793697088957
1664.0,0.0018818230601027608
1792.0,0.0021433832589536905
1920.0,5.7605979236541316e-05
2048.0,-0.003138531930744648
2304.0,-0.002259092638269067
2560.0,-5.160176078788936e-05
2816.0,0.0005818133358843625
3072.0,0.00022464137873612344
3328.0,-0.0003092240367550403
3584.0,0.0002953961375169456
3840.0,0.0031140295322984457
4096.0,0.0041495137847959995
4608.0,0.005684947595000267
5120.0,0.004061806481331587
5632.0,0.002405537525191903
6144.0,-0.0018354423809796572
6656.0,-0.00522545725107193
7168.0,-0.006156922783702612
7680.0,-0.006019716616719961
8192.0,-0.005352608393877745
9216.0,-0.00067265605321154
10240.0,-0.0033198916353285313
11264.0,-0.006138611119240522
12288.0,-0.007624341640621424
13312.0,-0.0026746380608528852
14336.0,-0.0012939099688082933
end
