version,3.0
numOfCh,1
type,point
parent_name,20-cuts
ch_type,1_1
kcount,1
numberNandB,1
brightnessNandB,1
carpet pos,0
pc,0
Time (ms),CH1 Auto-Correlation
1.0,0.03417617827653885
2.0,0.0335223488509655
3.0,0.03289052098989487
4.0,0.03228931501507759
5.0,0.031703874468803406
6.0,0.031123299151659012
7.0,0.030564306303858757
8.0,0.030014678835868835
9.0,0.029471689835190773
10.0,0.02894800528883934
11.0,0.02841714769601822
12.0,0.02789895050227642
13.0,0.02739952877163887
14.0,0.026915904134511948
15.0,0.026454471051692963
16.0,0.025998391211032867
18.0,0.02514631859958172
20.0,0.024358533322811127
22.0,0.0236208476126194
24.0,0.022927751764655113
26.0,0.022273391485214233
28.0,0.02162042446434498
30.0,0.020968656986951828
32.0,0.020375657826662064
36.0,0.01934073679149151
40.0,0.018389666453003883
44.0,0.01753946766257286
48.0,0.016692085191607475
52.0,0.015846002846956253
56.0,0.01499820314347744
60.0,0.01421119924634695
64.0,0.013590675778687
72.0,0.012632662430405617
80.0,0.011698526330292225
88.0,0.010798310860991478
96.0,0.009814983233809471
104.0,0.00892736203968525
112.0,0.008107177913188934
120.0,0.0075569539330899715
128.0,0.00697734160348773
144.0,0.00612686388194561
160.0,0.004964039660990238
176.0,0.0038001658394932747
192.0,0.003388415789231658
208.0,0.0032320544123649597
224.0,0.0027909046038985252
240.0,0.002145664067938924
256.0,0.0011157094268128276
288.0,0.0009498948347754776
320.0,0.0015010368078947067
352.0,0.0014444165863096714
384.0,0.0008443666156381369
416.0,-0.00035320682218298316
448.0,-0.0010149989975616336
480.0,-0.001789021654985845
512.0,-0.0017268791561946273
576.0,-0.003884401638060808
640.0,-0.0033636796288192272
704.0,-0.002536650048568845
768.0,-0.0008231399697251618
832.0,0.0002659090969245881
896.0,0.0030739568173885345
960.0,0.0029323601629585028
1024.0,0.0034231722820550203
1152.0,0.0037169253919273615
1280.0,0.001386425574310124
1408.0,0.0012533905683085322
1536.0,0.003424284979701042
1664.0,-0.00021997389558237046
1792.0,-0.0011561264982447028
1920.0,-0.00034458335721865296
2048.0,-0.0008261658367700875
2304.0,-0.002532760612666607
2560.0,-0.0028531739953905344
2816.0,-0.0023811834398657084
3072.0,-0.0013738780980929732
3328.0,-0.002174781169742346
3584.0,-0.001141335815191269
3840.0,-0.001303597935475409
4096.0,-0.0016923329094424844
4608.0,0.0018856555689126253
5120.0,0.0021790093742311
5632.0,0.002517417771741748
6144.0,0.00310214189812541
6656.0,0.0008589850040152669
7168.0,-0.00012858545233029872
7680.0,-0.0021692633163183928
8192.0,-0.0015317255165427923
9216.0,-0.002609346294775605
10240.0,-0.001091806567274034
11264.0,0.003190126735717058
12288.0,0.00039256931631825864
13312.0,-0.0013614896452054381
14336.0,-0.006152491085231304
end
