version,3.0
numOfCh,1
type,point
parent_name,20-cuts
ch_type,1_1
kcount,1
numberNandB,1
brightnessNandB,1
carpet pos,0
pc,0
Time (ms),CH1 Auto-Correlation
1.0,0.029172617942094803
2.0,0.028502117842435837
3.0,0.027851266786456108
4.0,0.02722834050655365
5.0,0.026624761521816254
6.0,0.02603810466825962
7.0,0.025481462478637695
8.0,0.024944264441728592
9.0,0.024431856349110603
10.0,0.023942099884152412
11.0,0.023476680740714073
12.0,0.02301372028887272
13.0,0.02258191630244255
14.0,0.02216562256217003
15.0,0.02174711413681507
16.0,0.021348031237721443
18.0,0.020590122789144516
20.0,0.019864844158291817
22.0,0.019187645986676216
24.0,0.018525682389736176
26.0,0.017900696024298668
28.0,0.017333222553133965
30.0,0.01683308742940426
32.0,0.016383497044444084
36.0,0.015479941852390766
40.0,0.014565529301762581
44.0,0.013631029054522514
48.0,0.012799086049199104
52.0,0.012089483439922333
56.0,0.011377409100532532
60.0,0.010666623711585999
64.0,0.010068726725876331
72.0,0.009066179394721985
80.0,0.008344201371073723
88.0,0.007928982377052307
96.0,0.007583170663565397
104.0,0.007315588649362326
112.0,0.006784920580685139
120.0,0.00622197613120079
128.0,0.005692328326404095
144.0,0.004848928656429052
160.0,0.004150290973484516
176.0,0.003383931005373597
192.0,0.002711243461817503
208.0,0.002410070039331913
224.0,0.001867293263785541
240.0,0.0013592172181233764
256.0,0.0011921256082132459
288.0,0.0010214896174147725
320.0,0.0009519510203972459
352.0,0.0013190186582505703
384.0,0.0019730159547179937
416.0,0.0011450282763689756
448.0,0.00015828118193894625
480.0,-0.00018773872579913586
512.0,-0.0007015676819719374
576.0,-0.0012945571215823293
640.0,-0.001523384591564536
704.0,-0.0011198594002053142
768.0,0.0008234138949774206
832.0,0.0031651610042899847
896.0,0.004099595360457897
960.0,0.004669802729040384
1024.0,0.003926792647689581
1152.0,0.0026854181196540594
1280.0,0.0016584321856498718
1408.0,0.00176749296952039
1536.0,-0.0005294845323078334
1664.0,-0.0014809358399361372
1792.0,-0.00022491638083010912
1920.0,0.0007627564482390881
2048.0,-4.933501622872427e-05
2304.0,0.0003902411845047027
2560.0,-0.0017354486044496298
2816.0,-0.002417355077341199
3072.0,-0.0022444897331297398
3328.0,-0.00032089895103126764
3584.0,-0.0020723433699458838
3840.0,-0.002443511737510562
4096.0,-0.0033477088436484337
4608.0,-0.003328723832964897
5120.0,0.00025935994926840067
5632.0,0.0010583598632365465
6144.0,-0.0005453033372759819
6656.0,0.0023641602601855993
7168.0,0.003015420865267515
7680.0,0.0014833903405815363
8192.0,0.0018636398017406464
9216.0,0.0006059614825062454
10240.0,-0.001375674968585372
11264.0,-0.002424446400254965
12288.0,-0.0033668905962258577
13312.0,-0.0017446104902774096
14336.0,0.0010603251866996288
end
