version,3.0
numOfCh,1
type,point
parent_name,20-cuts
ch_type,1_1
kcount,1
numberNandB,1
brightnessNandB,1
carpet pos,0
pc,0
Time (ms),CH1 Auto-Correlation
1.0,0.022884996607899666
2.0,0.022471215575933456
3.0,0.022065013647079468
4.0,0.02167734131217003
5.0,0.02129754237830639
6.0,0.020929381251335144
7.0,0.020571578294038773
8.0,0.020232394337654114
9.0,0.01990572176873684
10.0,0.019589971750974655
11.0,0.01928197219967842
12.0,0.01898329146206379
13.0,0.01868995651602745
14.0,0.01841021329164505
15.0,0.018138015642762184
16.0,0.017871160060167313
18.0,0.017355941236019135
20.0,0.01683981902897358
22.0,0.016336029395461082
24.0,0.015853198245167732
26.0,0.015409090556204319
28.0,0.014978540129959583
30.0,0.01457889936864376
32.0,0.01419934630393982
36.0,0.01351055409759283
40.0,0.01283858809620142
44.0,0.012163294479250908
48.0,0.0114910788834095
52.0,0.010829721577465534
56.0,0.010290675796568394
60.0,0.009777063503861427
64.0,0.00925841648131609
72.0,0.008552292361855507
80.0,0.007867206819355488
88.0,0.007195582147687674
96.0,0.006710078567266464
104.0,0.006357274483889341
112.0,0.0060102371498942375
120.0,0.005717627704143524
128.0,0.005390448961406946
144.0,0.004814647603780031
160.0,0.004001036752015352
176.0,0.003361883107572794
192.0,0.003183829365298152
208.0,0.0030951271764934063
224.0,0.0030118869617581367
240.0,0.0026052789762616158
256.0,0.00201046303845942
288.0,0.00099178624805063
320.0,0.0006139004835858941
352.0,0.0004389816604088992
384.0,8.599989814683795e-05
416.0,-0.0003559558535926044
448.0,0.0003580232441890985
480.0,0.0008862034301273525
512.0,0.001086725271306932
576.0,0.0015521972673013806
640.0,0.0017411927692592144
704.0,0.0007849344983696938
768.0,0.00042607163777574897
832.0,0.0006497388239949942
896.0,0.00026534689823165536
960.0,0.00019604833505582064
1024.0,0.0005727065727114677
1152.0,0.002276975428685546
1280.0,0.0018005372257903218
1408.0,-0.0002630450762808323
1536.0,-0.0003726361901499331
1664.0,-0.00013414972636383027
1792.0,-0.0005425066337920725
1920.0,0.0002551805227994919
2048.0,-0.00016233410860877484
2304.0,0.0019171545282006264
2560.0,2.6702791728894226e-05
2816.0,0.0005416410858742893
3072.0,0.0002716706076171249
3328.0,0.0011143892770633101
3584.0,0.00017505970026832074
3840.0,-0.0023237999994307756
4096.0,-0.0012419947888702154
4608.0,-0.0010539310751482844
5120.0,-0.00040217622881755233
5632.0,-0.0006022314773872495
6144.0,-0.0018504364416003227
6656.0,-0.0018104292685166001
7168.0,-0.002596142701804638
7680.0,-0.001313852029852569
8192.0,0.00023152200446929783
9216.0,-0.0016703081782907248
10240.0,-0.001019326038658619
11264.0,0.0019724087323993444
12288.0,0.000827639945782721
13312.0,0.002929822774603963
14336.0,-0.0008969079935923219
end
