version,3.0
numOfCh,1
type,point
parent_name,20-cuts
ch_type,1_1
kcount,1
numberNandB,1
brightnessNandB,1
carpet pos,0
pc,0
Time (ms),CH1 Auto-Correlation
1.0,0.030606640502810478
2.0,0.03003518469631672
3.0,0.029477130621671677
4.0,0.0289290938526392
5.0,0.02839287929236889
6.0,0.02789096161723137
7.0,0.0274063553661108
8.0,0.02693047747015953
9.0,0.026482777670025826
10.0,0.026051724329590797
11.0,0.025638246908783913
12.0,0.025235092267394066
13.0,0.024837655946612358
14.0,0.024458937346935272
15.0,0.02408350072801113
16.0,0.023723317310214043
18.0,0.022981680929660797
20.0,0.022253019735217094
22.0,0.021576683968305588
24.0,0.02097911573946476
26.0,0.020452547818422318
28.0,0.01997399516403675
30.0,0.019529996439814568
32.0,0.019120454788208008
36.0,0.018318282440304756
40.0,0.017519483342766762
44.0,0.016718681901693344
48.0,0.015941187739372253
52.0,0.015220101922750473
56.0,0.014571609906852245
60.0,0.013987192884087563
64.0,0.013435609638690948
72.0,0.012355407699942589
80.0,0.011479329317808151
88.0,0.01085517555475235
96.0,0.010275824926793575
104.0,0.009812450967729092
112.0,0.009328380227088928
120.0,0.008922971785068512
128.0,0.00851344969123602
144.0,0.007616307120770216
160.0,0.007037984672933817
176.0,0.006773513276129961
192.0,0.006369531154632568
208.0,0.005818523466587067
224.0,0.004910820163786411
240.0,0.004442722536623478
256.0,0.004155917093157768
288.0,0.0033512429799884558
320.0,0.0031418188009411097
352.0,0.0038565723225474358
384.0,0.004212949424982071
416.0,0.003464566543698311
448.0,0.0025175565388053656
480.0,0.0008700598846189678
512.0,-0.0007029214757494628
576.0,-0.001522845239378512
640.0,-0.0022374503314495087
704.0,-0.003730418859049678
768.0,-0.0026864754036068916
832.0,-0.0026563117280602455
896.0,-0.004491323605179787
960.0,-0.005955046974122524
1024.0,-0.005833759903907776
1152.0,-0.0038401277270168066
1280.0,-0.0018084552139043808
1408.0,-0.0001639777619857341
1536.0,0.003043250646442175
1664.0,0.0015903033781796694
1792.0,0.0010927706025540829
1920.0,0.0028404698241502047
2048.0,0.0028664313722401857
2304.0,0.004073002375662327
2560.0,-0.0006947678048163652
2816.0,-0.0013699099654331803
3072.0,-0.0019699770491570234
3328.0,-0.002443674486130476
3584.0,-0.0012138811871409416
3840.0,-0.0003472832031548023
4096.0,0.00026021894882433116
4608.0,0.00016912321734707803
5120.0,0.0011263111373409629
5632.0,0.00020203286840114743
6144.0,-0.003512288210913539
6656.0,0.0010937561746686697
7168.0,0.004301874432712793
7680.0,-0.0013419792521744967
8192.0,-0.0016394098056480289
9216.0,0.00029946037102490664
10240.0,-0.0022530141286551952
11264.0,-0.0016334039391949773
12288.0,-0.0024449690245091915
13312.0,-0.001502351020462811
14336.0,-0.0018862009746953845
end
