version,3.0
numOfCh,1
type,point
parent_name,20-cuts
ch_type,1_1
kcount,1
numberNandB,1
brightnessNandB,1
carpet pos,0
pc,0
Time (ms),CH1 Auto-Correlation
1.0,0.07622691243886948
2.0,0.07505758106708527
3.0,0.0739278718829155
4.0,0.07281214743852615
5.0,0.07170381397008896
6.0,0.07066593319177628
7.0,0.06963895261287689
8.0,0.06868831068277359
9.0,0.0677284374833107
10.0,0.06678764522075653
11.0,0.06587996333837509
12.0,0.06501869112253189
13.0,0.06415027379989624
14.0,0.0632965937256813
15.0,0.06248363479971886
16.0,0.06167960166931152
18.0,0.06006881222128868
20.0,0.05852706357836723
22.0,0.05707713961601257
24.0,0.05567404255270958
26.0,0.05435805767774582
28.0,0.05312732979655266
30.0,0.051999591290950775
32.0,0.0509197823703289
36.0,0.04882257431745529
40.0,0.046734075993299484
44.0,0.04461691156029701
48.0,0.042608801275491714
52.0,0.040795207023620605
56.0,0.03917709365487099
60.0,0.03759077936410904
64.0,0.0361793115735054
72.0,0.03374763950705528
80.0,0.03157062456011772
88.0,0.029732361435890198
96.0,0.02814185805618763
104.0,0.026791468262672424
112.0,0.025624137371778488
120.0,0.02437116578221321
128.0,0.023527653887867928
144.0,0.022416699677705765
160.0,0.021594613790512085
176.0,0.020966902375221252
192.0,0.02074006013572216
208.0,0.02033868432044983
224.0,0.020351367071270943
240.0,0.020066015422344208
256.0,0.020206736400723457
288.0,0.0186831783503294
320.0,0.015438569709658623
352.0,0.013485187664628029
384.0,0.013773921877145767
416.0,0.01312245987355709
448.0,0.01019162405282259
480.0,0.009358550421893597
512.0,0.010854644700884819
576.0,0.011198654770851135
640.0,0.008699337020516396
704.0,0.006276496686041355
768.0,0.007528648246079683
832.0,0.008534761145710945
896.0,0.005238205194473267
960.0,0.004039952531456947
1024.0,0.0022162524983286858
1152.0,-0.0015032015508040786
1280.0,-0.0009954512352123857
1408.0,-0.0014432045863941312
1536.0,-0.002459542592987418
1664.0,-0.002472012536600232
1792.0,0.0014767987886443734
1920.0,0.0033495440147817135
2048.0,0.000938051613047719
2304.0,-0.008776556700468063
2560.0,-0.009670864790678024
2816.0,-0.003595763584598899
3072.0,-0.006936239078640938
3328.0,-0.009284449741244316
3584.0,-0.005239847581833601
3840.0,-0.0060411300510168076
4096.0,-0.006635402794927359
4608.0,-0.004288909956812859
5120.0,-0.0007391097606159747
5632.0,-0.00248341029509902
6144.0,-0.00786876492202282
6656.0,-0.004770209081470966
7168.0,-0.0030152834951877594
7680.0,-0.007424618117511272
8192.0,0.00024318293435499072
9216.0,0.02235862985253334
10240.0,0.011616059578955173
11264.0,-0.0020223762840032578
12288.0,-0.01816573180258274
13312.0,-0.014988690614700317
14336.0,0.008704504929482937
end
