version,3.0
numOfCh,1
type,point
parent_name,20-cuts
ch_type,1_1
kcount,1
numberNandB,1
brightnessNandB,1
carpet pos,0
pc,0
Time (ms),CH1 Auto-Correlation
1.0,0.06737702339887619
2.0,0.06617256999015808
3.0,0.0649825781583786
4.0,0.06383470445871353
5.0,0.06270594894886017
6.0,0.06161155924201012
7.0,0.060568928718566895
8.0,0.059605348855257034
9.0,0.05866044759750366
10.0,0.057753995060920715
11.0,0.05688045546412468
12.0,0.05603313073515892
13.0,0.05520601570606232
14.0,0.054427605122327805
15.0,0.05366510525345802
16.0,0.05294293910264969
18.0,0.05158591642975807
20.0,0.05029118433594704
22.0,0.049024052917957306
24.0,0.04782228171825409
26.0,0.0466599315404892
28.0,0.04554130882024765
30.0,0.04451170563697815
32.0,0.04355820268392563
36.0,0.04173625260591507
40.0,0.03998146206140518
44.0,0.03824320435523987
48.0,0.036579813808202744
52.0,0.0349576435983181
56.0,0.033269431442022324
60.0,0.031598664820194244
64.0,0.030128637328743935
72.0,0.02750866487622261
80.0,0.02490215189754963
88.0,0.022549498826265335
96.0,0.020425856113433838
104.0,0.018310459330677986
112.0,0.016224045306444168
120.0,0.014432072639465332
128.0,0.013261581771075726
144.0,0.011054500006139278
160.0,0.009273487143218517
176.0,0.008339188061654568
192.0,0.007839368656277657
208.0,0.00696514593437314
224.0,0.006224849261343479
240.0,0.005996363703161478
256.0,0.005680963862687349
288.0,0.005047766026109457
320.0,0.003617931390181184
352.0,0.003061223542317748
384.0,0.002431423868983984
416.0,0.002906443551182747
448.0,0.00472195353358984
480.0,0.005708972457796335
512.0,0.007424226496368647
576.0,0.010447362437844276
640.0,0.010188914835453033
704.0,0.0053759291768074036
768.0,0.0015449911588802934
832.0,0.00013579432561527938
896.0,0.0011301188496872783
960.0,0.00173340761102736
1024.0,0.0032244636677205563
1152.0,0.0071989367716014385
1280.0,0.004434076603502035
1408.0,0.0008055862272158265
1536.0,0.007711229380220175
1664.0,0.008620200678706169
1792.0,0.005237756762653589
1920.0,0.0021722582168877125
2048.0,0.0036790005397051573
2304.0,0.0045315842144191265
2560.0,-0.0008808139828033745
2816.0,-0.0018493861425668001
3072.0,-0.004615554586052895
3328.0,-0.00010149634908884764
3584.0,-0.0023995519150048494
3840.0,0.003976642619818449
4096.0,0.002546364441514015
4608.0,-0.006381132639944553
5120.0,-0.005513416137546301
5632.0,-0.007771139964461327
6144.0,-0.009049857035279274
6656.0,-0.009965112432837486
7168.0,-0.010321134701371193
7680.0,-0.0013162597315385938
8192.0,-0.0017826409311965108
9216.0,0.0008831680752336979
10240.0,0.002077905461192131
11264.0,-0.0008860202506184578
12288.0,0.005089559592306614
13312.0,0.004257338121533394
14336.0,0.002489189151674509
end
