version,3.0
numOfCh,1
type,point
parent_name,20-cuts
ch_type,1_1
kcount,1
numberNandB,1
brightnessNandB,1
carpet pos,0
pc,0
Time (ms),CH1 Auto-Correlation
1.0,0.022192765027284622
2.0,0.021795382723212242
3.0,0.021416621282696724
4.0,0.02105303294956684
5.0,0.020692484453320503
6.0,0.020341021940112114
7.0,0.01999465934932232
8.0,0.019654467701911926
9.0,0.019326960667967796
10.0,0.018993450328707695
11.0,0.018663199618458748
12.0,0.018327724188566208
13.0,0.017995288595557213
14.0,0.01766248606145382
15.0,0.017339875921607018
16.0,0.01701512560248375
18.0,0.016403814777731895
20.0,0.015842529013752937
22.0,0.015304275788366795
24.0,0.014791273511946201
26.0,0.014294752851128578
28.0,0.013816755264997482
30.0,0.013370126485824585
32.0,0.012940035201609135
36.0,0.012164193205535412
40.0,0.01143430545926094
44.0,0.01076637301594019
48.0,0.010166863910853863
52.0,0.009599238634109497
56.0,0.009047304280102253
60.0,0.008567080833017826
64.0,0.00814291462302208
72.0,0.0075662401504814625
80.0,0.00720223831012845
88.0,0.006926658563315868
96.0,0.006695677060633898
104.0,0.006430951412767172
112.0,0.006136835087090731
120.0,0.005849111825227737
128.0,0.00563976913690567
144.0,0.005544719286262989
160.0,0.005313574802130461
176.0,0.005157254170626402
192.0,0.004723021294921637
208.0,0.004221408162266016
224.0,0.004003505222499371
240.0,0.0037574926391243935
256.0,0.003354510059580207
288.0,0.0033055217936635017
320.0,0.003914206754416227
352.0,0.003421405330300331
384.0,0.002701899502426386
416.0,0.0022505945526063442
448.0,0.001477167708799243
480.0,0.0006277140346355736
512.0,0.000430774554843083
576.0,-3.026011836482212e-05
640.0,-0.0016463760985061526
704.0,-0.0018399646505713463
768.0,-0.0011478125816211104
832.0,-0.000810076657216996
896.0,-0.0003114103456027806
960.0,-0.0008581908768974245
1024.0,-0.0011301604099571705
1152.0,-0.0009090056992135942
1280.0,-0.00018722201639320701
1408.0,0.00044957533827982843
1536.0,-4.5940680138301104e-05
1664.0,-0.001440319581888616
1792.0,-0.0018848838517442346
1920.0,-0.0019545063842087984
2048.0,-0.002533944323658943
2304.0,-0.0003529259411152452
2560.0,0.0003528576053213328
2816.0,0.0011355276219546795
3072.0,0.0006887820782139897
3328.0,0.0006541834445670247
3584.0,6.268546712817624e-05
3840.0,-0.0015248871641233563
4096.0,-0.0016898446483537555
4608.0,0.0002959856064990163
5120.0,-0.0017401202348992229
5632.0,0.0004965953412465751
6144.0,0.0015565366484224796
6656.0,-0.0022023518104106188
7168.0,0.00020805218082387
7680.0,-0.00021575110440608114
8192.0,-0.0001529712462797761
9216.0,-0.001642489107325673
10240.0,0.00031043082708492875
11264.0,0.00029681797605007887
12288.0,-0.0003509774978738278
13312.0,0.0028263216372579336
14336.0,-0.0016025231452658772
end
