version,3.0
numOfCh,1
type,point
parent_name,20-cuts
ch_type,1_1
kcount,1
numberNandB,1
brightnessNandB,1
carpet pos,0
pc,0
Time (ms),CH1 Auto-Correlation
1.0,0.06987462937831879
2.0,0.06856155395507812
3.0,0.06730097532272339
4.0,0.06611423939466476
5.0,0.06497699022293091
6.0,0.063888318836689
7.0,0.06283704936504364
8.0,0.061817385256290436
9.0,0.06081651523709297
10.0,0.05986373871564865
11.0,0.05893513187766075
12.0,0.058051787316799164
13.0,0.057211291044950485
14.0,0.05642406642436981
15.0,0.05564923956990242
16.0,0.054879408329725266
18.0,0.05339088290929794
20.0,0.052022650837898254
22.0,0.050721533596515656
24.0,0.04944711923599243
26.0,0.04815352335572243
28.0,0.04687447473406792
30.0,0.04566715285181999
32.0,0.04453999176621437
36.0,0.0425652451813221
40.0,0.040660545229911804
44.0,0.03883478417992592
48.0,0.03707991912961006
52.0,0.03529961779713631
56.0,0.03364936262369156
60.0,0.032245904207229614
64.0,0.030880918726325035
72.0,0.02856476791203022
80.0,0.02636992372572422
88.0,0.024204084649682045
96.0,0.02226044051349163
104.0,0.020628638565540314
112.0,0.019254446029663086
120.0,0.01817101240158081
128.0,0.017171671614050865
144.0,0.014927825890481472
160.0,0.012616140767931938
176.0,0.010229842737317085
192.0,0.008570575155317783
208.0,0.007580355275422335
224.0,0.006299704313278198
240.0,0.0053768400102853775
256.0,0.004597451072186232
288.0,0.002497148932889104
320.0,0.0005901050171814859
352.0,0.0002640368475113064
384.0,0.0017317510209977627
416.0,0.0035098802763968706
448.0,0.0032474154140800238
480.0,0.0018850165652111173
512.0,0.00039631640538573265
576.0,0.0005534692900255322
640.0,0.003670870326459408
704.0,0.004772632848471403
768.0,0.0045845783315598965
832.0,0.003490821924060583
896.0,0.00237624766305089
960.0,-0.0027293721213936806
1024.0,-0.004112906288355589
1152.0,-0.002800977323204279
1280.0,-0.006350806448608637
1408.0,-0.0048906560987234116
1536.0,-0.004995618015527725
1664.0,-0.008682296611368656
1792.0,-0.0018406981835141778
1920.0,-0.0030295790638774633
2048.0,-0.0026032698806375265
2304.0,0.0020690367091447115
2560.0,0.0007621247204951942
2816.0,0.004231470637023449
3072.0,0.003295004367828369
3328.0,0.003876330563798547
3584.0,-0.0009545173961669207
3840.0,-0.007186208385974169
4096.0,-0.002260018838569522
4608.0,-0.0028201970271766186
5120.0,0.0035224156454205513
5632.0,-0.0015902062878012657
6144.0,0.0018986373906955123
6656.0,0.005369054153561592
7168.0,0.0009545590728521347
7680.0,-0.0025701995473355055
8192.0,-0.007673702668398619
9216.0,0.0003190714633092284
10240.0,-0.00602829921990633
11264.0,-0.0032966146245598793
12288.0,0.005111637059599161
13312.0,-0.003937819041311741
14336.0,0.0004204628348816186
end
