version,3.0
numOfCh,1
type,point
parent_name,20-cuts
ch_type,1_1
kcount,1
numberNandB,1
brightnessNandB,1
carpet pos,0
pc,0
Time (ms),CH1 Auto-Correlation
1.0,0.021715203300118446
2.0,0.021277595311403275
3.0,0.02084941416978836
4.0,0.020445307716727257
5.0,0.02004968374967575
6.0,0.01965724490582943
7.0,0.01928921416401863
8.0,0.018935950472950935
9.0,0.018582317978143692
10.0,0.018239183351397514
11.0,0.017906399443745613
12.0,0.017590206116437912
13.0,0.017289992421865463
14.0,0.016996625810861588
15.0,0.016707101836800575
16.0,0.01642811857163906
18.0,0.01591629721224308
20.0,0.015436578541994095
22.0,0.014992069453001022
24.0,0.014572040177881718
26.0,0.014146625995635986
28.0,0.013754023239016533
30.0,0.013373201712965965
32.0,0.012998969294130802
36.0,0.012314297258853912
40.0,0.011686719954013824
44.0,0.011152725666761398
48.0,0.01064106822013855
52.0,0.010220034047961235
56.0,0.009937109425663948
60.0,0.00969223864376545
64.0,0.009428988210856915
72.0,0.008848147466778755
80.0,0.008409312926232815
88.0,0.008077147416770458
96.0,0.007775533013045788
104.0,0.007385493256151676
112.0,0.006895245518535376
120.0,0.006537529174238443
128.0,0.006196899805217981
144.0,0.005498293787240982
160.0,0.004906470887362957
176.0,0.004599248059093952
192.0,0.004254530183970928
208.0,0.003797023557126522
224.0,0.0035187930334359407
240.0,0.0031330781057476997
256.0,0.0028624646365642548
288.0,0.0035995342768728733
320.0,0.003822282189503312
352.0,0.0034225352574139833
384.0,0.002844342263415456
416.0,0.0031285975128412247
448.0,0.0028156726621091366
480.0,0.002347716363146901
512.0,0.00236332300119102
576.0,0.0016627262812107801
640.0,0.0008284779032692313
704.0,-0.0006578242173418403
768.0,-0.0005556712858378887
832.0,0.00034356044488959014
896.0,0.000977370422333479
960.0,0.0012366368900984526
1024.0,0.0015908015193417668
1152.0,0.002114766975864768
1280.0,0.0021095178090035915
1408.0,0.001722042914479971
1536.0,-7.10923268343322e-05
1664.0,3.624705277616158e-05
1792.0,-0.00014506388106383383
1920.0,-0.0027597774751484394
2048.0,-0.0033152736723423004
2304.0,-0.0012035525869578123
2560.0,-0.0005834169569425285
2816.0,-0.000749309838283807
3072.0,-0.0036464394070208073
3328.0,-0.004319692961871624
3584.0,-0.0035145003348588943
3840.0,-0.0011854796903207898
4096.0,0.0003375452070031315
4608.0,-0.002688606269657612
5120.0,-0.00018680942594073713
5632.0,0.002170267980545759
6144.0,0.0014212505193427205
6656.0,0.0026055763009935617
7168.0,0.0008609563810750842
7680.0,0.0028322061989456415
8192.0,0.0034653584007173777
9216.0,-0.002791437553241849
10240.0,-0.003795796539634466
11264.0,-0.0019295100355520844
12288.0,0.0027477170806378126
13312.0,0.0011379107600077987
14336.0,0.0013434378197416663
end
