version,3.0
numOfCh,1
type,point
parent_name,20-cuts
ch_type,1_1
kcount,1
numberNandB,1
brightnessNandB,1
carpet pos,0
pc,0
Time (ms),CH1 Auto-Correlation
1.0,0.017909245565533638
2.0,0.017502883449196815
3.0,0.01711101457476616
4.0,0.016740452498197556
5.0,0.016381002962589264
6.0,0.016036618500947952
7.0,0.015693185850977898
8.0,0.015368052758276463
9.0,0.01505561824887991
10.0,0.014751930721104145
11.0,0.014455054886639118
12.0,0.014172849245369434
13.0,0.013905582018196583
14.0,0.01363619789481163
15.0,0.013370214030146599
16.0,0.013113930821418762
18.0,0.0126242870464921
20.0,0.012138506397604942
22.0,0.011655622161924839
24.0,0.011173934675753117
26.0,0.010717269033193588
28.0,0.010290256701409817
30.0,0.009888176806271076
32.0,0.009519034065306187
36.0,0.008902449160814285
40.0,0.008402314968407154
44.0,0.007996495813131332
48.0,0.007672902196645737
52.0,0.007348860148340464
56.0,0.007025218568742275
60.0,0.006715458817780018
64.0,0.006442428566515446
72.0,0.00575671810656786
80.0,0.004929111804813147
88.0,0.004100265447050333
96.0,0.003447052789852023
104.0,0.002904727356508374
112.0,0.0025014460552483797
120.0,0.002209233585745096
128.0,0.00196746364235878
144.0,0.0014617020497098565
160.0,0.0010161862010136247
176.0,0.0010204113787040114
192.0,0.0011733489809557796
208.0,0.0013194642961025238
224.0,0.0009050013031810522
240.0,0.0007329684449359775
256.0,0.0009383998694829643
288.0,0.0007526514818891883
320.0,-0.00013822766777593642
352.0,-0.0003929009544663131
384.0,-0.0009444233728572726
416.0,-0.0016493049915879965
448.0,-0.001656304462812841
480.0,-0.0013398510636761785
512.0,-0.001166611211374402
576.0,-0.00042846304131671786
640.0,0.00030917138792574406
704.0,0.00015779562818352133
768.0,0.0003508197842165828
832.0,8.533904474461451e-05
896.0,-0.000536255189217627
960.0,-0.001011426211334765
1024.0,-0.00019272406643722206
1152.0,-0.00036335253389552236
1280.0,0.0005526660825125873
1408.0,-0.00027258857153356075
1536.0,-0.0001735481491778046
1664.0,-0.0004534514155238867
1792.0,-0.0007644875440746546
1920.0,-0.0013895862502977252
2048.0,-0.0016459255712106824
2304.0,-0.000769937876611948
2560.0,-0.0006908100331202149
2816.0,0.0002200726157752797
3072.0,0.0010051090503111482
3328.0,-0.00040915459976531565
3584.0,-0.00038724709884263575
3840.0,-0.001006551319733262
4096.0,-0.0009191493154503405
4608.0,0.0010942979715764523
5120.0,-0.0005723407957702875
5632.0,-0.00010786465281853452
6144.0,-0.0007045872625894845
6656.0,-0.0007336489506997168
7168.0,0.0003678681096062064
7680.0,0.0008308970718644559
8192.0,0.0005903358105570078
9216.0,0.0002589469077065587
10240.0,-0.0013131203595548868
11264.0,-0.00014451479364652187
12288.0,-7.528231071773916e-05
13312.0,0.000481081020552665
14336.0,0.0001794135750969872
end
