version,3.0
numOfCh,1
type,point
parent_name,20-cuts
ch_type,1_1
kcount,1
numberNandB,1
brightnessNandB,1
carpet pos,0
pc,0
Time (ms),CH1 Auto-Correlation
1.0,0.05953918397426605
2.0,0.05834222212433815
3.0,0.0571930855512619
4.0,0.056074872612953186
5.0,0.054993752390146255
6.0,0.053937990218400955
7.0,0.05292445793747902
8.0,0.05194078013300896
9.0,0.051010921597480774
10.0,0.05014047399163246
11.0,0.049302175641059875
12.0,0.04849030449986458
13.0,0.04771791025996208
14.0,0.04699621722102165
15.0,0.046293750405311584
16.0,0.045603957027196884
18.0,0.04433504864573479
20.0,0.04316122457385063
22.0,0.042063698172569275
24.0,0.04104949161410332
26.0,0.04006215184926987
28.0,0.03909603878855705
30.0,0.03822293505072594
32.0,0.03739352896809578
36.0,0.0356920100748539
40.0,0.03410590812563896
44.0,0.032504383474588394
48.0,0.03106960840523243
52.0,0.02964012138545513
56.0,0.02817721478641033
60.0,0.026811037212610245
64.0,0.025656580924987793
72.0,0.024181531742215157
80.0,0.023167744278907776
88.0,0.022701788693666458
96.0,0.02225804142653942
104.0,0.021115291863679886
112.0,0.0197805967181921
120.0,0.018767256289720535
128.0,0.018245814368128777
144.0,0.016912534832954407
160.0,0.016044702380895615
176.0,0.015209467150270939
192.0,0.014654887840151787
208.0,0.014144656248390675
224.0,0.012966195121407509
240.0,0.012583260424435139
256.0,0.012005003169178963
288.0,0.009228219278156757
320.0,0.007521134801208973
352.0,0.005707324482500553
384.0,0.004872980993241072
416.0,0.0036497542168945074
448.0,0.0028118514455854893
480.0,0.0015168620739132166
512.0,0.00029822663054801524
576.0,0.00031990770366974175
640.0,0.0003083760675508529
704.0,0.002267194213345647
768.0,0.00368587882257998
832.0,0.005048801656812429
896.0,0.004872622899711132
960.0,0.0052963728085160255
1024.0,0.003905082819983363
1152.0,0.008200380951166153
1280.0,0.006117960438132286
1408.0,0.004862633068114519
1536.0,0.00010019999172072858
1664.0,-0.0001026579993776977
1792.0,-1.661204623815138e-05
1920.0,0.001844180398620665
2048.0,0.0035374523140490055
2304.0,0.0007598391966894269
2560.0,-0.0014176903059706092
2816.0,-0.0028895768336951733
3072.0,-0.0017701913602650166
3328.0,-0.004182069096714258
3584.0,-0.0010156638454645872
3840.0,0.0004934120224788785
4096.0,-0.004029551986604929
4608.0,-0.0010744568426162004
5120.0,-0.005163183435797691
5632.0,-0.007663107477128506
6144.0,-0.006708378903567791
6656.0,-0.005629546009004116
7168.0,-0.0072859409265220165
7680.0,-0.008547725155949593
8192.0,-0.0009269148577004671
9216.0,0.0005609496147371829
10240.0,0.004594453610479832
11264.0,0.0012040514266118407
12288.0,0.00038971524918451905
13312.0,0.0022007727529853582
14336.0,0.0015178174944594502
end
