version,3.0
numOfCh,1
type,point
parent_name,20-cuts
ch_type,1_1
kcount,1
numberNandB,1
brightnessNandB,1
carpet pos,0
pc,0
Time (ms),CH1 Auto-Correlation
1.0,0.06643683463335037
2.0,0.06524495780467987
3.0,0.06410548090934753
4.0,0.06299286335706711
5.0,0.06187966465950012
6.0,0.060776397585868835
7.0,0.059718187898397446
8.0,0.05869011953473091
9.0,0.05767561122775078
10.0,0.05666200444102287
11.0,0.05567177012562752
12.0,0.05473072826862335
13.0,0.05384493246674538
14.0,0.052981458604335785
15.0,0.052184611558914185
16.0,0.05140320584177971
18.0,0.04983685538172722
20.0,0.04828858748078346
22.0,0.046787891536951065
24.0,0.04534909874200821
26.0,0.043977659195661545
28.0,0.04273488372564316
30.0,0.041480157524347305
32.0,0.040326111018657684
36.0,0.038067013025283813
40.0,0.03585497662425041
44.0,0.0336785763502121
48.0,0.03151879832148552
52.0,0.029494009912014008
56.0,0.027670668438076973
60.0,0.025999201461672783
64.0,0.024486081674695015
72.0,0.022123947739601135
80.0,0.020044665783643723
88.0,0.017888974398374557
96.0,0.016504181548953056
104.0,0.015495317988097668
112.0,0.014696239493787289
120.0,0.013652248308062553
128.0,0.01256231963634491
144.0,0.010470070876181126
160.0,0.00866026896983385
176.0,0.006844023242592812
192.0,0.005409517325460911
208.0,0.004415904171764851
224.0,0.003503806423395872
240.0,0.002691124565899372
256.0,0.000202363939024508
288.0,-0.002670257119461894
320.0,-0.0037542092613875866
352.0,-0.00320769683457911
384.0,-0.003174430225044489
416.0,-0.002940728096291423
448.0,-0.0039039805997163057
480.0,-0.004665936343371868
512.0,-0.003483670996502042
576.0,0.002510353457182646
640.0,0.0017971027409657836
704.0,0.003819195320829749
768.0,0.006474381312727928
832.0,0.002782748080790043
896.0,0.0008066754671745002
960.0,0.002257597167044878
1024.0,-3.8520509406225756e-05
1152.0,-0.0022246360313147306
1280.0,0.0006235815235413611
1408.0,0.0021433152724057436
1536.0,0.002771179424598813
1664.0,0.004351638723164797
1792.0,-0.0032571430783718824
1920.0,-0.005494763609021902
2048.0,-0.00034678541123867035
2304.0,0.00758579233661294
2560.0,0.004389298148453236
2816.0,-0.0028727888129651546
3072.0,0.0006972175906412303
3328.0,0.003485733410343528
3584.0,-0.0010804410558193922
3840.0,-0.0014891473110765219
4096.0,-0.0012616838794201612
4608.0,0.001652653911150992
5120.0,-0.0002988565247505903
5632.0,-0.001249496010132134
6144.0,0.001433221041224897
6656.0,-0.0013503978261724114
7168.0,0.0003850035718642175
7680.0,-0.002530181547626853
8192.0,-0.0023237988352775574
9216.0,-0.003396406304091215
10240.0,-0.0003308346786070615
11264.0,-0.005930195562541485
12288.0,0.004112615715712309
13312.0,-0.002397282747551799
14336.0,0.0006182260112836957
end
