version,3.0
numOfCh,1
type,point
parent_name,20-cuts
ch_type,1_1
kcount,1
numberNandB,1
brightnessNandB,1
carpet pos,0
pc,0
Time (ms),CH1 Auto-Correlation
1.0,0.033563777804374695
2.0,0.03292359784245491
3.0,0.032298434525728226
4.0,0.031692929565906525
5.0,0.031098220497369766
6.0,0.030513623729348183
7.0,0.02993040718138218
8.0,0.029367731884121895
9.0,0.028823208063840866
10.0,0.028276247903704643
11.0,0.027748361229896545
12.0,0.02723120152950287
13.0,0.026708224788308144
14.0,0.026181716471910477
15.0,0.02567324787378311
16.0,0.025161108002066612
18.0,0.024162350222468376
20.0,0.023263661190867424
22.0,0.022446729242801666
24.0,0.021669311448931694
26.0,0.020932942628860474
28.0,0.020223669707775116
30.0,0.019533805549144745
32.0,0.01888512447476387
36.0,0.017668895423412323
40.0,0.016602328047156334
44.0,0.015600388869643211
48.0,0.014685838483273983
52.0,0.013843754306435585
56.0,0.013065781444311142
60.0,0.01238017063587904
64.0,0.011818471364676952
72.0,0.010933419689536095
80.0,0.010201885364949703
88.0,0.009585925377905369
96.0,0.008919084444642067
104.0,0.008215977810323238
112.0,0.00737722497433424
120.0,0.006531712599098682
128.0,0.005707826465368271
144.0,0.004902258515357971
160.0,0.004881940316408873
176.0,0.004762448836117983
192.0,0.004060703329741955
208.0,0.002549098338931799
224.0,0.0010695571545511484
240.0,8.645885827718303e-06
256.0,-0.0002941997372545302
288.0,-0.0015748079167678952
320.0,-0.0018360266694799066
352.0,-0.0019697051029652357
384.0,-0.0030357318464666605
416.0,-0.003765466855838895
448.0,-0.00432606739923358
480.0,-0.004695170093327761
512.0,-0.004181195516139269
576.0,-0.0024539220612496138
640.0,-0.0016256616218015552
704.0,-0.0013800786109641194
768.0,9.184110967908055e-05
832.0,0.0002707262756302953
896.0,-0.0007208251627162099
960.0,-0.0014688711380586028
1024.0,-0.0025276432279497385
1152.0,-0.0036709445994347334
1280.0,-0.0013251324417069554
1408.0,-0.001662760623730719
1536.0,-0.0008925276342779398
1664.0,0.0011832965537905693
1792.0,0.0032754652202129364
1920.0,0.0026446275878697634
2048.0,0.0010542112868279219
2304.0,-0.00086389877833426
2560.0,0.00140528311021626
2816.0,-0.0007975876796990633
3072.0,-0.002407302614301443
3328.0,-0.0011974242515861988
3584.0,0.0009273794712498784
3840.0,0.0026916302740573883
4096.0,0.0012880460126325488
4608.0,-6.529572419822216e-05
5120.0,-0.0012427216861397028
5632.0,-0.000674573122523725
6144.0,0.0013271766947582364
6656.0,-0.00026653092936612666
7168.0,0.000948465196415782
7680.0,-0.0010449016699567437
8192.0,-7.592383917653933e-05
9216.0,-0.00030935919494368136
10240.0,0.0006831823266111314
11264.0,-0.002571126678958535
12288.0,0.0003211754374206066
13312.0,0.003237374359741807
14336.0,-0.0006444484461098909
end
