version,3.0
numOfCh,1
type,point
parent_name,20-cuts
ch_type,1_1
kcount,1
numberNandB,1
brightnessNandB,1
carpet pos,0
pc,0
Time (ms),CH1 Auto-Correlation
1.0,0.06377998739480972
2.0,0.06253381818532944
3.0,0.06132964417338371
4.0,0.06018570810556412
5.0,0.059101369231939316
6.0,0.05806373804807663
7.0,0.057088494300842285
8.0,0.05611872673034668
9.0,0.055170439183712006
10.0,0.05425676703453064
11.0,0.053393881767988205
12.0,0.05258970335125923
13.0,0.05176281929016113
14.0,0.05096382647752762
15.0,0.050191160291433334
16.0,0.04940151050686836
18.0,0.047815751284360886
20.0,0.04634249582886696
22.0,0.04493575543165207
24.0,0.04363543167710304
26.0,0.042305611073970795
28.0,0.041037820279598236
30.0,0.03980761766433716
32.0,0.03855320066213608
36.0,0.03634054958820343
40.0,0.03436153754591942
44.0,0.03258899226784706
48.0,0.031125985085964203
52.0,0.02979932725429535
56.0,0.02840348146855831
60.0,0.027011815458536148
64.0,0.0257307980209589
72.0,0.023758895695209503
80.0,0.021968508139252663
88.0,0.020404603332281113
96.0,0.018919216468930244
104.0,0.017663467675447464
112.0,0.016576960682868958
120.0,0.015842018648982048
128.0,0.0153881860896945
144.0,0.013967180624604225
160.0,0.012326795607805252
176.0,0.01081368699669838
192.0,0.010067716240882874
208.0,0.009396202862262726
224.0,0.007864569313824177
240.0,0.006128969602286816
256.0,0.004924963694065809
288.0,0.004465114790946245
320.0,0.004989456385374069
352.0,0.003951628692448139
384.0,0.00042441958794370294
416.0,0.0011725116055458784
448.0,0.004436710383743048
480.0,0.006061208434402943
512.0,0.005660390015691519
576.0,0.0007431263220496476
640.0,0.001367582706734538
704.0,-0.0024131708778440952
768.0,-0.005496421363204718
832.0,-0.002323485678061843
896.0,0.001096935011446476
960.0,0.0030663879588246346
1024.0,0.00023238280846271664
1152.0,0.00508210388943553
1280.0,0.0005124016897752881
1408.0,0.0003310299071017653
1536.0,0.0021449122577905655
1664.0,-0.0046225739642977715
1792.0,-0.001336740329861641
1920.0,-0.001599239301867783
2048.0,0.0004421195772010833
2304.0,-0.0025993753224611282
2560.0,-0.002253892831504345
2816.0,-0.0016417575534433126
3072.0,-0.0019732059445232153
3328.0,0.0018335888162255287
3584.0,-0.002777177607640624
3840.0,0.0007643672870472074
4096.0,-0.00493416003882885
4608.0,-0.0027990760281682014
5120.0,-0.0034204416442662477
5632.0,0.005376128945499659
6144.0,-0.0009543910855427384
6656.0,0.005703034810721874
7168.0,0.009938843548297882
7680.0,0.0005662598996423185
8192.0,-0.004564234986901283
9216.0,-0.0035026688128709793
10240.0,-0.00551466504111886
11264.0,0.000148823979543522
12288.0,-0.004359222482889891
13312.0,-0.004064586479216814
14336.0,0.004024471156299114
end
