version,3.0
numOfCh,1
type,point
parent_name,20-cuts
ch_type,1_1
kcount,1
numberNandB,1
brightnessNandB,1
carpet pos,0
pc,0
Time (ms),CH1 Auto-Correlation
1.0,0.02321418933570385
2.0,0.022797266021370888
3.0,0.022398345172405243
4.0,0.022017858922481537
5.0,0.021650858223438263
6.0,0.021290505304932594
7.0,0.020951297134160995
8.0,0.0206223763525486
9.0,0.020302338525652885
10.0,0.019982581958174706
11.0,0.01966824382543564
12.0,0.01935022883117199
13.0,0.019029127433896065
14.0,0.018729425966739655
15.0,0.018447373062372208
16.0,0.018176119774580002
18.0,0.01766527071595192
20.0,0.017160285264253616
22.0,0.016665495932102203
24.0,0.01620541140437126
26.0,0.015752963721752167
28.0,0.01531799603253603
30.0,0.014933060854673386
32.0,0.014553092420101166
36.0,0.013856066390872002
40.0,0.013221506960690022
44.0,0.012676656246185303
48.0,0.012145936489105225
52.0,0.011628840118646622
56.0,0.011166094802320004
60.0,0.01077495887875557
64.0,0.01045762374997139
72.0,0.009801717475056648
80.0,0.009086085483431816
88.0,0.008385034278035164
96.0,0.007868045940995216
104.0,0.007618728093802929
112.0,0.0073922122828662395
120.0,0.0071817422285676
128.0,0.006940355524420738
144.0,0.006492149084806442
160.0,0.005983724258840084
176.0,0.005592133849859238
192.0,0.005166646558791399
208.0,0.004890452139079571
224.0,0.004922352731227875
240.0,0.004742986522614956
256.0,0.004412825219333172
288.0,0.0038372515700757504
320.0,0.0026745027862489223
352.0,0.001611874671652913
384.0,0.0013446963857859373
416.0,0.0020360846538096666
448.0,0.003163505345582962
480.0,0.0042214421555399895
512.0,0.00483588594943285
576.0,0.003992097452282906
640.0,0.003130923258140683
704.0,0.003350628772750497
768.0,0.0017204497708007693
832.0,0.0005144564784131944
896.0,-3.2098323572427034e-05
960.0,-0.000503700110130012
1024.0,-0.0004363083280622959
1152.0,-0.0005912006017751992
1280.0,-0.0007823480991646647
1408.0,-0.001370159676298499
1536.0,-0.0020754074212163687
1664.0,-0.0015172348357737064
1792.0,0.0005425839335657656
1920.0,0.000542672467418015
2048.0,-0.0007514600874856114
2304.0,0.0007767865899950266
2560.0,0.00023610152129549533
2816.0,0.0016265405574813485
3072.0,0.0009519310551695526
3328.0,-0.00028917554300278425
3584.0,0.0003988895914517343
3840.0,0.0019427824299782515
4096.0,0.0008784888777881861
4608.0,-0.0007706449832767248
5120.0,-0.0003085531934630126
5632.0,0.001846406958065927
6144.0,0.0033973590470850468
6656.0,0.000756099063437432
7168.0,-0.0023993253707885742
7680.0,-0.0018021382857114077
8192.0,-0.0007935161120258272
9216.0,-0.002611110219731927
10240.0,-0.002783961594104767
11264.0,-0.002217521658167243
12288.0,-0.0004140489618293941
13312.0,-0.0012833954533562064
14336.0,-0.0009716522181406617
end
