version,3.0
numOfCh,1
type,point
parent_name,20-cuts
ch_type,1_1
kcount,1
numberNandB,1
brightnessNandB,1
carpet pos,0
pc,0
Time (ms),CH1 Auto-Correlation
1.0,0.06494753807783127
2.0,0.06360464543104172
3.0,0.06229693815112114
4.0,0.06103966385126114
5.0,0.05981818959116936
6.0,0.05861459672451019
7.0,0.05745207145810127
8.0,0.056319743394851685
9.0,0.05524378642439842
10.0,0.05419688671827316
11.0,0.053144749253988266
12.0,0.05213768035173416
13.0,0.051183655858039856
14.0,0.050220027565956116
15.0,0.049260079860687256
16.0,0.048376087099313736
18.0,0.0467061810195446
20.0,0.04516889527440071
22.0,0.04371941462159157
24.0,0.042369212955236435
26.0,0.04104382544755936
28.0,0.039699994027614594
30.0,0.03845809027552605
32.0,0.03731342405080795
36.0,0.03543420881032944
40.0,0.03388756886124611
44.0,0.032512009143829346
48.0,0.03124445676803589
52.0,0.030036089941859245
56.0,0.02894478105008602
60.0,0.02784794382750988
64.0,0.02666885405778885
72.0,0.023935487493872643
80.0,0.02111172303557396
88.0,0.018718808889389038
96.0,0.0169471837580204
104.0,0.015268665738403797
112.0,0.01368686743080616
120.0,0.012256179004907608
128.0,0.010695207864046097
144.0,0.00811274629086256
160.0,0.006789688486605883
176.0,0.007397742941975594
192.0,0.006722826510667801
208.0,0.005507816094905138
224.0,0.004259429406374693
240.0,0.0038223087321966887
256.0,0.0030364752747118473
288.0,0.0022232600022107363
320.0,0.0022605755366384983
352.0,0.003609411884099245
384.0,0.003367617493495345
416.0,0.002329413313418627
448.0,0.00045732498983852565
480.0,-0.0003996804589405656
512.0,-0.001049367361702025
576.0,-0.001200448488816619
640.0,-0.0022527403198182583
704.0,-0.003848863998427987
768.0,-0.004079278092831373
832.0,-0.004402903374284506
896.0,-0.006795156747102737
960.0,-0.00788787379860878
1024.0,-0.008204523473978043
1152.0,-0.003795210039243102
1280.0,0.0005595959373749793
1408.0,0.00388660398311913
1536.0,0.00631215563043952
1664.0,0.002055410761386156
1792.0,0.0009827367030084133
1920.0,0.0027003709692507982
2048.0,0.002379156881943345
2304.0,-0.0027659456245601177
2560.0,-0.0024508743081241846
2816.0,-0.00030661161872558296
3072.0,-0.0001566706778248772
3328.0,0.0038019120693206787
3584.0,0.0006089177331887186
3840.0,-0.0025607887655496597
4096.0,-0.0034717144444584846
4608.0,-0.003988012205809355
5120.0,0.0014141584979370236
5632.0,-0.0001116953935706988
6144.0,-0.002521223621442914
6656.0,-0.001236029784195125
7168.0,0.0010641672415658832
7680.0,-8.71880110935308e-05
8192.0,-0.001152283395640552
9216.0,-0.006152483634650707
10240.0,0.005481807515025139
11264.0,-0.0008321548230014741
12288.0,-0.0014945914736017585
13312.0,0.002414779271930456
14336.0,-0.0002464237913955003
end
