version,3.0
numOfCh,1
type,point
parent_name,20-cuts
ch_type,1_1
kcount,1
numberNandB,1
brightnessNandB,1
carpet pos,0
pc,0
Time (ms),CH1 Auto-Correlation
1.0,0.0329568013548851
2.0,0.03236272931098938
3.0,0.031777240335941315
4.0,0.031218765303492546
5.0,0.03067276068031788
6.0,0.030153978615999222
7.0,0.029649289324879646
8.0,0.029162408784031868
9.0,0.028686178848147392
10.0,0.028218254446983337
11.0,0.027754217386245728
12.0,0.027305422350764275
13.0,0.02687135711312294
14.0,0.026461444795131683
15.0,0.026066109538078308
16.0,0.02567354589700699
18.0,0.024937758222222328
20.0,0.024271057918667793
22.0,0.023640720173716545
24.0,0.02300785481929779
26.0,0.02238183282315731
28.0,0.021777117624878883
30.0,0.02117164060473442
32.0,0.020577359944581985
36.0,0.019486213102936745
40.0,0.018423911184072495
44.0,0.017458928748965263
48.0,0.016545193269848824
52.0,0.015776945278048515
56.0,0.01514701172709465
60.0,0.014572524465620518
64.0,0.01401098445057869
72.0,0.012888091616332531
80.0,0.01190587505698204
88.0,0.010945451445877552
96.0,0.009959032759070396
104.0,0.00899177510291338
112.0,0.008087893947958946
120.0,0.007133376784622669
128.0,0.006207232363522053
144.0,0.004415425471961498
160.0,0.003116049338132143
176.0,0.001887751161120832
192.0,0.0010475802700966597
208.0,0.0006056605488993227
224.0,0.0010816596914082766
240.0,0.0016546909464523196
256.0,0.001693700673058629
288.0,0.0007677901885472238
320.0,0.001249187160283327
352.0,0.002546933712437749
384.0,0.003558635711669922
416.0,0.003575604874640703
448.0,0.0036743355449289083
480.0,0.004634584300220013
512.0,0.0051657347939908504
576.0,0.00368309929035604
640.0,0.0023674482945352793
704.0,0.0013101765653118491
768.0,0.0005741001223213971
832.0,0.0016326861223205924
896.0,0.00294955144636333
960.0,0.0026006335392594337
1024.0,0.002103701699525118
1152.0,-0.00042046193266287446
1280.0,0.0003602377837523818
1408.0,0.004354018252342939
1536.0,0.0020031542517244816
1664.0,-0.0005821326049044728
1792.0,-0.00028910531545989215
1920.0,-0.0007906099781394005
2048.0,-0.0019469093531370163
2304.0,-0.00044864125084131956
2560.0,-0.00011617167183430865
2816.0,-0.00021708733402192593
3072.0,-0.0019426291109994054
3328.0,-0.0004469212726689875
3584.0,-0.0018528202781453729
3840.0,-0.0009672720334492624
4096.0,-1.505125169387611e-06
4608.0,-0.0006926399073563516
5120.0,-0.0010875551961362362
5632.0,-0.002531934529542923
6144.0,-0.001039027818478644
6656.0,0.0017068745801225305
7168.0,0.0016424756031483412
7680.0,0.003107903990894556
8192.0,0.0030019155237823725
9216.0,-5.048234015703201e-05
10240.0,-0.002465867670252919
11264.0,-0.0006059234729036689
12288.0,-0.001671264530159533
13312.0,-0.007146811578422785
14336.0,-0.007896664552390575
end
