version,3.0
numOfCh,1
type,point
parent_name,20-cuts
ch_type,1_1
kcount,1
numberNandB,1
brightnessNandB,1
carpet pos,0
pc,0
Time (ms),CH1 Auto-Correlation
1.0,0.023571208119392395
2.0,0.023152556270360947
3.0,0.022757429629564285
4.0,0.0223762895911932
5.0,0.022007329389452934
6.0,0.02165614813566208
7.0,0.021304724738001823
8.0,0.02096700295805931
9.0,0.0206476878374815
10.0,0.02033875323832035
11.0,0.02004718780517578
12.0,0.019774677231907845
13.0,0.01950075477361679
14.0,0.019230525940656662
15.0,0.01896805688738823
16.0,0.018718935549259186
18.0,0.018267694860696793
20.0,0.017844468355178833
22.0,0.017446456477046013
24.0,0.017078684642910957
26.0,0.016720622777938843
28.0,0.01635459065437317
30.0,0.016000648960471153
32.0,0.01566818729043007
36.0,0.015010256320238113
40.0,0.014370855875313282
44.0,0.013790163211524487
48.0,0.013274073600769043
52.0,0.012844821438193321
56.0,0.01245390810072422
60.0,0.012067150324583054
64.0,0.011709610000252724
72.0,0.011130435392260551
80.0,0.010612609796226025
88.0,0.010110903531312943
96.0,0.009579000063240528
104.0,0.008986284025013447
112.0,0.00841259304434061
120.0,0.00784146599471569
128.0,0.007313928101211786
144.0,0.006414102856069803
160.0,0.00564627256244421
176.0,0.0049343472346663475
192.0,0.004393670242279768
208.0,0.004089831840246916
224.0,0.003864837111905217
240.0,0.0033514704555273056
256.0,0.0026608414482325315
288.0,0.0020583418663591146
320.0,0.0017868634313344955
352.0,0.001482494524680078
384.0,0.0016441898187622428
416.0,0.0023241713643074036
448.0,0.0024687545374035835
480.0,0.002276194514706731
512.0,0.002202904550358653
576.0,0.002009413205087185
640.0,0.0012714669574052095
704.0,-0.000886160007212311
768.0,-0.001003510900773108
832.0,-0.0014109840849414468
896.0,-0.00183077622205019
960.0,-0.001990483608096838
1024.0,-0.002279812004417181
1152.0,-0.0018364733550697565
1280.0,-0.003005283186212182
1408.0,-0.003079833462834358
1536.0,-0.0025777711998671293
1664.0,-0.003648035693913698
1792.0,-0.0037132762372493744
1920.0,-0.0030635169241577387
2048.0,-0.0015960478922352195
2304.0,0.0013174117775633931
2560.0,0.0016894428990781307
2816.0,0.001965918578207493
3072.0,0.000649854599032551
3328.0,0.00013272051000967622
3584.0,-0.00144815759267658
3840.0,-0.0001260441931663081
4096.0,0.0024678553454577923
4608.0,0.0008171533700078726
5120.0,0.0009410687489435077
5632.0,-0.001862589386291802
6144.0,-0.003456545528024435
6656.0,-0.0021454922389239073
7168.0,0.002420570934191346
7680.0,0.004105198662728071
8192.0,-0.0006917511927895248
9216.0,-0.0021443015430122614
10240.0,0.003464088309556246
11264.0,-0.0027426360175013542
12288.0,0.00017019450024235994
13312.0,0.0007577274227514863
14336.0,-0.0023752166889607906
end
