version,3.0
numOfCh,1
type,point
parent_name,20-cuts
ch_type,1_1
kcount,1
numberNandB,1
brightnessNandB,1
carpet pos,0
pc,0
Time (ms),CH1 Auto-Correlation
1.0,0.034271273761987686
2.0,0.03365294262766838
3.0,0.033058032393455505
4.0,0.03250069171190262
5.0,0.03194722533226013
6.0,0.03140291944146156
7.0,0.03085765801370144
8.0,0.030317362397909164
9.0,0.02979097329080105
10.0,0.029265420511364937
11.0,0.028756901621818542
12.0,0.028260869905352592
13.0,0.027764778584241867
14.0,0.02729065716266632
15.0,0.026827700436115265
16.0,0.026379553601145744
18.0,0.02547498792409897
20.0,0.024626584723591805
22.0,0.023804286494851112
24.0,0.023005286231637
26.0,0.022297704592347145
28.0,0.021628687158226967
30.0,0.020996997132897377
32.0,0.0204189233481884
36.0,0.01926581934094429
40.0,0.018202083185315132
44.0,0.017212551087141037
48.0,0.016327576711773872
52.0,0.015530743636190891
56.0,0.014769828878343105
60.0,0.01403037179261446
64.0,0.01335153542459011
72.0,0.012385847046971321
80.0,0.011783895082771778
88.0,0.011246253736317158
96.0,0.010748052969574928
104.0,0.010270067490637302
112.0,0.009880666621029377
120.0,0.009384967386722565
128.0,0.009036833420395851
144.0,0.008129145950078964
160.0,0.007135557476431131
176.0,0.006218161899596453
192.0,0.00513641070574522
208.0,0.00431404123082757
224.0,0.003274105256423354
240.0,0.002039520302787423
256.0,0.001080139190889895
288.0,0.000228322169277817
320.0,-0.000398181815398857
352.0,-0.0005701666814275086
384.0,-0.0002968751941807568
416.0,-0.0007929890416562557
448.0,-0.0017052997136488557
480.0,-0.0014471568865701556
512.0,-0.0020958930253982544
576.0,-0.0034164171665906906
640.0,-0.0038262249436229467
704.0,-0.003847363404929638
768.0,-0.004775619599968195
832.0,-0.0034764816518872976
896.0,-0.003791174851357937
960.0,-0.0035341023467481136
1024.0,-0.0017754817381501198
1152.0,-0.00031408187351189554
1280.0,0.0012689913855865598
1408.0,-0.00022244716819841415
1536.0,-0.0015886335168033838
1664.0,-0.0029516417998820543
1792.0,0.0005176453851163387
1920.0,0.0007801821338944137
2048.0,-0.001565942307934165
2304.0,0.00033313181484118104
2560.0,0.0009615342132747173
2816.0,-0.0009601268102414906
3072.0,0.0013196708168834448
3328.0,0.003067438956350088
3584.0,0.002346950815990567
3840.0,-0.0017903909320011735
4096.0,-0.00386278354562819
4608.0,-0.0011442266404628754
5120.0,-0.0016662694979459047
5632.0,0.002692763926461339
6144.0,0.00022030195395927876
6656.0,-0.00039481621934100986
7168.0,-0.0016003054333850741
7680.0,-0.0018900284776464105
8192.0,0.0027934343088418245
9216.0,0.0003522027109283954
10240.0,-0.0023856270126998425
11264.0,0.0010638184612616897
12288.0,-0.0018448041519150138
13312.0,0.00248341029509902
14336.0,-0.0014784502563998103
end
