version,3.0
numOfCh,1
type,point
parent_name,20-cuts
ch_type,1_1
kcount,1
numberNandB,1
brightnessNandB,1
carpet pos,0
pc,0
Time (ms),CH1 Auto-Correlation
1.0,0.07617219537496567
2.0,0.07490948587656021
3.0,0.07367540895938873
4.0,0.07248256355524063
5.0,0.07133938372135162
6.0,0.0702388733625412
7.0,0.06920367479324341
8.0,0.06819601356983185
9.0,0.06720904260873795
10.0,0.06627236306667328
11.0,0.0653485581278801
12.0,0.0644550696015358
13.0,0.06357604265213013
14.0,0.06275252997875214
15.0,0.06195354834198952
16.0,0.06116588041186333
18.0,0.05964595451951027
20.0,0.058213334530591965
22.0,0.056833721697330475
24.0,0.055530790239572525
26.0,0.05424993857741356
28.0,0.053092170506715775
30.0,0.05196401849389076
32.0,0.05092627927660942
36.0,0.04897734895348549
40.0,0.04702206701040268
44.0,0.044972360134124756
48.0,0.04296672344207764
52.0,0.04101528972387314
56.0,0.03923051431775093
60.0,0.03771704062819481
64.0,0.03645089268684387
72.0,0.033918555825948715
80.0,0.031702566891908646
88.0,0.029117528349161148
96.0,0.02674226462841034
104.0,0.02461417019367218
112.0,0.02239488996565342
120.0,0.02027195692062378
128.0,0.01841682568192482
144.0,0.014814427122473717
160.0,0.011520673520863056
176.0,0.009017097763717175
192.0,0.006410257425159216
208.0,0.004116691183298826
224.0,0.002648675814270973
240.0,0.002278056461364031
256.0,0.0010810480453073978
288.0,0.00048162430175580084
320.0,-0.0012159415055066347
352.0,-0.003567472565919161
384.0,-0.0051289331167936325
416.0,-0.004558359272778034
448.0,-0.003927804529666901
480.0,-0.0014020258095115423
512.0,0.002002428052946925
576.0,0.005367646459490061
640.0,0.005429442040622234
704.0,0.00414964510127902
768.0,0.0008093846263363957
832.0,0.00021175708388909698
896.0,-0.001387483556754887
960.0,0.0013807305367663503
1024.0,0.004650462418794632
1152.0,0.003657401306554675
1280.0,0.0067010559141635895
1408.0,-0.0006283905822783709
1536.0,0.00011444598203524947
1664.0,-0.002696770476177335
1792.0,-0.00048121457803063095
1920.0,-0.004616744350641966
2048.0,-0.0016122168162837625
2304.0,-0.004284842871129513
2560.0,-0.006581895984709263
2816.0,-0.0021972826216369867
3072.0,-0.0011427100980654359
3328.0,-0.008343652822077274
3584.0,-0.0038945770356804132
3840.0,-0.013621538877487183
4096.0,-0.0031870969105511904
4608.0,0.0014782672515138984
5120.0,0.0014788922853767872
5632.0,0.00012201361823827028
6144.0,0.0014978661201894283
6656.0,0.004701001103967428
7168.0,0.007544894702732563
7680.0,0.004280610475689173
8192.0,0.0022557086776942015
9216.0,-0.003313975175842643
10240.0,-0.009737645275890827
11264.0,-0.006538136396557093
12288.0,0.005048540886491537
13312.0,-0.002200164832174778
14336.0,0.011785130016505718
end
