version,3.0
numOfCh,1
type,point
parent_name,20-cuts
ch_type,1_1
kcount,1
numberNandB,1
brightnessNandB,1
carpet pos,0
pc,0
Time (ms),CH1 Auto-Correlation
1.0,0.033644918352365494
2.0,0.032966773957014084
3.0,0.03231121972203255
4.0,0.031671907752752304
5.0,0.031044883653521538
6.0,0.030449671670794487
7.0,0.029866104945540428
8.0,0.029301833361387253
9.0,0.028770048171281815
10.0,0.028253111988306046
11.0,0.027743766084313393
12.0,0.027242062613368034
13.0,0.026764001697301865
14.0,0.02629232406616211
15.0,0.025814520195126534
16.0,0.025333309546113014
18.0,0.02445446327328682
20.0,0.023622628301382065
22.0,0.022820813581347466
24.0,0.02204422652721405
26.0,0.02131379023194313
28.0,0.020666437223553658
30.0,0.02009900100529194
32.0,0.019560594111680984
36.0,0.018448609858751297
40.0,0.017479348927736282
44.0,0.016671067103743553
48.0,0.016057521104812622
52.0,0.015472790226340294
56.0,0.014942982234060764
60.0,0.014441821724176407
64.0,0.013948287814855576
72.0,0.013314192183315754
80.0,0.012813583947718143
88.0,0.012285763397812843
96.0,0.011886884458363056
104.0,0.01156175322830677
112.0,0.011317691765725613
120.0,0.010874129831790924
128.0,0.010434990748763084
144.0,0.009638221934437752
160.0,0.00895420927554369
176.0,0.0084296939894557
192.0,0.0077223205007612705
208.0,0.007396617438644171
224.0,0.007377530913800001
240.0,0.007167947478592396
256.0,0.006615575402975082
288.0,0.00480040954425931
320.0,0.003978519234806299
352.0,0.00370477675460279
384.0,0.003121885471045971
416.0,0.0031695771031081676
448.0,0.0037268728483468294
480.0,0.0045570083893835545
512.0,0.004183751996606588
576.0,0.0024643295910209417
640.0,0.004121956881135702
704.0,0.004079950507730246
768.0,0.003573781345039606
832.0,0.0019371852977201343
896.0,0.0019126812694594264
960.0,0.00022893269488122314
1024.0,-0.000542885740287602
1152.0,-0.00019562091620173305
1280.0,-0.0018912445520982146
1408.0,-0.002893970115110278
1536.0,-0.00016923228395171463
1664.0,0.0015361503465101123
1792.0,0.001354734762571752
1920.0,-0.00047667257604189217
2048.0,-0.0014124357840046287
2304.0,-0.0002674284914974123
2560.0,-0.00014914620260242373
2816.0,-0.0010174037888646126
3072.0,-0.0005974438972771168
3328.0,0.0009910967200994492
3584.0,0.001724954228848219
3840.0,-0.0017555954400449991
4096.0,-0.0005667708464898169
4608.0,-0.00047694254317320883
5120.0,-0.0010711095528677106
5632.0,-0.004450858570635319
6144.0,-0.0038866300601512194
6656.0,-0.0018721673404797912
7168.0,0.0005624730256386101
7680.0,0.0025029643438756466
8192.0,0.0020302829798310995
9216.0,0.0014406356494873762
10240.0,-0.00372509378939867
11264.0,0.006024822127074003
12288.0,0.00031598200439475477
13312.0,-0.007402785588055849
14336.0,-0.007886410690844059
end
