version,3.0
numOfCh,1
type,point
parent_name,20-cuts
ch_type,1_1
kcount,1
numberNandB,1
brightnessNandB,1
carpet pos,0
pc,0
Time (ms),CH1 Auto-Correlation
1.0,0.030227262526750565
2.0,0.02962096780538559
3.0,0.029025519266724586
4.0,0.028452608734369278
5.0,0.027909504249691963
6.0,0.027394330129027367
7.0,0.026888413354754448
8.0,0.026417125016450882
9.0,0.02596684917807579
10.0,0.02553042210638523
11.0,0.025122759863734245
12.0,0.024732831865549088
13.0,0.024357318878173828
14.0,0.023999599739909172
15.0,0.023664791136980057
16.0,0.02332453243434429
18.0,0.02266019769012928
20.0,0.022077664732933044
22.0,0.021538754925131798
24.0,0.0210161991417408
26.0,0.02047729305922985
28.0,0.01995442621409893
30.0,0.019442914053797722
32.0,0.01893760822713375
36.0,0.01800449937582016
40.0,0.017119191586971283
44.0,0.01627938076853752
48.0,0.015552080236375332
52.0,0.014876628294587135
56.0,0.014263663440942764
60.0,0.013655906543135643
64.0,0.013036739081144333
72.0,0.011763169430196285
80.0,0.010585007257759571
88.0,0.00969524122774601
96.0,0.008842307142913342
104.0,0.008012359030544758
112.0,0.007196719292551279
120.0,0.006521400064229965
128.0,0.005743041168898344
144.0,0.004162273369729519
160.0,0.0033533184323459864
176.0,0.002671990543603897
192.0,0.0019038773607462645
208.0,0.0012151114642620087
224.0,0.0009010820649564266
240.0,0.0005246798391453922
256.0,0.0001423209614586085
288.0,0.0002958219265565276
320.0,0.0004393821000121534
352.0,-0.0001588089799042791
384.0,-0.0008730015833862126
416.0,-0.0010797868017107248
448.0,-0.0014168770285323262
480.0,-0.001080149202607572
512.0,-0.00076611980330199
576.0,-0.0017846778500825167
640.0,-0.0018126183422282338
704.0,-0.0005087368190288544
768.0,0.0004917916376143694
832.0,0.0012882238952443004
896.0,0.0030682110227644444
960.0,0.0028960572089999914
1024.0,0.0025939205661416054
1152.0,0.0014482417609542608
1280.0,0.00046744305291213095
1408.0,7.578775694128126e-05
1536.0,0.0003401895228307694
1664.0,-0.0015437091933563352
1792.0,-0.0009578883182257414
1920.0,-0.001306723104789853
2048.0,-0.0011953528737649322
2304.0,-0.0006491050589829683
2560.0,0.001059786998666823
2816.0,0.0010584633564576507
3072.0,-0.0005176886916160583
3328.0,-0.001230447320267558
3584.0,0.0007872951100580394
3840.0,0.0016063577495515347
4096.0,-0.001152524841018021
4608.0,-0.0023305583745241165
5120.0,-0.0007925016107037663
5632.0,-0.0014307757373899221
6144.0,0.000834549602586776
6656.0,-0.0008786643738858402
7168.0,-0.0020138428080826998
7680.0,-0.0023708937224000692
8192.0,-0.0033415311481803656
9216.0,0.0005415744381025434
10240.0,0.00202522287145257
11264.0,0.0006697468925267458
12288.0,-0.001236404525116086
13312.0,4.48199989477871e-06
14336.0,0.0017389551503583789
end
