version,3.0
numOfCh,1
type,point
parent_name,20-cuts
ch_type,1_1
kcount,1
numberNandB,1
brightnessNandB,1
carpet pos,0
pc,0
Time (ms),CH1 Auto-Correlation
1.0,0.07193364948034286
2.0,0.07077451050281525
3.0,0.06969211250543594
4.0,0.06861734390258789
5.0,0.06754843145608902
6.0,0.0665501281619072
7.0,0.06558573246002197
8.0,0.06462457031011581
9.0,0.06371038407087326
10.0,0.062851183116436
11.0,0.06204071640968323
12.0,0.06128717213869095
13.0,0.06056022271513939
14.0,0.059872761368751526
15.0,0.05918099358677864
16.0,0.05848907306790352
18.0,0.0571182556450367
20.0,0.055801793932914734
22.0,0.0544680617749691
24.0,0.05318833515048027
26.0,0.05197054520249367
28.0,0.05081179365515709
30.0,0.04967008903622627
32.0,0.048548970371484756
36.0,0.04644851014018059
40.0,0.04456120356917381
44.0,0.04288239777088165
48.0,0.041317254304885864
52.0,0.03976823762059212
56.0,0.03837377205491066
60.0,0.03699682280421257
64.0,0.03575187921524048
72.0,0.03340591862797737
80.0,0.031476788222789764
88.0,0.029863281175494194
96.0,0.02819293737411499
104.0,0.02651902101933956
112.0,0.02533324807882309
120.0,0.0246282871812582
128.0,0.023437917232513428
144.0,0.021414315328001976
160.0,0.01934976503252983
176.0,0.016536224633455276
192.0,0.013726238161325455
208.0,0.01127074845135212
224.0,0.008722387254238129
240.0,0.006310374476015568
256.0,0.004838097374886274
288.0,0.003970862831920385
320.0,0.0018667246913537383
352.0,-0.00034482404589653015
384.0,-0.0014206847408786416
416.0,-0.0002817803469952196
448.0,-9.921726450556889e-05
480.0,-0.0005621585878543556
512.0,-0.0020808058325201273
576.0,-0.003088267520070076
640.0,-0.004773703869432211
704.0,-0.0021395853254944086
768.0,-0.0024850289337337017
832.0,-0.004439089447259903
896.0,-0.006862312089651823
960.0,-0.00695039751008153
1024.0,-0.004897266160696745
1152.0,-0.002025781897827983
1280.0,6.518595910165459e-05
1408.0,0.004757211543619633
1536.0,-0.005359272006899118
1664.0,-0.011417855508625507
1792.0,-0.012716058641672134
1920.0,-0.00047392884152941406
2048.0,0.00598711334168911
2304.0,0.009621581993997097
2560.0,0.003002190263941884
2816.0,-0.0023677563294768333
3072.0,-0.009243112988770008
3328.0,-0.0030367420986294746
3584.0,0.002554277889430523
3840.0,-0.004848839249461889
4096.0,-0.00033340652589686215
4608.0,-0.0002500292903278023
5120.0,-0.009300005622208118
5632.0,-0.00814927276223898
6144.0,0.007828851230442524
6656.0,0.007993409410119057
7168.0,-0.002720422111451626
7680.0,-0.010864152573049068
8192.0,0.00173339678440243
9216.0,0.006527327932417393
10240.0,0.0007025373633950949
11264.0,-0.002084737876430154
12288.0,-0.0048163640312850475
13312.0,-0.003740304848179221
14336.0,-0.013283375650644302
end
