version,3.0
numOfCh,1
type,point
parent_name,20-cuts
ch_type,1_1
kcount,1
numberNandB,1
brightnessNandB,1
carpet pos,0
pc,0
Time (ms),CH1 Auto-Correlation
1.0,0.030541693791747093
2.0,0.029955826699733734
3.0,0.02940828911960125
4.0,0.028867207467556
5.0,0.028337644413113594
6.0,0.027831701561808586
7.0,0.027324018999934196
8.0,0.02681676857173443
9.0,0.026328856125473976
10.0,0.02585076354444027
11.0,0.025391489267349243
12.0,0.024925390258431435
13.0,0.02449546940624714
14.0,0.024081673473119736
15.0,0.023670639842748642
16.0,0.023279057815670967
18.0,0.02259157970547676
20.0,0.02194438874721527
22.0,0.021329112350940704
24.0,0.020751003175973892
26.0,0.02016892284154892
28.0,0.019585726782679558
30.0,0.01901361346244812
32.0,0.018484655767679214
36.0,0.017552880570292473
40.0,0.01670844294130802
44.0,0.015895798802375793
48.0,0.01512369979172945
52.0,0.014391939155757427
56.0,0.013747655786573887
60.0,0.013145612552762032
64.0,0.012570111081004143
72.0,0.011616689153015614
80.0,0.010963433422148228
88.0,0.010358098894357681
96.0,0.00988801009953022
104.0,0.009463021531701088
112.0,0.008994902484118938
120.0,0.008667616173624992
128.0,0.00852394662797451
144.0,0.008040647953748703
160.0,0.007499814964830875
176.0,0.007191792596131563
192.0,0.006942827720195055
208.0,0.006171362940222025
224.0,0.005052892956882715
240.0,0.004104255232959986
256.0,0.004179826937615871
288.0,0.0033389762975275517
320.0,0.0025472033303231
352.0,0.0019119329517707229
384.0,0.0018735321937128901
416.0,0.0017953377682715654
448.0,0.002505952026695013
480.0,0.0030438757967203856
512.0,0.003103134920820594
576.0,0.0022887978702783585
640.0,0.003765881760045886
704.0,0.003030078485608101
768.0,0.0022635285276919603
832.0,0.0030459342524409294
896.0,0.002424726728349924
960.0,0.001696171355433762
1024.0,-9.781305152500863e-07
1152.0,-0.0010057096369564533
1280.0,-0.0010832748375833035
1408.0,-0.0023423011880367994
1536.0,-0.0032027598936110735
1664.0,-0.002593063749372959
1792.0,-0.0036841805558651686
1920.0,-0.006001605186611414
2048.0,-0.004894058685749769
2304.0,-0.0009907255880534649
2560.0,0.00014675983402412385
2816.0,-0.0008868667064234614
3072.0,-0.001463832799345255
3328.0,0.0011246672365814447
3584.0,0.0020628131460398436
3840.0,0.0025825335178524256
4096.0,0.0008427839493378997
4608.0,0.0007641832926310599
5120.0,-0.0016283210134133697
5632.0,-0.004058703314512968
6144.0,-0.0034973497968167067
6656.0,-0.0034093561116605997
7168.0,0.0020226254127919674
7680.0,0.0032332302071154118
8192.0,0.004038976971060038
9216.0,-7.338777504628524e-05
10240.0,-0.0005858236690983176
11264.0,0.0008000709931366146
12288.0,-0.0010911405552178621
13312.0,-0.0023674292024224997
14336.0,-0.0005201876047067344
end
