version,3.0
numOfCh,1
type,point
parent_name,20-cuts
ch_type,1_1
kcount,1
numberNandB,1
brightnessNandB,1
carpet pos,0
pc,0
Time (ms),CH1 Auto-Correlation
1.0,0.026895198971033096
2.0,0.026451202109456062
3.0,0.026021495461463928
4.0,0.02561327815055847
5.0,0.025209687650203705
6.0,0.02483021840453148
7.0,0.024474337697029114
8.0,0.024135254323482513
9.0,0.02379610203206539
10.0,0.023461906239390373
11.0,0.023132186383008957
12.0,0.02280961535871029
13.0,0.022494863718748093
14.0,0.022186703979969025
15.0,0.021895216777920723
16.0,0.021606219932436943
18.0,0.021078670397400856
20.0,0.02058585360646248
22.0,0.020117362961173058
24.0,0.019670462235808372
26.0,0.01925065368413925
28.0,0.01885737106204033
30.0,0.018500298261642456
32.0,0.018161773681640625
36.0,0.017518971115350723
40.0,0.016894500702619553
44.0,0.016244886443018913
48.0,0.015608124434947968
52.0,0.014963100664317608
56.0,0.01439626794308424
60.0,0.01385950855910778
64.0,0.013372962363064289
72.0,0.01247089821845293
80.0,0.011439410969614983
88.0,0.010304246097803116
96.0,0.00945226103067398
104.0,0.008822067640721798
112.0,0.008229195140302181
120.0,0.007713471073657274
128.0,0.007276310585439205
144.0,0.006680376827716827
160.0,0.00629118038341403
176.0,0.006136958487331867
192.0,0.006196979433298111
208.0,0.006328917574137449
224.0,0.006641344167292118
240.0,0.007063342723995447
256.0,0.007300516590476036
288.0,0.0063935318030416965
320.0,0.004503186792135239
352.0,0.002812235848978162
384.0,0.0018097455613315105
416.0,0.0006688764551654458
448.0,0.0002457322261761874
480.0,0.0008257451700046659
512.0,0.0018971733516082168
576.0,0.0022282765712589025
640.0,0.0006887837080284953
704.0,-0.0008419452933594584
768.0,-0.0018927020719274879
832.0,-0.0026107057929039
896.0,-0.004866292234510183
960.0,-0.006395893171429634
1024.0,-0.005474411882460117
1152.0,-0.004523184150457382
1280.0,-0.002858596621081233
1408.0,-0.0007901409408077598
1536.0,0.00153504335321486
1664.0,0.003397782566025853
1792.0,0.0033845356665551662
1920.0,0.003452263306826353
2048.0,0.002202478237450123
2304.0,0.0006591624114662409
2560.0,-0.0014464793493971229
2816.0,-0.003827245207503438
3072.0,-0.002943317173048854
3328.0,-0.0008677773294039071
3584.0,0.00030376415816135705
3840.0,0.0028492193669080734
4096.0,0.0009861866710707545
4608.0,-0.0034833161626011133
5120.0,-0.0011432691244408488
5632.0,0.0005556105170398951
6144.0,-0.002360294573009014
6656.0,0.0003440729924477637
7168.0,0.0022446420043706894
7680.0,-0.0012364157009869814
8192.0,-0.0008234081324189901
9216.0,0.001132266246713698
10240.0,0.0030056859832257032
11264.0,-0.0027497271075844765
12288.0,-0.0014883007388561964
13312.0,-0.0026943914126604795
14336.0,-0.004503101576119661
end
