version,3.0
numOfCh,1
type,point
parent_name,20-cuts
ch_type,1_1
kcount,1
numberNandB,1
brightnessNandB,1
carpet pos,0
pc,0
Time (ms),CH1 Auto-Correlation
1.0,0.06400707364082336
2.0,0.06283728033304214
3.0,0.06170227378606796
4.0,0.06059718877077103
5.0,0.05954286456108093
6.0,0.05852983519434929
7.0,0.057551972568035126
8.0,0.056590158492326736
9.0,0.05567990988492966
10.0,0.05478456988930702
11.0,0.053932029753923416
12.0,0.053112585097551346
13.0,0.052331894636154175
14.0,0.05155887454748154
15.0,0.050834156572818756
16.0,0.05009562522172928
18.0,0.04871504008769989
20.0,0.0474468357861042
22.0,0.0462222620844841
24.0,0.045078128576278687
26.0,0.04393799975514412
28.0,0.04286089912056923
30.0,0.041839711368083954
32.0,0.040785495191812515
36.0,0.03890097513794899
40.0,0.03724871948361397
44.0,0.035567909479141235
48.0,0.03397282958030701
52.0,0.03251596540212631
56.0,0.031189225614070892
60.0,0.029911048710346222
64.0,0.028812026605010033
72.0,0.027406515553593636
80.0,0.026265861466526985
88.0,0.02492486871778965
96.0,0.023827631026506424
104.0,0.022675074636936188
112.0,0.021419430151581764
120.0,0.01953107677400112
128.0,0.017156239598989487
144.0,0.01401222962886095
160.0,0.012798329815268517
176.0,0.011400938034057617
192.0,0.009757126681506634
208.0,0.008254232816398144
224.0,0.006526086945086718
240.0,0.004999284632503986
256.0,0.004594243597239256
288.0,0.0030709856655448675
320.0,0.0026693118270486593
352.0,0.001977472333237529
384.0,0.00046419232967309654
416.0,-2.4223054424510337e-05
448.0,-0.0005632859538309276
480.0,-0.0016758335987105966
512.0,-0.0012408405309543014
576.0,-0.0018969358643516898
640.0,-0.0019650799222290516
704.0,-3.4001917811110616e-05
768.0,0.0022953783627599478
832.0,0.0019209668971598148
896.0,0.0024009826593101025
960.0,0.001177614787593484
1024.0,0.002962615108117461
1152.0,-1.4633158571086824e-05
1280.0,0.0005097833345644176
1408.0,-0.00018714548787102103
1536.0,0.0012039638822898269
1664.0,0.0013547972775995731
1792.0,0.0011477310908958316
1920.0,0.0012161636259406805
2048.0,-0.004038579761981964
2304.0,-0.002619302598759532
2560.0,0.0026412480510771275
2816.0,-0.004888886585831642
3072.0,-0.008454158902168274
3328.0,-0.0032719618175178766
3584.0,0.005663187708705664
3840.0,-0.0005588678759522736
4096.0,0.0009327423758804798
4608.0,-0.0014610750367864966
5120.0,0.004320962354540825
5632.0,0.004445621278136969
6144.0,0.00022058875765651464
6656.0,0.001351941959001124
7168.0,-0.0018464988097548485
7680.0,-0.007531072944402695
8192.0,-0.0029363560024648905
9216.0,-0.001516144722700119
10240.0,-0.0026448017451912165
11264.0,-0.0032313144765794277
12288.0,0.0024242859799414873
13312.0,-0.011108247563242912
14336.0,-0.0011854764306917787
end
