version,3.0
numOfCh,1
type,point
parent_name,20-cuts
ch_type,1_1
kcount,1
numberNandB,1
brightnessNandB,1
carpet pos,0
pc,0
Time (ms),CH1 Auto-Correlation
1.0,0.033069077879190445
2.0,0.03246227279305458
3.0,0.03187594190239906
4.0,0.03130326047539711
5.0,0.03076326474547386
6.0,0.03024471364915371
7.0,0.02973540872335434
8.0,0.029240407049655914
9.0,0.028765549883246422
10.0,0.028304612264037132
11.0,0.027867339551448822
12.0,0.02743586339056492
13.0,0.02700946107506752
14.0,0.02658979594707489
15.0,0.02617468498647213
16.0,0.02578403614461422
18.0,0.025020144879817963
20.0,0.02434258908033371
22.0,0.023709852248430252
24.0,0.023089788854122162
26.0,0.022486619651317596
28.0,0.021858051419258118
30.0,0.02125057391822338
32.0,0.020689504221081734
36.0,0.019667813554406166
40.0,0.018723739311099052
44.0,0.01787555404007435
48.0,0.01699732057750225
52.0,0.01610647700726986
56.0,0.015314274467527866
60.0,0.014598662033677101
64.0,0.013932397589087486
72.0,0.012706521898508072
80.0,0.011546769179403782
88.0,0.0105127589777112
96.0,0.009569257497787476
104.0,0.008799079805612564
112.0,0.008188629522919655
120.0,0.0077271549962460995
128.0,0.007307230960577726
144.0,0.006250194739550352
160.0,0.005657684989273548
176.0,0.0057050506584346294
192.0,0.005862295627593994
208.0,0.005784163251519203
224.0,0.005421391222625971
240.0,0.005385022610425949
256.0,0.005271756090223789
288.0,0.004694122821092606
320.0,0.003965210169553757
352.0,0.0030070242937654257
384.0,0.002657730830833316
416.0,0.002166873076930642
448.0,0.0022651103790849447
480.0,0.0025367499329149723
512.0,0.0025318851694464684
576.0,0.0017763270298019052
640.0,0.0011551188072189689
704.0,0.0002641849569045007
768.0,0.00014944733993615955
832.0,0.00047500472282990813
896.0,-0.0003698631771840155
960.0,-0.0004897889448329806
1024.0,-0.0009773795027285814
1152.0,-0.001490425318479538
1280.0,-0.0006715120980516076
1408.0,-0.00022850064851809293
1536.0,-0.0005309967091307044
1664.0,-0.002126700710505247
1792.0,-0.0027588086668401957
1920.0,-0.0019506046082824469
2048.0,-0.0015688649145886302
2304.0,-0.003436611033976078
2560.0,-0.0017396466573700309
2816.0,-0.0013867770321667194
3072.0,-0.0014882686082273722
3328.0,0.0007475550519302487
3584.0,-0.0011080612894147635
3840.0,-0.0004991494934074581
4096.0,0.0012411539210006595
4608.0,0.0007384824566543102
5120.0,0.0013240922708064318
5632.0,-0.0008142143487930298
6144.0,-0.0012784970458596945
6656.0,-0.001977423671633005
7168.0,0.0008283735369332135
7680.0,0.0008403104729950428
8192.0,0.002134625567123294
9216.0,-0.0014044389827176929
10240.0,-0.0031830628868192434
11264.0,-0.0031139994971454144
12288.0,0.0015851097414270043
13312.0,0.0048248181119561195
14336.0,-0.002095674630254507
end
