version,3.0
numOfCh,1
type,point
parent_name,20-cuts
ch_type,1_1
kcount,1
numberNandB,1
brightnessNandB,1
carpet pos,0
pc,0
Time (ms),CH1 Auto-Correlation
1.0,0.031985290348529816
2.0,0.03137339651584625
3.0,0.030774205923080444
4.0,0.03019626811146736
5.0,0.029651686549186707
6.0,0.029135726392269135
7.0,0.028627200052142143
8.0,0.028121385723352432
9.0,0.027624934911727905
10.0,0.02714690752327442
11.0,0.02669662982225418
12.0,0.02626003883779049
13.0,0.02582871913909912
14.0,0.025397948920726776
15.0,0.024977797642350197
16.0,0.024581754580140114
18.0,0.02381225675344467
20.0,0.023098058998584747
22.0,0.022419709712266922
24.0,0.021799728274345398
26.0,0.02118309959769249
28.0,0.02060600183904171
30.0,0.020058682188391685
32.0,0.019548404961824417
36.0,0.018564919009804726
40.0,0.01769247092306614
44.0,0.016939295455813408
48.0,0.01633628085255623
52.0,0.015819579362869263
56.0,0.01536038238555193
60.0,0.014997635968029499
64.0,0.014624569565057755
72.0,0.013914575800299644
80.0,0.013196784071624279
88.0,0.0124375494197011
96.0,0.01152938324958086
104.0,0.01075909286737442
112.0,0.010408657602965832
120.0,0.01018644217401743
128.0,0.009923718869686127
144.0,0.009520810097455978
160.0,0.009391145780682564
176.0,0.009332612156867981
192.0,0.009572525508701801
208.0,0.009407143108546734
224.0,0.008516763336956501
240.0,0.007476243190467358
256.0,0.006674621719866991
288.0,0.005256569478660822
320.0,0.003758837003260851
352.0,0.0024049715138971806
384.0,0.001575181377120316
416.0,0.0010514413006603718
448.0,0.0017401425866410136
480.0,0.0021367433946579695
512.0,0.0008743444341234863
576.0,0.0016147507121786475
640.0,0.0028211886528879404
704.0,0.0024133690167218447
768.0,0.0013651670888066292
832.0,0.0012100457679480314
896.0,0.00047492809244431555
960.0,0.000513259437866509
1024.0,-6.934186239959672e-05
1152.0,-0.0008320606430061162
1280.0,-0.0013173044426366687
1408.0,-0.0017167822225019336
1536.0,-0.0011617197887971997
1664.0,-8.33552549011074e-05
1792.0,0.0008145186002366245
1920.0,0.00015449232887476683
2048.0,-0.0006629936979152262
2304.0,0.001154524041339755
2560.0,0.0022086871322244406
2816.0,-0.0016724714078009129
3072.0,-0.0017557559767737985
3328.0,0.0006133012939244509
3584.0,0.0009346217266283929
3840.0,0.0017037555808201432
4096.0,0.0009247820125892758
4608.0,-0.0011588691268116236
5120.0,-0.0018326021963730454
5632.0,-0.0022795572876930237
6144.0,-0.00015567448281217366
6656.0,-0.0033117502462118864
7168.0,-0.004280958324670792
7680.0,-0.0018927050987258554
8192.0,9.322134428657591e-05
9216.0,-0.0019296573009341955
10240.0,0.0026185635942965746
11264.0,-0.002333763986825943
12288.0,0.0015545610804110765
13312.0,0.0003992428246419877
14336.0,0.000619498488958925
end
