version,3.0
numOfCh,1
type,point
parent_name,20-cuts
ch_type,1_1
kcount,1
numberNandB,1
brightnessNandB,1
carpet pos,0
pc,0
Time (ms),CH1 Auto-Correlation
1.0,0.02532798796892166
2.0,0.02492249757051468
3.0,0.024532757699489594
4.0,0.024159522727131844
5.0,0.023805225268006325
6.0,0.02346123568713665
7.0,0.02312994748353958
8.0,0.022800596430897713
9.0,0.022484229877591133
10.0,0.02218186855316162
11.0,0.021881811320781708
12.0,0.02157939039170742
13.0,0.021296164020895958
14.0,0.021021360531449318
15.0,0.02074616402387619
16.0,0.020468322560191154
18.0,0.019916638731956482
20.0,0.01937638409435749
22.0,0.018879922106862068
24.0,0.018410921096801758
26.0,0.017953475937247276
28.0,0.017503099516034126
30.0,0.017071973532438278
32.0,0.01664712466299534
36.0,0.015849018469452858
40.0,0.015084473416209221
44.0,0.014360273256897926
48.0,0.013656556606292725
52.0,0.01300964504480362
56.0,0.012430601753294468
60.0,0.011913081631064415
64.0,0.01142954546958208
72.0,0.010770819149911404
80.0,0.01028219610452652
88.0,0.009782477281987667
96.0,0.009357662871479988
104.0,0.009118874557316303
112.0,0.008970002643764019
120.0,0.008962474763393402
128.0,0.008957920596003532
144.0,0.008481134660542011
160.0,0.007738356012851
176.0,0.006628927309066057
192.0,0.005816322285681963
208.0,0.005327994469553232
224.0,0.004962218459695578
240.0,0.004576732870191336
256.0,0.0041461545042693615
288.0,0.003357421839609742
320.0,0.0025663557462394238
352.0,0.0019029936520382762
384.0,0.0013641412369906902
416.0,0.0013100130017846823
448.0,0.0014838548377156258
480.0,0.0007219017716124654
512.0,2.277313069498632e-05
576.0,-0.00037490736576728523
640.0,-0.0011322624050080776
704.0,-0.0018900398863479495
768.0,-0.0009755485807545483
832.0,-0.00115595618262887
896.0,-0.0005554725066758692
960.0,0.00026312278350815177
1024.0,0.0023873408790677786
1152.0,0.002638634294271469
1280.0,0.00109177699778229
1408.0,-0.0003839968703687191
1536.0,-0.000232951482757926
1664.0,-0.0006928739021532238
1792.0,-0.00041623116703704
1920.0,-0.0003556839074008167
2048.0,0.0012790265027433634
2304.0,0.0007622983539476991
2560.0,-0.002993224887177348
2816.0,-0.002847328782081604
3072.0,-0.002283839276060462
3328.0,-0.001281045377254486
3584.0,-0.0024753878824412823
3840.0,-9.132026025326923e-05
4096.0,-0.00022521655773743987
4608.0,-0.0021809632889926434
5120.0,0.0009562849882058799
5632.0,0.0006956990691833198
6144.0,0.003054620698094368
6656.0,1.8132130207959563e-05
7168.0,0.002277083694934845
7680.0,0.0009641568758524954
8192.0,-0.0010141779202967882
9216.0,-0.003879502648487687
10240.0,-0.00042607192881405354
11264.0,0.0009109186357818544
12288.0,0.00047515504411421716
13312.0,-0.0014853199245408177
14336.0,-0.00032236159313470125
end
