version,3.0
numOfCh,1
type,point
parent_name,20-cuts
ch_type,1_1
kcount,1
numberNandB,1
brightnessNandB,1
carpet pos,0
pc,0
Time (ms),CH1 Auto-Correlation
1.0,0.019583921879529953
2.0,0.019173666834831238
3.0,0.01877436414361
4.0,0.01839950494468212
5.0,0.01805240474641323
6.0,0.017720242962241173
7.0,0.01739819347858429
8.0,0.01708620972931385
9.0,0.016778025776147842
10.0,0.016475357115268707
11.0,0.016177475452423096
12.0,0.015899701043963432
13.0,0.015624312683939934
14.0,0.015346520580351353
15.0,0.015077253803610802
16.0,0.014815119095146656
18.0,0.014321472495794296
20.0,0.013867480680346489
22.0,0.01344563253223896
24.0,0.013031327165663242
26.0,0.01261088065803051
28.0,0.012203904800117016
30.0,0.011825621128082275
32.0,0.011484318412840366
36.0,0.010841055773198605
40.0,0.010168898850679398
44.0,0.00951656699180603
48.0,0.008913232944905758
52.0,0.0083461357280612
56.0,0.00782086793333292
60.0,0.007332945242524147
64.0,0.006859659682959318
72.0,0.00593508780002594
80.0,0.0051397779025137424
88.0,0.004535518120974302
96.0,0.00396582018584013
104.0,0.0034463871270418167
112.0,0.002944919280707836
120.0,0.002510514808818698
128.0,0.0021038823761045933
144.0,0.001295512542128563
160.0,0.0006236997433006763
176.0,9.387394675286487e-05
192.0,-0.00024160936300177127
208.0,-0.0003330525942146778
224.0,-0.00024462692090310156
240.0,-2.35235729633132e-05
256.0,-7.683631702093408e-05
288.0,8.372983575100079e-05
320.0,-5.668119774782099e-05
352.0,0.00033002663985826075
384.0,0.0006348637980408967
416.0,0.00044456677278503776
448.0,-0.0002778279595077038
480.0,-1.993612022488378e-05
512.0,-0.00037324591539800167
576.0,-0.001205619191750884
640.0,-0.0015394387301057577
704.0,-0.0008138971170410514
768.0,0.0005202056490816176
832.0,0.0011559015838429332
896.0,0.0007897794130258262
960.0,-0.0005245167994871736
1024.0,-0.001015444751828909
1152.0,-0.0009097234578803182
1280.0,-0.0013568854192271829
1408.0,-0.0003389519697520882
1536.0,0.0014765779487788677
1664.0,0.0009880359284579754
1792.0,0.0015959433512762189
1920.0,0.0022688230965286493
2048.0,0.0008141768048517406
2304.0,-0.0009946327190846205
2560.0,-0.0012742592953145504
2816.0,-0.0005785413086414337
3072.0,0.0008029464515857399
3328.0,5.338151368050603e-06
3584.0,0.0005396783817559481
3840.0,0.0005294625880196691
4096.0,-0.0003836698306258768
4608.0,4.058724152855575e-05
5120.0,-0.0008382315281778574
5632.0,-0.0009797104867175221
6144.0,-0.0007416793378069997
6656.0,0.000721186283044517
7168.0,-0.0020202959422022104
7680.0,-0.0003223074891138822
8192.0,0.0007210905896499753
9216.0,-0.00045058398973196745
10240.0,0.0003222069644834846
11264.0,0.0011109397746622562
12288.0,0.0004237964458297938
13312.0,-0.0009436525288037956
14336.0,-0.0002033800119534135
end
