version,3.0
numOfCh,1
type,point
parent_name,20-cuts
ch_type,1_1
kcount,1
numberNandB,1
brightnessNandB,1
carpet pos,0
pc,0
Time (ms),CH1 Auto-Correlation
1.0,0.036024585366249084
2.0,0.03537723422050476
3.0,0.034753043204545975
4.0,0.034159306436777115
5.0,0.0335828959941864
6.0,0.03301616013050079
7.0,0.03247050568461418
8.0,0.03194041922688484
9.0,0.031444039195775986
10.0,0.030961230397224426
11.0,0.030482087284326553
12.0,0.03001273050904274
13.0,0.02955971658229828
14.0,0.0291377454996109
15.0,0.028736386448144913
16.0,0.02833794429898262
18.0,0.02755097486078739
20.0,0.02680245041847229
22.0,0.026082824915647507
24.0,0.025429965928196907
26.0,0.02481866627931595
28.0,0.024250837042927742
30.0,0.02369312383234501
32.0,0.02317705750465393
36.0,0.02223029173910618
40.0,0.021338867023587227
44.0,0.02056753821671009
48.0,0.01988488808274269
52.0,0.01922707073390484
56.0,0.018607044592499733
60.0,0.017926201224327087
64.0,0.017389703541994095
72.0,0.01645028404891491
80.0,0.015564674511551857
88.0,0.014717298559844494
96.0,0.013997633010149002
104.0,0.013227391056716442
112.0,0.012307641096413136
120.0,0.011483538895845413
128.0,0.010696176439523697
144.0,0.009300149977207184
160.0,0.008856335654854774
176.0,0.008763881400227547
192.0,0.008557666093111038
208.0,0.007991823367774487
224.0,0.0071814656257629395
240.0,0.006674052681773901
256.0,0.006052594631910324
288.0,0.005590191576629877
320.0,0.005603773053735495
352.0,0.005775847937911749
384.0,0.005203711800277233
416.0,0.00490522850304842
448.0,0.004773436114192009
480.0,0.004341391380876303
512.0,0.003586921840906143
576.0,0.003300683107227087
640.0,0.003166696522384882
704.0,0.003179478459060192
768.0,0.001801373204216361
832.0,0.001155274803750217
896.0,0.0005020216340199113
960.0,-0.0008868659497238696
1024.0,0.00021070984075777233
1152.0,0.002540124114602804
1280.0,0.0011795387836173177
1408.0,0.0021857991814613342
1536.0,0.0016769227804616094
1664.0,0.0006461165612563491
1792.0,7.644161087227985e-05
1920.0,0.00040377379627898335
2048.0,-0.0032580660190433264
2304.0,-0.0029242769815027714
2560.0,-0.001616376917809248
2816.0,0.0005181613960303366
3072.0,-5.044032877776772e-05
3328.0,-0.0012202729703858495
3584.0,-0.003111631143838167
3840.0,-0.0034482309129089117
4096.0,-0.0009050506050698459
4608.0,-0.0033398231025785208
5120.0,-0.00104145600926131
5632.0,0.0015519690932705998
6144.0,0.00021960269077681005
6656.0,0.0011469762539491057
7168.0,0.001676915562711656
7680.0,-0.003779815975576639
8192.0,-0.0025251673068851233
9216.0,-0.0008242137264460325
10240.0,-0.0048830038867890835
11264.0,-0.0017130038468167186
12288.0,0.0023982971906661987
13312.0,0.004000150132924318
14336.0,0.005224132910370827
end
