version,3.0
numOfCh,1
type,point
parent_name,20-cuts
ch_type,1_1
kcount,1
numberNandB,1
brightnessNandB,1
carpet pos,0
pc,0
Time (ms),CH1 Auto-Correlation
1.0,0.06387041509151459
2.0,0.06259795278310776
3.0,0.06143268942832947
4.0,0.060313157737255096
5.0,0.059265561401844025
6.0,0.058233484625816345
7.0,0.05725649371743202
8.0,0.05631865933537483
9.0,0.05541510134935379
10.0,0.05455293878912926
11.0,0.05370116978883743
12.0,0.05287579447031021
13.0,0.05203787237405777
14.0,0.05121653154492378
15.0,0.050387490540742874
16.0,0.04959781467914581
18.0,0.04808778688311577
20.0,0.04672790691256523
22.0,0.04544384032487869
24.0,0.04413457587361336
26.0,0.04294148460030556
28.0,0.041747789829969406
30.0,0.04057518020272255
32.0,0.039451900869607925
36.0,0.037392470985651016
40.0,0.0355946384370327
44.0,0.03398796543478966
48.0,0.03251093626022339
52.0,0.03105972334742546
56.0,0.029827125370502472
60.0,0.028716137632727623
64.0,0.027715478092432022
72.0,0.02580811269581318
80.0,0.024059021845459938
88.0,0.022687936201691628
96.0,0.021463150158524513
104.0,0.020049158483743668
112.0,0.018444744870066643
120.0,0.01758032664656639
128.0,0.01692548766732216
144.0,0.015623429790139198
160.0,0.014563505537807941
176.0,0.013062989339232445
192.0,0.011327426880598068
208.0,0.010285649448633194
224.0,0.009733227081596851
240.0,0.008706214837729931
256.0,0.007876105606555939
288.0,0.007620502263307571
320.0,0.007068179082125425
352.0,0.005733822472393513
384.0,0.00436810590326786
416.0,0.00477210246026516
448.0,0.005429084878414869
480.0,0.005065008066594601
512.0,0.003837323049083352
576.0,0.0034512747079133987
640.0,0.0038849671836942434
704.0,0.004415113944560289
768.0,0.004344618413597345
832.0,0.005476276855915785
896.0,0.007061184383928776
960.0,0.009526179172098637
1024.0,0.009086467325687408
1152.0,-0.00037549305125139654
1280.0,-0.0007477447506971657
1408.0,0.00023671190137974918
1536.0,0.0021660795900970697
1664.0,-0.00022510877170134336
1792.0,-0.0002998138079419732
1920.0,-0.0025338158011436462
2048.0,-0.00479109724983573
2304.0,-0.00016090933058876544
2560.0,0.00212093535810709
2816.0,0.0022775628603994846
3072.0,-0.0014187374617904425
3328.0,-0.00046693760668858886
3584.0,0.0029492941685020924
3840.0,0.002425968647003174
4096.0,0.004321820102632046
4608.0,0.00317934388294816
5120.0,0.0016798805445432663
5632.0,-0.001169131719507277
6144.0,-0.003980699926614761
6656.0,-0.004888173192739487
7168.0,-0.0036960418801754713
7680.0,-0.010735740885138512
8192.0,-0.009803447872400284
9216.0,-0.006030355114489794
10240.0,0.004032564349472523
11264.0,-0.003947370685636997
12288.0,-0.008533742278814316
13312.0,-0.005318552255630493
14336.0,0.014982258901000023
end
