version,3.0
numOfCh,1
type,point
parent_name,20-cuts
ch_type,1_1
kcount,1
numberNandB,1
brightnessNandB,1
carpet pos,0
pc,0
Time (ms),CH1 Auto-Correlation
1.0,0.03832431882619858
2.0,0.0376942902803421
3.0,0.037101589143276215
4.0,0.03652602434158325
5.0,0.03594916686415672
6.0,0.03538375720381737
7.0,0.034828994423151016
8.0,0.03429657593369484
9.0,0.03378283232450485
10.0,0.03328428789973259
11.0,0.0328095480799675
12.0,0.03234190493822098
13.0,0.031882550567388535
14.0,0.03143685683608055
15.0,0.03100857324898243
16.0,0.030594414100050926
18.0,0.0298013873398304
20.0,0.029032288119196892
22.0,0.0283017810434103
24.0,0.027620218694210052
26.0,0.026941880583763123
28.0,0.026301052421331406
30.0,0.02565670758485794
32.0,0.024992188438773155
36.0,0.023674411699175835
40.0,0.022503556683659554
44.0,0.02141137421131134
48.0,0.020394565537571907
52.0,0.01943683624267578
56.0,0.018520573154091835
60.0,0.01768801361322403
64.0,0.016911271959543228
72.0,0.01542062871158123
80.0,0.014060648158192635
88.0,0.012710939161479473
96.0,0.011558686383068562
104.0,0.010674773715436459
112.0,0.010094837285578251
120.0,0.009651105850934982
128.0,0.009273751638829708
144.0,0.008407961577177048
160.0,0.0073503246530890465
176.0,0.006490747444331646
192.0,0.0059470306150615215
208.0,0.005083594936877489
224.0,0.004223841242492199
240.0,0.0037119819317013025
256.0,0.0035464512184262276
288.0,0.0038586286827921867
320.0,0.0037057222798466682
352.0,0.0040530054830014706
384.0,0.00384543533436954
416.0,0.003316330024972558
448.0,0.003284233622252941
480.0,0.0033097038976848125
512.0,0.0035045586992055178
576.0,0.0034415782429277897
640.0,0.005543747451156378
704.0,0.004880127962678671
768.0,0.003753663506358862
832.0,0.0032330816611647606
896.0,0.0036667808890342712
960.0,0.003817938268184662
1024.0,0.0036885205190628767
1152.0,0.002909579314291477
1280.0,0.0009858087869361043
1408.0,0.002833394333720207
1536.0,0.0031658003572374582
1664.0,0.0044106109999120235
1792.0,0.001677843974903226
1920.0,-0.00030653446447104216
2048.0,0.0035899190697818995
2304.0,0.00448229955509305
2560.0,0.0018168026581406593
2816.0,0.0020989966578781605
3072.0,0.0017147058388218284
3328.0,0.004648978356271982
3584.0,-0.0005297657335177064
3840.0,0.0013079793425276875
4096.0,0.0027035765815526247
4608.0,-0.002429552376270294
5120.0,-0.003126402385532856
5632.0,-0.004436828196048737
6144.0,-0.001387484255246818
6656.0,-0.005026241764426231
7168.0,-0.0034802835434675217
7680.0,-0.005362914875149727
8192.0,-0.006005685310810804
9216.0,-0.004892644472420216
10240.0,-0.0019599380902945995
11264.0,-0.0017786531243473291
12288.0,0.00014159560669213533
13312.0,0.0007411708356812596
14336.0,0.009126202203333378
end
