version,3.0
numOfCh,1
type,point
parent_name,20-cuts
ch_type,1_1
kcount,1
numberNandB,1
brightnessNandB,1
carpet pos,0
pc,0
Time (ms),CH1 Auto-Correlation
1.0,0.027608219534158707
2.0,0.027029741555452347
3.0,0.026484264060854912
4.0,0.02595057711005211
5.0,0.02545139752328396
6.0,0.02497418038547039
7.0,0.024510787799954414
8.0,0.024060381576418877
9.0,0.02362932078540325
10.0,0.02320334129035473
11.0,0.022795557975769043
12.0,0.022399330511689186
13.0,0.0220173392444849
14.0,0.02164701372385025
15.0,0.021287811920046806
16.0,0.02090998739004135
18.0,0.020167415961623192
20.0,0.01947065070271492
22.0,0.018846146762371063
24.0,0.018271658569574356
26.0,0.017751507461071014
28.0,0.0172683447599411
30.0,0.016801519319415092
32.0,0.01635085977613926
36.0,0.015586476773023605
40.0,0.01488714013248682
44.0,0.014280627481639385
48.0,0.013715467415750027
52.0,0.013141277246177197
56.0,0.012551366351544857
60.0,0.012083235196769238
64.0,0.01170323695987463
72.0,0.010974319651722908
80.0,0.010229827836155891
88.0,0.009521246887743473
96.0,0.008765673264861107
104.0,0.008073052391409874
112.0,0.007563268765807152
120.0,0.007278744131326675
128.0,0.007158791646361351
144.0,0.006902518216520548
160.0,0.006479854695498943
176.0,0.006063373759388924
192.0,0.005885683465749025
208.0,0.005770232994109392
224.0,0.005708429496735334
240.0,0.0055240001529455185
256.0,0.0054564340971410275
288.0,0.0049949707463383675
320.0,0.004693082068115473
352.0,0.0046552070416510105
384.0,0.004341564606875181
416.0,0.0040446119382977486
448.0,0.0037493945565074682
480.0,0.0031522498466074467
512.0,0.0029605040326714516
576.0,0.0025105609092861414
640.0,0.0017864755354821682
704.0,0.0006563005736097693
768.0,-0.000899462727829814
832.0,-0.0008874660125002265
896.0,-0.0005719598848372698
960.0,-0.000130498330690898
1024.0,-0.002146929269656539
1152.0,-0.0017857193015515804
1280.0,-0.0011849311413243413
1408.0,-0.004215208813548088
1536.0,-0.005351886618882418
1664.0,-0.00502358702942729
1792.0,-0.004360376391559839
1920.0,-0.001803719438612461
2048.0,-0.0035280880983918905
2304.0,-0.002387728076428175
2560.0,-0.0005028827581554651
2816.0,0.00040729285683482885
3072.0,0.003068639663979411
3328.0,0.0016223457641899586
3584.0,0.0031276640947908163
3840.0,0.003048885613679886
4096.0,0.0014821768272668123
4608.0,-0.003046554047614336
5120.0,-0.003768554190173745
5632.0,-0.0019639937672764063
6144.0,0.001263234531506896
6656.0,0.0012926303315907717
7168.0,0.0023674778640270233
7680.0,0.0014339599292725325
8192.0,-0.002691978123039007
9216.0,-3.1208895961754024e-05
10240.0,0.0036895473022013903
11264.0,0.0008771236171014607
12288.0,-0.0014974323567003012
13312.0,0.0026229210197925568
14336.0,-0.0023963949643075466
end
