version,3.0
numOfCh,1
type,point
parent_name,20-cuts
ch_type,1_1
kcount,1
numberNandB,1
brightnessNandB,1
carpet pos,0
pc,0
Time (ms),CH1 Auto-Correlation
1.0,0.019671892747282982
2.0,0.01926298812031746
3.0,0.018880674615502357
4.0,0.018501300364732742
5.0,0.018129931762814522
6.0,0.017762068659067154
7.0,0.017408762127161026
8.0,0.017074130475521088
9.0,0.016745632514357567
10.0,0.01643061451613903
11.0,0.016131481155753136
12.0,0.015838216990232468
13.0,0.015558908693492413
14.0,0.015285930596292019
15.0,0.01502169482409954
16.0,0.01476674247533083
18.0,0.014276263304054737
20.0,0.013804773800075054
22.0,0.01335951592773199
24.0,0.012943302281200886
26.0,0.012563275173306465
28.0,0.01221474725753069
30.0,0.011870713904500008
32.0,0.011543902568519115
36.0,0.010881049558520317
40.0,0.010215097106993198
44.0,0.00960404984652996
48.0,0.009058820083737373
52.0,0.008580341935157776
56.0,0.008193370886147022
60.0,0.00784232560545206
64.0,0.007485329173505306
72.0,0.006805064156651497
80.0,0.006326780188828707
88.0,0.005951779894530773
96.0,0.005655129440128803
104.0,0.0053871264681220055
112.0,0.005094633903354406
120.0,0.0048539163544774055
128.0,0.004517009947448969
144.0,0.004014820326119661
160.0,0.0038356061559170485
176.0,0.0038791911210864782
192.0,0.0038495995104312897
208.0,0.0037519976031035185
224.0,0.0037009837105870247
240.0,0.0037415106780827045
256.0,0.003735773731023073
288.0,0.0031105228699743748
320.0,0.002440766431391239
352.0,0.001971769379451871
384.0,0.0014243398327380419
416.0,0.0008532781503163278
448.0,0.0008822429226711392
480.0,0.0006958534359000623
512.0,0.0005644586053676903
576.0,-0.00020127114839851856
640.0,-0.0010247522732242942
704.0,-0.0012835555244237185
768.0,-0.0007693301304243505
832.0,-0.001415015198290348
896.0,-0.0018719639629125595
960.0,-0.0016631337348371744
1024.0,-0.0007235899684019387
1152.0,0.00036296702455729246
1280.0,1.7273867342737503e-05
1408.0,0.0006884931353852153
1536.0,0.0019861352629959583
1664.0,0.0013939596246927977
1792.0,0.0014493976486846805
1920.0,0.00020259841403458267
2048.0,0.0005544523010030389
2304.0,0.0005025547579862177
2560.0,0.00013307126937434077
2816.0,-0.0006665168330073357
3072.0,-0.0012039763387292624
3328.0,-0.0007408072124235332
3584.0,-0.0014641950838267803
3840.0,0.00010975544864777476
4096.0,0.0011858221841976047
4608.0,0.0006881321896798909
5120.0,-0.0014498678501695395
5632.0,-0.0030727037228643894
6144.0,0.00036486636963672936
6656.0,0.0014601921429857612
7168.0,-0.0011587031185626984
7680.0,-0.0007879248587414622
8192.0,0.0008374677272513509
9216.0,-0.00038422513171099126
10240.0,-0.002127937041223049
11264.0,0.0004980650264769793
12288.0,-0.0011345803504809737
13312.0,-0.0023209750652313232
14336.0,0.0011551127536222339
end
