version,3.0
numOfCh,1
type,point
parent_name,20-cuts
ch_type,1_1
kcount,1
numberNandB,1
brightnessNandB,1
carpet pos,0
pc,0
Time (ms),CH1 Auto-Correlation
1.0,0.03546106442809105
2.0,0.034843508154153824
3.0,0.03424007445573807
4.0,0.03365711122751236
5.0,0.033102214336395264
6.0,0.03257260099053383
7.0,0.03207186609506607
8.0,0.03156856447458267
9.0,0.031074313446879387
10.0,0.03060716949403286
11.0,0.03017088957130909
12.0,0.02974993735551834
13.0,0.02934039942920208
14.0,0.02896003983914852
15.0,0.028577039018273354
16.0,0.028206054121255875
18.0,0.027502723038196564
20.0,0.02682509832084179
22.0,0.026166260242462158
24.0,0.02553282491862774
26.0,0.02490786649286747
28.0,0.02432122267782688
30.0,0.023783326148986816
32.0,0.023291418328881264
36.0,0.022449130192399025
40.0,0.021706799045205116
44.0,0.020981840789318085
48.0,0.020210381597280502
52.0,0.019426237791776657
56.0,0.018744466826319695
60.0,0.018205253407359123
64.0,0.017712490633130074
72.0,0.016696449369192123
80.0,0.01550043560564518
88.0,0.014293838292360306
96.0,0.013345078565180302
104.0,0.012663405388593674
112.0,0.012176360934972763
120.0,0.011643389239907265
128.0,0.011166783981025219
144.0,0.009989368729293346
160.0,0.00838522519916296
176.0,0.006836954038590193
192.0,0.005613432265818119
208.0,0.004854008089751005
224.0,0.004320651292800903
240.0,0.003547155763953924
256.0,0.0026741104666143656
288.0,0.001191985560581088
320.0,0.0006649083225056529
352.0,0.0004373907868284732
384.0,0.0004802485345862806
416.0,0.0005708442186005414
448.0,0.0005086998571641743
480.0,0.00011242374603170902
512.0,-0.00045467421296052635
576.0,-0.00014746504893992096
640.0,0.00013349420623853803
704.0,-0.0006935009732842445
768.0,-0.0021922874730080366
832.0,-0.0018392555648460984
896.0,-0.0014237703289836645
960.0,-0.002282161731272936
1024.0,-0.002465768251568079
1152.0,-0.002761602634564042
1280.0,-0.0025619622319936752
1408.0,-0.0023159233387559652
1536.0,-0.003371872240677476
1664.0,-0.002379527548328042
1792.0,-0.0002780619834084064
1920.0,-0.0020512202754616737
2048.0,-0.0023660550359636545
2304.0,0.0018253084272146225
2560.0,0.0012555139837786555
2816.0,-0.0036570350639522076
3072.0,-0.0011359323980286717
3328.0,-0.0014049558667466044
3584.0,0.002188939368352294
3840.0,-0.001034995075315237
4096.0,-0.0033820883836597204
4608.0,-0.0005611217929981649
5120.0,-0.001448023016564548
5632.0,0.0011107439640909433
6144.0,0.0029066489078104496
6656.0,-0.001908017322421074
7168.0,0.0006801311392337084
7680.0,-0.0008774568559601903
8192.0,-0.00224943901412189
9216.0,0.003648033132776618
10240.0,-0.0004804636992048472
11264.0,0.0010463879443705082
12288.0,-0.0057295868173241615
13312.0,0.0018043259624391794
14336.0,0.0021174103021621704
end
