version,3.0
numOfCh,1
type,point
parent_name,20-cuts
ch_type,1_1
kcount,1
numberNandB,1
brightnessNandB,1
carpet pos,0
pc,0
Time (ms),CH1 Auto-Correlation
1.0,0.020317252725362778
2.0,0.019907325506210327
3.0,0.01949462667107582
4.0,0.019100019708275795
5.0,0.018716219812631607
6.0,0.018342142924666405
7.0,0.01797201856970787
8.0,0.017625046893954277
9.0,0.017292100936174393
10.0,0.016966497525572777
11.0,0.016661077737808228
12.0,0.01637144945561886
13.0,0.016088368371129036
14.0,0.015807973220944405
15.0,0.015546382404863834
16.0,0.015284700319170952
18.0,0.014790143817663193
20.0,0.014336536638438702
22.0,0.013930443674325943
24.0,0.013536899350583553
26.0,0.013150488957762718
28.0,0.012774987146258354
30.0,0.012411545030772686
32.0,0.012090255506336689
36.0,0.011497770436108112
40.0,0.010893909260630608
44.0,0.010335391387343407
48.0,0.009844574145972729
52.0,0.009357613511383533
56.0,0.0088953897356987
60.0,0.008515814319252968
64.0,0.008240122348070145
72.0,0.007620651740580797
80.0,0.007067996077239513
88.0,0.006593829486519098
96.0,0.00630520936101675
104.0,0.006073827389627695
112.0,0.005795844830572605
120.0,0.005537710152566433
128.0,0.0053597716614604
144.0,0.004964770283550024
160.0,0.004780202638357878
176.0,0.004410747904330492
192.0,0.0038785601500421762
208.0,0.0032964793499559164
224.0,0.002902585780248046
240.0,0.0023733230773359537
256.0,0.0023069886956363916
288.0,0.002289914060384035
320.0,0.0021583246998488903
352.0,0.001680511748418212
384.0,0.0017818844644352794
416.0,0.0016840010648593307
448.0,0.0012118866434320807
480.0,0.0012173918075859547
512.0,0.0006836372194811702
576.0,0.0003782623098231852
640.0,0.00044800277100875974
704.0,0.0004392713017296046
768.0,0.0010626113507896662
832.0,0.0013527486007660627
896.0,0.0018034838140010834
960.0,0.00173836515750736
1024.0,0.002252086065709591
1152.0,0.0005834770854562521
1280.0,-0.0004926123656332493
1408.0,5.306256753101479e-06
1536.0,0.0015996746951714158
1664.0,0.0016029354883357882
1792.0,0.0017532670171931386
1920.0,0.001856205752119422
2048.0,0.0015231701545417309
2304.0,0.0013378066942095757
2560.0,0.0021912292577326298
2816.0,-0.00039216529694385827
3072.0,-0.0008475875947624445
3328.0,0.00011929632455576211
3584.0,-0.0002026002766797319
3840.0,-0.0013742308365181088
4096.0,-0.0008148160995915532
4608.0,-0.0022383960895240307
5120.0,-0.0006813670042902231
5632.0,-0.001348083489574492
6144.0,-0.0006004681927151978
6656.0,-0.0009740802925080061
7168.0,-0.0018394076032564044
7680.0,-0.0005376035696826875
8192.0,0.00028229219606146216
9216.0,-0.0019634300842881203
10240.0,-0.0003422802546992898
11264.0,0.0005244026542641222
12288.0,-0.000515636638738215
13312.0,0.0019284180598333478
14336.0,1.2374336620268878e-05
end
