version,3.0
numOfCh,1
type,point
parent_name,20-cuts
ch_type,1_1
kcount,1
numberNandB,1
brightnessNandB,1
carpet pos,0
pc,0
Time (ms),CH1 Auto-Correlation
1.0,0.058429524302482605
2.0,0.05720852315425873
3.0,0.05601663887500763
4.0,0.05492391437292099
5.0,0.05388269200921059
6.0,0.052860744297504425
7.0,0.051886849105358124
8.0,0.05094460770487785
9.0,0.05001832917332649
10.0,0.04911718890070915
11.0,0.04826171323657036
12.0,0.04741641879081726
13.0,0.04660021886229515
14.0,0.04580853506922722
15.0,0.04504058137536049
16.0,0.044306010007858276
18.0,0.04284904897212982
20.0,0.04144897684454918
22.0,0.04008450359106064
24.0,0.038758210837841034
26.0,0.0375932976603508
28.0,0.03651789575815201
30.0,0.03545885160565376
32.0,0.0344441756606102
36.0,0.03268233686685562
40.0,0.031047051772475243
44.0,0.029517190530896187
48.0,0.02807750180363655
52.0,0.026570359244942665
56.0,0.025172103196382523
60.0,0.02402522601187229
64.0,0.02322530932724476
72.0,0.021515782922506332
80.0,0.020044947043061256
88.0,0.018692083656787872
96.0,0.017485851421952248
104.0,0.016421373933553696
112.0,0.014980876818299294
120.0,0.013470868580043316
128.0,0.012331606820225716
144.0,0.011128450743854046
160.0,0.009541473351418972
176.0,0.00809172447770834
192.0,0.007469788659363985
208.0,0.0075315204448997974
224.0,0.007108620833605528
240.0,0.007092068437486887
256.0,0.006423518992960453
288.0,0.006288131698966026
320.0,0.006286345422267914
352.0,0.005237158853560686
384.0,0.003963344730436802
416.0,0.002866431837901473
448.0,0.0029242399614304304
480.0,0.0040793162770569324
512.0,0.005185630172491074
576.0,0.005674241576343775
640.0,0.0026505792047828436
704.0,-0.002789693418890238
768.0,-0.002174578607082367
832.0,0.0005696805892512202
896.0,0.0011699157766997814
960.0,0.0008991268696263433
1024.0,-0.00042711786227300763
1152.0,0.0006096063880249858
1280.0,0.003439911874011159
1408.0,0.0052001336589455605
1536.0,-0.0007657703245058656
1664.0,-0.003622248535975814
1792.0,-0.00913021806627512
1920.0,-0.006454431917518377
2048.0,-0.002829567529261112
2304.0,-0.004587852396070957
2560.0,-0.0023468376602977514
2816.0,0.0007309147622436285
3072.0,-0.0013703503645956516
3328.0,0.0015583836939185858
3584.0,-0.0030384513083845377
3840.0,-0.0024818486999720335
4096.0,-0.002477127593010664
4608.0,-0.005787673871964216
5120.0,-0.0032881740480661392
5632.0,0.0017797114560380578
6144.0,-0.0008666105568408966
6656.0,0.0020063775591552258
7168.0,0.0028241940308362246
7680.0,0.0002117926487699151
8192.0,0.0072110844776034355
9216.0,-0.0007031872519291937
10240.0,0.0009264572290703654
11264.0,0.005434883758425713
12288.0,-0.0064713782630860806
13312.0,-0.008999792858958244
14336.0,-0.0027390087489038706
end
