version,3.0
numOfCh,1
type,point
parent_name,20-cuts
ch_type,1_1
kcount,1
numberNandB,1
brightnessNandB,1
carpet pos,0
pc,0
Time (ms),CH1 Auto-Correlation
1.0,0.034979015588760376
2.0,0.034363411366939545
3.0,0.03377721458673477
4.0,0.03321246802806854
5.0,0.03266434744000435
6.0,0.03214593604207039
7.0,0.03163712099194527
8.0,0.03114895150065422
9.0,0.03066938929259777
10.0,0.030201278626918793
11.0,0.02975505404174328
12.0,0.02932858280837536
13.0,0.028911540284752846
14.0,0.02851165644824505
15.0,0.028132393956184387
16.0,0.02777181565761566
18.0,0.02707153744995594
20.0,0.02636602148413658
22.0,0.025659898295998573
24.0,0.024996673688292503
26.0,0.024389585480093956
28.0,0.02377871610224247
30.0,0.02316993847489357
32.0,0.022611727938055992
36.0,0.021636085584759712
40.0,0.020676663145422935
44.0,0.01982240378856659
48.0,0.01904693990945816
52.0,0.018442904576659203
56.0,0.017918016761541367
60.0,0.01736530289053917
64.0,0.016795586794614792
72.0,0.015778256580233574
80.0,0.014874232932925224
88.0,0.013843812048435211
96.0,0.01293874066323042
104.0,0.012110652402043343
112.0,0.011444286443293095
120.0,0.010794748552143574
128.0,0.010071154683828354
144.0,0.008660382591187954
160.0,0.007481428794562817
176.0,0.006131971254944801
192.0,0.004498050082474947
208.0,0.0030406294390559196
224.0,0.0022052014246582985
240.0,0.00214560073800385
256.0,0.00247701327316463
288.0,0.0025455993600189686
320.0,0.0023948687594383955
352.0,0.0015327323926612735
384.0,0.0006849472410976887
416.0,9.357833187095821e-05
448.0,0.0007175837527029216
480.0,0.0014122689608484507
512.0,0.0017133373767137527
576.0,0.0019106508698314428
640.0,0.002873416291549802
704.0,0.001703880145214498
768.0,0.001536580384708941
832.0,0.000644019921310246
896.0,0.0008839689544402063
960.0,6.414638392016059e-06
1024.0,-0.002136475872248411
1152.0,-0.0041579497046768665
1280.0,-0.0020387584809213877
1408.0,0.0018109771190211177
1536.0,0.0049460045993328094
1664.0,0.005215628072619438
1792.0,0.0012855250388383865
1920.0,-3.069841113756411e-05
2048.0,0.0005479438696056604
2304.0,-0.0006643517408519983
2560.0,-0.003760985564440489
2816.0,-0.005850181449204683
3072.0,2.523439070500899e-05
3328.0,0.0008232477703131735
3584.0,0.0005365204415284097
3840.0,0.0017088691238313913
4096.0,-0.0002435932692606002
4608.0,-0.0030186553485691547
5120.0,-0.0032885915134102106
5632.0,-0.002495379885658622
6144.0,-0.003265113802626729
6656.0,-0.0036181306932121515
7168.0,0.001136286649852991
7680.0,0.001984131056815386
8192.0,0.0021380034741014242
9216.0,0.002206239150837064
10240.0,0.0025563554372638464
11264.0,0.0018796651856973767
12288.0,-0.0012205690145492554
13312.0,-0.0025402470491826534
14336.0,-0.003127878066152334
end
