version,3.0
numOfCh,1
type,point
parent_name,ff67b_3dot0-0dot1
ch_type,1_1
kcount,1
numberNandB,1
brightnessNandB,1
carpet pos,0
pc,0
Time (ms),CH1 Auto-Correlation
1.0,0.016064831987023354
2.0,0.013159194961190224
3.0,0.01122396718710661
4.0,0.00980991031974554
5.0,0.00861750915646553
6.0,0.00762572418898344
7.0,0.0069045391865074635
8.0,0.00625469908118248
9.0,0.005753787700086832
10.0,0.005324899218976498
11.0,0.004985452629625797
12.0,0.004705494269728661
13.0,0.004355964250862598
14.0,0.004048868082463741
15.0,0.0037648293655365705
16.0,0.0035082141403108835
18.0,0.0030134667176753283
20.0,0.002613771241158247
22.0,0.0021682900842279196
24.0,0.0018415870144963264
26.0,0.001414343947544694
28.0,0.0011631450615823269
30.0,0.000981015618890524
32.0,0.0008905909489840269
36.0,0.0010852274717763066
40.0,0.0009427997283637524
44.0,0.0005897643859498203
48.0,0.0005202558822929859
52.0,0.0004937238409183919
56.0,0.00034192766179330647
60.0,0.00012000418792013079
64.0,9.924166079144925e-05
72.0,0.0005040410323999822
80.0,0.0006687921122647822
88.0,0.0005695110885426402
96.0,0.0008051815675571561
104.0,0.0005938723916187882
112.0,0.000554619706235826
120.0,0.0006033084937371314
128.0,5.399316069087945e-05
144.0,-9.255289114662446e-06
160.0,0.00031622336246073246
176.0,0.0005892916233278811
192.0,0.0001615252549527213
208.0,-0.0005100259440951049
224.0,0.000592346244957298
240.0,0.0004655366064980626
256.0,0.0004159490345045924
288.0,-0.00021050317445769906
320.0,-0.0005371110164560378
352.0,0.00018148127128370106
384.0,-7.885355444159359e-05
416.0,-0.00012192617577966303
448.0,0.0008386183180846274
480.0,0.00014432983880396932
512.0,-0.0006100283353589475
576.0,-0.00046601632493548095
640.0,3.374824018465006e-06
704.0,-3.345704271850991e-06
768.0,-3.172539436491206e-05
832.0,-0.00044133345363661647
896.0,-0.0005087702302262187
960.0,-0.00041438447078689933
1024.0,9.279606456402689e-05
1152.0,-6.889141513966024e-05
1280.0,-0.000727043196093291
1408.0,-0.0006552168051712215
1536.0,-0.0005071439663879573
1664.0,-0.00040266444557346404
1792.0,-0.00023162241268437356
1920.0,0.00030921513098292053
2048.0,0.0004169222665950656
2304.0,9.14701959118247e-05
2560.0,9.951327228918672e-05
2816.0,0.0001865941594587639
3072.0,0.0002936350938398391
3328.0,5.2333081839606166e-05
3584.0,4.860278295382159e-06
3840.0,-0.00029805113445036113
4096.0,-3.5339461135208694e-08
4608.0,-0.00016480323392897844
5120.0,6.813123764004558e-05
5632.0,-3.936518987757154e-05
6144.0,0.0002523537550587207
6656.0,0.0001150249081547372
7168.0,-0.00015357254596892744
7680.0,-0.0005150086944922805
8192.0,-0.00019109362619929016
end
