version,3.0
numOfCh,1
type,point
parent_name,ff67b_3dot0-0dot1
ch_type,1_1
kcount,1
numberNandB,1
brightnessNandB,1
carpet pos,0
pc,0
Time (ms),CH1 Auto-Correlation
1.0,0.0165333803743124
2.0,0.013760649599134922
3.0,0.011737526394426823
4.0,0.010112117044627666
5.0,0.008944060653448105
6.0,0.007990571670234203
7.0,0.007222015410661697
8.0,0.006606223061680794
9.0,0.0061209239065647125
10.0,0.0056506977416574955
11.0,0.005181324202567339
12.0,0.004807563032954931
13.0,0.004422327969223261
14.0,0.004160023294389248
15.0,0.003791500348597765
16.0,0.003572961315512657
18.0,0.00319776963442564
20.0,0.003009089268743992
22.0,0.0029569349717348814
24.0,0.0027167852967977524
26.0,0.002567014191299677
28.0,0.0024632452987134457
30.0,0.002265432383865118
32.0,0.002047145739197731
36.0,0.0016717490507289767
40.0,0.0014130169292911887
44.0,0.0013142945244908333
48.0,0.0012030955404043198
52.0,0.0012290235608816147
56.0,0.001263794838450849
60.0,0.0013586358400061727
64.0,0.0014987319009378552
72.0,0.0008761652279645205
80.0,0.0002232121187262237
88.0,-0.00024653991567902267
96.0,-0.00020864023827016354
104.0,-0.0004428872198332101
112.0,-0.0007437267922796309
120.0,-0.0005277402233332396
128.0,0.00012172824062872678
144.0,0.0005445223650895059
160.0,0.0004158710944466293
176.0,0.00026255397824570537
192.0,0.0005032534245401621
208.0,0.0001835376169765368
224.0,0.00010051055141957477
240.0,-0.0003341807459946722
256.0,-7.985465344972908e-05
288.0,-6.211106665432453e-05
320.0,-0.0003456216654740274
352.0,7.932665903354064e-05
384.0,3.833813752862625e-05
416.0,0.00012670957949012518
448.0,0.00012261461233720183
480.0,0.00026508234441280365
512.0,0.00042589849908836186
576.0,-0.00039038521936163306
640.0,-0.00034271710319444537
704.0,-0.000776723783928901
768.0,-3.084375202888623e-05
832.0,-6.936917634448037e-05
896.0,0.0004146151477470994
960.0,3.2418116461485624e-05
1024.0,-0.0002775364264380187
1152.0,-0.00032960029784590006
1280.0,-0.0004932443262077868
1408.0,8.333784353453666e-05
1536.0,1.0608900083752815e-05
1664.0,-0.0002595926052890718
1792.0,-0.00015992557746358216
1920.0,0.00015316324424929917
2048.0,-0.0001672109356150031
2304.0,2.7344434784026816e-05
2560.0,3.6560373700922355e-05
2816.0,0.00033252136199735105
3072.0,9.190728451358154e-05
3328.0,-5.9947680711047724e-05
3584.0,-0.00048083244473673403
3840.0,-2.801342634484172e-05
4096.0,-3.0039202101761475e-05
4608.0,-5.555740244744811e-06
5120.0,0.00018774150521494448
5632.0,0.00028788033523596823
6144.0,-0.0002763924712780863
6656.0,-1.4107176866673399e-05
7168.0,0.0001165025751106441
7680.0,-0.00030448290635831654
8192.0,0.0002374583709752187
end
