version,3.0
numOfCh,1
type,point
parent_name,ff67b_3dot0-0dot1
ch_type,1_1
kcount,1
numberNandB,1
brightnessNandB,1
carpet pos,0
pc,0
Time (ms),CH1 Auto-Correlation
1.0,0.01605175994336605
2.0,0.013261648826301098
3.0,0.011350013315677643
4.0,0.01004013977944851
5.0,0.009089681319892406
6.0,0.008272944949567318
7.0,0.007591462228447199
8.0,0.007009695749729872
9.0,0.006461651995778084
10.0,0.00604851683601737
11.0,0.0056611113250255585
12.0,0.00534774037078023
13.0,0.004991867113858461
14.0,0.0046185762621462345
15.0,0.004273486789315939
16.0,0.003947535529732704
18.0,0.003471759846433997
20.0,0.002944076433777809
22.0,0.0027157077565789223
24.0,0.0025308532640337944
26.0,0.002204520395025611
28.0,0.001983393682166934
30.0,0.001689150114543736
32.0,0.0015736253699287772
36.0,0.0014879743102937937
40.0,0.0012884470634162426
44.0,0.001248868997208774
48.0,0.0012175956508144736
52.0,0.0012684583198279142
56.0,0.0012708310969173908
60.0,0.0013755274703726172
64.0,0.0011762739159166813
72.0,0.0008336114115081728
80.0,0.0008777930052019656
88.0,0.0007158801308833063
96.0,0.0007582976249977946
104.0,0.00046373711666092277
112.0,0.00043049335363321006
120.0,0.00027422033599577844
128.0,1.8418857507640496e-05
144.0,0.00010097661288455129
160.0,0.00021866524184588343
176.0,-7.933858432807028e-05
192.0,-0.0004316801205277443
208.0,-0.00030165706994012
224.0,0.0003290966269560158
240.0,0.00045534269884228706
256.0,0.00015183273353613913
288.0,-0.0001727043418213725
320.0,0.00042127896449528635
352.0,5.4351810831576586e-05
384.0,-0.00013433369167614728
416.0,2.8306296826485777e-06
448.0,0.00010196553921559826
480.0,-0.0006569878896698356
512.0,-0.00010909019329119474
576.0,-3.4962249628733844e-05
640.0,0.0006545575452037156
704.0,5.434899139800109e-05
768.0,-6.973755080252886e-05
832.0,1.4147191905067302e-05
896.0,0.00033856331720016897
960.0,-0.00019413739209994674
1024.0,-0.0005265487707220018
1152.0,-0.00010660523548722267
1280.0,0.00011802802328020334
1408.0,0.00015895586693659425
1536.0,-0.0001185839792015031
1664.0,0.0001893604639917612
1792.0,-0.0001510878500994295
1920.0,-0.00021645663946401328
2048.0,-0.0004745500918943435
2304.0,0.0002619221922941506
2560.0,-9.995890286518261e-05
2816.0,-3.214247044525109e-05
3072.0,0.00025736933457665145
3328.0,-1.4350881428981666e-05
3584.0,0.00043276388896629214
3840.0,-0.00047574806376360357
4096.0,0.0002344173117307946
4608.0,-9.565757500240579e-05
5120.0,-0.00011834362521767616
5632.0,-0.00016356873675249517
6144.0,-0.00028226530412212014
6656.0,-0.00011053269554395229
7168.0,-0.00010058445332106203
7680.0,0.00016550382133573294
8192.0,-0.0005302049103192985
end
