version,3.0
numOfCh,1
type,point
parent_name,ff67b_3dot0-0dot1
ch_type,1_1
kcount,1
numberNandB,1
brightnessNandB,1
carpet pos,0
pc,0
Time (ms),CH1 Auto-Correlation
1.0,0.016069697216153145
2.0,0.013369137421250343
3.0,0.0115143908187747
4.0,0.010039969347417355
5.0,0.008959322236478329
6.0,0.007974379695951939
7.0,0.007250895258039236
8.0,0.006686603184789419
9.0,0.006186333950608969
10.0,0.005757681094110012
11.0,0.005428546108305454
12.0,0.005094964522868395
13.0,0.00484515680000186
14.0,0.004657612647861242
15.0,0.00443353271111846
16.0,0.0041833375580608845
18.0,0.003643518313765526
20.0,0.003259842749685049
22.0,0.0026758438907563686
24.0,0.0022849077358841896
26.0,0.002111577894538641
28.0,0.001989287557080388
30.0,0.0019399331649765372
32.0,0.001780852908268571
36.0,0.001398240216076374
40.0,0.0010494358139112592
44.0,0.0008498832467012107
48.0,0.0005999219720251858
52.0,0.0006104982458055019
56.0,0.000670315814204514
60.0,0.00044736199197359383
64.0,0.0003950131358578801
72.0,0.0002774218446575105
80.0,-2.139378193533048e-05
88.0,-1.271207224817772e-06
96.0,0.00017558639228809625
104.0,0.00039847911102697253
112.0,0.0004372880794107914
120.0,0.0002961263235192746
128.0,0.0006574389990419149
144.0,0.0005220744060352445
160.0,0.0006629072013311088
176.0,0.0002979744167532772
192.0,-0.00013132017920725048
208.0,-0.0003241263038944453
224.0,-0.0003431700461078435
240.0,-0.0002510644553694874
256.0,0.00017096579540520906
288.0,0.00040145876118913293
320.0,0.00018020304560195655
352.0,-0.0004369333619251847
384.0,0.0003817082033492625
416.0,0.0005707014934159815
448.0,4.907880793325603e-05
480.0,-0.00032331945840269327
512.0,-0.0002238352462882176
576.0,-0.0006897241692058742
640.0,-0.00024304597172886133
704.0,0.00031891633989289403
768.0,-0.0007525088731199503
832.0,-1.4755728443560656e-05
896.0,0.00015019832062534988
960.0,0.00018874365196097642
1024.0,0.0002617200661916286
1152.0,-0.0001153706616605632
1280.0,-7.537136116297916e-05
1408.0,-0.0003909450024366379
1536.0,-0.0004387859080452472
1664.0,-1.6592815882177092e-05
1792.0,0.0001354340638499707
1920.0,-4.8880010581342503e-05
2048.0,0.00023009415599517524
2304.0,-2.374766336288303e-05
2560.0,0.00044949757284484804
2816.0,5.772440636064857e-05
3072.0,-0.00019072939176112413
3328.0,-0.0005196399288251996
3584.0,-0.00018935759726446122
3840.0,-0.00033472952782176435
4096.0,-0.00038767748628742993
4608.0,-1.6581981981289573e-05
5120.0,5.89143528486602e-05
5632.0,-4.844349678023718e-05
6144.0,8.242935291491449e-05
6656.0,8.637746213935316e-05
7168.0,0.00012651529686991125
7680.0,-1.2138146303186659e-05
8192.0,-6.3078805396799e-05
end
