version,3.0
numOfCh,1
type,point
parent_name,ff67b_3dot0-0dot1
ch_type,1_1
kcount,1
numberNandB,1
brightnessNandB,1
carpet pos,0
pc,0
Time (ms),CH1 Auto-Correlation
1.0,0.017015190795063972
2.0,0.014242807403206825
3.0,0.012210147455334663
4.0,0.010729077272117138
5.0,0.009524056687951088
6.0,0.008501289412379265
7.0,0.0076567186042666435
8.0,0.006876911036670208
9.0,0.0062598371878266335
10.0,0.005783815402537584
11.0,0.00527552142739296
12.0,0.004968651104718447
13.0,0.004616502672433853
14.0,0.004404823295772076
15.0,0.004133092705160379
16.0,0.0039092060178518295
18.0,0.003519659861922264
20.0,0.003074444830417633
22.0,0.0027341172099113464
24.0,0.002564865630120039
26.0,0.0023038838990032673
28.0,0.0019772055093199015
30.0,0.0017419527284801006
32.0,0.0015070055378600955
36.0,0.0013074512826278806
40.0,0.0010806783102452755
44.0,0.0011190995573997498
48.0,0.0008790948777459562
52.0,0.0006267664721235633
56.0,0.0004977115895599127
60.0,0.000634107505902648
64.0,0.0007077998016029596
72.0,0.0005603549652732909
80.0,0.00025539132184349
88.0,0.000334068201482296
96.0,0.0009013648959808052
104.0,0.0010873755672946572
112.0,0.0006002819864079356
120.0,0.0004004512447863817
128.0,0.0005356909823603928
144.0,-6.737781222909689e-05
160.0,-0.00022353451640810817
176.0,0.00021767888392787427
192.0,0.00033640439505688846
208.0,-0.0002934611402451992
224.0,-0.0004891850403510034
240.0,3.491754978313111e-05
256.0,0.00043316895607858896
288.0,0.000793306331615895
320.0,0.000631580944173038
352.0,0.0005676767905242741
384.0,0.00029428809648379683
416.0,7.338037539739162e-05
448.0,-0.0002749667037278414
480.0,-0.0005559859564527869
512.0,-0.0006469624931924045
576.0,-0.00013666271115653217
640.0,-0.0003238074714317918
704.0,0.00022237146913539618
768.0,0.000228218748816289
832.0,-0.00039395340718328953
896.0,0.0006196030299179256
960.0,0.000195770277059637
1024.0,-0.0002902952837757766
1152.0,-6.544436473632231e-05
1280.0,-0.0005438313237391412
1408.0,5.6313649110961705e-05
1536.0,-0.0003055959823541343
1664.0,-6.952218245714903e-05
1792.0,0.00021129832020960748
1920.0,-0.00018402552814222872
2048.0,9.674574539531022e-05
2304.0,-0.00018670238205231726
2560.0,0.00011968075705226511
2816.0,0.0003487101348582655
3072.0,0.0004112687020096928
3328.0,0.0001222365244757384
3584.0,-0.00018806887965183705
3840.0,0.00020206520275678486
4096.0,0.00013713100634049624
4608.0,8.807882295513991e-06
5120.0,-0.0005236268625594676
5632.0,6.881483568577096e-05
6144.0,-9.905180195346475e-05
6656.0,-3.27502639265731e-05
7168.0,0.0003994537109974772
7680.0,-0.00023633628734387457
8192.0,-0.0005655450513586402
end
