version,3.0
numOfCh,1
type,point
parent_name,ff67b_3dot0-0dot1
ch_type,1_1
kcount,1
numberNandB,1
brightnessNandB,1
carpet pos,0
pc,0
Time (ms),CH1 Auto-Correlation
1.0,0.016687199473381042
2.0,0.013879810459911823
3.0,0.011872891336679459
4.0,0.010390852577984333
5.0,0.00919283926486969
6.0,0.008342552930116653
7.0,0.00753245921805501
8.0,0.006866802927106619
9.0,0.006399245001375675
10.0,0.005803130567073822
11.0,0.0054381238296628
12.0,0.0050801802426576614
13.0,0.004730271641165018
14.0,0.004378146026283503
15.0,0.004093316849321127
16.0,0.003894978668540716
18.0,0.00361857982352376
20.0,0.003297132905572653
22.0,0.0031854091212153435
24.0,0.0031437948346138
26.0,0.003021091688424349
28.0,0.0028770235367119312
30.0,0.00284730177372694
32.0,0.002817961387336254
36.0,0.002504616277292371
40.0,0.0022679895628243685
44.0,0.001893193693831563
48.0,0.0015612419229000807
52.0,0.0012105752248317003
56.0,0.0010673640063032508
60.0,0.0012050532968714833
64.0,0.0011495177168399096
72.0,0.0008176399278454483
80.0,0.0005514830118045211
88.0,0.0003839738492388278
96.0,0.0005671462859027088
104.0,0.0008321590139530599
112.0,0.0011518840910866857
120.0,0.000900214712601155
128.0,0.0005355692701414227
144.0,0.0008167510386556387
160.0,0.0008286806987598538
176.0,0.0005897198570892215
192.0,0.00020445599511731416
208.0,0.00017096256488002837
224.0,0.000568858056794852
240.0,2.368592504353728e-06
256.0,6.496704736491665e-05
288.0,-0.00015708288992755115
320.0,3.893596840498503e-06
352.0,0.00042163877515122294
384.0,4.099915531696752e-05
416.0,0.00012130990216974169
448.0,9.887268788588699e-06
480.0,9.609836706658825e-05
512.0,0.0002189413644373417
576.0,0.0005234709824435413
640.0,8.022773545235395e-05
704.0,3.735632247980902e-08
768.0,-0.0002230227255495265
832.0,-0.00015735307533759624
896.0,-0.0004678993427660316
960.0,-0.00022983715462032706
1024.0,-0.00040718811214901507
1152.0,-0.0005087425233796239
1280.0,0.0005541775608435273
1408.0,0.00017465335258748382
1536.0,-0.00027387402951717377
1664.0,-0.000501779024489224
1792.0,0.00018248289416078478
1920.0,0.0001324097829638049
2048.0,0.00014778631157241762
2304.0,0.00018302371609024704
2560.0,0.00011580817954381928
2816.0,-0.0001611853949725628
3072.0,-3.769856266444549e-05
3328.0,-0.00037244262057356536
3584.0,5.9268841141602024e-05
3840.0,0.0005301370401866734
4096.0,0.0003209896385669708
4608.0,-0.00020166620379313827
5120.0,0.00012073793914169073
5632.0,-0.00023976332158781588
6144.0,6.931366078788415e-05
6656.0,1.7388994820066728e-05
7168.0,0.00028474704595282674
7680.0,4.1041901567950845e-05
8192.0,-0.0003051658277399838
end
