version,3.0
numOfCh,1
type,point
parent_name,ff67b_3dot0-0dot1
ch_type,1_1
kcount,1
numberNandB,1
brightnessNandB,1
carpet pos,0
pc,0
Time (ms),CH1 Auto-Correlation
1.0,0.01702161878347397
2.0,0.014110613614320755
3.0,0.012067466974258423
4.0,0.010614311322569847
5.0,0.009389481507241726
6.0,0.008509006351232529
7.0,0.007855831645429134
8.0,0.007216263096779585
9.0,0.006640338804572821
10.0,0.006162043195217848
11.0,0.0057611530646681786
12.0,0.005452063400298357
13.0,0.005183866713196039
14.0,0.004772443324327469
15.0,0.004381085745990276
16.0,0.004210726357996464
18.0,0.0038112925831228495
20.0,0.0035102684050798416
22.0,0.0033804660197347403
24.0,0.0031546144746243954
26.0,0.00270559242926538
28.0,0.0024058292619884014
30.0,0.002243119291961193
32.0,0.0021238059271126986
36.0,0.0018943756585940719
40.0,0.0016953048761934042
44.0,0.0015330819878727198
48.0,0.0012865408789366484
52.0,0.0013115429319441319
56.0,0.0011573131196200848
60.0,0.0010102407541126013
64.0,0.0010517691262066364
72.0,0.0012510234955698252
80.0,0.0010965921683236957
88.0,0.0009356926893815398
96.0,0.000829093623906374
104.0,0.00043038083822466433
112.0,-0.00040309448377229273
120.0,-0.00035014745662920177
128.0,-0.00028489125543273985
144.0,-0.00019487447571009398
160.0,-0.00010925237438641489
176.0,9.805920853978023e-05
192.0,2.813939090628992e-06
208.0,0.000432100729085505
224.0,0.0003071518731303513
240.0,4.9576374294701964e-05
256.0,8.021062967600301e-05
288.0,7.07284125383012e-05
320.0,2.029696224781219e-05
352.0,4.310486474423669e-05
384.0,-5.241233520791866e-05
416.0,-2.0914163542329334e-05
448.0,0.0003601104544941336
480.0,0.0007701219874434173
512.0,0.000777613662648946
576.0,-0.00012806137965526432
640.0,-0.0001139907180913724
704.0,-7.077779446262866e-05
768.0,0.00013625163410324603
832.0,0.0004537844506558031
896.0,0.00017709498933982104
960.0,0.0002281296910950914
1024.0,0.0004250010824762285
1152.0,0.0008208602084778249
1280.0,-8.112176146823913e-05
1408.0,0.0006328987656161189
1536.0,1.2257481103006285e-05
1664.0,0.00021553073020186275
1792.0,1.0418468264106195e-05
1920.0,0.00019665375293698162
2048.0,0.00010752193338703364
2304.0,-6.792803469579667e-05
2560.0,0.00013931012654211372
2816.0,0.0001468946284148842
3072.0,1.6005535144358873e-05
3328.0,-0.00020492082694545388
3584.0,-0.000301915715681389
3840.0,-7.802170875947922e-05
4096.0,5.34904029336758e-06
4608.0,5.738201434724033e-05
5120.0,-0.0001889416016638279
5632.0,2.200435346821905e-06
6144.0,-6.590372504433617e-05
6656.0,-0.00010865470540011302
7168.0,-2.5147832275251858e-05
7680.0,-0.0004332659300416708
8192.0,4.7659246774856e-05
end
