version,3.0
numOfCh,1
type,point
parent_name,ff67b_3dot0-0dot1
ch_type,1_1
kcount,1
numberNandB,1
brightnessNandB,1
carpet pos,0
pc,0
Time (ms),CH1 Auto-Correlation
1.0,0.014152904972434044
2.0,0.011356540955603123
3.0,0.009356895461678505
4.0,0.007811347022652626
5.0,0.0067006368190050125
6.0,0.005880498327314854
7.0,0.005222981795668602
8.0,0.004881825763732195
9.0,0.004489571787416935
10.0,0.004174848087131977
11.0,0.0039047133177518845
12.0,0.0036474675871431828
13.0,0.003385349176824093
14.0,0.0030693444423377514
15.0,0.0028547574765980244
16.0,0.002709489781409502
18.0,0.0021955498959869146
20.0,0.0019184298580512404
22.0,0.0017236600397154689
24.0,0.0016508763656020164
26.0,0.0015447569312527776
28.0,0.0014210303779691458
30.0,0.0012784961145371199
32.0,0.0012240515789017081
36.0,0.001151064527221024
40.0,0.0009197499020956457
44.0,0.0004912909935228527
48.0,0.00012101905304007232
52.0,0.00026153589715249836
56.0,0.000512524216901511
60.0,0.0005920120165683329
64.0,0.0005260510370135307
72.0,0.0009617152391001582
80.0,0.0008760864729993045
88.0,0.0007498323102481663
96.0,0.0008335502352565527
104.0,0.0005349756102077663
112.0,0.0001855100126704201
120.0,-1.0795911293826066e-05
128.0,7.19669769750908e-05
144.0,0.00010895056766457856
160.0,-7.045765232760459e-05
176.0,-6.130338442744687e-05
192.0,0.0002624978369567543
208.0,0.0004903260851278901
224.0,0.0002682971826288849
240.0,-8.35921528050676e-05
256.0,7.766797352815047e-05
288.0,0.0006714705377817154
320.0,0.00027486737235449255
352.0,1.4091042430663947e-06
384.0,-8.349266136065125e-05
416.0,0.00017807444965001196
448.0,0.0002638348378241062
480.0,-6.53869574307464e-05
512.0,0.00016263674478977919
576.0,-0.00046930956887081265
640.0,-0.0002771822037175298
704.0,-0.00015966041246429086
768.0,0.000293701741611585
832.0,0.0003693800244946033
896.0,9.902383317239583e-05
960.0,0.00041693588718771935
1024.0,0.00030841026455163956
1152.0,0.0004525092663243413
1280.0,0.00034350858186371624
1408.0,0.00014523378922604024
1536.0,0.0001732830423861742
1664.0,0.0002509331388864666
1792.0,0.0001469397684559226
1920.0,0.00013149713049642742
2048.0,0.0002489266626071185
2304.0,0.00012665241956710815
2560.0,-9.708896686788648e-05
2816.0,3.720993845490739e-05
3072.0,-3.2739095331635326e-05
3328.0,0.0001590932224644348
3584.0,-1.8234242816106416e-05
3840.0,-0.00025407972862012684
4096.0,-0.00017028285947162658
4608.0,-5.064845390734263e-05
5120.0,-0.00019527638505678624
5632.0,-0.00018032178923022002
6144.0,-0.00034852736280299723
6656.0,-0.00017180480062961578
7168.0,-0.0002101806312566623
7680.0,-0.000289341202005744
8192.0,-0.00024067610502243042
end
