version,3.0
numOfCh,1
type,point
parent_name,ff67b_3dot0-0dot1
ch_type,1_1
kcount,1
numberNandB,1
brightnessNandB,1
carpet pos,0
pc,0
Time (ms),CH1 Auto-Correlation
1.0,0.016385633498430252
2.0,0.01363203302025795
3.0,0.011502587236464024
4.0,0.01007296983152628
5.0,0.00905531458556652
6.0,0.008201992139220238
7.0,0.007620745804160833
8.0,0.006997060030698776
9.0,0.0064631118439137936
10.0,0.005925641395151615
11.0,0.005514136515557766
12.0,0.005107037723064423
13.0,0.004848571959882975
14.0,0.0045762076042592525
15.0,0.004304231610149145
16.0,0.004149328917264938
18.0,0.00386182963848114
20.0,0.003512768307700753
22.0,0.0032487965654581785
24.0,0.0030996783170849085
26.0,0.002917833160609007
28.0,0.0027585409115999937
30.0,0.0025005913339555264
32.0,0.0023801997303962708
36.0,0.0021640672348439693
40.0,0.0019718173425644636
44.0,0.0016792367678135633
48.0,0.0016927457181736827
52.0,0.0017865386325865984
56.0,0.0019361055456101894
60.0,0.0018380610272288322
64.0,0.0014378820778802037
72.0,0.0012501021847128868
80.0,0.0010849885875359178
88.0,0.0009378292015753686
96.0,0.0007111202576197684
104.0,0.00046980625484138727
112.0,0.0005825538537465036
120.0,0.00034000122104771435
128.0,0.00040691904723644257
144.0,0.000429783744039014
160.0,0.00015478360000997782
176.0,0.0005025580758228898
192.0,0.0003007937630172819
208.0,-0.00024444182054139674
224.0,-2.162671080441214e-05
240.0,-9.698000212665647e-06
256.0,0.00020153918012510985
288.0,9.976320143323392e-05
320.0,0.00030016168602742255
352.0,-0.00017013475007843226
384.0,-0.00022849814558867365
416.0,-0.0004199882096145302
448.0,0.0001783804182196036
480.0,-0.00014949119940865785
512.0,-0.00028159713838249445
576.0,-0.0007961993105709553
640.0,-0.00045439222594723105
704.0,-0.0003107241936959326
768.0,-0.0001469039125367999
832.0,-0.00028793016099371016
896.0,-0.0001947479322552681
960.0,-8.170425280695781e-05
1024.0,7.655355875613168e-05
1152.0,0.0004860163608100265
1280.0,-0.0004506966797634959
1408.0,-0.00016911713464651257
1536.0,-6.930244126124308e-05
1664.0,0.00011453959450591356
1792.0,7.999191439012066e-05
1920.0,0.0006997548625804484
2048.0,0.0002604005276225507
2304.0,-0.00011967860336881131
2560.0,-0.00020521372789517045
2816.0,4.230837294016965e-05
3072.0,0.00021111431124154478
3328.0,0.0001781076134648174
3584.0,3.8284713809844106e-05
3840.0,0.00012109195813536644
4096.0,-0.0003129995602648705
4608.0,6.98201620252803e-06
5120.0,0.00017625583859626204
5632.0,0.00017187515913974494
6144.0,-1.888535734906327e-05
6656.0,-7.522439409513026e-05
7168.0,0.0003354950749780983
7680.0,-0.0006665834225714207
8192.0,-0.00021381005353759974
end
