version,3.0
numOfCh,1
type,point
parent_name,ff67b_3dot0-0dot1
ch_type,1_1
kcount,1
numberNandB,1
brightnessNandB,1
carpet pos,0
pc,0
Time (ms),CH1 Auto-Correlation
1.0,0.015592950396239758
2.0,0.012807601131498814
3.0,0.010709058493375778
4.0,0.009170814417302608
5.0,0.007977078668773174
6.0,0.0070492979139089584
7.0,0.0063173905946314335
8.0,0.005720018409192562
9.0,0.005331200081855059
10.0,0.005045034922659397
11.0,0.004726951941847801
12.0,0.0044028195552527905
13.0,0.004092747811228037
14.0,0.003840790828689933
15.0,0.003676961176097393
16.0,0.0034752439241856337
18.0,0.003186511341482401
20.0,0.002910330193117261
22.0,0.002605629386380315
24.0,0.002305918140336871
26.0,0.0021311226300895214
28.0,0.002042590407654643
30.0,0.001938873901963234
32.0,0.0018369409954175353
36.0,0.0017036350909620523
40.0,0.001583426957949996
44.0,0.0013385498896241188
48.0,0.0010336762061342597
52.0,0.001038941671140492
56.0,0.0012979989405721426
60.0,0.0014475875068455935
64.0,0.0013536097249016166
72.0,0.001023074728436768
80.0,0.0009125596843659878
88.0,0.0010273626539856195
96.0,0.0006164361257106066
104.0,0.0003416543186176568
112.0,0.00035805776133202016
120.0,0.0005669428501278162
128.0,0.00070530193625018
144.0,0.0004360752645879984
160.0,0.0004670522757805884
176.0,0.0001499188510933891
192.0,0.0001593738270457834
208.0,6.518347800010815e-05
224.0,-5.867181607754901e-05
240.0,0.0004080817452631891
256.0,0.00036255898885428905
288.0,-0.00037373704253695905
320.0,-0.0003206140536349267
352.0,-0.0006150155095383525
384.0,-0.00031813973328098655
416.0,-0.00021817687957081944
448.0,-0.0001559069933136925
480.0,0.00014810975699219853
512.0,0.00047198450192809105
576.0,-4.150031236349605e-05
640.0,-9.769885946298018e-05
704.0,-0.00044318466098047793
768.0,-0.0004021875502076
832.0,-0.00012815644731745124
896.0,3.1085471619007876e-06
960.0,-0.00037028678343631327
1024.0,-2.8386339181452058e-05
1152.0,-0.0005213068216107786
1280.0,-0.0005699609755538404
1408.0,0.00023017465719021857
1536.0,7.383368210867047e-05
1664.0,-0.00023712197435088456
1792.0,-0.0002668770612217486
1920.0,-9.699517977423966e-05
2048.0,0.000290582946036011
2304.0,0.00020677258726209402
2560.0,-2.6514122509979643e-05
2816.0,-0.0001404889189871028
3072.0,-0.0002727406390476972
3328.0,-8.987914770841599e-05
3584.0,0.00011162002920173109
3840.0,0.0004225531010888517
4096.0,2.559671520430129e-05
4608.0,0.00011467892181826755
5120.0,-0.00046310160541906953
5632.0,0.0001545468403492123
6144.0,0.00019863473426084965
6656.0,0.0001699693239061162
7168.0,-0.00039246337837539613
7680.0,4.035660458612256e-05
8192.0,0.00017971113265957683
end
