version,3.0
numOfCh,1
type,point
parent_name,ff67b_3dot0-0dot1
ch_type,1_1
kcount,1
numberNandB,1
brightnessNandB,1
carpet pos,0
pc,0
Time (ms),CH1 Auto-Correlation
1.0,0.018936466425657272
2.0,0.01601472496986389
3.0,0.013856226578354836
4.0,0.012225333601236343
5.0,0.010879012756049633
6.0,0.009714623913168907
7.0,0.008803349919617176
8.0,0.008037283085286617
9.0,0.0073608518578112125
10.0,0.006770375184714794
11.0,0.0061752465553581715
12.0,0.00560000678524375
13.0,0.005130567587912083
14.0,0.004753623623400927
15.0,0.004270358942449093
16.0,0.0038939425721764565
18.0,0.003252487163990736
20.0,0.0027826603036373854
22.0,0.0023709472734481096
24.0,0.002003341680392623
26.0,0.001721330569125712
28.0,0.0014414457837119699
30.0,0.0013658410171046853
32.0,0.0013655235525220633
36.0,0.0012661812361329794
40.0,0.0013675352092832327
44.0,0.0014087773161008954
48.0,0.00126678217202425
52.0,0.0011403021635487676
56.0,0.0011899193050339818
60.0,0.0013728280318900943
64.0,0.0013105430407449603
72.0,0.0013063910882920027
80.0,0.0013013255083933473
88.0,0.0014828948769718409
96.0,0.0011830376461148262
104.0,0.00079290138091892
112.0,0.0002348423149669543
120.0,-7.249536429299042e-05
128.0,-0.00011736390297301114
144.0,5.874875569134019e-05
160.0,0.00032074711634777486
176.0,0.0009764459100551903
192.0,0.0005125662428326905
208.0,0.00028443880728445947
224.0,0.0003866157494485378
240.0,0.00022328573686536402
256.0,0.0004947923589497805
288.0,-7.905836537247524e-05
320.0,1.4685263522551395e-05
352.0,-0.00018621569324750453
384.0,1.8626526070875116e-05
416.0,-8.104345761239529e-05
448.0,-0.00043539429316297174
480.0,0.0002931621274910867
512.0,-9.056203998625278e-05
576.0,-0.00028029968962073326
640.0,-0.0006009786739014089
704.0,-0.00024016921815928072
768.0,-0.00034128487459383905
832.0,-6.223210948519409e-05
896.0,0.00017732066044118255
960.0,0.0004855519509874284
1024.0,0.0005825608968734741
1152.0,0.00045250149560160935
1280.0,0.00010450346599100158
1408.0,0.0003532958508003503
1536.0,0.0007709570345468819
1664.0,0.00026208904455415905
1792.0,0.0004326936323195696
1920.0,0.00019422074547037482
2048.0,7.861710764700547e-05
2304.0,-0.0005507675814442337
2560.0,-0.00010595392086543143
2816.0,-5.6810171372490004e-05
3072.0,0.0002436724171275273
3328.0,-0.00011886237189173698
3584.0,-0.0003209563437849283
3840.0,-0.0005639494047500193
4096.0,-0.0003169478732161224
4608.0,-0.000477592897368595
5120.0,-0.00011015436029992998
5632.0,-0.00046907938667573035
6144.0,-1.6131711163325235e-05
6656.0,-0.00012255035107955337
7168.0,0.00026879654615186155
7680.0,-0.00024339358787983656
8192.0,0.0007081168005242944
end
