version,3.0
numOfCh,1
type,point
parent_name,ff67b_3dot0-0dot1
ch_type,1_1
kcount,1
numberNandB,1
brightnessNandB,1
carpet pos,0
pc,0
Time (ms),CH1 Auto-Correlation
1.0,0.018523743376135826
2.0,0.015602908097207546
3.0,0.013468456454575062
4.0,0.011978525668382645
5.0,0.010791383683681488
6.0,0.009863507002592087
7.0,0.009090669453144073
8.0,0.008295954205095768
9.0,0.007636104244738817
10.0,0.0070740049704909325
11.0,0.006561851128935814
12.0,0.006029578857123852
13.0,0.005639797542244196
14.0,0.0052843764424324036
15.0,0.004870130680501461
16.0,0.004576138686388731
18.0,0.003968274686485529
20.0,0.0034438949078321457
22.0,0.0030706794932484627
24.0,0.002732334192842245
26.0,0.002330044051632285
28.0,0.0022322216536849737
30.0,0.0022402575705200434
32.0,0.002143723424524069
36.0,0.0018343380652368069
40.0,0.001397500280290842
44.0,0.0010844082571566105
48.0,0.000842553679831326
52.0,0.0005342685617506504
56.0,0.0004500965296756476
60.0,0.0005099387490190566
64.0,0.00048202756443060935
72.0,0.00043301083496771753
80.0,0.0005350965657271445
88.0,0.0006775438087061048
96.0,0.00048195375711657107
104.0,0.00043014815310016274
112.0,0.0004698163829743862
120.0,0.0005914170760661364
128.0,0.0001516945631010458
144.0,0.0001778272562660277
160.0,0.0006448104977607727
176.0,0.0006047548959031701
192.0,0.0004862628993578255
208.0,0.001275066053494811
224.0,0.0003268590953666717
240.0,-0.00023390915885102004
256.0,-0.0006531294202432036
288.0,0.0001806111540645361
320.0,5.136891559232026e-05
352.0,0.0005022062687203288
384.0,0.0013248221948742867
416.0,0.0007216816884465516
448.0,0.00041726953350007534
480.0,0.0005782115622423589
512.0,0.00046803022269159555
576.0,0.0005755011807195842
640.0,-0.00032582663698121905
704.0,-5.560276986216195e-05
768.0,0.0003501039172988385
832.0,1.2061315828759689e-05
896.0,0.0002732926222961396
960.0,0.0003431999066378921
1024.0,-0.00036092105438001454
1152.0,-0.00019096471078228205
1280.0,-0.00016526765830349177
1408.0,-0.00010503493103897199
1536.0,-0.0002054132492048666
1664.0,0.00027575704734772444
1792.0,0.0004986232379451394
1920.0,-0.00023239657457452267
2048.0,-0.0001492962910560891
2304.0,-1.9344366592122242e-05
2560.0,-7.282027945620939e-05
2816.0,-6.880699947942048e-05
3072.0,7.882925274316221e-05
3328.0,-1.6263227735180408e-05
3584.0,-0.0002412443282082677
3840.0,-0.0001577075890963897
4096.0,-0.00021759931405540556
4608.0,-0.00037706844159401953
5120.0,-0.00038550308090634644
5632.0,-0.00013412059342954308
6144.0,0.00012835478992201388
6656.0,-6.66767664370127e-05
7168.0,-0.0001490053691668436
7680.0,0.00017450453015044332
8192.0,0.0001467284164391458
end
