version,3.0
numOfCh,1
type,point
parent_name,ff67b_3dot0-0dot1
ch_type,1_1
kcount,1
numberNandB,1
brightnessNandB,1
carpet pos,0
pc,0
Time (ms),CH1 Auto-Correlation
1.0,0.016706788912415504
2.0,0.01390495989471674
3.0,0.011964268982410431
4.0,0.010492654517292976
5.0,0.009349997155368328
6.0,0.00850480142980814
7.0,0.007719618268311024
8.0,0.007122599519789219
9.0,0.006558674853295088
10.0,0.006079043261706829
11.0,0.0056792753748595715
12.0,0.00523791927844286
13.0,0.0048443833366036415
14.0,0.00455490592867136
15.0,0.004267742391675711
16.0,0.003983587492257357
18.0,0.0035241839941591024
20.0,0.003041662275791168
22.0,0.002519559348002076
24.0,0.002392025664448738
26.0,0.00220055365934968
28.0,0.0021623047068715096
30.0,0.0019832283724099398
32.0,0.0018522985046729445
36.0,0.0016076859319582582
40.0,0.0014808170963078737
44.0,0.0012653620215132833
48.0,0.001224464736878872
52.0,0.0013087170664221048
56.0,0.001220559817738831
60.0,0.0008717470336705446
64.0,0.0006297620129771531
72.0,0.0003969714744016528
80.0,0.0004505783144850284
88.0,0.0005204443586990237
96.0,0.0005483183776959777
104.0,0.00039770465809851885
112.0,0.00018537403957452625
120.0,-0.00023496337234973907
128.0,8.51718068588525e-05
144.0,-0.0001732412347337231
160.0,-9.964819764718413e-05
176.0,0.00016706834139768034
192.0,0.00044671999057754874
208.0,0.0004065945977345109
224.0,6.692358874715865e-05
240.0,0.00018132873810827732
256.0,0.00040605542017146945
288.0,-0.0004018302424810827
320.0,-0.0004556712228804827
352.0,-0.00031852946267463267
384.0,2.589083305792883e-05
416.0,0.00034833495737984776
448.0,0.00043290681787766516
480.0,0.00012102845357730985
512.0,0.0001295368274440989
576.0,-7.3969793447759e-05
640.0,0.00023311490076594055
704.0,0.0006548363016918302
768.0,-8.950327173806727e-05
832.0,-0.0003523727646097541
896.0,-0.00038698906428180635
960.0,-0.00021538164583034813
1024.0,-0.0002750541316345334
1152.0,0.0004231860802974552
1280.0,-0.0004994142218492925
1408.0,-0.00028141980874352157
1536.0,-0.0003956188738811761
1664.0,-0.0002674449351616204
1792.0,3.900169758708216e-05
1920.0,-0.00015861088468227535
2048.0,-0.0003724308917298913
2304.0,-5.360460636438802e-05
2560.0,2.9879620342398994e-05
2816.0,-9.021340520121157e-05
3072.0,-2.9833903681719676e-05
3328.0,3.77619726350531e-05
3584.0,-2.6388379410491325e-05
3840.0,-2.537420004955493e-05
4096.0,0.00011200336302863434
4608.0,0.0002630426315590739
5120.0,-0.00023461086675524712
5632.0,-8.744608749111649e-06
6144.0,-0.00040055785211734474
6656.0,9.294955088989809e-05
7168.0,5.254956249700626e-06
7680.0,-0.00013128686987329274
8192.0,-4.184089630143717e-05
end
