version,3.0
numOfCh,1
type,point
parent_name,ff67b_3dot0-0dot1
ch_type,1_1
kcount,1
numberNandB,1
brightnessNandB,1
carpet pos,0
pc,0
Time (ms),CH1 Auto-Correlation
1.0,0.01499640941619873
2.0,0.012209407053887844
3.0,0.010296476073563099
4.0,0.008908419869840145
5.0,0.007783816661685705
6.0,0.006898137740790844
7.0,0.006084193475544453
8.0,0.005553527735173702
9.0,0.005099996458739042
10.0,0.0046807159669697285
11.0,0.004219655878841877
12.0,0.0039222766645252705
13.0,0.0036984786856919527
14.0,0.003540290053933859
15.0,0.003381115384399891
16.0,0.003320863004773855
18.0,0.0032044395338743925
20.0,0.0030542199965566397
22.0,0.002833898412063718
24.0,0.002550722099840641
26.0,0.0023537359666079283
28.0,0.002101585967466235
30.0,0.0017729811370372772
32.0,0.0014367535477504134
36.0,0.001327904756180942
40.0,0.001158644212409854
44.0,0.0011076838709414005
48.0,0.0008883228874765337
52.0,0.0007741357549093664
56.0,0.000699326628819108
60.0,0.0005283673526719213
64.0,0.000355342635884881
72.0,0.0002783378877211362
80.0,0.00034142896765843034
88.0,0.0002413848997093737
96.0,0.00020234633120708168
104.0,0.000611977418884635
112.0,0.00022285540762823075
120.0,-1.7657206626608968e-05
128.0,-8.883196278475225e-05
144.0,-0.00038538905209861696
160.0,-0.0006678889039903879
176.0,-0.0006373333744704723
192.0,-0.0005302546196617186
208.0,-0.0007717131520621479
224.0,-0.0005985521711409092
240.0,-0.00019188130681868643
256.0,7.411529804812744e-05
288.0,-0.00012871540093328804
320.0,-0.00018061343871522695
352.0,-6.947339716134593e-05
384.0,-0.0002979737473651767
416.0,-0.0005302462377585471
448.0,0.00038197360117919743
480.0,0.0005454339552670717
512.0,-7.876398012740538e-05
576.0,3.0084187528700568e-05
640.0,4.198567239654949e-06
704.0,8.076381345745176e-05
768.0,0.0002381540252827108
832.0,0.0003800812119152397
896.0,0.0001717147824820131
960.0,0.00022913039720151573
1024.0,0.00011042047844966874
1152.0,0.0002164835314033553
1280.0,-0.00016889118705876172
1408.0,-8.861049718689173e-05
1536.0,-0.00014351530990097672
1664.0,1.436131788068451e-05
1792.0,-8.701222395757213e-05
1920.0,6.0944836150156334e-05
2048.0,-0.0002716960443649441
2304.0,-2.4229748305515386e-05
2560.0,-0.00046066188951954246
2816.0,2.0621226212824695e-05
3072.0,-0.0001467458059778437
3328.0,4.870485554420156e-06
3584.0,-9.707745448395144e-06
3840.0,0.00013182791008148342
4096.0,-0.00024686940014362335
4608.0,-4.9670252337818965e-05
5120.0,0.0003015433612745255
5632.0,0.0001723552995827049
6144.0,-4.007412644568831e-05
6656.0,0.00017286512593273073
7168.0,-0.0001834761060308665
7680.0,-0.00014604257012251765
8192.0,-0.00015614333096891642
end
