version,3.0
numOfCh,1
type,point
parent_name,ff67b_3dot0-0dot1
ch_type,1_1
kcount,1
numberNandB,1
brightnessNandB,1
carpet pos,0
pc,0
Time (ms),CH1 Auto-Correlation
1.0,0.016758862882852554
2.0,0.013853170908987522
3.0,0.011892564594745636
4.0,0.010435551404953003
5.0,0.00930829718708992
6.0,0.00835303496569395
7.0,0.007537027820944786
8.0,0.006752168759703636
9.0,0.006253778003156185
10.0,0.005904233083128929
11.0,0.005438110325485468
12.0,0.005014284048229456
13.0,0.004800931550562382
14.0,0.004481211770325899
15.0,0.004291485995054245
16.0,0.0040742638520896435
18.0,0.0036532862577587366
20.0,0.003430040320381522
22.0,0.003287993837147951
24.0,0.0031053044367581606
26.0,0.0031582629308104515
28.0,0.003056294284760952
30.0,0.0026959520764648914
32.0,0.002474003005772829
36.0,0.002208448015153408
40.0,0.0020998117979615927
44.0,0.001846094848588109
48.0,0.001635177992284298
52.0,0.0014158772537484765
56.0,0.0009425625903531909
60.0,0.0007845570798963308
64.0,0.0007826393120922148
72.0,0.000830239150673151
80.0,0.0005838249926455319
88.0,0.0002285672235302627
96.0,0.0005738056497648358
104.0,0.0005780527135357261
112.0,0.00037754132063128054
120.0,3.7346346744016046e-06
128.0,-1.8037098925560713e-05
144.0,-4.761290256283246e-05
160.0,-7.18949013389647e-05
176.0,-0.0002284988440806046
192.0,-0.0006431470974348485
208.0,-0.0004947384004481137
224.0,-0.00030127292848192155
240.0,-0.0002072876231977716
256.0,0.00013240867701824754
288.0,0.0002443714765831828
320.0,-7.410480611724779e-05
352.0,-0.0008225040510296822
384.0,-0.0004801872419193387
416.0,-0.0003202915540896356
448.0,-0.00046939190360717475
480.0,-0.00035358782042749226
512.0,-4.2854942876147106e-05
576.0,-0.0007770051015540957
640.0,9.905602928483859e-05
704.0,0.00035175125231035054
768.0,7.208422175608575e-05
832.0,-0.0001106568452087231
896.0,5.5228741985047236e-05
960.0,0.00047183618880808353
1024.0,-6.660360668320209e-05
1152.0,6.817020766902715e-05
1280.0,-0.0007719937711954117
1408.0,-0.0005993017111904919
1536.0,0.00014021218521520495
1664.0,0.00030781616806052625
1792.0,0.0003311662294436246
1920.0,0.00020881886302959174
2048.0,-0.00029485818231478333
2304.0,-0.0004126601561438292
2560.0,-0.00017675349954515696
2816.0,0.00034308191970922053
3072.0,-0.00016004183271434158
3328.0,-0.00012718039215542376
3584.0,0.0003396832034923136
3840.0,0.0003560792829375714
4096.0,-4.653154974221252e-05
4608.0,0.00034448705264367163
5120.0,-0.0003380567650310695
5632.0,-0.00010290465434081852
6144.0,-3.1528074032394215e-05
6656.0,8.268706005765125e-05
7168.0,-0.00016130623407661915
7680.0,0.0002927489986177534
8192.0,0.00021113110415171832
end
