version,3.0
numOfCh,1
type,point
parent_name,ff67b_3dot0-0dot1
ch_type,1_1
kcount,1
numberNandB,1
brightnessNandB,1
carpet pos,0
pc,0
Time (ms),CH1 Auto-Correlation
1.0,0.016077829524874687
2.0,0.013176750391721725
3.0,0.01122887060046196
4.0,0.009682741016149521
5.0,0.008530602790415287
6.0,0.007641085423529148
7.0,0.00683154771104455
8.0,0.006200612057000399
9.0,0.005608587525784969
10.0,0.005187511909753084
11.0,0.004720548167824745
12.0,0.004361516796052456
13.0,0.004094766452908516
14.0,0.00381309911608696
15.0,0.003559411270543933
16.0,0.0034121149219572544
18.0,0.003044114913791418
20.0,0.002866128459572792
22.0,0.002689594402909279
24.0,0.002515343250706792
26.0,0.002410521963611245
28.0,0.0021611175034195185
30.0,0.002022396307438612
32.0,0.0020164353772997856
36.0,0.001888672704808414
40.0,0.0018679609056562185
44.0,0.0019177710637450218
48.0,0.0014183714520186186
52.0,0.0011075251968577504
56.0,0.0011801847722381353
60.0,0.0014547358732670546
64.0,0.0010013795690611005
72.0,0.0007145397830754519
80.0,0.00031932961428537965
88.0,0.0003543226048350334
96.0,-6.500666131614707e-06
104.0,0.00013043636863585562
112.0,0.0003597739269025624
120.0,8.129200432449579e-05
128.0,-0.00015895919932518154
144.0,8.487046579830348e-05
160.0,-9.090152161661536e-05
176.0,0.00010455363371875137
192.0,0.0005775870522484183
208.0,-6.966164073674008e-05
224.0,-0.00023328809766098857
240.0,0.0007863984210416675
256.0,0.0009273046161979437
288.0,0.000613119569607079
320.0,0.0003775557270273566
352.0,-9.651594155002385e-05
384.0,-0.00025113963056355715
416.0,-0.00016973029414657503
448.0,-0.0006929477676749229
480.0,-0.0004892849246971309
512.0,-0.00010433735587866977
576.0,0.00017239055887330323
640.0,-0.00021437725808937103
704.0,-0.00017091412155423313
768.0,0.00011551444185897708
832.0,0.0003759176761377603
896.0,0.0004113042668905109
960.0,0.0004004716465715319
1024.0,-0.00030171789694577456
1152.0,0.0004309129435569048
1280.0,6.961893086554483e-05
1408.0,7.574546998512233e-06
1536.0,1.3547837625083048e-05
1664.0,-0.0002461736148688942
1792.0,0.00020940926333423704
1920.0,0.00045877951197326183
2048.0,0.0004577893123496324
2304.0,-0.0003171417920384556
2560.0,1.823685670387931e-05
2816.0,9.223374217981473e-05
3072.0,-0.00022100456408225
3328.0,-0.000600620114710182
3584.0,-4.657852332456969e-05
3840.0,0.00010687862959457561
4096.0,-0.000497993256431073
4608.0,-6.992292037466541e-05
5120.0,8.975631499197334e-05
5632.0,-0.00023774975852575153
6144.0,-0.00015737810463178903
6656.0,7.332554378081113e-05
7168.0,-0.00016035977751016617
7680.0,-6.833263614680618e-05
8192.0,-0.0001559100637678057
end
