version,3.0
numOfCh,1
type,point
parent_name,ff67b_3dot0-0dot1
ch_type,1_1
kcount,1
numberNandB,1
brightnessNandB,1
carpet pos,0
pc,0
Time (ms),CH1 Auto-Correlation
1.0,0.015795964747667313
2.0,0.012852214276790619
3.0,0.010832184925675392
4.0,0.009341179393231869
5.0,0.008123674429953098
6.0,0.007226668763905764
7.0,0.006586795672774315
8.0,0.006071324925869703
9.0,0.005553183611482382
10.0,0.005100775044411421
11.0,0.004617619328200817
12.0,0.004224748816341162
13.0,0.003896098118275404
14.0,0.0037422925233840942
15.0,0.0035326285287737846
16.0,0.00333539885468781
18.0,0.002734060864895582
20.0,0.0023714532144367695
22.0,0.0022061397321522236
24.0,0.0021728966385126114
26.0,0.0021877263206988573
28.0,0.002067161723971367
30.0,0.002032824559137225
32.0,0.0018923236057162285
36.0,0.0016721764113754034
40.0,0.0014690859243273735
44.0,0.0013616041978821158
48.0,0.0008419158402830362
52.0,0.000947816704865545
56.0,0.0009847049368545413
60.0,0.0010533788008615375
64.0,0.001017710193991661
72.0,0.0007701109861955047
80.0,0.000738232396543026
88.0,0.0008631160017102957
96.0,0.0007605300052091479
104.0,0.0009596979361958802
112.0,0.0008445828570984304
120.0,0.000829557713586837
128.0,0.0007333361427299678
144.0,0.0007294745882973075
160.0,0.0003326004953123629
176.0,0.0005832351744174957
192.0,0.0008136564283631742
208.0,0.0003610897983890027
224.0,-0.0003878280404023826
240.0,-0.00028680823743343353
256.0,9.443864109925926e-05
288.0,-5.314750160323456e-05
320.0,0.0005185042973607779
352.0,4.376222568680532e-05
384.0,0.000803605536930263
416.0,0.0005142676527611911
448.0,-0.0002783799427561462
480.0,-4.628084570867941e-05
512.0,0.00035283478791825473
576.0,0.0004687370965257287
640.0,3.611104330047965e-05
704.0,-0.0003709635348059237
768.0,-0.00037541190977208316
832.0,-0.00021783092233818024
896.0,-0.00039422570262104273
960.0,6.282993126660585e-06
1024.0,0.00037167337723076344
1152.0,-3.908663347829133e-05
1280.0,-0.0001138222505687736
1408.0,-0.00014152434596326202
1536.0,6.886673872941174e-06
1664.0,-7.464827649528161e-05
1792.0,2.5149272460112115e-06
1920.0,3.696176463563461e-06
2048.0,-0.00017415155889466405
2304.0,-0.00029518685187213123
2560.0,-0.00019037813763134181
2816.0,-0.0002255678118672222
3072.0,0.0002368035347899422
3328.0,0.000549787248019129
3584.0,0.000205560791073367
3840.0,0.0007811986724846065
4096.0,-0.00026942044496536255
4608.0,-0.0002847991418093443
5120.0,0.0002759890630841255
5632.0,7.833994459360838e-05
6144.0,-0.00013631019101012498
6656.0,-5.256032818579115e-05
7168.0,-0.0003450014046393335
7680.0,-0.0005297000170685351
8192.0,-0.0006360299303196371
end
