version,3.0
numOfCh,1
type,point
parent_name,ff67b_3dot0-0dot1
ch_type,1_1
kcount,1
numberNandB,1
brightnessNandB,1
carpet pos,0
pc,0
Time (ms),CH1 Auto-Correlation
1.0,0.015356985852122307
2.0,0.012552901171147823
3.0,0.010502786375582218
4.0,0.008975598961114883
5.0,0.007823558524250984
6.0,0.006881079636514187
7.0,0.0061334543861448765
8.0,0.005537929479032755
9.0,0.005097353830933571
10.0,0.004675252828747034
11.0,0.004330034367740154
12.0,0.0039530484937131405
13.0,0.003647088073194027
14.0,0.0033478769473731518
15.0,0.0031524505466222763
16.0,0.0028458191081881523
18.0,0.0022419774904847145
20.0,0.001923849224112928
22.0,0.001828244887292385
24.0,0.001760800601914525
26.0,0.0016013819258660078
28.0,0.0014633000828325748
30.0,0.0013656803639605641
32.0,0.0013262146385386586
36.0,0.0015881157014518976
40.0,0.001374369370751083
44.0,0.001006969134323299
48.0,0.0010594933992251754
52.0,0.0011020367965102196
56.0,0.0010548230493441224
60.0,0.0010600080713629723
64.0,0.0007934595923870802
72.0,0.0006628514383919537
80.0,0.0005040722317062318
88.0,0.0002777154149953276
96.0,0.00034391527879051864
104.0,0.0003745869325939566
112.0,0.00041974065243266523
120.0,7.050632120808586e-05
128.0,0.00014356395695358515
144.0,0.0005717813619412482
160.0,0.0002489351900294423
176.0,0.00027789673185907304
192.0,0.00033031447674147785
208.0,0.00012159849575255066
224.0,0.00017922482220456004
240.0,0.0003570090339053422
256.0,0.0006480584852397442
288.0,0.0007216252270154655
320.0,5.6904013035818934e-05
352.0,0.00047258115955628455
384.0,0.0004202156269457191
416.0,0.0003035897098015994
448.0,-6.505903729703277e-05
480.0,-0.00011483400885481387
512.0,-0.00012444159074220806
576.0,0.00021797929366584867
640.0,0.00015806537703610957
704.0,0.00020492853946052492
768.0,-3.8736190617782995e-05
832.0,-7.305164763238281e-05
896.0,-0.00023531133774667978
960.0,9.206969843944535e-05
1024.0,-0.0001585969584994018
1152.0,-1.0721812486735871e-06
1280.0,-0.0002965830499306321
1408.0,-0.00032976080547086895
1536.0,-0.0002479474351275712
1664.0,-0.000676633499097079
1792.0,-0.0007513753371313214
1920.0,-0.0001631645136512816
2048.0,6.938220758456737e-05
2304.0,-0.0002194785774918273
2560.0,-0.00027591714751906693
2816.0,3.650142753031105e-05
3072.0,0.00034296090598218143
3328.0,0.0002880112442653626
3584.0,0.00016387163486797363
3840.0,7.206974987639114e-05
4096.0,-0.000197135130292736
4608.0,-0.00036280634230934083
5120.0,-0.00030859140679240227
5632.0,0.00020142718858551234
6144.0,0.0006481503369286656
6656.0,0.00013799782027490437
7168.0,5.82679349463433e-05
7680.0,-0.0002802421513479203
8192.0,-0.00022368188365362585
end
