version,3.0
numOfCh,1
type,point
parent_name,ff67b_3dot0-0dot1
ch_type,1_1
kcount,1
numberNandB,1
brightnessNandB,1
carpet pos,0
pc,0
Time (ms),CH1 Auto-Correlation
1.0,0.016049383208155632
2.0,0.013331795111298561
3.0,0.011426892131567001
4.0,0.00987953133881092
5.0,0.008704230189323425
6.0,0.0077884928323328495
7.0,0.007050667889416218
8.0,0.006384392734616995
9.0,0.005931811407208443
10.0,0.005389544181525707
11.0,0.004967023152858019
12.0,0.004572948440909386
13.0,0.004117364529520273
14.0,0.003814189461991191
15.0,0.0035819371696561575
16.0,0.0033781423699110746
18.0,0.003168011549860239
20.0,0.002991407411172986
22.0,0.0027120395097881556
24.0,0.002448537154123187
26.0,0.002269068732857704
28.0,0.0019308511400595307
30.0,0.0015549856470897794
32.0,0.0013670700136572123
36.0,0.0010520018404349685
40.0,0.0011189987417310476
44.0,0.0016286438331007957
48.0,0.0019062372157350183
52.0,0.0018180819461122155
56.0,0.001596201560460031
60.0,0.0013169002486392856
64.0,0.0009717021603137255
72.0,0.0007249969057738781
80.0,0.00032163108699023724
88.0,-0.00027437126846052706
96.0,-3.6352063034428284e-05
104.0,-5.582033554674126e-05
112.0,-0.00014950094919186085
120.0,9.084802150027826e-05
128.0,0.0005420069210231304
144.0,0.00034493260318413377
160.0,-1.0463497346790973e-05
176.0,0.0002315660094609484
192.0,-6.527284767798847e-06
208.0,0.00017250915698241442
224.0,-0.00029748352244496346
240.0,0.00012416738900355995
256.0,0.0006466471822932363
288.0,0.0004951889277435839
320.0,0.0008057310478761792
352.0,0.00031636710627935827
384.0,0.00032893591560423374
416.0,-2.193329419242218e-05
448.0,0.00034858621074818075
480.0,0.0003236929187551141
512.0,0.0005109116900712252
576.0,0.0004238898982293904
640.0,0.00020360323833301663
704.0,0.0001040132628986612
768.0,8.742156205698848e-05
832.0,0.00024016050156205893
896.0,-0.0001784589549060911
960.0,-0.00025947156245820224
1024.0,0.00014685220958199352
1152.0,0.00019705445447470993
1280.0,9.191212302539498e-05
1408.0,-0.00047216686652973294
1536.0,-0.0003054714179597795
1664.0,-5.21469337400049e-05
1792.0,-4.971293037669966e-06
1920.0,0.0004303072055336088
2048.0,-0.0003443415916990489
2304.0,-0.0003289716551080346
2560.0,-0.00015467610501218587
2816.0,-0.0001005955200525932
3072.0,0.00031260240939445794
3328.0,-5.072443309472874e-05
3584.0,0.0001738791324896738
3840.0,0.00043323118006810546
4096.0,-7.655101944692433e-05
4608.0,1.6761030565248802e-05
5120.0,-0.00012909743236377835
5632.0,-0.0003975296567659825
6144.0,-0.0005095627857372165
6656.0,-0.00014795616152696311
7168.0,-2.691789995878935e-05
7680.0,0.00011097258538939059
8192.0,-0.00046106401714496315
end
