version,3.0
numOfCh,1
type,point
parent_name,ff67b_3dot0-0dot1
ch_type,1_1
kcount,1
numberNandB,1
brightnessNandB,1
carpet pos,0
pc,0
Time (ms),CH1 Auto-Correlation
1.0,0.015716534107923508
2.0,0.012861321680247784
3.0,0.010756504721939564
4.0,0.009180431254208088
5.0,0.008024489507079124
6.0,0.007088513113558292
7.0,0.006234317552298307
8.0,0.005490520969033241
9.0,0.004969172179698944
10.0,0.004582250025123358
11.0,0.004252575803548098
12.0,0.003919071983546019
13.0,0.0036832240875810385
14.0,0.0034600282087922096
15.0,0.003339935326948762
16.0,0.003130923490971327
18.0,0.0026407153345644474
20.0,0.002263404428958893
22.0,0.001893562264740467
24.0,0.0016256970120593905
26.0,0.0013643514830619097
28.0,0.0013195625506341457
30.0,0.0012363714631646872
32.0,0.0010106632253155112
36.0,0.0006869123317301273
40.0,0.000519588531460613
44.0,0.000613379932474345
48.0,0.0006549383397214115
52.0,0.0006321865948848426
56.0,0.0006130480905994773
60.0,0.0008197150309570134
64.0,0.0009566675289534032
72.0,0.0012562792981043458
80.0,0.0009856466203927994
88.0,0.0006366374436765909
96.0,0.0006416956312023103
104.0,0.0005041053518652916
112.0,0.0003996483574155718
120.0,0.00012106317444704473
128.0,7.804453343851492e-05
144.0,0.0001272561348741874
160.0,-0.00011360728240106255
176.0,-0.0009160382905974984
192.0,-0.000644551299046725
208.0,-0.0004481156647671014
224.0,-8.558726403862238e-05
240.0,-0.00012526745558716357
256.0,-0.00044814698048867285
288.0,0.00017769286932889372
320.0,0.00045735170715488493
352.0,0.0005919956602156162
384.0,-8.099921979010105e-05
416.0,-0.0001028550323098898
448.0,8.139040437527001e-05
480.0,-3.449456926318817e-05
512.0,-0.00012141698243794963
576.0,0.00017531414050608873
640.0,0.0001528611610410735
704.0,-0.0005356575711630285
768.0,-0.000349781708791852
832.0,-5.6077780755003914e-05
896.0,-3.393367649096035e-07
960.0,0.0003433537494856864
1024.0,-0.0002915989316534251
1152.0,-0.0002098973491229117
1280.0,1.4451190509134904e-05
1408.0,0.00015161086048465222
1536.0,-0.00013877954916097224
1664.0,-0.00012804294237866998
1792.0,-0.000287566363113001
1920.0,0.0002624544722493738
2048.0,0.00020427514391485602
2304.0,7.026254752418026e-05
2560.0,0.00025145101244561374
2816.0,0.00019134770263917744
3072.0,-0.0002979096316266805
3328.0,-0.00038291941746138036
3584.0,-0.0003854947572108358
3840.0,0.00021466494945343584
4096.0,0.00016246878658421338
4608.0,3.9458696846850216e-05
5120.0,3.4458833397366107e-05
5632.0,-0.00013770289660897106
6144.0,-9.03111413208535e-06
6656.0,0.0002700992627069354
7168.0,-0.0001877759350463748
7680.0,0.00017340249905828387
8192.0,-0.00027041995781473815
end
