version,3.0
numOfCh,1
type,point
parent_name,ff67b_3dot0-0dot1
ch_type,1_1
kcount,1
numberNandB,1
brightnessNandB,1
carpet pos,0
pc,0
Time (ms),CH1 Auto-Correlation
1.0,0.015114979818463326
2.0,0.012322722002863884
3.0,0.010405626147985458
4.0,0.009088216349482536
5.0,0.008038189262151718
6.0,0.007192038465291262
7.0,0.006542493589222431
8.0,0.005962916649878025
9.0,0.005414266139268875
10.0,0.004963844083249569
11.0,0.0046468195505440235
12.0,0.004363895393908024
13.0,0.004135699477046728
14.0,0.0038736986462026834
15.0,0.003684661351144314
16.0,0.003665817901492119
18.0,0.003403648268431425
20.0,0.003152701770886779
22.0,0.0029348658863455057
24.0,0.0027411177288740873
26.0,0.002477701287716627
28.0,0.0021376428194344044
30.0,0.001897144946269691
32.0,0.0017490872414782643
36.0,0.0014791000867262483
40.0,0.0012990804389119148
44.0,0.0012429554481059313
48.0,0.0010918676853179932
52.0,0.0010128087596967816
56.0,0.0011427846038714051
60.0,0.0009516252321191132
64.0,0.0008321870118379593
72.0,0.0005096988752484322
80.0,0.000503919436596334
88.0,0.000460612092865631
96.0,0.0001973226317204535
104.0,0.00034591933945193887
112.0,0.0004982336540706456
120.0,0.0004725999606307596
128.0,0.00031275252695195377
144.0,0.00032168300822377205
160.0,-0.00013620105164591223
176.0,0.0003447381022851914
192.0,0.0002633534313645214
208.0,0.00027820959803648293
224.0,-0.00011920903489226475
240.0,0.00010293558443663642
256.0,0.0004511571896728128
288.0,9.07235335034784e-06
320.0,-7.517719495808706e-05
352.0,-2.232203769381158e-05
384.0,0.00022750995412934572
416.0,-0.00021423312136903405
448.0,8.696771146787796e-06
480.0,9.105390927288681e-05
512.0,4.333205652073957e-05
576.0,-0.00021848094183951616
640.0,6.107227818574756e-05
704.0,0.0002984367893077433
768.0,-0.0002632848045323044
832.0,8.494714165863115e-06
896.0,-0.0003491631941869855
960.0,-0.000564295332878828
1024.0,-0.000532163365278393
1152.0,-1.9467668607831e-05
1280.0,0.00035478355130180717
1408.0,0.0004190179752185941
1536.0,0.0005589374341070652
1664.0,0.0004328286449890584
1792.0,-0.000210300408070907
1920.0,0.00022063151118345559
2048.0,0.0006478233262896538
2304.0,-0.0001477912737755105
2560.0,-0.00014681188622489572
2816.0,4.6926827053539455e-05
3072.0,0.00012710150622297078
3328.0,2.5875922801787965e-05
3584.0,-0.00014026148710399866
3840.0,-0.0002634981938172132
4096.0,-7.220383849926293e-05
4608.0,-0.00017817196203395724
5120.0,-5.084649501441163e-07
5632.0,-0.00010728523920988664
6144.0,-0.0002732653811108321
6656.0,-0.00031092725112102926
7168.0,2.132193731085863e-05
7680.0,-0.00012794426584150642
8192.0,-0.0009391281055286527
end
