version,3.0
numOfCh,1
type,point
parent_name,ff67b_3dot0-0dot1
ch_type,1_1
kcount,1
numberNandB,1
brightnessNandB,1
carpet pos,0
pc,0
Time (ms),CH1 Auto-Correlation
1.0,0.014553945511579514
2.0,0.011830384843051434
3.0,0.009901901707053185
4.0,0.008552907034754753
5.0,0.00744106387719512
6.0,0.006492174696177244
7.0,0.005754514131695032
8.0,0.005155290011316538
9.0,0.0047126212157309055
10.0,0.004411636386066675
11.0,0.004106997512280941
12.0,0.0037264330312609673
13.0,0.0034611220471560955
14.0,0.003134605474770069
15.0,0.003016355447471142
16.0,0.0027716588228940964
18.0,0.002489150734618306
20.0,0.0021244140807539225
22.0,0.0020405445247888565
24.0,0.002126462059095502
26.0,0.002037479542195797
28.0,0.001954304287210107
30.0,0.001848385320045054
32.0,0.0019362014718353748
36.0,0.0017151732463389635
40.0,0.0013455271255224943
44.0,0.001059662434272468
48.0,0.001094399718567729
52.0,0.0011677445145323873
56.0,0.0013202483532950282
60.0,0.0016230617184191942
64.0,0.0016577023779973388
72.0,0.0015404621371999383
80.0,0.0011678755981847644
88.0,0.0010615153005346656
96.0,0.001134941354393959
104.0,0.0007123166578821838
112.0,0.0007418987806886435
120.0,0.0006493396940641105
128.0,0.00027321273228153586
144.0,0.0003069609811063856
160.0,0.0002190093946410343
176.0,0.00026017273194156587
192.0,0.00016300274000968784
208.0,-1.2094381418137345e-05
224.0,2.79685809800867e-05
240.0,4.288328273105435e-05
256.0,0.00027005255105905235
288.0,0.0007069261628203094
320.0,0.00012952301767654717
352.0,0.0002888339222408831
384.0,-0.0001012235225061886
416.0,0.0002505971642676741
448.0,0.0002132193185389042
480.0,-1.84345572051825e-05
512.0,0.00035271147498860955
576.0,0.0005852907197549939
640.0,0.00041520074591971934
704.0,-9.044927719514817e-05
768.0,-0.000171377687365748
832.0,-9.20871170819737e-05
896.0,0.00014334902516566217
960.0,-9.925328777171671e-05
1024.0,-0.00011671183165162802
1152.0,-5.084082295070402e-05
1280.0,0.00024754038895480335
1408.0,0.00019105181854683906
1536.0,-0.00039523933082818985
1664.0,-0.00042944750748574734
1792.0,0.00020024854165967554
1920.0,5.102519571664743e-05
2048.0,-0.0006206517573446035
2304.0,-0.00018923722382169217
2560.0,-0.000530075456481427
2816.0,-9.021973528433591e-05
3072.0,-4.019629614049336e-06
3328.0,-0.00012830285413656384
3584.0,-0.00016262431745417416
3840.0,-0.000343307270668447
4096.0,-0.00011777330655604601
4608.0,0.0001992559409700334
5120.0,0.00020412685989867896
5632.0,0.0004753856628667563
6144.0,0.00035191571805626154
6656.0,-6.506586487375898e-06
7168.0,-0.0003541357000358403
7680.0,-0.00025355047546327114
8192.0,-0.000612292904406786
end
