version,3.0
numOfCh,1
type,point
parent_name,ff67b_3dot0-0dot1
ch_type,1_1
kcount,1
numberNandB,1
brightnessNandB,1
carpet pos,0
pc,0
Time (ms),CH1 Auto-Correlation
1.0,0.017723439261317253
2.0,0.014927789568901062
3.0,0.012974622659385204
4.0,0.011478789150714874
5.0,0.010174104943871498
6.0,0.009121826849877834
7.0,0.008260137401521206
8.0,0.007559747435152531
9.0,0.0068712239153683186
10.0,0.0062794736586511135
11.0,0.005712524522095919
12.0,0.005247707478702068
13.0,0.004855217877775431
14.0,0.004499903880059719
15.0,0.004255436360836029
16.0,0.003977681510150433
18.0,0.003392844693735242
20.0,0.0029037226922810078
22.0,0.002472572261467576
24.0,0.0022267375607043505
26.0,0.0020730893593281507
28.0,0.0018361011752858758
30.0,0.0016573314787819982
32.0,0.0015557429287582636
36.0,0.001389491488225758
40.0,0.0010757031850516796
44.0,0.0010739302961155772
48.0,0.0010149787412956357
52.0,0.0010112609015777707
56.0,0.001025029574520886
60.0,0.0011001132661476731
64.0,0.0009955497225746512
72.0,0.0008445078856311738
80.0,0.0010386110516265035
88.0,0.0008156666881404817
96.0,0.0006787413149140775
104.0,0.00045578120625577867
112.0,0.0008803857490420341
120.0,0.0009663557284511626
128.0,0.0009749394957907498
144.0,0.0007823011837899685
160.0,0.0009797991951927543
176.0,0.0006237360066734254
192.0,0.0005390785518102348
208.0,0.00022989003628026694
224.0,0.0001213184732478112
240.0,-0.00014771620044484735
256.0,-5.369117570808157e-05
288.0,-0.0003112263511866331
320.0,0.00014365845709107816
352.0,-0.0003442730230744928
384.0,-0.00025183093384839594
416.0,-0.0001670139463385567
448.0,-6.310042226687074e-05
480.0,-0.000697903276886791
512.0,-0.00058589136460796
576.0,0.0001374117418890819
640.0,-0.00011387417180230841
704.0,-0.0003489687223918736
768.0,0.00020373133884277195
832.0,-0.00020554110233206302
896.0,-3.332778578624129e-05
960.0,0.00013988571299705654
1024.0,0.00041491666343063116
1152.0,-0.0003117501037195325
1280.0,0.00024476356338709593
1408.0,-0.00021571408433374017
1536.0,-0.00023789750412106514
1664.0,-0.00017436238704249263
1792.0,0.00013794456026516855
1920.0,-0.0003199946950189769
2048.0,-0.0001712570956442505
2304.0,0.0002429796732030809
2560.0,-0.0002879865642171353
2816.0,-0.00021458699484355748
3072.0,8.066004374995828e-05
3328.0,0.00033237325260415673
3584.0,5.0355961320747156e-06
3840.0,-0.00015840439300518483
4096.0,5.2134790166746825e-05
4608.0,-0.00031515012960880995
5120.0,-0.0001658084220252931
5632.0,9.806849448068533e-06
6144.0,-0.00010636056686053053
6656.0,0.0004134000337217003
7168.0,-0.0001579241652507335
7680.0,-0.00011955777881667018
8192.0,0.0001891568099381402
end
