version,3.0
numOfCh,1
type,point
parent_name,ff67b_3dot0-0dot1
ch_type,1_1
kcount,1
numberNandB,1
brightnessNandB,1
carpet pos,0
pc,0
Time (ms),CH1 Auto-Correlation
1.0,0.01976647414267063
2.0,0.01697789877653122
3.0,0.014840285293757915
4.0,0.013237074948847294
5.0,0.012085235677659512
6.0,0.01120384968817234
7.0,0.01034723874181509
8.0,0.00964763481169939
9.0,0.009066730737686157
10.0,0.008614611811935902
11.0,0.008150598965585232
12.0,0.007671551778912544
13.0,0.007262692786753178
14.0,0.007014854345470667
15.0,0.006727302446961403
16.0,0.0064102294854819775
18.0,0.005967732053250074
20.0,0.005543378181755543
22.0,0.005141623318195343
24.0,0.00474510109052062
26.0,0.004472716245800257
28.0,0.004307018127292395
30.0,0.004128923173993826
32.0,0.0039449031464755535
36.0,0.0034377784468233585
40.0,0.0029229146894067526
44.0,0.0025975964963436127
48.0,0.0022339217830449343
52.0,0.002192682819440961
56.0,0.0022376030683517456
60.0,0.0019422202603891492
64.0,0.001633300562389195
72.0,0.0017057872610166669
80.0,0.0018130869138985872
88.0,0.0013905182713642716
96.0,0.0016472176648676395
104.0,0.0012968007940798998
112.0,0.0008520216797478497
120.0,0.0007529758149757981
128.0,0.0006491441745311022
144.0,0.0006608417024835944
160.0,0.0007612759945914149
176.0,0.000830936012789607
192.0,0.0009676769841462374
208.0,0.0012098567094653845
224.0,0.0013416411820799112
240.0,0.000933222530875355
256.0,0.0011060826946049929
288.0,0.0006145148072391748
320.0,0.000427794991992414
352.0,0.0002825175179168582
384.0,-0.00010285412281518802
416.0,0.0004803661140613258
448.0,0.0012557273730635643
480.0,0.0006795392255298793
512.0,0.00032006282708607614
576.0,0.0007128880824893713
640.0,0.0007282199221663177
704.0,0.0011385283432900906
768.0,0.00022917392197996378
832.0,0.0005404260591603816
896.0,0.00041705931653268635
960.0,0.00034065524232573807
1024.0,0.00011404164979467168
1152.0,0.0001247499167220667
1280.0,-9.456250700168312e-05
1408.0,0.0007619525422342122
1536.0,0.0006090139504522085
1664.0,0.00020540010882541537
1792.0,-3.7383677408797666e-05
1920.0,-0.0004885346861556172
2048.0,-0.00017881675739772618
2304.0,0.0005933503271080554
2560.0,0.00031907178345136344
2816.0,0.00013453188876155764
3072.0,0.00048467351007275283
3328.0,-4.330525916884653e-05
3584.0,-0.0004907473339699209
3840.0,-3.433562960708514e-05
4096.0,-0.0007284192251972854
4608.0,-0.00011692949192365631
5120.0,-0.0002924963482655585
5632.0,-0.0002989785571116954
6144.0,-0.00042353238677605987
6656.0,-0.0009268611902371049
7168.0,-0.000548731186427176
7680.0,-0.0004461579374037683
8192.0,-0.0003832189249806106
end
