version,3.0
numOfCh,1
type,point
parent_name,ff67b_3dot0-0dot1
ch_type,1_1
kcount,1
numberNandB,1
brightnessNandB,1
carpet pos,0
pc,0
Time (ms),CH1 Auto-Correlation
1.0,0.01604931242763996
2.0,0.013230000622570515
3.0,0.011137520894408226
4.0,0.009603183716535568
5.0,0.0085419537499547
6.0,0.007664616219699383
7.0,0.006829376332461834
8.0,0.006169225554913282
9.0,0.005701328627765179
10.0,0.005253084469586611
11.0,0.004873113706707954
12.0,0.00460915407165885
13.0,0.004324420355260372
14.0,0.0040450505912303925
15.0,0.0037882092874497175
16.0,0.0035263842437416315
18.0,0.0030964554753154516
20.0,0.002906536217778921
22.0,0.002694818191230297
24.0,0.002369658090174198
26.0,0.0019421176984906197
28.0,0.0018010877538472414
30.0,0.0018056719563901424
32.0,0.0017933484632521868
36.0,0.0018240006174892187
40.0,0.0016253255307674408
44.0,0.0014526972081512213
48.0,0.0012648996198549867
52.0,0.0015154795255512
56.0,0.0012651728466153145
60.0,0.0011531595373526216
64.0,0.0009950422681868076
72.0,0.0005127922631800175
80.0,0.00021482640295289457
88.0,0.0003978776221629232
96.0,0.0004208929603919387
104.0,0.0002615143312141299
112.0,-9.870046778814867e-05
120.0,-0.00034041007165797055
128.0,0.0001329271326540038
144.0,0.0004782955511473119
160.0,0.00025169114815071225
176.0,0.0003725083952303976
192.0,0.0004354944685474038
208.0,-2.7594742277869955e-05
224.0,0.00018470945360604674
240.0,-0.0003142666246276349
256.0,-0.000410832348279655
288.0,0.00017826753901317716
320.0,-5.617464194074273e-05
352.0,-0.00019071433052886277
384.0,-6.862088775960729e-05
416.0,-0.0008634590776637197
448.0,-0.0007942969095893204
480.0,-0.0004528024874161929
512.0,4.95346357638482e-05
576.0,-0.00012083860201528296
640.0,-0.00045264625805430114
704.0,-0.00026306824292987585
768.0,-0.0004508518904913217
832.0,-0.00025845036725513637
896.0,0.00022968786652199924
960.0,-5.5642467486904934e-05
1024.0,0.00019251968478783965
1152.0,0.0002253098791697994
1280.0,-0.0004769901279360056
1408.0,0.00045612474787048995
1536.0,-0.00026630013599060476
1664.0,-0.0006798743852414191
1792.0,-0.00020593225781340152
1920.0,-4.607420487445779e-05
2048.0,0.0004804000782314688
2304.0,2.717436473176349e-05
2560.0,-7.858611934352666e-05
2816.0,-0.00021895697864238173
3072.0,5.164531467016786e-05
3328.0,0.0005187267088331282
3584.0,0.00035301040043123066
3840.0,-0.0007119019865058362
4096.0,-0.000172619431396015
4608.0,2.470654362696223e-05
5120.0,-0.0002704134094528854
5632.0,0.0001749510847730562
6144.0,-1.4242998986446764e-05
6656.0,0.00038348144153133035
7168.0,-0.0003197464975528419
7680.0,0.00014945087605156004
8192.0,-0.00025165805709548295
end
