version,3.0
numOfCh,1
type,point
parent_name,714af_0dot2-0dot01
ch_type,1_1
kcount,1
numberNandB,1
brightnessNandB,1
carpet pos,0
pc,0
Time (ms),CH1 Auto-Correlation
1.0,0.05610697343945503
2.0,0.0555402897298336
3.0,0.054981935769319534
4.0,0.05444149672985077
5.0,0.05391021817922592
6.0,0.053406067192554474
7.0,0.052931271493434906
8.0,0.0524761937558651
9.0,0.052026595920324326
10.0,0.05157493054866791
11.0,0.051149677485227585
12.0,0.05074227228760719
13.0,0.050355441868305206
14.0,0.04997200518846512
15.0,0.04961711913347244
16.0,0.049283262342214584
18.0,0.04861931502819061
20.0,0.04796841740608215
22.0,0.04735507443547249
24.0,0.04673488438129425
26.0,0.046123161911964417
28.0,0.0455724261701107
30.0,0.04505596682429314
32.0,0.044592950493097305
36.0,0.04365513473749161
40.0,0.042856160551309586
44.0,0.04215814918279648
48.0,0.04140733927488327
52.0,0.0406029112637043
56.0,0.039893634617328644
60.0,0.03929045423865318
64.0,0.03870118036866188
72.0,0.03778817504644394
80.0,0.037057407200336456
88.0,0.03613073006272316
96.0,0.03556887432932854
104.0,0.03488535061478615
112.0,0.034133780747652054
120.0,0.0336708165705204
128.0,0.03359281271696091
144.0,0.03357953205704689
160.0,0.033177074044942856
176.0,0.032377347350120544
192.0,0.031167486682534218
208.0,0.0294023510068655
224.0,0.028094017878174782
240.0,0.027390003204345703
256.0,0.026180125772953033
288.0,0.02358863316476345
320.0,0.022428050637245178
352.0,0.021779775619506836
384.0,0.022246606647968292
416.0,0.021937396377325058
448.0,0.021385319530963898
480.0,0.021317755803465843
512.0,0.0204616729170084
576.0,0.01930793933570385
640.0,0.01687523163855076
704.0,0.015099930576980114
768.0,0.01125185564160347
832.0,0.00965790543705225
896.0,0.008357266895473003
960.0,0.006334705278277397
1024.0,0.003520762547850609
1152.0,0.0013777492567896843
1280.0,0.0007582649122923613
1408.0,2.7940646759816445e-05
1536.0,-0.0012751668691635132
1664.0,-0.004105017986148596
1792.0,-0.002335317200049758
1920.0,0.0015905797481536865
2048.0,0.0006055454141460359
2304.0,-0.004293541423976421
2560.0,-0.008466187864542007
2816.0,-0.008759427815675735
3072.0,-0.014037984423339367
3328.0,-0.01436369214206934
3584.0,-0.01175356563180685
3840.0,-0.006571081932634115
4096.0,-0.0030965411569923162
4608.0,0.002285158261656761
5120.0,0.0037822893355041742
5632.0,0.0017771607963368297
6144.0,0.0053381770849227905
6656.0,-0.006102561950683594
7168.0,-0.010876866988837719
7680.0,-0.01962195336818695
8192.0,-0.011690697632730007
end
