version,3.0
numOfCh,1
type,point
parent_name,714af_0dot2-0dot01
ch_type,1_1
kcount,1
numberNandB,1
brightnessNandB,1
carpet pos,0
pc,0
Time (ms),CH1 Auto-Correlation
1.0,0.04448815807700157
2.0,0.043595265597105026
3.0,0.04272572696208954
4.0,0.04186764732003212
5.0,0.04100238159298897
6.0,0.04014548286795616
7.0,0.039273567497730255
8.0,0.03837898001074791
9.0,0.03751643747091293
10.0,0.03667934983968735
11.0,0.03587550297379494
12.0,0.03506418690085411
13.0,0.03428082540631294
14.0,0.033533964306116104
15.0,0.032800350338220596
16.0,0.03210658207535744
18.0,0.030718272551894188
20.0,0.029679376631975174
22.0,0.028938818722963333
24.0,0.02823466993868351
26.0,0.0274968221783638
28.0,0.026786193251609802
30.0,0.026057299226522446
32.0,0.025386745110154152
36.0,0.024390680715441704
40.0,0.023616470396518707
44.0,0.022839142009615898
48.0,0.022201428189873695
52.0,0.021589668467640877
56.0,0.020863696932792664
60.0,0.0201369971036911
64.0,0.019161825999617577
72.0,0.01717321388423443
80.0,0.01581038162112236
88.0,0.014544691890478134
96.0,0.013657857663929462
104.0,0.01271660067141056
112.0,0.011599298566579819
120.0,0.0108651677146554
128.0,0.010256954468786716
144.0,0.008907810784876347
160.0,0.008346877992153168
176.0,0.008367766626179218
192.0,0.00820527970790863
208.0,0.00783078745007515
224.0,0.007481325417757034
240.0,0.007048647850751877
256.0,0.005962037481367588
288.0,0.005875197239220142
320.0,0.005555036477744579
352.0,0.005542679689824581
384.0,0.004816046450287104
416.0,0.0042104097083210945
448.0,0.0031283569987863302
480.0,0.0013433266431093216
512.0,0.0018733618780970573
576.0,0.002846917835995555
640.0,0.0015022816369310021
704.0,-0.0018568228697404265
768.0,-0.002261773683130741
832.0,-0.00021464591554831713
896.0,-0.0018650592537596822
960.0,-0.0032856217585504055
1024.0,-0.003394046565517783
1152.0,-0.0009642890654504299
1280.0,-0.001239862758666277
1408.0,0.0007439415785484016
1536.0,0.0014118619728833437
1664.0,0.0010221847333014011
1792.0,0.004400072153657675
1920.0,0.0006980670732446015
2048.0,-8.641409294796176e-07
2304.0,-0.0013310463400557637
2560.0,0.0019202681723982096
2816.0,0.0026724955532699823
3072.0,0.0017808983102440834
3328.0,0.0018983823247253895
3584.0,-0.003144626272842288
3840.0,-0.005201101768761873
4096.0,-0.003873086767271161
4608.0,0.0014680485473945737
5120.0,0.0009747809381224215
5632.0,0.0019079187186434865
6144.0,0.00034551735734567046
6656.0,-0.0034389279317110777
7168.0,-0.004397759214043617
7680.0,-0.00312213646247983
8192.0,-0.0037599741481244564
end
