version,3.0
numOfCh,1
type,point
parent_name,714af_0dot2-0dot01
ch_type,1_1
kcount,1
numberNandB,1
brightnessNandB,1
carpet pos,0
pc,0
Time (ms),CH1 Auto-Correlation
1.0,0.043018922209739685
2.0,0.04242252930998802
3.0,0.041848815977573395
4.0,0.041306864470243454
5.0,0.0407927930355072
6.0,0.04027891904115677
7.0,0.03979341313242912
8.0,0.03932197019457817
9.0,0.03884722292423248
10.0,0.03839629888534546
11.0,0.037953101098537445
12.0,0.037510912865400314
13.0,0.0370655283331871
14.0,0.03661477193236351
15.0,0.03619129955768585
16.0,0.035771746188402176
18.0,0.03496624901890755
20.0,0.03417044132947922
22.0,0.033419787883758545
24.0,0.03271877020597458
26.0,0.03207767382264137
28.0,0.03146900236606598
30.0,0.030851542949676514
32.0,0.03026268444955349
36.0,0.029193436726927757
40.0,0.028192201629281044
44.0,0.027263421565294266
48.0,0.026399148628115654
52.0,0.02560517191886902
56.0,0.02490191161632538
60.0,0.024232015013694763
64.0,0.02360871247947216
72.0,0.022588439285755157
80.0,0.021835079416632652
88.0,0.02131578139960766
96.0,0.020846262574195862
104.0,0.020370248705148697
112.0,0.019932512193918228
120.0,0.01946229115128517
128.0,0.018826112151145935
144.0,0.01723603904247284
160.0,0.01601356640458107
176.0,0.015477628447115421
192.0,0.015027129091322422
208.0,0.014263334684073925
224.0,0.013266878202557564
240.0,0.012850458733737469
256.0,0.012399193830788136
288.0,0.011699344031512737
320.0,0.010175620205700397
352.0,0.007622960023581982
384.0,0.00596056692302227
416.0,0.0047533237375319
448.0,0.00335999415256083
480.0,0.002085631713271141
512.0,0.0013156337663531303
576.0,0.000527814554516226
640.0,-0.0035440900828689337
704.0,-0.004159496631473303
768.0,-0.003892608918249607
832.0,-0.004982492886483669
896.0,-0.005424774717539549
960.0,-0.006492623593658209
1024.0,-0.0075972857885062695
1152.0,-0.007420649286359549
1280.0,-0.007439345121383667
1408.0,-0.0033962661400437355
1536.0,-0.003751556621864438
1664.0,-0.00593069102615118
1792.0,-0.00670176325365901
1920.0,-0.005218811798840761
2048.0,-0.0007884765509516001
2304.0,0.007395958062261343
2560.0,0.008355051279067993
2816.0,0.005957848858088255
3072.0,0.0037732888013124466
3328.0,-0.0017816126346588135
3584.0,-0.004073827527463436
3840.0,-0.006095606368035078
4096.0,-0.009968333877623081
4608.0,-0.0015242415247485042
5120.0,0.00527925044298172
5632.0,0.0038987670559436083
6144.0,-0.00834947545081377
6656.0,-0.006668443325906992
7168.0,0.0015524354530498385
7680.0,0.0022829994559288025
8192.0,0.0005962118739262223
end
