version,3.0
numOfCh,1
type,point
parent_name,714af_0dot2-0dot01
ch_type,1_1
kcount,1
numberNandB,1
brightnessNandB,1
carpet pos,0
pc,0
Time (ms),CH1 Auto-Correlation
1.0,0.02295519970357418
2.0,0.02237042412161827
3.0,0.021803919225931168
4.0,0.0212391410022974
5.0,0.020714079961180687
6.0,0.0202065110206604
7.0,0.019727256149053574
8.0,0.019279351457953453
9.0,0.01883978769183159
10.0,0.018419815227389336
11.0,0.017994655296206474
12.0,0.017591100186109543
13.0,0.01717466674745083
14.0,0.01676887832581997
15.0,0.016366075724363327
16.0,0.01594969816505909
18.0,0.015166770666837692
20.0,0.014455693773925304
22.0,0.013801520690321922
24.0,0.013172348029911518
26.0,0.012546015903353691
28.0,0.011990250088274479
30.0,0.011458596214652061
32.0,0.010899283923208714
36.0,0.009753984399139881
40.0,0.008683114312589169
44.0,0.007833081297576427
48.0,0.007177894469350576
52.0,0.006622382905334234
56.0,0.006127783562988043
60.0,0.00561165064573288
64.0,0.0051559824496507645
72.0,0.004521997645497322
80.0,0.004024745896458626
88.0,0.0034349202178418636
96.0,0.00285935471765697
104.0,0.002437303541228175
112.0,0.002190402941778302
120.0,0.0018676413455978036
128.0,0.0014935994986444712
144.0,0.0011751323472708464
160.0,0.0011432577157393098
176.0,0.0014770320849493146
192.0,0.0017367389518767595
208.0,0.0017228078795596957
224.0,0.0018454764503985643
240.0,0.001923791947774589
256.0,0.0020496100187301636
288.0,0.001974912593141198
320.0,0.002198088215664029
352.0,0.0016360717127099633
384.0,0.0007298178970813751
416.0,0.0003949402889702469
448.0,0.0004966252017766237
480.0,0.0011494727805256844
512.0,0.002077939920127392
576.0,-0.0002660382888279855
640.0,-0.000317219877615571
704.0,-0.0005698770401068032
768.0,0.0013965815305709839
832.0,0.0007492057629860938
896.0,-0.0015984604833647609
960.0,-0.001851550186984241
1024.0,0.0004924617824144661
1152.0,0.00044260488357394934
1280.0,5.336164031177759e-05
1408.0,0.001040276838466525
1536.0,0.0006378734833560884
1664.0,0.0005389035795815289
1792.0,7.835458382032812e-05
1920.0,0.0005474741919897497
2048.0,0.00016087172843981534
2304.0,-0.000947311578784138
2560.0,-0.00022587960120290518
2816.0,0.0007026800885796547
3072.0,-0.00048791925655677915
3328.0,0.00030146382050588727
3584.0,0.0005172762903384864
3840.0,8.379662176594138e-05
4096.0,0.00036717302282340825
4608.0,-0.0008067380404099822
5120.0,0.0002236257860204205
5632.0,-0.0002562221488915384
6144.0,-0.0007412261329591274
6656.0,0.00015223353693727404
7168.0,-0.00022898128372617066
7680.0,0.001405918039381504
8192.0,0.00034381254226900637
end
