version,3.0
numOfCh,1
type,point
parent_name,714af_0dot2-0dot01
ch_type,1_1
kcount,1
numberNandB,1
brightnessNandB,1
carpet pos,0
pc,0
Time (ms),CH1 Auto-Correlation
1.0,0.13046814501285553
2.0,0.12812696397304535
3.0,0.12596149742603302
4.0,0.12361084669828415
5.0,0.12124484777450562
6.0,0.11892709881067276
7.0,0.1167314425110817
8.0,0.1145516112446785
9.0,0.11252912133932114
10.0,0.11039520055055618
11.0,0.10818825662136078
12.0,0.10605848580598831
13.0,0.10400362312793732
14.0,0.10200291126966476
15.0,0.09990480542182922
16.0,0.09793209284543991
18.0,0.092180997133255
20.0,0.08756624162197113
22.0,0.08282588422298431
24.0,0.0788048580288887
26.0,0.07547654211521149
28.0,0.07229313999414444
30.0,0.06891588121652603
32.0,0.06522101163864136
36.0,0.05262678489089012
40.0,0.04440261796116829
44.0,0.03638724610209465
48.0,0.02810772694647312
52.0,0.021111248061060905
56.0,0.019650842994451523
60.0,0.019840562716126442
64.0,0.0197115708142519
72.0,0.017799880355596542
80.0,0.015687355771660805
88.0,0.01388896070420742
96.0,0.012607065960764885
104.0,0.009837796911597252
112.0,0.0078034778125584126
120.0,0.0073054488748312
128.0,0.007633801084011793
144.0,0.008699601516127586
160.0,0.009630233980715275
176.0,0.009963655844330788
192.0,0.00968207512050867
208.0,0.007933140732347965
224.0,0.007309596054255962
240.0,0.0064198630861938
256.0,0.007939311675727367
288.0,0.011041642166674137
320.0,0.011075396090745926
352.0,0.008969570510089397
384.0,0.0036114640533924103
416.0,0.0025498701725155115
448.0,0.004778980743139982
480.0,0.008745864033699036
512.0,0.009099866263568401
576.0,0.008252162486314774
640.0,0.0065788887441158295
704.0,0.005923174321651459
768.0,-0.0027954718098044395
832.0,-0.002399794291704893
896.0,0.0022721001878380775
960.0,0.005554856266826391
1024.0,-0.005756846629083157
1152.0,-0.0009945130441337824
1280.0,0.0011415533954277635
1408.0,0.003143544774502516
1536.0,-8.702485501999035e-05
1664.0,0.0029980135150253773
1792.0,0.004013413563370705
1920.0,0.0003902238386217505
2048.0,-0.0050927116535604
end
