version,3.0
numOfCh,1
type,point
parent_name,714af_0dot2-0dot01
ch_type,1_1
kcount,1
numberNandB,1
brightnessNandB,1
carpet pos,0
pc,0
Time (ms),CH1 Auto-Correlation
1.0,0.030698999762535095
2.0,0.030116179957985878
3.0,0.02956712432205677
4.0,0.02902180328965187
5.0,0.028489235788583755
6.0,0.027992814779281616
7.0,0.02750213071703911
8.0,0.027027223259210587
9.0,0.026579858735203743
10.0,0.02615118771791458
11.0,0.02575717866420746
12.0,0.025368424132466316
13.0,0.0250003132969141
14.0,0.02463535964488983
15.0,0.024287370964884758
16.0,0.02393484115600586
18.0,0.023253202438354492
20.0,0.022623363882303238
22.0,0.022032154724001884
24.0,0.02147897146642208
26.0,0.020958852022886276
28.0,0.020496152341365814
30.0,0.020042533054947853
32.0,0.0195878054946661
36.0,0.018761232495307922
40.0,0.017943421378731728
44.0,0.017173415049910545
48.0,0.016390712931752205
52.0,0.01564522087574005
56.0,0.014860986731946468
60.0,0.014073589816689491
64.0,0.013384684920310974
72.0,0.01226003747433424
80.0,0.011202775873243809
88.0,0.010152965784072876
96.0,0.009257215075194836
104.0,0.008620938286185265
112.0,0.007974092848598957
120.0,0.007341998163610697
128.0,0.006728433538228273
144.0,0.005897522903978825
160.0,0.005045061931014061
176.0,0.004333411809056997
192.0,0.0040229009464383125
208.0,0.003313022432848811
224.0,0.0027255986351519823
240.0,0.0026678096037358046
256.0,0.0025743369478732347
288.0,0.0022756075486540794
320.0,0.0022612728644162416
352.0,0.0005283946520648897
384.0,-0.0016408958472311497
416.0,-0.0027762106619775295
448.0,-0.003312916262075305
480.0,-0.0030096739064902067
512.0,-0.002141779288649559
576.0,-0.0008043842972256243
640.0,6.182624929351732e-05
704.0,0.0004919522907584906
768.0,0.0002724796358961612
832.0,0.0013791762758046389
896.0,0.0029106505680829287
960.0,0.0026260842569172382
1024.0,0.0027829590253531933
1152.0,0.003917413298040628
1280.0,0.0029322425834834576
1408.0,0.002038199221715331
1536.0,-0.0005884531419724226
1664.0,-0.0028885556384921074
1792.0,-0.0048286644741892815
1920.0,-0.0022110368590801954
2048.0,-0.0001583188568474725
2304.0,0.0003486247733235359
2560.0,-0.0038629488553851843
2816.0,-0.003270478919148445
3072.0,-0.003039066679775715
3328.0,-0.0005617229617200792
3584.0,-0.000496631721034646
3840.0,-0.0009423710871487856
4096.0,-0.003068759338930249
4608.0,3.707865107571706e-05
5120.0,-0.0013743401505053043
5632.0,0.0007154070772230625
6144.0,-0.0017393511952832341
6656.0,0.0001223744620801881
7168.0,-0.0003794308577198535
7680.0,0.0015727134887129068
8192.0,0.000707011204212904
end
