version,3.0
numOfCh,1
type,point
parent_name,714af_0dot2-0dot01
ch_type,1_1
kcount,1
numberNandB,1
brightnessNandB,1
carpet pos,0
pc,0
Time (ms),CH1 Auto-Correlation
1.0,0.031452760100364685
2.0,0.030877642333507538
3.0,0.030308106914162636
4.0,0.02976495958864689
5.0,0.02923431433737278
6.0,0.02872736006975174
7.0,0.028238726779818535
8.0,0.02776850201189518
9.0,0.02731054276227951
10.0,0.026863373816013336
11.0,0.026423554867506027
12.0,0.025995638221502304
13.0,0.025585372000932693
14.0,0.025195403024554253
15.0,0.024818280711770058
16.0,0.024444997310638428
18.0,0.02375410683453083
20.0,0.023099228739738464
22.0,0.022491415962576866
24.0,0.021896423771977425
26.0,0.021310551092028618
28.0,0.02075842209160328
30.0,0.020189715549349785
32.0,0.019631745293736458
36.0,0.01856146566569805
40.0,0.017555205151438713
44.0,0.016574818640947342
48.0,0.015665678307414055
52.0,0.014884717762470245
56.0,0.014257792383432388
60.0,0.013646738603711128
64.0,0.01305253617465496
72.0,0.011881568469107151
80.0,0.010842565447092056
88.0,0.009868810884654522
96.0,0.008859611116349697
104.0,0.007944579236209393
112.0,0.007016556337475777
120.0,0.005984448827803135
128.0,0.004968807101249695
144.0,0.0030409249011427164
160.0,0.0016911380225792527
176.0,0.0002663259219843894
192.0,-0.0005001398385502398
208.0,-0.0009498346480540931
224.0,-0.0009841950377449393
240.0,-0.0006805187440477312
256.0,-0.0009407903417013586
288.0,-0.001125394250266254
320.0,-0.0005689065437763929
352.0,0.00013154726184438914
384.0,0.0009434681269340217
416.0,0.0016512820729985833
448.0,0.0016306820325553417
480.0,0.0025030099786818027
512.0,0.003816757118329406
576.0,0.0035289544612169266
640.0,0.0032068260479718447
704.0,0.0017851436277851462
768.0,-0.0011039467062801123
832.0,-0.002108113607391715
896.0,-0.0015716282650828362
960.0,-0.00035403185756877065
1024.0,2.2007903680787422e-05
1152.0,0.001677106018178165
1280.0,0.000441807002061978
1408.0,0.0008255060529336333
1536.0,0.0007399577298201621
1664.0,-0.002197672612965107
1792.0,-2.5232991902157664e-05
1920.0,-0.0007329080835916102
2048.0,-0.003109863493591547
2304.0,-0.0010695402743294835
2560.0,-0.0029702617321163416
2816.0,-0.002226021373644471
3072.0,0.0008383093518204987
3328.0,-0.0018917863490059972
3584.0,-0.0012641333742067218
3840.0,-0.001053273561410606
4096.0,-0.002707126783207059
4608.0,-0.0025233831256628036
5120.0,-0.00022713458747603
5632.0,-0.0012014403473585844
6144.0,-2.6445050025358796e-05
6656.0,0.002716086572036147
7168.0,0.0015600478509441018
7680.0,0.002639726037159562
8192.0,0.0013953257584944367
end
