version,3.0
numOfCh,1
type,point
parent_name,714af_0dot2-0dot01
ch_type,1_1
kcount,1
numberNandB,1
brightnessNandB,1
carpet pos,0
pc,0
Time (ms),CH1 Auto-Correlation
1.0,0.028952574357390404
2.0,0.0283823162317276
3.0,0.027852773666381836
4.0,0.02732548862695694
5.0,0.02682770974934101
6.0,0.02634388580918312
7.0,0.025873342528939247
8.0,0.02543783187866211
9.0,0.024997670203447342
10.0,0.024542808532714844
11.0,0.02409183420240879
12.0,0.02365248091518879
13.0,0.023224953562021255
14.0,0.022796839475631714
15.0,0.02237432636320591
16.0,0.02196764200925827
18.0,0.021193522959947586
20.0,0.020443269982933998
22.0,0.019726397469639778
24.0,0.019018137827515602
26.0,0.018354015424847603
28.0,0.017727522179484367
30.0,0.017149081453680992
32.0,0.01662665419280529
36.0,0.015698570758104324
40.0,0.014885460026562214
44.0,0.014148510992527008
48.0,0.013459726236760616
52.0,0.012847643345594406
56.0,0.012343963608145714
60.0,0.011818794533610344
64.0,0.011295773088932037
72.0,0.010142682120203972
80.0,0.009157061576843262
88.0,0.00827189814299345
96.0,0.007741326466202736
104.0,0.007358309347182512
112.0,0.006996435113251209
120.0,0.006654008757323027
128.0,0.0062925564125180244
144.0,0.005024540238082409
160.0,0.0033069592900574207
176.0,0.002425868296995759
192.0,0.0018872631480917335
208.0,0.0014645104529336095
224.0,0.0012579384492710233
240.0,0.001398859079927206
256.0,0.0010876244632527232
288.0,0.0015528845833614469
320.0,0.0029863957315683365
352.0,0.004056361969560385
384.0,0.0036145132035017014
416.0,0.0026446874253451824
448.0,0.0024524687323719263
480.0,0.0022085122764110565
512.0,0.001472335890866816
576.0,0.0004656593664549291
640.0,0.0016644541174173355
704.0,-0.0009357525850646198
768.0,-0.0015561900800094008
832.0,-0.001888903439976275
896.0,-0.0021564436610788107
960.0,-0.0006523845950141549
1024.0,-0.0004956857883371413
1152.0,0.0003783525025937706
1280.0,0.0031687868759036064
1408.0,0.0036917589604854584
1536.0,0.0037181952502578497
1664.0,0.0025024907663464546
1792.0,0.0028143117669969797
1920.0,0.0037847207859158516
2048.0,0.0014792472356930375
2304.0,0.00018034082313533872
2560.0,-0.0007415757281705737
2816.0,0.00072092330083251
3072.0,4.398924647830427e-05
3328.0,0.0004037163162138313
3584.0,0.002288398565724492
3840.0,-0.0001895569293992594
4096.0,0.0006144039798527956
4608.0,0.0005095359520055354
5120.0,-0.0008560775895603001
5632.0,-0.002460021525621414
6144.0,-0.0016822374891489744
6656.0,-0.0023511790204793215
7168.0,-0.003574238158762455
7680.0,-0.0047538564540445805
8192.0,-0.0015677532646805048
end
