version,3.0
numOfCh,1
type,point
parent_name,714af_0dot2-0dot01
ch_type,1_1
kcount,1
numberNandB,1
brightnessNandB,1
carpet pos,0
pc,0
Time (ms),CH1 Auto-Correlation
1.0,0.03468270227313042
2.0,0.03409002348780632
3.0,0.033520642668008804
4.0,0.032971370965242386
5.0,0.03243718668818474
6.0,0.03191232681274414
7.0,0.03140508010983467
8.0,0.030911820009350777
9.0,0.030434228479862213
10.0,0.029986057430505753
11.0,0.02953389286994934
12.0,0.029107991605997086
13.0,0.028681956231594086
14.0,0.028275087475776672
15.0,0.027874460443854332
16.0,0.027466364204883575
18.0,0.0267019122838974
20.0,0.025940265506505966
22.0,0.025201881304383278
24.0,0.024509072303771973
26.0,0.023839324712753296
28.0,0.02321828529238701
30.0,0.022649403661489487
32.0,0.022100180387496948
36.0,0.02116669900715351
40.0,0.020262587815523148
44.0,0.019368812441825867
48.0,0.018592648208141327
52.0,0.01785752736032009
56.0,0.017225900664925575
60.0,0.01663670875132084
64.0,0.016116060316562653
72.0,0.014951027929782867
80.0,0.01371764950454235
88.0,0.012453904375433922
96.0,0.011334791779518127
104.0,0.010309459641575813
112.0,0.00951403472572565
120.0,0.009046792052686214
128.0,0.008802780881524086
144.0,0.008091631345450878
160.0,0.007086123339831829
176.0,0.006622132379561663
192.0,0.006547311320900917
208.0,0.006936430931091309
224.0,0.007217473816126585
240.0,0.007164644543081522
256.0,0.006848211400210857
288.0,0.005411575548350811
320.0,0.0041479081846773624
352.0,0.003222373081371188
384.0,0.002527369651943445
416.0,0.0013103305827826262
448.0,0.0008196235867217183
480.0,-0.00036797422217205167
512.0,-0.0011242723558098078
576.0,-0.002826371928676963
640.0,-0.002564882393926382
704.0,-0.0015573118580505252
768.0,-0.0010457178577780724
832.0,-0.0005390698788687587
896.0,-0.001285954611375928
960.0,-0.0005332852597348392
1024.0,-0.00013911662972532213
1152.0,-0.0015478768618777394
1280.0,-0.00036957647535018623
1408.0,-0.001321439049206674
1536.0,-0.0006865249015390873
1664.0,-0.0039503606967628
1792.0,0.00030276147299446166
1920.0,0.0007440057815983891
2048.0,0.00030597744625993073
2304.0,0.002266549738124013
2560.0,0.0011999657144770026
2816.0,-0.0005169054493308067
3072.0,-0.0010544703109189868
3328.0,0.007023130543529987
3584.0,0.0051272232085466385
3840.0,-0.00208129920065403
4096.0,-0.004114501178264618
4608.0,-0.0015505271730944514
5120.0,-0.0032531593460589647
5632.0,0.0006160485791042447
6144.0,-0.0012132494011893868
6656.0,0.0028232329059392214
7168.0,-0.004411730915307999
7680.0,-0.006589174270629883
8192.0,0.0006481323507614434
end
