version,3.0
numOfCh,1
type,point
parent_name,714af_0dot2-0dot01
ch_type,1_1
kcount,1
numberNandB,1
brightnessNandB,1
carpet pos,0
pc,0
Time (ms),CH1 Auto-Correlation
1.0,0.02990848943591118
2.0,0.02936721220612526
3.0,0.02884783409535885
4.0,0.028328046202659607
5.0,0.027833176776766777
6.0,0.027358002960681915
7.0,0.026897471398115158
8.0,0.02643759176135063
9.0,0.026012491434812546
10.0,0.02561393938958645
11.0,0.025226395577192307
12.0,0.024866431951522827
13.0,0.02451806701719761
14.0,0.024198593571782112
15.0,0.023873379454016685
16.0,0.023574555292725563
18.0,0.022966068238019943
20.0,0.02234407514333725
22.0,0.021756328642368317
24.0,0.02119538001716137
26.0,0.020665563642978668
28.0,0.020164767280220985
30.0,0.019714996218681335
32.0,0.019303102046251297
36.0,0.01850009523332119
40.0,0.01774442195892334
44.0,0.017077451571822166
48.0,0.016582544893026352
52.0,0.016085781157016754
56.0,0.01551347877830267
60.0,0.01490811724215746
64.0,0.014332572929561138
72.0,0.013450304046273232
80.0,0.01264442689716816
88.0,0.012145494110882282
96.0,0.01163672935217619
104.0,0.010995225980877876
112.0,0.010262447409331799
120.0,0.009631229564547539
128.0,0.008937384001910686
144.0,0.007669864222407341
160.0,0.007067340891808271
176.0,0.006964570842683315
192.0,0.006729437969624996
208.0,0.006274320185184479
224.0,0.005240285769104958
240.0,0.004177311435341835
256.0,0.0037811174988746643
288.0,0.00358345708809793
320.0,0.0033966931514441967
352.0,0.003466235473752022
384.0,0.004027420189231634
416.0,0.003790692426264286
448.0,0.0032932371832430363
480.0,0.0017933708149939775
512.0,0.0008723817300051451
576.0,0.002021210500970483
640.0,0.002375505631789565
704.0,0.0023477014619857073
768.0,0.002244184724986553
832.0,0.0020138025283813477
896.0,0.0019760364666581154
960.0,0.0005949930637143552
1024.0,0.00027824033168144524
1152.0,-0.0002568894124124199
1280.0,0.00041795746074058115
1408.0,-0.0015002023428678513
1536.0,-0.002660053316503763
1664.0,-0.003158577485010028
1792.0,-0.004042570944875479
1920.0,-0.00507755484431982
2048.0,-0.005162827670574188
2304.0,-0.00390605884604156
2560.0,-0.0018582680495455861
2816.0,-0.00235399859957397
3072.0,0.0009796811500564218
3328.0,0.00012223336671013385
3584.0,-0.0030804919078946114
3840.0,-0.002103671431541443
4096.0,-0.0038228658959269524
4608.0,-0.0010760967852547765
5120.0,0.0019130397122353315
5632.0,0.002972010523080826
6144.0,0.004766752012073994
6656.0,0.0019737202674150467
7168.0,-0.0028130216524004936
7680.0,-0.007792625110596418
8192.0,-0.006799633614718914
end
