version,3.0
numOfCh,1
type,point
parent_name,714af_0dot2-0dot01
ch_type,1_1
kcount,1
numberNandB,1
brightnessNandB,1
carpet pos,0
pc,0
Time (ms),CH1 Auto-Correlation
1.0,0.030519375577569008
2.0,0.02993748150765896
3.0,0.029399767518043518
4.0,0.028880352154374123
5.0,0.028391046449542046
6.0,0.02791815623641014
7.0,0.027448022738099098
8.0,0.02698926068842411
9.0,0.02653263509273529
10.0,0.02609752118587494
11.0,0.025689909234642982
12.0,0.025297274813055992
13.0,0.024918856099247932
14.0,0.02454991824924946
15.0,0.024170683696866035
16.0,0.023804280906915665
18.0,0.02309289574623108
20.0,0.022404978051781654
22.0,0.021770697087049484
24.0,0.021189097315073013
26.0,0.020614415407180786
28.0,0.0200499277561903
30.0,0.01950889080762863
32.0,0.019029248505830765
36.0,0.018211206421256065
40.0,0.017490778118371964
44.0,0.016892261803150177
48.0,0.016312040388584137
52.0,0.01577330194413662
56.0,0.015322556719183922
60.0,0.0149051109328866
64.0,0.014497550204396248
72.0,0.01355996634811163
80.0,0.012668189592659473
88.0,0.011736496351659298
96.0,0.010763751342892647
104.0,0.009745071642100811
112.0,0.008944378234446049
120.0,0.00845001358538866
128.0,0.008090713992714882
144.0,0.007640857249498367
160.0,0.006772322580218315
176.0,0.005619104951620102
192.0,0.004927871748805046
208.0,0.004513123072683811
224.0,0.0039682271890342236
240.0,0.003211328526958823
256.0,0.002608088543638587
288.0,0.0016698612598702312
320.0,0.0006215727189555764
352.0,-0.0001065030082827434
384.0,0.0004025591188110411
416.0,0.0010361520107835531
448.0,0.0015225138049572706
480.0,0.0019079860066995025
512.0,0.0023171657230705023
576.0,0.0009262105450034142
640.0,-0.00015135006105992943
704.0,-0.0007371756946668029
768.0,0.00011060876568080857
832.0,-0.0016482878709211946
896.0,-0.002424168400466442
960.0,-0.002200083341449499
1024.0,-0.0009704182739369571
1152.0,7.25105419405736e-05
1280.0,3.894593828590587e-05
1408.0,-0.00047221124987117946
1536.0,-0.0009126890217885375
1664.0,-0.0024955698754638433
1792.0,-0.004615844693034887
1920.0,-0.005117485299706459
2048.0,-0.006022632587701082
2304.0,-0.0012303156545385718
2560.0,-0.0003850647481158376
2816.0,0.0011513042263686657
3072.0,-0.0005248963716439903
3328.0,0.0003613397420849651
3584.0,0.0009728689910843968
3840.0,0.004082291387021542
4096.0,0.00175835145637393
4608.0,-0.0012397774262353778
5120.0,-7.464396912837401e-05
5632.0,0.0008392494637519121
6144.0,0.0011059530079364777
6656.0,-0.0011863947147503495
7168.0,-0.00035918361390940845
7680.0,-0.0014594068052247167
8192.0,-0.0031471513211727142
end
