version,3.0
numOfCh,1
type,point
parent_name,714af_0dot2-0dot01
ch_type,1_1
kcount,1
numberNandB,1
brightnessNandB,1
carpet pos,0
pc,0
Time (ms),CH1 Auto-Correlation
1.0,0.033823344856500626
2.0,0.03325970470905304
3.0,0.032713115215301514
4.0,0.032197341322898865
5.0,0.031701456755399704
6.0,0.031208282336592674
7.0,0.0307264793664217
8.0,0.030264826491475105
9.0,0.029822612181305885
10.0,0.02938377670943737
11.0,0.02896278165280819
12.0,0.028559600934386253
13.0,0.028177805244922638
14.0,0.027811067178845406
15.0,0.027465524151921272
16.0,0.02714870683848858
18.0,0.026546256616711617
20.0,0.02599228359758854
22.0,0.02546198107302189
24.0,0.02492559887468815
26.0,0.024359865114092827
28.0,0.023792985826730728
30.0,0.02326579950749874
32.0,0.022759875282645226
36.0,0.021798280999064445
40.0,0.02090173214673996
44.0,0.02005024068057537
48.0,0.019303085282444954
52.0,0.01862688548862934
56.0,0.017987648025155067
60.0,0.017354127019643784
64.0,0.01673549972474575
72.0,0.015472125262022018
80.0,0.014436389319598675
88.0,0.013376640155911446
96.0,0.012348277494311333
104.0,0.011320793069899082
112.0,0.010496633127331734
120.0,0.009954748675227165
128.0,0.009680164977908134
144.0,0.009257420897483826
160.0,0.008736064657568932
176.0,0.008229346014559269
192.0,0.007777838967740536
208.0,0.007095769047737122
224.0,0.00616414612159133
240.0,0.005569899454712868
256.0,0.005409589968621731
288.0,0.005520414561033249
320.0,0.005604483652859926
352.0,0.005143847316503525
384.0,0.00511914724484086
416.0,0.0046913158148527145
448.0,0.004769246093928814
480.0,0.004617076832801104
512.0,0.004024372436106205
576.0,0.0020942040719091892
640.0,3.149381518596783e-05
704.0,0.0011501966509968042
768.0,0.0015597041929140687
832.0,0.0023003718815743923
896.0,0.002508255187422037
960.0,0.0021271761506795883
1024.0,0.0011497102677822113
1152.0,-0.0005091890343464911
1280.0,0.0007606188300997019
1408.0,0.002311826916411519
1536.0,0.001487869187258184
1664.0,2.327770744159352e-05
1792.0,-0.002165344776585698
1920.0,-0.003469473449513316
2048.0,-0.0035607258323580027
2304.0,-0.0012696550693362951
2560.0,-0.0001771108654793352
2816.0,-0.000633354124147445
3072.0,0.0028891400434076786
3328.0,0.002741837641224265
3584.0,0.004651917610317469
3840.0,0.0027273886371403933
4096.0,0.0010280179558321834
4608.0,0.0022711134515702724
5120.0,-0.002067358000203967
5632.0,0.0010079904459416866
6144.0,-0.0001423853391315788
6656.0,-0.001243134611286223
7168.0,-0.0025558064226061106
7680.0,-0.004159703850746155
8192.0,-0.003735458943992853
end
