version,3.0
numOfCh,1
type,point
parent_name,714af_0dot2-0dot01
ch_type,1_1
kcount,1
numberNandB,1
brightnessNandB,1
carpet pos,0
pc,0
Time (ms),CH1 Auto-Correlation
1.0,0.038186121731996536
2.0,0.03758358955383301
3.0,0.036994099617004395
4.0,0.03643721714615822
5.0,0.03589125722646713
6.0,0.03536217659711838
7.0,0.034846920520067215
8.0,0.03435729444026947
9.0,0.033887676894664764
10.0,0.03343210741877556
11.0,0.032989539206027985
12.0,0.032570336014032364
13.0,0.03216221183538437
14.0,0.03175607696175575
15.0,0.03134694695472717
16.0,0.03094763495028019
18.0,0.030225861817598343
20.0,0.029521634802222252
22.0,0.028825461864471436
24.0,0.028165826573967934
26.0,0.02754327841103077
28.0,0.026975011453032494
30.0,0.02648009918630123
32.0,0.02598930336534977
36.0,0.025011498481035233
40.0,0.024083083495497704
44.0,0.023220576345920563
48.0,0.022394051775336266
52.0,0.02162899635732174
56.0,0.020977487787604332
60.0,0.020337508991360664
64.0,0.01960659772157669
72.0,0.018224535509943962
80.0,0.017085596919059753
88.0,0.016076484695076942
96.0,0.015260386280715466
104.0,0.014606405049562454
112.0,0.014041172340512276
120.0,0.013610702008008957
128.0,0.013102947734296322
144.0,0.011996901594102383
160.0,0.010934789665043354
176.0,0.01021102536469698
192.0,0.009879170916974545
208.0,0.009621846489608288
224.0,0.009973578155040741
240.0,0.010314512997865677
256.0,0.0097619304433465
288.0,0.008292898535728455
320.0,0.007167004514485598
352.0,0.00547972833737731
384.0,0.0049155112355947495
416.0,0.004294425714761019
448.0,0.004126516170799732
480.0,0.004075431730598211
512.0,0.0035970229655504227
576.0,0.0014350275741890073
640.0,-0.00016134639736264944
704.0,-0.000715303816832602
768.0,0.0013509331038221717
832.0,0.0010176346404477954
896.0,0.0005522173596546054
960.0,0.0017983111320063472
1024.0,0.0033050929196178913
1152.0,0.002179038245230913
1280.0,0.001543535036034882
1408.0,0.00048324960516765714
1536.0,0.0011085666483268142
1664.0,0.0014255406567826867
1792.0,0.004666482098400593
1920.0,0.005550974979996681
2048.0,0.0018488746136426926
2304.0,-0.0010807692306116223
2560.0,-0.004186827223747969
2816.0,-0.0006030628574080765
3072.0,0.0016236265655606985
3328.0,0.000851001066621393
3584.0,-0.0009110805694945157
3840.0,0.0024391391780227423
4096.0,0.001658694469369948
4608.0,-0.0014654746046289802
5120.0,0.0014524130383506417
5632.0,-0.0031666557770222425
6144.0,0.001548697124235332
6656.0,-0.00027905049500986934
7168.0,0.0032061287201941013
7680.0,-0.006380398292094469
8192.0,-0.005934011656790972
end
