version,3.0
numOfCh,1
type,point
parent_name,714af_0dot2-0dot01
ch_type,1_1
kcount,1
numberNandB,1
brightnessNandB,1
carpet pos,0
pc,0
Time (ms),CH1 Auto-Correlation
1.0,0.03832799196243286
2.0,0.0377509742975235
3.0,0.03718538582324982
4.0,0.03662676364183426
5.0,0.03608116880059242
6.0,0.03556956723332405
7.0,0.035087499767541885
8.0,0.03462480753660202
9.0,0.0341753251850605
10.0,0.03371696174144745
11.0,0.03328154981136322
12.0,0.03286129981279373
13.0,0.0324602872133255
14.0,0.03204663470387459
15.0,0.03164790943264961
16.0,0.03126920387148857
18.0,0.030545687302947044
20.0,0.02986753359436989
22.0,0.029236076399683952
24.0,0.02861158922314644
26.0,0.02800709381699562
28.0,0.02742641046643257
30.0,0.026868777349591255
32.0,0.026300135999917984
36.0,0.02521723322570324
40.0,0.024280820041894913
44.0,0.023478107526898384
48.0,0.02274209074676037
52.0,0.022047998383641243
56.0,0.02141755260527134
60.0,0.020938359200954437
64.0,0.02052604965865612
72.0,0.019584115594625473
80.0,0.01843353547155857
88.0,0.01726817525923252
96.0,0.016194554045796394
104.0,0.015265017747879028
112.0,0.014621900394558907
120.0,0.01403657253831625
128.0,0.013577526435256004
144.0,0.012442860752344131
160.0,0.011059601791203022
176.0,0.009435231797397137
192.0,0.008108987472951412
208.0,0.0073174480348825455
224.0,0.006496533751487732
240.0,0.006045152898877859
256.0,0.006291639059782028
288.0,0.006010173354297876
320.0,0.006728735286742449
352.0,0.007352478802204132
384.0,0.0071510616689920425
416.0,0.007007518783211708
448.0,0.0070991674438118935
480.0,0.0067265271209180355
512.0,0.005619929172098637
576.0,0.001826135441660881
640.0,0.0005761716165579855
704.0,-0.0007067746482789516
768.0,-0.0011223243782296777
832.0,0.00037770948256365955
896.0,0.0018656289903447032
960.0,0.003533659502863884
1024.0,0.0018355930224061012
1152.0,0.0012504063779488206
1280.0,0.00414887024089694
1408.0,0.005551725160330534
1536.0,0.005315245129168034
1664.0,0.001752543612383306
1792.0,0.00042607291834428906
1920.0,-0.0002546696050558239
2048.0,-0.001863510929979384
2304.0,-0.0015939301811158657
2560.0,-0.0010883818613365293
2816.0,-0.0008155314135365188
3072.0,-0.00012439581041689962
3328.0,-0.000668433727696538
3584.0,-0.0009269097936339676
3840.0,9.561759361531585e-05
4096.0,-0.00013868932728655636
4608.0,-0.00013670652697328478
5120.0,-0.000840323802549392
5632.0,-0.0038681570440530777
6144.0,-0.0039612227119505405
6656.0,-0.003740486456081271
7168.0,-0.005568111315369606
7680.0,-0.003911514766514301
8192.0,-0.0032000895589590073
end
