version,3.0
numOfCh,1
type,point
parent_name,714af_0dot2-0dot01
ch_type,1_1
kcount,1
numberNandB,1
brightnessNandB,1
carpet pos,0
pc,0
Time (ms),CH1 Auto-Correlation
1.0,0.06460808962583542
2.0,0.0629362165927887
3.0,0.06124943494796753
4.0,0.05957688018679619
5.0,0.0579742006957531
6.0,0.05644604563713074
7.0,0.055005501955747604
8.0,0.053594622761011124
9.0,0.052163541316986084
10.0,0.05066809058189392
11.0,0.04914707690477371
12.0,0.047620344907045364
13.0,0.046064913272857666
14.0,0.044481974095106125
15.0,0.04291539266705513
16.0,0.04136759042739868
18.0,0.038394298404455185
20.0,0.03551466017961502
22.0,0.03269023448228836
24.0,0.030100613832473755
26.0,0.027429185807704926
28.0,0.024708492681384087
30.0,0.0221113208681345
32.0,0.020670117810368538
36.0,0.019714247435331345
40.0,0.019061168655753136
44.0,0.018528934568166733
48.0,0.01794070564210415
52.0,0.017349932342767715
56.0,0.01674620434641838
60.0,0.016159970313310623
64.0,0.01549170259386301
72.0,0.014060597866773605
80.0,0.012523023411631584
88.0,0.011093216016888618
96.0,0.009867986664175987
104.0,0.009047942236065865
112.0,0.008416981436312199
120.0,0.007918862625956535
128.0,0.007744302041828632
144.0,0.007593347690999508
160.0,0.005837604869157076
176.0,0.004011320881545544
192.0,0.0034582160878926516
208.0,0.0031631379388272762
224.0,0.0025768012274056673
240.0,0.0017507621087133884
256.0,0.00046897216816432774
288.0,-0.0009268613066524267
320.0,-0.0014727357774972916
352.0,-0.0025719963014125824
384.0,-0.003100009635090828
416.0,-0.002262611174955964
448.0,-0.0005755176534876227
480.0,0.0006132084527052939
512.0,0.00039887233288027346
576.0,-0.0010395029094070196
640.0,-0.00407054740935564
704.0,-0.005119247827678919
768.0,-0.004208940081298351
832.0,-0.0025449423119425774
896.0,-0.0012055480619892478
960.0,0.0012077903375029564
1024.0,0.00321520515717566
1152.0,0.0003428942000027746
1280.0,-0.001980181084945798
1408.0,-0.0016869106329977512
1536.0,-0.0002462171541992575
1664.0,-0.0013076006434857845
1792.0,-0.0009210206917487085
1920.0,-0.0007237403187900782
2048.0,0.0014440242666751146
2304.0,-0.0009846524335443974
2560.0,-0.0022980442736297846
2816.0,-0.0012442405568435788
3072.0,0.003082966897636652
3328.0,0.0014600114664062858
3584.0,-0.001140929525718093
3840.0,-0.0004003920766990632
4096.0,-0.004015901125967503
4608.0,0.0025105273816734552
5120.0,-0.0015912442468106747
5632.0,0.0004565116250887513
6144.0,0.0014209807850420475
6656.0,0.0011639228323474526
7168.0,-0.0003948573430534452
7680.0,0.0018946003401651978
8192.0,-0.0016558802453801036
end
