version,3.0
numOfCh,1
type,point
parent_name,714af_0dot2-0dot01
ch_type,1_1
kcount,1
numberNandB,1
brightnessNandB,1
carpet pos,0
pc,0
Time (ms),CH1 Auto-Correlation
1.0,0.030989378690719604
2.0,0.03039633482694626
3.0,0.02981647662818432
4.0,0.029259301722049713
5.0,0.02872542105615139
6.0,0.028207920491695404
7.0,0.02772296778857708
8.0,0.02723994478583336
9.0,0.026767004281282425
10.0,0.02631690353155136
11.0,0.025896817445755005
12.0,0.025500116869807243
13.0,0.025113645941019058
14.0,0.02475728839635849
15.0,0.024400699883699417
16.0,0.024061301723122597
18.0,0.023417221382260323
20.0,0.022793710231781006
22.0,0.022189555689692497
24.0,0.02160053141415119
26.0,0.021024510264396667
28.0,0.02047991007566452
30.0,0.0199623741209507
32.0,0.019491681829094887
36.0,0.018694594502449036
40.0,0.017987780272960663
44.0,0.017279643565416336
48.0,0.016544196754693985
52.0,0.015803493559360504
56.0,0.015134499408304691
60.0,0.014600291848182678
64.0,0.014114166609942913
72.0,0.013233118690550327
80.0,0.012257433496415615
88.0,0.011176884174346924
96.0,0.010349109768867493
104.0,0.009680253453552723
112.0,0.008998557925224304
120.0,0.008407550863921642
128.0,0.00792987272143364
144.0,0.006929812487214804
160.0,0.005793380085378885
176.0,0.00449381023645401
192.0,0.003510375740006566
208.0,0.0032002709340304136
224.0,0.0032039189245551825
240.0,0.0030068301130086184
256.0,0.0024310860317200422
288.0,0.0008815167821012437
320.0,0.0006865361938253045
352.0,0.0009765277500264347
384.0,0.0007736487314105034
416.0,0.000979785923846066
448.0,0.0006541863549500704
480.0,-0.00020210086950100958
512.0,-0.000759568705689162
576.0,0.00048142060404643416
640.0,0.0019500674679875374
704.0,0.000681673176586628
768.0,-0.001136954640969634
832.0,-0.0011322041973471642
896.0,-0.0011104606091976166
960.0,-0.002204349497333169
1024.0,-0.0026233140379190445
1152.0,-0.00012755009811371565
1280.0,-0.0007913184235803783
1408.0,-0.0009401217685081065
1536.0,0.0010137137724086642
1664.0,0.0009055413538590074
1792.0,0.0028180107474327087
1920.0,0.00017676058632787317
2048.0,-0.0010200429242104292
2304.0,0.0009309588931500912
2560.0,0.00024308265710715204
2816.0,-0.0023723957128822803
3072.0,-0.0030789265874773264
3328.0,-0.0026485933922231197
3584.0,-0.0021289994474500418
3840.0,-0.0011027626460418105
4096.0,-0.001689921598881483
4608.0,-8.011421596165746e-05
5120.0,0.0018164971843361855
5632.0,-0.0010255309753119946
6144.0,0.0019861350301653147
6656.0,0.001667714212089777
7168.0,-0.0016100244829431176
7680.0,-0.0007048157858662307
8192.0,-0.0020424870308488607
end
