version,3.0
numOfCh,1
type,point
parent_name,714af_0dot2-0dot01
ch_type,1_1
kcount,1
numberNandB,1
brightnessNandB,1
carpet pos,0
pc,0
Time (ms),CH1 Auto-Correlation
1.0,0.06926269829273224
2.0,0.06704512238502502
3.0,0.06490381807088852
4.0,0.06275065988302231
5.0,0.06067347154021263
6.0,0.058536630123853683
7.0,0.056444261223077774
8.0,0.054366838186979294
9.0,0.05230030044913292
10.0,0.05024101957678795
11.0,0.04824594408273697
12.0,0.0462377667427063
13.0,0.04417481645941734
14.0,0.04217393323779106
15.0,0.040129709988832474
16.0,0.03813472017645836
18.0,0.03404950350522995
20.0,0.03330051153898239
22.0,0.03255153074860573
24.0,0.031830064952373505
26.0,0.031164295971393585
28.0,0.030541783198714256
30.0,0.030050471425056458
32.0,0.029588285833597183
36.0,0.02871244214475155
40.0,0.027813514694571495
44.0,0.02688634768128395
48.0,0.025979822501540184
52.0,0.025252537801861763
56.0,0.024544987827539444
60.0,0.023827727884054184
64.0,0.023173773661255836
72.0,0.022260816767811775
80.0,0.021620938554406166
88.0,0.02067818120121956
96.0,0.02016817219555378
104.0,0.019743889570236206
112.0,0.019017526879906654
120.0,0.018444610759615898
128.0,0.017860589548945427
144.0,0.016583673655986786
160.0,0.015503840520977974
176.0,0.015084605664014816
192.0,0.014712992124259472
208.0,0.013781365938484669
224.0,0.013666690327227116
240.0,0.013721059076488018
256.0,0.012880346737802029
288.0,0.013069442473351955
320.0,0.01248808391392231
352.0,0.012602458707988262
384.0,0.012471107766032219
416.0,0.012060767039656639
448.0,0.011723475530743599
480.0,0.011056426912546158
512.0,0.011008339002728462
576.0,0.010590754449367523
640.0,0.008441846817731857
704.0,0.006834456697106361
768.0,0.007086994592100382
832.0,0.006420888938009739
896.0,0.006633904296904802
960.0,0.006622963584959507
1024.0,0.00368902669288218
1152.0,-0.0011869536247104406
1280.0,-0.002995002083480358
1408.0,-0.002386593259871006
1536.0,-0.002782064024358988
1664.0,-0.005405221600085497
1792.0,-0.004970724694430828
1920.0,-0.004154175985604525
2048.0,-0.006407560780644417
2304.0,-0.003588894149288535
2560.0,-0.0008394692558795214
2816.0,-0.0014358804328367114
3072.0,0.0008956127567216754
3328.0,-0.000266676681349054
3584.0,-0.0034307606983929873
3840.0,-0.006092924624681473
4096.0,-0.007708152290433645
4608.0,-0.012988637201488018
5120.0,-0.009418713860213757
5632.0,-0.007042805198580027
6144.0,0.0024393280036747456
6656.0,0.004010951146483421
7168.0,0.0005832728347741067
7680.0,0.002597993705421686
8192.0,0.00548399006947875
end
