version,3.0
numOfCh,1
type,point
parent_name,714af_0dot2-0dot01
ch_type,1_1
kcount,1
numberNandB,1
brightnessNandB,1
carpet pos,0
pc,0
Time (ms),CH1 Auto-Correlation
1.0,0.03603079915046692
2.0,0.035448163747787476
3.0,0.034901220351457596
4.0,0.03439520671963692
5.0,0.03391217812895775
6.0,0.03344634175300598
7.0,0.03299873694777489
8.0,0.032589029520750046
9.0,0.03218346834182739
10.0,0.03176288679242134
11.0,0.03137100115418434
12.0,0.03100661002099514
13.0,0.03063601814210415
14.0,0.030287031084299088
15.0,0.02996438927948475
16.0,0.02964799478650093
18.0,0.02900582179427147
20.0,0.02840588055551052
22.0,0.027811188250780106
24.0,0.027227677404880524
26.0,0.026670362800359726
28.0,0.026140935719013214
30.0,0.025635777041316032
32.0,0.025152457877993584
36.0,0.024137774482369423
40.0,0.023174883797764778
44.0,0.022241290658712387
48.0,0.021448737010359764
52.0,0.020751630887389183
56.0,0.020126109942793846
60.0,0.019456438720226288
64.0,0.018843047320842743
72.0,0.017934046685695648
80.0,0.017087269574403763
88.0,0.01642717979848385
96.0,0.01590246893465519
104.0,0.015478994697332382
112.0,0.014972695149481297
120.0,0.014677289873361588
128.0,0.014372516423463821
144.0,0.01376304216682911
160.0,0.013618710450828075
176.0,0.013836265541613102
192.0,0.013819670304656029
208.0,0.013692810200154781
224.0,0.012978103943169117
240.0,0.011958351358771324
256.0,0.010988042689859867
288.0,0.009973771870136261
320.0,0.009512095712125301
352.0,0.008646978996694088
384.0,0.008634037338197231
416.0,0.009168177843093872
448.0,0.008544128388166428
480.0,0.006730416789650917
512.0,0.005065850913524628
576.0,0.004594394937157631
640.0,0.005392890889197588
704.0,0.006011191289871931
768.0,0.004405471961945295
832.0,0.003842057893052697
896.0,0.002352906158193946
960.0,0.0008798596682026982
1024.0,0.00214022328145802
1152.0,0.0012363168643787503
1280.0,0.0007492917939089239
1408.0,-0.0015132527332752943
1536.0,-0.002340806880965829
1664.0,0.0007272168877534568
1792.0,0.003001224948093295
1920.0,0.00409949803724885
2048.0,0.006713557057082653
2304.0,0.0019510783022269607
2560.0,0.0015356676885858178
2816.0,1.9498916117299814e-06
3072.0,-0.002086574211716652
3328.0,-0.002268754644319415
3584.0,-0.006037062034010887
3840.0,-0.004292839672416449
4096.0,-0.002402016194537282
4608.0,-0.004307236988097429
5120.0,-0.006961057428270578
5632.0,-0.0061425017192959785
6144.0,-0.002679989906027913
6656.0,-0.001991766272112727
7168.0,-0.010829993523657322
7680.0,-0.03180880472064018
8192.0,-0.017475763335824013
end
