version,3.0
numOfCh,1
type,point
parent_name,714af_0dot2-0dot01
ch_type,1_1
kcount,1
numberNandB,1
brightnessNandB,1
carpet pos,0
pc,0
Time (ms),CH1 Auto-Correlation
1.0,0.035823412239551544
2.0,0.03523629531264305
3.0,0.03467681258916855
4.0,0.03414718434214592
5.0,0.033620044589042664
6.0,0.03309318795800209
7.0,0.03256460279226303
8.0,0.03204674646258354
9.0,0.0315486341714859
10.0,0.031058266758918762
11.0,0.030587777495384216
12.0,0.030140312388539314
13.0,0.029688410460948944
14.0,0.02925976924598217
15.0,0.02885265089571476
16.0,0.028453297913074493
18.0,0.027625946328043938
20.0,0.02683269791305065
22.0,0.02605905383825302
24.0,0.02531329356133938
26.0,0.02465236186981201
28.0,0.02406213991343975
30.0,0.02352318726480007
32.0,0.023066822439432144
36.0,0.02218475565314293
40.0,0.021350419148802757
44.0,0.020560871809720993
48.0,0.019894519820809364
52.0,0.019359461963176727
56.0,0.018851114436984062
60.0,0.018356461077928543
64.0,0.017980363219976425
72.0,0.01737021654844284
80.0,0.016859926283359528
88.0,0.016325650736689568
96.0,0.01562505215406418
104.0,0.015057077631354332
112.0,0.01467424537986517
120.0,0.014208854176104069
128.0,0.013564396649599075
144.0,0.012038336135447025
160.0,0.010971920564770699
176.0,0.010421986691653728
192.0,0.009630455635488033
208.0,0.008928311988711357
224.0,0.008064918220043182
240.0,0.0068871937692165375
256.0,0.00558606069535017
288.0,0.003825256135314703
320.0,0.002393745817244053
352.0,0.0018261057557538152
384.0,0.0009484468610025942
416.0,0.0006767148734070361
448.0,-6.215230678208172e-05
480.0,-0.00029299312154762447
512.0,-0.001100284862332046
576.0,-0.002322315238416195
640.0,-0.0010758712887763977
704.0,-0.0017538473475724459
768.0,-0.002759919036179781
832.0,-0.0023751072585582733
896.0,-0.0004482846998143941
960.0,-0.00014369029668159783
1024.0,0.0018201206112280488
1152.0,0.003310605650767684
1280.0,0.004145114216953516
1408.0,0.001768516143783927
1536.0,-0.0022285289596766233
1664.0,-0.0048787714913487434
1792.0,-0.005466647911816835
1920.0,-0.004109945613890886
2048.0,-0.003270645858719945
2304.0,-0.00020664975454565138
2560.0,0.004812880419194698
2816.0,-0.0010212146444246173
3072.0,-0.004922778345644474
3328.0,-0.002357622142881155
3584.0,0.0019175616325810552
3840.0,0.002976926974952221
4096.0,-0.003208673093467951
4608.0,-0.0038542074616998434
5120.0,-0.001564734149724245
5632.0,-0.00661228084936738
6144.0,-7.463494853254815e-07
6656.0,-0.0019918326288461685
7168.0,0.0072213513776659966
7680.0,0.008108660578727722
8192.0,-0.0039038467220962048
end
