version,3.0
numOfCh,1
type,point
parent_name,714af_0dot2-0dot01
ch_type,1_1
kcount,1
numberNandB,1
brightnessNandB,1
carpet pos,0
pc,0
Time (ms),CH1 Auto-Correlation
1.0,0.02766937017440796
2.0,0.027134040370583534
3.0,0.02660682611167431
4.0,0.026074586436152458
5.0,0.025568440556526184
6.0,0.025046532973647118
7.0,0.024549664929509163
8.0,0.024077005684375763
9.0,0.023616380989551544
10.0,0.023183172568678856
11.0,0.02277481183409691
12.0,0.022365283221006393
13.0,0.02196267805993557
14.0,0.021560320630669594
15.0,0.021154966205358505
16.0,0.020772406831383705
18.0,0.020035507157444954
20.0,0.0193499568849802
22.0,0.018767928704619408
24.0,0.018253816291689873
26.0,0.017800970003008842
28.0,0.01736903190612793
30.0,0.016923725605010986
32.0,0.016525384038686752
36.0,0.0157717727124691
40.0,0.015032399445772171
44.0,0.014334013685584068
48.0,0.01365963276475668
52.0,0.013016179203987122
56.0,0.012439992278814316
60.0,0.011926948092877865
64.0,0.011373165994882584
72.0,0.010275698266923428
80.0,0.009268483147025108
88.0,0.008435151539742947
96.0,0.007940812967717648
104.0,0.007585946936160326
112.0,0.007005839142948389
120.0,0.006502104923129082
128.0,0.0059915282763540745
144.0,0.00495602423325181
160.0,0.003884686389937997
176.0,0.0033669176045805216
192.0,0.003654044819995761
208.0,0.003319018753245473
224.0,0.0028921833727508783
240.0,0.002962851896882057
256.0,0.002266495954245329
288.0,0.0006494630943052471
320.0,-0.000569690193515271
352.0,-0.0012999540194869041
384.0,-0.00120723235886544
416.0,-0.0009478988940827549
448.0,-0.0010684630833566189
480.0,-0.0009976507863029838
512.0,-0.0014902575640007854
576.0,-0.0004360905149951577
640.0,8.95887496881187e-05
704.0,-0.0004756531270686537
768.0,-0.00039949649362824857
832.0,-0.0012440532445907593
896.0,-0.0013267053291201591
960.0,0.0006374180666171014
1024.0,0.0009893024107441306
1152.0,-0.0004984050756320357
1280.0,0.001351805403828621
1408.0,0.001660275855101645
1536.0,0.004427329171448946
1664.0,0.003238464007154107
1792.0,0.0008622821187600493
1920.0,0.0006338551174849272
2048.0,-0.0005335059831850231
2304.0,-0.003005990060046315
2560.0,-0.0050810822285711765
2816.0,-0.0010490254499018192
3072.0,-0.0020497911609709263
3328.0,-0.0010501958895474672
3584.0,-0.0004927865811623633
3840.0,-0.001345822704024613
4096.0,-0.0035744435153901577
end
