version,3.0
numOfCh,1
type,point
parent_name,714af_0dot2-0dot01
ch_type,1_1
kcount,1
numberNandB,1
brightnessNandB,1
carpet pos,0
pc,0
Time (ms),CH1 Auto-Correlation
1.0,0.02983609214425087
2.0,0.02925165183842182
3.0,0.02870025485754013
4.0,0.02814333327114582
5.0,0.027602745220065117
6.0,0.0270962156355381
7.0,0.02661486715078354
8.0,0.0261528417468071
9.0,0.02571237087249756
10.0,0.025283699855208397
11.0,0.024863962084054947
12.0,0.024468084797263145
13.0,0.024080030620098114
14.0,0.02369094081223011
15.0,0.02330615185201168
16.0,0.022938983514904976
18.0,0.022224074229598045
20.0,0.02154962159693241
22.0,0.020893948152661324
24.0,0.020242249593138695
26.0,0.019630223512649536
28.0,0.01903771236538887
30.0,0.01844225637614727
32.0,0.017881516367197037
36.0,0.01688517816364765
40.0,0.01591482199728489
44.0,0.014930621720850468
48.0,0.014036741107702255
52.0,0.013237099163234234
56.0,0.01254494208842516
60.0,0.01186317391693592
64.0,0.011180553585290909
72.0,0.01003880612552166
80.0,0.00908748246729374
88.0,0.008185932412743568
96.0,0.007329011335968971
104.0,0.006509504746645689
112.0,0.005671469960361719
120.0,0.005208523944020271
128.0,0.005009316373616457
144.0,0.004313860088586807
160.0,0.0038556780200451612
176.0,0.003572891466319561
192.0,0.0033903601579368114
208.0,0.0030288544949144125
224.0,0.0025343475863337517
240.0,0.002250939840450883
256.0,0.002204755786806345
288.0,0.0027468388434499502
320.0,0.003201907966285944
352.0,0.003138891886919737
384.0,0.002985776402056217
416.0,0.0024734586477279663
448.0,0.0020360308699309826
480.0,0.0015680546639487147
512.0,0.0013576110359281301
576.0,0.0011847196146845818
640.0,0.001102485228329897
704.0,0.00045109912753105164
768.0,0.00014010992890689522
832.0,0.0008082480053417385
896.0,0.00048271138803102076
960.0,0.00020481231331359595
1024.0,-0.00019018420425709337
1152.0,0.00022976077161729336
1280.0,0.002716677961871028
1408.0,0.00332093657925725
1536.0,0.0023578470572829247
1664.0,0.0010519518982619047
1792.0,0.0005308910622261465
1920.0,-2.8053791538695805e-05
2048.0,0.0013408024096861482
2304.0,-0.0009626313112676144
2560.0,0.0011092281201854348
2816.0,0.0019196253269910812
3072.0,0.0015161075862124562
3328.0,-6.781725915061543e-06
3584.0,-0.0021134503185749054
3840.0,-0.0018221094505861402
4096.0,-0.0015539207961410284
4608.0,-0.0019555718172341585
5120.0,-0.0026067786384373903
5632.0,-0.003244017018005252
6144.0,-0.002466384321451187
6656.0,0.0006234300090000033
7168.0,-0.0010863295756280422
7680.0,-0.0033950137440115213
8192.0,0.0006955641438253224
end
