version,3.0
numOfCh,1
type,point
parent_name,714af_0dot2-0dot01
ch_type,1_1
kcount,1
numberNandB,1
brightnessNandB,1
carpet pos,0
pc,0
Time (ms),CH1 Auto-Correlation
1.0,0.028261465951800346
2.0,0.02771461382508278
3.0,0.027174999937415123
4.0,0.02666507661342621
5.0,0.02617267519235611
6.0,0.025683989748358727
7.0,0.025215309113264084
8.0,0.02476334758102894
9.0,0.024317700415849686
10.0,0.023902809247374535
11.0,0.02349829114973545
12.0,0.023101838305592537
13.0,0.022722631692886353
14.0,0.02236693911254406
15.0,0.0220200102776289
16.0,0.02168295532464981
18.0,0.021038353443145752
20.0,0.020410871133208275
22.0,0.01980556733906269
24.0,0.019244076684117317
26.0,0.018727270886301994
28.0,0.018242137506604195
30.0,0.017750578001141548
32.0,0.01725977286696434
36.0,0.01633945293724537
40.0,0.015497257001698017
44.0,0.014679258689284325
48.0,0.013932091183960438
52.0,0.013277358375489712
56.0,0.012679846957325935
60.0,0.01214543916285038
64.0,0.011655420996248722
72.0,0.011009981855750084
80.0,0.01059457752853632
88.0,0.010072092525660992
96.0,0.009635180234909058
104.0,0.009311903268098831
112.0,0.008888416923582554
120.0,0.008464072830975056
128.0,0.00784666184335947
144.0,0.007073168642818928
160.0,0.006713032256811857
176.0,0.00649997778236866
192.0,0.006358069367706776
208.0,0.005671497900038958
224.0,0.004964477848261595
240.0,0.004580173175781965
256.0,0.004643665160983801
288.0,0.0055943806655704975
320.0,0.005598057527095079
352.0,0.004827675875276327
384.0,0.0051236809231340885
416.0,0.005360177718102932
448.0,0.005338807124644518
480.0,0.0050786640495061874
512.0,0.005486210808157921
576.0,0.004997566808015108
640.0,0.0037630510050803423
704.0,0.002944170031696558
768.0,0.0019807443022727966
832.0,0.0003514781128615141
896.0,-0.0023570561315864325
960.0,-0.0026825855020433664
1024.0,-0.0027148318476974964
1152.0,-0.00241983775049448
1280.0,-0.000819772423710674
1408.0,-0.0001822824851842597
1536.0,-0.0030809182208031416
1664.0,-0.003554744878783822
1792.0,-0.0025199453812092543
1920.0,-0.0016158425714820623
2048.0,-0.0029424068052321672
2304.0,-0.004063683561980724
2560.0,-0.003161842469125986
2816.0,-0.003773244097828865
3072.0,-0.002433843445032835
3328.0,-0.001844007521867752
3584.0,-0.0021947966888546944
3840.0,-0.0004142789985053241
4096.0,-0.00037189683644101024
4608.0,0.0007107913261279464
5120.0,0.0020843069069087505
5632.0,0.0025906639639288187
6144.0,0.00016754474199842662
6656.0,-0.0035316115245223045
7168.0,-0.0012154970318078995
7680.0,0.002272865967825055
8192.0,0.000508698751218617
end
