version,3.0
numOfCh,1
type,point
parent_name,fe81d_0dot1-1dot0
ch_type,1_1
kcount,1
numberNandB,1
brightnessNandB,1
carpet pos,0
pc,0
Time (ms),CH1 Auto-Correlation
1.0,0.03831791505217552
2.0,0.03783207759261131
3.0,0.037399787455797195
4.0,0.03698918968439102
5.0,0.03658626601099968
6.0,0.03618748113512993
7.0,0.035822875797748566
8.0,0.03546897694468498
9.0,0.03513666242361069
10.0,0.034823860973119736
11.0,0.03450189158320427
12.0,0.03419440612196922
13.0,0.033882491290569305
14.0,0.033560801297426224
15.0,0.033243242651224136
16.0,0.03292973339557648
18.0,0.03231324255466461
20.0,0.03169140964746475
22.0,0.031111398711800575
24.0,0.030546465888619423
26.0,0.02994002215564251
28.0,0.0293447095900774
30.0,0.028737640008330345
32.0,0.02817545272409916
36.0,0.02717440575361252
40.0,0.026257958263158798
44.0,0.02543574757874012
48.0,0.024608034640550613
52.0,0.023776911199092865
56.0,0.02297518216073513
60.0,0.02222869172692299
64.0,0.02148142084479332
72.0,0.020149091258645058
80.0,0.01887618750333786
88.0,0.01783272810280323
96.0,0.016892900690436363
104.0,0.01618502475321293
112.0,0.01554112695157528
120.0,0.015022837556898594
128.0,0.014657551422715187
144.0,0.014251146465539932
160.0,0.014000005088746548
176.0,0.013684534467756748
192.0,0.013121879659593105
208.0,0.01261156890541315
224.0,0.012115350924432278
240.0,0.011309395544230938
256.0,0.010431044735014439
288.0,0.008418723940849304
320.0,0.007241918705403805
352.0,0.006305702496320009
384.0,0.005271177738904953
416.0,0.004334483295679092
448.0,0.004383405204862356
480.0,0.004389611072838306
512.0,0.0032983063720166683
576.0,0.001194700482301414
640.0,0.0019226560834795237
704.0,0.00307163642719388
768.0,0.0027786868158727884
832.0,0.001918300287798047
896.0,0.0016022620256990194
960.0,0.001270354725420475
1024.0,-0.00025781121803447604
1152.0,-0.001160557265393436
1280.0,-0.0026310328394174576
1408.0,-0.003765128320083022
1536.0,-0.0002648912195581943
1664.0,0.0011430169688537717
1792.0,0.0007092032465152442
1920.0,0.0003446787304710597
2048.0,0.0002637157158460468
2304.0,-9.391491039423272e-05
2560.0,0.0014267422957345843
2816.0,0.006037007085978985
3072.0,0.008403840474784374
3328.0,0.00758578535169363
3584.0,0.004329244140535593
3840.0,0.004766454920172691
4096.0,0.000908129324670881
4608.0,-0.003699930151924491
5120.0,-0.001104809227399528
5632.0,-0.0034349013585597277
6144.0,-0.00353224272839725
6656.0,0.004011346958577633
7168.0,0.0009960171300917864
7680.0,-0.005476145539432764
8192.0,-0.007091868668794632
end
