version,3.0
numOfCh,1
type,point
parent_name,fe81d_0dot1-1dot0
ch_type,1_1
kcount,1
numberNandB,1
brightnessNandB,1
carpet pos,0
pc,0
Time (ms),CH1 Auto-Correlation
1.0,0.04544754698872566
2.0,0.04496438801288605
3.0,0.04451964050531387
4.0,0.044077735394239426
5.0,0.04364844784140587
6.0,0.04325404018163681
7.0,0.042854148894548416
8.0,0.042455051094293594
9.0,0.042062148451805115
10.0,0.04166949912905693
11.0,0.04128441587090492
12.0,0.04092457890510559
13.0,0.040579359978437424
14.0,0.04022539407014847
15.0,0.03987155109643936
16.0,0.03952508792281151
18.0,0.038851164281368256
20.0,0.038205161690711975
22.0,0.03757965937256813
24.0,0.03699192404747009
26.0,0.03642469272017479
28.0,0.03588389232754707
30.0,0.035373151302337646
32.0,0.03489747270941734
36.0,0.033989354968070984
40.0,0.033232010900974274
44.0,0.032519012689590454
48.0,0.031884897500276566
52.0,0.03128281980752945
56.0,0.030610712245106697
60.0,0.02991885133087635
64.0,0.02925843372941017
72.0,0.02790069580078125
80.0,0.026748547330498695
88.0,0.02592831663787365
96.0,0.025134164839982986
104.0,0.024051520973443985
112.0,0.02287347801029682
120.0,0.02176554687321186
128.0,0.020810255780816078
144.0,0.0192053634673357
160.0,0.017644746229052544
176.0,0.01623467355966568
192.0,0.014979501254856586
208.0,0.013598700985312462
224.0,0.012658903375267982
240.0,0.011857407167553902
256.0,0.011194459162652493
288.0,0.010107392445206642
320.0,0.009344244375824928
352.0,0.00792273785918951
384.0,0.006041884887963533
416.0,0.0044494024477899075
448.0,0.003416906576603651
480.0,0.0021750933956354856
512.0,0.001728195114992559
576.0,0.0020567872561514378
640.0,0.003513409523293376
704.0,0.005689856596291065
768.0,0.006240093614906073
832.0,0.005650606006383896
896.0,0.003745041089132428
960.0,0.004252975806593895
1024.0,0.006179033312946558
1152.0,0.0067292312160134315
1280.0,0.004852876998484135
1408.0,0.005643986631184816
1536.0,0.0007312039379030466
1664.0,-0.00048356904881075025
1792.0,0.0026120988186448812
1920.0,0.0014914140338078141
2048.0,0.002310073934495449
2304.0,-0.0032189099583774805
2560.0,0.0006058580474928021
2816.0,0.0033478406257927418
3072.0,0.0025953822769224644
3328.0,0.0018204388907179236
3584.0,0.002751105697825551
3840.0,0.0038506255950778723
4096.0,-0.000385656749131158
4608.0,-0.0009532032418064773
5120.0,-0.0010488906409591436
5632.0,-0.00567066902294755
6144.0,-0.012775185517966747
6656.0,-0.006039765197783709
7168.0,-0.007756818551570177
7680.0,-0.007131590507924557
8192.0,-0.0027804533019661903
end
