version,3.0
numOfCh,1
type,point
parent_name,fe81d_0dot1-1dot0
ch_type,1_1
kcount,1
numberNandB,1
brightnessNandB,1
carpet pos,0
pc,0
Time (ms),CH1 Auto-Correlation
1.0,0.041225455701351166
2.0,0.040747158229351044
3.0,0.04028743878006935
4.0,0.039844363927841187
5.0,0.03944046050310135
6.0,0.03905286639928818
7.0,0.03867170587182045
8.0,0.03829289600253105
9.0,0.03792596980929375
10.0,0.03757290542125702
11.0,0.037232108414173126
12.0,0.0368947833776474
13.0,0.03656134381890297
14.0,0.036249078810214996
15.0,0.035944461822509766
16.0,0.035624824464321136
18.0,0.03499605879187584
20.0,0.03441671282052994
22.0,0.03383319079875946
24.0,0.03325708582997322
26.0,0.032681599259376526
28.0,0.03212700039148331
30.0,0.03159809857606888
32.0,0.03111528418958187
36.0,0.030250580981373787
40.0,0.02941875532269478
44.0,0.02856825850903988
48.0,0.02771032229065895
52.0,0.026888741180300713
56.0,0.026050109416246414
60.0,0.025323349982500076
64.0,0.02470763586461544
72.0,0.023655351251363754
80.0,0.02261965535581112
88.0,0.02151922509074211
96.0,0.020713331177830696
104.0,0.020085377618670464
112.0,0.019506419077515602
120.0,0.019094960764050484
128.0,0.018629273399710655
144.0,0.01770607754588127
160.0,0.017002414911985397
176.0,0.016325131058692932
192.0,0.015569642186164856
208.0,0.014852753840386868
224.0,0.014212138950824738
240.0,0.013737448491156101
256.0,0.013125873170793056
288.0,0.01248201448470354
320.0,0.011375864036381245
352.0,0.009809338487684727
384.0,0.009353669360280037
416.0,0.009416799061000347
448.0,0.00999940000474453
480.0,0.010408245027065277
512.0,0.010154659859836102
576.0,0.009910446591675282
640.0,0.009990191087126732
704.0,0.00853735487908125
768.0,0.0069000390358269215
832.0,0.006641867104917765
896.0,0.0059268721379339695
960.0,0.005709316581487656
1024.0,0.005304161459207535
1152.0,0.006466271355748177
1280.0,0.0055836900137364864
1408.0,0.0050728884525597095
1536.0,0.006859638262540102
1664.0,0.0064469254575669765
1792.0,0.006716944742947817
1920.0,0.004623503424227238
2048.0,0.004611235111951828
2304.0,0.0073587000370025635
2560.0,0.004150708205997944
2816.0,0.004780601244419813
3072.0,0.003747814567759633
3328.0,0.005217785481363535
3584.0,0.004140548873692751
3840.0,0.003969584591686726
4096.0,0.002571079647168517
4608.0,-0.0015485170297324657
5120.0,-0.0003358129761181772
5632.0,-0.0008912771008908749
6144.0,-0.0011962272692471743
6656.0,0.00013789907097816467
7168.0,-0.003874539863318205
7680.0,-0.004838019609451294
8192.0,-0.01003150176256895
end
