version,3.0
numOfCh,1
type,point
parent_name,fe81d_0dot1-1dot0
ch_type,1_1
kcount,1
numberNandB,1
brightnessNandB,1
carpet pos,0
pc,0
Time (ms),CH1 Auto-Correlation
1.0,0.027706317603588104
2.0,0.02733202651143074
3.0,0.026970619335770607
4.0,0.026630355045199394
5.0,0.026288721710443497
6.0,0.02595387026667595
7.0,0.025617076084017754
8.0,0.025288395583629608
9.0,0.024961022660136223
10.0,0.024641629308462143
11.0,0.024326246231794357
12.0,0.02400853857398033
13.0,0.02370011992752552
14.0,0.023406462743878365
15.0,0.02310941182076931
16.0,0.022823896259069443
18.0,0.022266216576099396
20.0,0.02172178030014038
22.0,0.02120518684387207
24.0,0.02069680579006672
26.0,0.02019547112286091
28.0,0.01974526233971119
30.0,0.019343214109539986
32.0,0.018974604085087776
36.0,0.018287410959601402
40.0,0.017691781744360924
44.0,0.01713930070400238
48.0,0.016585441306233406
52.0,0.015995904803276062
56.0,0.015362330712378025
60.0,0.014746787026524544
64.0,0.014170949347317219
72.0,0.013021005317568779
80.0,0.01197743508964777
88.0,0.011122736148536205
96.0,0.010348635725677013
104.0,0.009542718529701233
112.0,0.008741353638470173
120.0,0.008107306435704231
128.0,0.007607955019921064
144.0,0.006821500603109598
160.0,0.006008768919855356
176.0,0.005117127671837807
192.0,0.004347757901996374
208.0,0.0038613153155893087
224.0,0.0038526321295648813
240.0,0.0036007931921631098
256.0,0.0033091360237449408
288.0,0.003524047788232565
320.0,0.003123978851363063
352.0,0.0028698015958070755
384.0,0.0023819475900381804
416.0,0.0017585476161912084
448.0,0.0009588788379915059
480.0,0.00041818481986410916
512.0,0.00027950634830631316
576.0,-0.0005395130137912929
640.0,-0.00023314768623095006
704.0,0.000693905574735254
768.0,0.0020588068291544914
832.0,0.0022560302168130875
896.0,0.0005933726206421852
960.0,-0.0011256108991801739
1024.0,-0.0016529919812455773
1152.0,-0.004051489755511284
1280.0,-0.0048571135848760605
1408.0,-0.004616605117917061
1536.0,-0.002991330809891224
1664.0,-0.001520476653240621
1792.0,-0.001089306315407157
1920.0,-0.0018964526243507862
2048.0,-0.003538924502208829
2304.0,-0.00030095528927631676
2560.0,0.0021916450932621956
2816.0,1.648358374950476e-05
3072.0,5.625190169666894e-05
3328.0,0.0017018759390339255
3584.0,-0.00015603432257194072
3840.0,-0.0007153669139370322
4096.0,-0.0003035719564650208
4608.0,-0.0006077695870772004
5120.0,-0.001174725592136383
5632.0,-0.0020450244192034006
6144.0,-0.001968170516192913
6656.0,0.0045229229144752026
7168.0,0.0037127556279301643
7680.0,-0.000856701866723597
8192.0,-0.0033482317812740803
end
