version,3.0
numOfCh,1
type,point
parent_name,fe81d_0dot1-1dot0
ch_type,1_1
kcount,1
numberNandB,1
brightnessNandB,1
carpet pos,0
pc,0
Time (ms),CH1 Auto-Correlation
1.0,0.04482407867908478
2.0,0.04429614543914795
3.0,0.04383275285363197
4.0,0.04342160001397133
5.0,0.04303477704524994
6.0,0.042648278176784515
7.0,0.042289406061172485
8.0,0.04193250462412834
9.0,0.041569266468286514
10.0,0.04122196137905121
11.0,0.04086519032716751
12.0,0.04050197824835777
13.0,0.040162403136491776
14.0,0.03984256088733673
15.0,0.03952980786561966
16.0,0.03921254351735115
18.0,0.03860615938901901
20.0,0.038004759699106216
22.0,0.03744041547179222
24.0,0.03691434487700462
26.0,0.036427900195121765
28.0,0.03594829887151718
30.0,0.03547855466604233
32.0,0.03508035093545914
36.0,0.03434082493185997
40.0,0.03359682112932205
44.0,0.03299759700894356
48.0,0.03244464471936226
52.0,0.0319192074239254
56.0,0.0314733162522316
60.0,0.031074292957782745
64.0,0.030691904947161674
72.0,0.02983439899981022
80.0,0.02888326160609722
88.0,0.027928868308663368
96.0,0.02705194056034088
104.0,0.026436446234583855
112.0,0.025912074372172356
120.0,0.02522704005241394
128.0,0.024633562192320824
144.0,0.02381931059062481
160.0,0.02293122373521328
176.0,0.02195669896900654
192.0,0.020842118188738823
208.0,0.01958298124372959
224.0,0.018521057441830635
240.0,0.017612600699067116
256.0,0.01677780970931053
288.0,0.014555797912180424
320.0,0.012877321802079678
352.0,0.011347549967467785
384.0,0.009772980585694313
416.0,0.008366309106349945
448.0,0.007523155305534601
480.0,0.006717194337397814
512.0,0.006476546637713909
576.0,0.00578447338193655
640.0,0.00379581144079566
704.0,0.0015091589884832501
768.0,-0.0006031853263266385
832.0,-0.0023920165840536356
896.0,-0.003990551456809044
960.0,-0.005430408287793398
1024.0,-0.0059355199337005615
1152.0,-0.007232986856251955
1280.0,-0.005493530072271824
1408.0,-0.0032868869602680206
1536.0,-0.0011490490287542343
1664.0,-0.001146982074715197
1792.0,-0.0017175807151943445
1920.0,-0.0004871579585596919
2048.0,0.0014017174253240228
2304.0,0.006740164011716843
2560.0,0.00509791262447834
2816.0,0.004509789869189262
3072.0,0.004025572445243597
3328.0,-0.004727017600089312
3584.0,-0.009539223276078701
3840.0,-0.009683058597147465
4096.0,-0.011199467815458775
4608.0,0.00030539161525666714
5120.0,0.009122457355260849
5632.0,0.005108467303216457
6144.0,-0.0019205828430131078
6656.0,-0.005659017711877823
7168.0,-0.004963498096913099
7680.0,-0.00042265275260433555
8192.0,-0.0012062116293236613
end
