version,3.0
numOfCh,1
type,point
parent_name,fe81d_0dot1-1dot0
ch_type,1_1
kcount,1
numberNandB,1
brightnessNandB,1
carpet pos,0
pc,0
Time (ms),CH1 Auto-Correlation
1.0,0.0394241139292717
2.0,0.038958191871643066
3.0,0.038526393473148346
4.0,0.03812427073717117
5.0,0.03774676471948624
6.0,0.0373852401971817
7.0,0.03705072030425072
8.0,0.03672846034169197
9.0,0.036396574229002
10.0,0.03604656085371971
11.0,0.0357128344476223
12.0,0.035407841205596924
13.0,0.03509826213121414
14.0,0.03477981686592102
15.0,0.0344710573554039
16.0,0.034171126782894135
18.0,0.033539723604917526
20.0,0.03295644745230675
22.0,0.03241748362779617
24.0,0.03189357370138168
26.0,0.03138813376426697
28.0,0.030897872522473335
30.0,0.030410168692469597
32.0,0.029915666207671165
36.0,0.028905024752020836
40.0,0.02794286422431469
44.0,0.026998106390237808
48.0,0.026100438088178635
52.0,0.025311462581157684
56.0,0.02458532154560089
60.0,0.023871617391705513
64.0,0.023167645558714867
72.0,0.021913958713412285
80.0,0.02080017700791359
88.0,0.01972363330423832
96.0,0.018741076812148094
104.0,0.017874304205179214
112.0,0.017104290425777435
120.0,0.01641690731048584
128.0,0.01588631048798561
144.0,0.014857188798487186
160.0,0.013818087987601757
176.0,0.012717495672404766
192.0,0.011771051213145256
208.0,0.011313097551465034
224.0,0.010942480526864529
240.0,0.010389445349574089
256.0,0.010343614965677261
288.0,0.010203344747424126
320.0,0.00941423512995243
352.0,0.007818286307156086
384.0,0.006329737138003111
416.0,0.005444536916911602
448.0,0.004162702243775129
480.0,0.0026694873813539743
512.0,0.001402419526129961
576.0,0.001421669963747263
640.0,0.0018259334610775113
704.0,0.003053939202800393
768.0,0.003823879174888134
832.0,0.003689252072945237
896.0,0.0019938701298087835
960.0,0.0019433207344263792
1024.0,0.004675718490034342
1152.0,0.006180145777761936
1280.0,0.005177364684641361
1408.0,0.006174271460622549
1536.0,0.00349850719794631
1664.0,0.0009592646965757012
1792.0,-0.0008077608654275537
1920.0,0.00013712287181988358
2048.0,0.0015634375158697367
2304.0,-0.000861888867802918
2560.0,-0.002815835876390338
2816.0,-0.0059860507026314735
3072.0,-0.008757001720368862
3328.0,-0.007187504321336746
3584.0,-0.004837191663682461
3840.0,-0.005849147215485573
4096.0,-0.008107827976346016
4608.0,-0.00385746150277555
5120.0,-0.005296815652400255
5632.0,-0.0052995989099144936
6144.0,0.003278370713815093
6656.0,0.0020478814840316772
7168.0,0.006683842279016972
7680.0,0.0040050470270216465
8192.0,0.00592087022960186
end
