version,3.0
numOfCh,1
type,point
parent_name,fe81d_0dot1-1dot0
ch_type,1_1
kcount,1
numberNandB,1
brightnessNandB,1
carpet pos,0
pc,0
Time (ms),CH1 Auto-Correlation
1.0,0.03722431883215904
2.0,0.036740098148584366
3.0,0.03631018474698067
4.0,0.03591302037239075
5.0,0.03551876172423363
6.0,0.035132039338350296
7.0,0.034752991050481796
8.0,0.03439498692750931
9.0,0.03405585512518883
10.0,0.0337127223610878
11.0,0.03336958959698677
12.0,0.03301874175667763
13.0,0.03268710896372795
14.0,0.03235848620533943
15.0,0.03204648569226265
16.0,0.03172735869884491
18.0,0.031141234561800957
20.0,0.030585743486881256
22.0,0.030033420771360397
24.0,0.029496444389224052
26.0,0.02899615466594696
28.0,0.02849920652806759
30.0,0.02801288291811943
32.0,0.027523646131157875
36.0,0.02657819539308548
40.0,0.02560189738869667
44.0,0.02464885823428631
48.0,0.023793840780854225
52.0,0.02306281588971615
56.0,0.022496391087770462
60.0,0.021965267136693
64.0,0.021415570750832558
72.0,0.02022404782474041
80.0,0.019078409299254417
88.0,0.01806453801691532
96.0,0.017212700098752975
104.0,0.01638074219226837
112.0,0.015608737245202065
120.0,0.014969459734857082
128.0,0.014420869760215282
144.0,0.01344968006014824
160.0,0.01234922744333744
176.0,0.011246892623603344
192.0,0.010567345656454563
208.0,0.009965607896447182
224.0,0.009470174089074135
240.0,0.009366429410874844
256.0,0.009401709772646427
288.0,0.009151827543973923
320.0,0.00826037023216486
352.0,0.007306043989956379
384.0,0.006365540903061628
416.0,0.005655121523886919
448.0,0.004817657172679901
480.0,0.002885740017518401
512.0,0.001643329276703298
576.0,0.002192108426243067
640.0,0.0028775478713214397
704.0,0.00282117142342031
768.0,0.002453947439789772
832.0,0.002475957153365016
896.0,0.00425681984052062
960.0,0.001684951363131404
1024.0,-0.0006101512699387968
1152.0,-0.00033685090602375567
1280.0,-0.0024006953462958336
1408.0,-0.0038619693368673325
1536.0,-0.0012776014627888799
1664.0,-0.0009877983247861266
1792.0,-0.0006844153394922614
1920.0,-6.425900210160762e-05
2048.0,0.0014243342448025942
2304.0,-0.0010841044131666422
2560.0,-0.0038382636848837137
2816.0,-0.005348547361791134
3072.0,-0.001131696393713355
3328.0,0.0014393398305401206
3584.0,7.375003769993782e-05
3840.0,0.0006388525362126529
4096.0,-0.0010993409669026732
4608.0,-0.0022821850143373013
5120.0,-0.003476375713944435
5632.0,-0.006145165767520666
6144.0,-0.0071716648526489735
6656.0,0.0035723031032830477
7168.0,0.006915791891515255
7680.0,-0.0017388792475685477
8192.0,-0.003843493526801467
end
