version,3.0
numOfCh,1
type,point
parent_name,fe81d_0dot1-1dot0
ch_type,1_1
kcount,1
numberNandB,1
brightnessNandB,1
carpet pos,0
pc,0
Time (ms),CH1 Auto-Correlation
1.0,0.04986390471458435
2.0,0.04929733648896217
3.0,0.048819269984960556
4.0,0.04837658256292343
5.0,0.047906238585710526
6.0,0.04744986817240715
7.0,0.047019071877002716
8.0,0.04660433158278465
9.0,0.046164751052856445
10.0,0.04575894773006439
11.0,0.04537077993154526
12.0,0.04498005285859108
13.0,0.044605620205402374
14.0,0.044215310364961624
15.0,0.04382699355483055
16.0,0.04346845671534538
18.0,0.04270540922880173
20.0,0.04199768975377083
22.0,0.04129893705248833
24.0,0.04065248742699623
26.0,0.040045078843832016
28.0,0.0394417978823185
30.0,0.038828808814287186
32.0,0.03819454833865166
36.0,0.03703627362847328
40.0,0.03605787456035614
44.0,0.035185378044843674
48.0,0.03434514254331589
52.0,0.03358110412955284
56.0,0.032968442887067795
60.0,0.03240072354674339
64.0,0.031924743205308914
72.0,0.03108181431889534
80.0,0.030219051986932755
88.0,0.02928018383681774
96.0,0.02840934880077839
104.0,0.027585968375205994
112.0,0.026849888265132904
120.0,0.026140937581658363
128.0,0.025423366576433182
144.0,0.024466773495078087
160.0,0.023637687787413597
176.0,0.02273222990334034
192.0,0.021592408418655396
208.0,0.020565351471304893
224.0,0.020002830773591995
240.0,0.019344782456755638
256.0,0.01831340231001377
288.0,0.015819795429706573
320.0,0.013524741865694523
352.0,0.012421965599060059
384.0,0.011844580993056297
416.0,0.010616431944072247
448.0,0.010006090626120567
480.0,0.009984935633838177
512.0,0.009967098012566566
576.0,0.008484032936394215
640.0,0.006067938171327114
704.0,0.003745958674699068
768.0,0.0018757389625534415
832.0,0.0010928224073722959
896.0,0.00020977327949367464
960.0,7.114730124158086e-06
1024.0,0.0008024622220546007
1152.0,-0.0001365327334497124
1280.0,-0.0016335194231942296
1408.0,-0.0027338869404047728
1536.0,-0.004283542279154062
1664.0,-0.009073724038898945
1792.0,-0.012166726402938366
1920.0,-0.010256224311888218
2048.0,-0.005421073641628027
2304.0,-0.0016901175258681178
2560.0,-0.0035940140951424837
2816.0,-0.007292026653885841
3072.0,-0.010746053420007229
3328.0,-0.01203064899891615
3584.0,-0.007037990260869265
3840.0,0.0012242961674928665
4096.0,0.003582826117053628
4608.0,0.010318219661712646
5120.0,0.01178375631570816
5632.0,-0.0010730341309681535
6144.0,-0.006473258603364229
6656.0,-0.0009093615808524191
7168.0,-0.0006109896348789334
7680.0,-0.0015626008389517665
8192.0,-0.010653834789991379
end
