version,3.0
numOfCh,1
type,point
parent_name,fe81d_0dot1-1dot0
ch_type,1_1
kcount,1
numberNandB,1
brightnessNandB,1
carpet pos,0
pc,0
Time (ms),CH1 Auto-Correlation
1.0,0.03680908679962158
2.0,0.036348748952150345
3.0,0.035933613777160645
4.0,0.035539280623197556
5.0,0.03516865894198418
6.0,0.03480365872383118
7.0,0.034456703811883926
8.0,0.03411472216248512
9.0,0.03377053886651993
10.0,0.033422958105802536
11.0,0.033099666237831116
12.0,0.03278650715947151
13.0,0.03247461095452309
14.0,0.03217627853155136
15.0,0.03190361335873604
16.0,0.031630922108888626
18.0,0.0310503076761961
20.0,0.030477892607450485
22.0,0.02992991730570793
24.0,0.029402317479252815
26.0,0.0288692656904459
28.0,0.028354154899716377
30.0,0.02787221223115921
32.0,0.02743053436279297
36.0,0.02657483145594597
40.0,0.02582954801619053
44.0,0.025143269449472427
48.0,0.02447422593832016
52.0,0.023842355236411095
56.0,0.02320636436343193
60.0,0.022574925795197487
64.0,0.021962888538837433
72.0,0.020705262199044228
80.0,0.019334495067596436
88.0,0.018028192222118378
96.0,0.017097311094403267
104.0,0.01635410636663437
112.0,0.01590503193438053
120.0,0.01550757884979248
128.0,0.015089014545083046
144.0,0.014237664639949799
160.0,0.013644483871757984
176.0,0.013460042886435986
192.0,0.013136097230017185
208.0,0.012514274567365646
224.0,0.011826511472463608
240.0,0.011438447050750256
256.0,0.011270917020738125
288.0,0.009814579039812088
320.0,0.007424738723784685
352.0,0.005007375497370958
384.0,0.0038239839486777782
416.0,0.0036653305869549513
448.0,0.004206061363220215
480.0,0.004081170540302992
512.0,0.0038404332008212805
576.0,0.002772415289655328
640.0,0.002863944973796606
704.0,0.00339423306286335
768.0,0.0028608539141714573
832.0,0.002392206806689501
896.0,0.0050020478665828705
960.0,0.007874956354498863
1024.0,0.009335910901427269
1152.0,0.010845656506717205
1280.0,0.009149199351668358
1408.0,0.0043805306777358055
1536.0,0.0004511619044933468
1664.0,-0.0036867824383080006
1792.0,-0.004584824666380882
1920.0,-0.004135169088840485
2048.0,-0.002178385155275464
2304.0,0.0003138438914902508
2560.0,-0.0024972951505333185
2816.0,-0.0046806614845991135
3072.0,-0.0037855312693864107
3328.0,0.0012373666977509856
3584.0,9.665654215496033e-05
3840.0,-0.0030159654561430216
4096.0,-0.003917253110557795
4608.0,-0.0015955957351252437
5120.0,-0.0037509032990783453
5632.0,-0.004506786819547415
6144.0,-0.0027415493968874216
6656.0,-0.00344782043248415
7168.0,-0.0040360079146921635
7680.0,-0.0022322903387248516
8192.0,-0.0119324354454875
end
