version,3.0
numOfCh,1
type,point
parent_name,fe81d_0dot1-1dot0
ch_type,1_1
kcount,1
numberNandB,1
brightnessNandB,1
carpet pos,0
pc,0
Time (ms),CH1 Auto-Correlation
1.0,0.036121826618909836
2.0,0.03567983955144882
3.0,0.03525727614760399
4.0,0.034828972071409225
5.0,0.03440669924020767
6.0,0.03400659188628197
7.0,0.03361431509256363
8.0,0.033235955983400345
9.0,0.03286904841661453
10.0,0.03251062333583832
11.0,0.0321488156914711
12.0,0.0318111777305603
13.0,0.031489789485931396
14.0,0.031162099912762642
15.0,0.03084888868033886
16.0,0.030534794554114342
18.0,0.0299543347209692
20.0,0.02942601591348648
22.0,0.02892090566456318
24.0,0.028422638773918152
26.0,0.027939574792981148
28.0,0.027488339692354202
30.0,0.027033748105168343
32.0,0.02659747563302517
36.0,0.025831405073404312
40.0,0.025121847167611122
44.0,0.024475950747728348
48.0,0.02388281188905239
52.0,0.02329859510064125
56.0,0.022685457020998
60.0,0.02206464111804962
64.0,0.021491974592208862
72.0,0.02046421356499195
80.0,0.01959865726530552
88.0,0.018794599920511246
96.0,0.017905013635754585
104.0,0.017141403630375862
112.0,0.016558103263378143
120.0,0.016088904812932014
128.0,0.015801332890987396
144.0,0.014945286326110363
160.0,0.013741985894739628
176.0,0.012754842638969421
192.0,0.012015124782919884
208.0,0.011172594502568245
224.0,0.01030862145125866
240.0,0.009006518870592117
256.0,0.007819701917469501
288.0,0.00571349635720253
320.0,0.004404835402965546
352.0,0.004037944134324789
384.0,0.004159654024988413
416.0,0.003763578599318862
448.0,0.0029965033754706383
480.0,0.0027417822275310755
512.0,0.0024507204070687294
576.0,0.0028433005791157484
640.0,0.0028525071684271097
704.0,0.002408434869721532
768.0,0.0023986296728253365
832.0,0.0007333135581575334
896.0,-0.0010672383941709995
960.0,-0.0017460033996030688
1024.0,-0.0018976688152179122
1152.0,0.002418840304017067
1280.0,0.003298569470643997
1408.0,0.001576672657392919
1536.0,0.0010127673158422112
1664.0,-0.00333212036639452
1792.0,-0.004989675711840391
1920.0,-0.003191366558894515
2048.0,-0.0023936659563332796
2304.0,-0.0023150283377617598
2560.0,0.002979552373290062
2816.0,0.0008628256036899984
3072.0,-0.002994930138811469
3328.0,-0.0020555322989821434
3584.0,-0.0035786430817097425
3840.0,0.001420749700628221
4096.0,0.0012160923797637224
4608.0,-0.0010315477848052979
5120.0,0.0067007876932621
5632.0,0.008378264494240284
6144.0,-0.0013153202598914504
6656.0,-0.0009383305441588163
7168.0,-0.004865511320531368
7680.0,-0.0037432676181197166
8192.0,-0.0007561109378002584
end
