version,3.0
numOfCh,1
type,point
parent_name,fe81d_0dot1-1dot0
ch_type,1_1
kcount,1
numberNandB,1
brightnessNandB,1
carpet pos,0
pc,0
Time (ms),CH1 Auto-Correlation
1.0,0.039937421679496765
2.0,0.039509523659944534
3.0,0.03909649699926376
4.0,0.0386982187628746
5.0,0.038287121802568436
6.0,0.037897706031799316
7.0,0.03750939667224884
8.0,0.037133608013391495
9.0,0.03676438704133034
10.0,0.03641534596681595
11.0,0.03607877716422081
12.0,0.03574129939079285
13.0,0.0353989377617836
14.0,0.03505771607160568
15.0,0.0347253642976284
16.0,0.03439236804842949
18.0,0.03376099839806557
20.0,0.033167317509651184
22.0,0.03261109068989754
24.0,0.03208588436245918
26.0,0.03156153857707977
28.0,0.0310306828469038
30.0,0.030491214245557785
32.0,0.029948871582746506
36.0,0.02891186997294426
40.0,0.027954671531915665
44.0,0.027060959488153458
48.0,0.026127269491553307
52.0,0.025199124589562416
56.0,0.024302475154399872
60.0,0.02338830754160881
64.0,0.02249515987932682
72.0,0.02077997662127018
80.0,0.019262775778770447
88.0,0.017863506451249123
96.0,0.01659207046031952
104.0,0.01536749117076397
112.0,0.01415907870978117
120.0,0.012981172651052475
128.0,0.011939951218664646
144.0,0.009899103082716465
160.0,0.008214256726205349
176.0,0.007045923266559839
192.0,0.00595461018383503
208.0,0.004855561535805464
224.0,0.003937296569347382
240.0,0.0030871194321662188
256.0,0.002763855503872037
288.0,0.0027958990540355444
320.0,0.0025683878920972347
352.0,0.0019440925680100918
384.0,0.0016981610096991062
416.0,0.0014684404013678432
448.0,0.0016584910918027163
480.0,0.002203028416261077
512.0,0.0021811737678945065
576.0,0.0007383189513348043
640.0,0.0006446439074352384
704.0,0.0012857674155384302
768.0,0.0024117270950227976
832.0,0.00133691041264683
896.0,0.00031200391822494566
960.0,0.0017467538127675653
1024.0,0.004161748569458723
1152.0,0.0072644492611289024
1280.0,0.006976189091801643
1408.0,4.596330472850241e-05
1536.0,-0.00040512706618756056
1664.0,0.00036909247864969075
1792.0,0.0003172273572999984
1920.0,-0.0025145516265183687
2048.0,-0.0030000556726008654
2304.0,-0.00017426462727598846
2560.0,0.0009955341229215264
2816.0,-0.004275413230061531
3072.0,-0.0011741953203454614
3328.0,-0.005886691156774759
3584.0,-8.085048648354132e-06
3840.0,0.0017292979173362255
4096.0,-0.003241377416998148
4608.0,-0.0012892504455521703
5120.0,-0.0024925016332417727
5632.0,-0.0028060548938810825
6144.0,-0.003660073969513178
6656.0,-0.00032686133636161685
7168.0,-0.0028076753951609135
7680.0,-0.0008283780771307647
8192.0,0.0030837152153253555
end
