version,3.0
numOfCh,1
type,point
parent_name,fe81d_0dot1-1dot0
ch_type,1_1
kcount,1
numberNandB,1
brightnessNandB,1
carpet pos,0
pc,0
Time (ms),CH1 Auto-Correlation
1.0,0.03972311317920685
2.0,0.03928671404719353
3.0,0.038879282772541046
4.0,0.03847504034638405
5.0,0.038088757544755936
6.0,0.0377228669822216
7.0,0.03737371042370796
8.0,0.03701641783118248
9.0,0.03667135164141655
10.0,0.036335743963718414
11.0,0.035997867584228516
12.0,0.035676728934049606
13.0,0.03537595644593239
14.0,0.03507331758737564
15.0,0.034760624170303345
16.0,0.03445903956890106
18.0,0.03383864462375641
20.0,0.033238671720027924
22.0,0.03268010541796684
24.0,0.032138653099536896
26.0,0.0316278301179409
28.0,0.031142907217144966
30.0,0.03067505732178688
32.0,0.03021850995719433
36.0,0.0293005108833313
40.0,0.028453223407268524
44.0,0.0276259146630764
48.0,0.026830391958355904
52.0,0.026103710755705833
56.0,0.025412315502762794
60.0,0.024742024019360542
64.0,0.024109840393066406
72.0,0.022967390716075897
80.0,0.02197873778641224
88.0,0.021048564463853836
96.0,0.020194819197058678
104.0,0.019495073705911636
112.0,0.018856743350625038
120.0,0.0182033721357584
128.0,0.017465990036725998
144.0,0.016137415543198586
160.0,0.015389753505587578
176.0,0.015163857489824295
192.0,0.014999961480498314
208.0,0.014445125125348568
224.0,0.013830280862748623
240.0,0.013500743545591831
256.0,0.012891339138150215
288.0,0.011924623511731625
320.0,0.010682067833840847
352.0,0.009607832878828049
384.0,0.009183133020997047
416.0,0.008907420560717583
448.0,0.008457108400762081
480.0,0.008128219284117222
512.0,0.007551237475126982
576.0,0.0054361349903047085
640.0,0.004126876592636108
704.0,0.004021765664219856
768.0,0.0038929616566747427
832.0,0.003172264900058508
896.0,0.003000114345923066
960.0,0.0015095064882189035
1024.0,0.0012365044094622135
1152.0,-0.00029811568674631417
1280.0,-0.0020704823546111584
1408.0,-0.0017596008256077766
1536.0,-0.0030507524497807026
1664.0,-0.004174031782895327
1792.0,-0.005044164601713419
1920.0,-0.003698440035805106
2048.0,-0.0008076627273112535
2304.0,0.0018775677308440208
2560.0,0.005592153407633305
2816.0,0.0022999620996415615
3072.0,-0.000733938766643405
3328.0,8.434384653810412e-05
3584.0,-0.002564994851127267
3840.0,-0.00395058561116457
4096.0,-0.0039601693861186504
4608.0,-0.0020255569834262133
5120.0,0.000853709876537323
5632.0,-0.002819995628669858
6144.0,-0.0025160349905490875
6656.0,0.0005726076778955758
7168.0,0.004278421867638826
7680.0,0.003990214318037033
8192.0,-0.008313952945172787
end
