version,3.0
numOfCh,1
type,point
parent_name,fe81d_0dot1-1dot0
ch_type,1_1
kcount,1
numberNandB,1
brightnessNandB,1
carpet pos,0
pc,0
Time (ms),CH1 Auto-Correlation
1.0,0.03763287886977196
2.0,0.03715139254927635
3.0,0.036711785942316055
4.0,0.03632642328739166
5.0,0.03594956174492836
6.0,0.035570867359638214
7.0,0.03519820049405098
8.0,0.0348207950592041
9.0,0.034440793097019196
10.0,0.03407666087150574
11.0,0.033702246844768524
12.0,0.033341892063617706
13.0,0.03297892212867737
14.0,0.03261522576212883
15.0,0.03225488215684891
16.0,0.031924162060022354
18.0,0.03130675479769707
20.0,0.030687570571899414
22.0,0.030102945864200592
24.0,0.029565483331680298
26.0,0.02902757003903389
28.0,0.02853449247777462
30.0,0.028062639757990837
32.0,0.02762318216264248
36.0,0.02676253393292427
40.0,0.025996677577495575
44.0,0.025300612673163414
48.0,0.024645589292049408
52.0,0.024016674607992172
56.0,0.0234500914812088
60.0,0.022946162149310112
64.0,0.022382225841283798
72.0,0.02113623172044754
80.0,0.019960016012191772
88.0,0.018909495323896408
96.0,0.018187368288636208
104.0,0.017632411792874336
112.0,0.017089078202843666
120.0,0.01655302383005619
128.0,0.01596444845199585
144.0,0.014644807204604149
160.0,0.013334614224731922
176.0,0.012137928046286106
192.0,0.011167536489665508
208.0,0.010474001988768578
224.0,0.009684002958238125
240.0,0.008661382831633091
256.0,0.007951602339744568
288.0,0.006510204169899225
320.0,0.004737861920148134
352.0,0.0027971365489065647
384.0,0.001691869692876935
416.0,0.0012620652560144663
448.0,0.00128731329459697
480.0,0.0014593015657737851
512.0,0.0012492265086621046
576.0,2.9014812753302976e-05
640.0,-0.0007841639453545213
704.0,-0.002394919516518712
768.0,-0.004024455323815346
832.0,-0.0032668677158653736
896.0,-0.0031970583368092775
960.0,-0.0038344559725373983
1024.0,-0.004974395036697388
1152.0,-0.007927043363451958
1280.0,-0.00913933478295803
1408.0,-0.006347012706100941
1536.0,-0.0014017036883160472
1664.0,-0.0001317716232733801
1792.0,-0.0015053084352985024
1920.0,-0.0037801223807036877
2048.0,-0.0024958597496151924
2304.0,-0.0005879920208826661
2560.0,0.0010524680837988853
2816.0,-0.0012725882697850466
3072.0,9.111975668929517e-05
3328.0,0.0005001890822313726
3584.0,0.002625571796670556
3840.0,0.002230121986940503
4096.0,0.002821180270984769
4608.0,0.0008243937627412379
5120.0,-0.00358771625906229
5632.0,0.00019202401745133102
6144.0,0.007063225377351046
6656.0,-0.001939766458235681
7168.0,-0.00515337847173214
7680.0,-0.0010488653788343072
8192.0,-0.0010902064386755228
end
