version,3.0
numOfCh,1
type,point
parent_name,fe81d_0dot1-1dot0
ch_type,1_1
kcount,1
numberNandB,1
brightnessNandB,1
carpet pos,0
pc,0
Time (ms),CH1 Auto-Correlation
1.0,0.03850559890270233
2.0,0.03799542784690857
3.0,0.03753793239593506
4.0,0.037122104316949844
5.0,0.03673819452524185
6.0,0.036376163363456726
7.0,0.03601820766925812
8.0,0.03568467125296593
9.0,0.03535982966423035
10.0,0.03503427654504776
11.0,0.03471224382519722
12.0,0.03440823405981064
13.0,0.0341150127351284
14.0,0.033823590725660324
15.0,0.033544447273015976
16.0,0.03326374292373657
18.0,0.03270908445119858
20.0,0.03216313570737839
22.0,0.03167114034295082
24.0,0.031170636415481567
26.0,0.030669961124658585
28.0,0.030193964019417763
30.0,0.029710382223129272
32.0,0.02927132323384285
36.0,0.028450489044189453
40.0,0.027663808315992355
44.0,0.026882529258728027
48.0,0.026143772527575493
52.0,0.025501234456896782
56.0,0.024945223703980446
60.0,0.02442368119955063
64.0,0.023920809850096703
72.0,0.022808978334069252
80.0,0.02171843871474266
88.0,0.020685195922851562
96.0,0.020031362771987915
104.0,0.01965191215276718
112.0,0.019110489636659622
120.0,0.018561573699116707
128.0,0.01801263727247715
144.0,0.017255885526537895
160.0,0.016581743955612183
176.0,0.016198405995965004
192.0,0.015408957377076149
208.0,0.015027180314064026
224.0,0.014678752981126308
240.0,0.014042318798601627
256.0,0.01291796937584877
288.0,0.01145832147449255
320.0,0.010089049115777016
352.0,0.009057989344000816
384.0,0.008703833445906639
416.0,0.007806746754795313
448.0,0.006687861401587725
480.0,0.006007195450365543
512.0,0.006056609097868204
576.0,0.007707973476499319
640.0,0.00895298458635807
704.0,0.008685526438057423
768.0,0.008019596338272095
832.0,0.00838871393352747
896.0,0.006776443682610989
960.0,0.006138346623629332
1024.0,0.005242636892944574
1152.0,0.003937662113457918
1280.0,0.0016284730518236756
1408.0,0.0012547919759526849
1536.0,0.002113881753757596
1664.0,0.0032019135542213917
1792.0,0.0050088451243937016
1920.0,0.005648592486977577
2048.0,0.007715721148997545
2304.0,0.003249792382121086
2560.0,-0.0004185164871159941
2816.0,0.0011973814107477665
3072.0,-0.0056080929934978485
3328.0,-0.006458813324570656
3584.0,-0.0068866536021232605
3840.0,-0.007569362409412861
4096.0,-0.006714042276144028
4608.0,-0.008839649148285389
5120.0,-0.01196479145437479
5632.0,-0.009052528999745846
6144.0,-0.005527275148779154
6656.0,-0.0003018924326170236
7168.0,-0.0025634346529841423
7680.0,-0.005688156466931105
8192.0,0.0015257035847753286
end
