version,3.0
numOfCh,1
type,point
parent_name,fe81d_0dot1-1dot0
ch_type,1_1
kcount,1
numberNandB,1
brightnessNandB,1
carpet pos,0
pc,0
Time (ms),CH1 Auto-Correlation
1.0,0.04257464036345482
2.0,0.04211768880486488
3.0,0.04168582335114479
4.0,0.0412738099694252
5.0,0.040891095995903015
6.0,0.04050827398896217
7.0,0.040154583752155304
8.0,0.039820596575737
9.0,0.039509400725364685
10.0,0.03920907899737358
11.0,0.03892115131020546
12.0,0.03863363713026047
13.0,0.03833387792110443
14.0,0.03803923726081848
15.0,0.03775431960821152
16.0,0.0374663770198822
18.0,0.03688419237732887
20.0,0.036328308284282684
22.0,0.03579062223434448
24.0,0.03529169410467148
26.0,0.03482220694422722
28.0,0.034379176795482635
30.0,0.03395083546638489
32.0,0.03351684659719467
36.0,0.03263191506266594
40.0,0.03170764446258545
44.0,0.03085271082818508
48.0,0.030009176582098007
52.0,0.02919383905827999
56.0,0.02842489443719387
60.0,0.027670681476593018
64.0,0.0269504152238369
72.0,0.025808585807681084
80.0,0.024823708459734917
88.0,0.023724503815174103
96.0,0.02265782654285431
104.0,0.021695328876376152
112.0,0.020745689049363136
120.0,0.01973866857588291
128.0,0.018687408417463303
144.0,0.017354721203446388
160.0,0.016054579988121986
176.0,0.014268212020397186
192.0,0.012511062435805798
208.0,0.0110903549939394
224.0,0.009909183718264103
240.0,0.008779837749898434
256.0,0.00810085516422987
288.0,0.0075133382342755795
320.0,0.007016896270215511
352.0,0.006278014276176691
384.0,0.006551019847393036
416.0,0.007071731146425009
448.0,0.007574339397251606
480.0,0.0075203850865364075
512.0,0.0075192321091890335
576.0,0.006410043220967054
640.0,0.005737510044127703
704.0,0.00396827282384038
768.0,0.0032342467457056046
832.0,0.0053305597975850105
896.0,0.004889037925750017
960.0,0.002203364158049226
1024.0,-0.0009169842815026641
1152.0,-0.0045924982987344265
1280.0,-0.0023552197962999344
1408.0,-0.0011953054927289486
1536.0,-0.001000166404992342
1664.0,-0.002889478811994195
1792.0,-0.004178514238446951
1920.0,-0.007414032239466906
2048.0,-0.0073026204481720924
2304.0,-0.004257913213223219
2560.0,-0.00756349740549922
2816.0,-0.011554826982319355
3072.0,-0.005795095581561327
3328.0,-0.0051527442410588264
3584.0,-0.0001280924043385312
3840.0,0.0006551643600687385
4096.0,0.0014437028439715505
4608.0,0.002096873242408037
5120.0,0.003458223771303892
5632.0,-0.0011255620047450066
6144.0,-0.004595400299876928
6656.0,-0.0002863873669411987
7168.0,-0.002588181523606181
7680.0,0.005500965751707554
8192.0,0.002388282446190715
end
