version,3.0
numOfCh,1
type,point
parent_name,fe81d_0dot1-1dot0
ch_type,1_1
kcount,1
numberNandB,1
brightnessNandB,1
carpet pos,0
pc,0
Time (ms),CH1 Auto-Correlation
1.0,0.042861223220825195
2.0,0.0424208864569664
3.0,0.0420142263174057
4.0,0.04161940515041351
5.0,0.04125704988837242
6.0,0.040897052735090256
7.0,0.04055093973875046
8.0,0.040210772305727005
9.0,0.03988668695092201
10.0,0.03955669328570366
11.0,0.039247866719961166
12.0,0.03893893584609032
13.0,0.03862689808011055
14.0,0.03831775113940239
15.0,0.03802396357059479
16.0,0.0377347506582737
18.0,0.037168800830841064
20.0,0.03662256896495819
22.0,0.03611817583441734
24.0,0.03562638536095619
26.0,0.035160280764102936
28.0,0.03470567613840103
30.0,0.03425999730825424
32.0,0.03379196673631668
36.0,0.03289278224110603
40.0,0.03202700614929199
44.0,0.031189583241939545
48.0,0.03042447566986084
52.0,0.029739240184426308
56.0,0.029084278270602226
60.0,0.028469117358326912
64.0,0.02793586440384388
72.0,0.026994429528713226
80.0,0.026281870901584625
88.0,0.025548895820975304
96.0,0.0248272567987442
104.0,0.024000197649002075
112.0,0.023075802251696587
120.0,0.022215288132429123
128.0,0.02137325331568718
144.0,0.020139046013355255
160.0,0.018832560628652573
176.0,0.017636995762586594
192.0,0.016610577702522278
208.0,0.015380690805613995
224.0,0.014385070651769638
240.0,0.013533694669604301
256.0,0.012669024057686329
288.0,0.011488374322652817
320.0,0.010081559419631958
352.0,0.007956464774906635
384.0,0.005900398828089237
416.0,0.005042005330324173
448.0,0.0050228252075612545
480.0,0.004476084839552641
512.0,0.003172368509694934
576.0,0.002306379145011306
640.0,0.0018253776943311095
704.0,0.0012833166401833296
768.0,0.0012237780028954148
832.0,9.4249626272358e-05
896.0,0.00016510077693965286
960.0,0.0011374191381037235
1024.0,0.00186280463822186
1152.0,0.00023302133195102215
1280.0,0.0003398334083613008
1408.0,0.0006819556001573801
1536.0,-0.0004377866571303457
1664.0,0.0006064868648536503
1792.0,0.003703142749145627
1920.0,0.00472690723836422
2048.0,0.005873718298971653
2304.0,0.003810636466369033
2560.0,0.003984371665865183
2816.0,0.003053176449611783
3072.0,0.0026653120294213295
3328.0,0.002544904127717018
3584.0,-0.0003325135912746191
3840.0,-0.0045069861225783825
4096.0,-0.006092626601457596
4608.0,-0.0004954141331836581
5120.0,0.005482196807861328
5632.0,-0.0031604354735463858
6144.0,-0.006716626696288586
6656.0,-0.006909246556460857
7168.0,-0.004962889943271875
7680.0,-0.007623280398547649
8192.0,0.0006230906583368778
end
