version,3.0
numOfCh,1
type,point
parent_name,fe81d_0dot1-1dot0
ch_type,1_1
kcount,1
numberNandB,1
brightnessNandB,1
carpet pos,0
pc,0
Time (ms),CH1 Auto-Correlation
1.0,0.03531475365161896
2.0,0.034919314086437225
3.0,0.034540146589279175
4.0,0.034169092774391174
5.0,0.03381585329771042
6.0,0.033472899347543716
7.0,0.03314608335494995
8.0,0.03283189982175827
9.0,0.032529961317777634
10.0,0.03221800923347473
11.0,0.03192497044801712
12.0,0.03163698688149452
13.0,0.031350500881671906
14.0,0.03106572851538658
15.0,0.030783655121922493
16.0,0.03050512634217739
18.0,0.02994913049042225
20.0,0.02940189838409424
22.0,0.02889086678624153
24.0,0.02838909439742565
26.0,0.0279051773250103
28.0,0.027415156364440918
30.0,0.026939721778035164
32.0,0.026461798697710037
36.0,0.02559923380613327
40.0,0.024800118058919907
44.0,0.02399897389113903
48.0,0.02319781482219696
52.0,0.022466443479061127
56.0,0.02178206481039524
60.0,0.02115688845515251
64.0,0.020544104278087616
72.0,0.01938561536371708
80.0,0.01842425763607025
88.0,0.017740905284881592
96.0,0.017210550606250763
104.0,0.016836486756801605
112.0,0.016553211957216263
120.0,0.016266152262687683
128.0,0.016036348417401314
144.0,0.015467607416212559
160.0,0.014988319016993046
176.0,0.014773215167224407
192.0,0.014333383180201054
208.0,0.013989697210490704
224.0,0.01388369221240282
240.0,0.013858701102435589
256.0,0.013751578517258167
288.0,0.012477927841246128
320.0,0.010603570379316807
352.0,0.009413467720150948
384.0,0.009193135425448418
416.0,0.008917659521102905
448.0,0.008287880569696426
480.0,0.007188689429312944
512.0,0.006648745387792587
576.0,0.005475906655192375
640.0,0.004597685299813747
704.0,0.0038663793820887804
768.0,0.002762150252237916
832.0,0.0026661681476980448
896.0,0.001333902357146144
960.0,0.0008824333781376481
1024.0,0.0012678706552833319
1152.0,0.0019274255027994514
1280.0,0.0006113689742051065
1408.0,0.0018586891237646341
1536.0,0.003013113047927618
1664.0,0.004004393704235554
1792.0,0.00385643751360476
1920.0,0.003714549820870161
2048.0,0.002030739327892661
2304.0,-0.0012098470469936728
2560.0,-0.0033690715208649635
2816.0,-0.004259401001036167
3072.0,-0.004592164419591427
3328.0,-0.0011833470780402422
3584.0,6.1008930060779676e-05
3840.0,0.0004337080754339695
4096.0,0.00014724461652804166
4608.0,-0.0050003123469650745
5120.0,-0.0026366556994616985
5632.0,-0.0014672416727989912
6144.0,-0.002829221310093999
6656.0,-0.002361717401072383
7168.0,-0.00019963410159107298
7680.0,0.0016840583411976695
8192.0,-0.0019584179390221834
end
