version,3.0
numOfCh,1
type,point
parent_name,fe81d_0dot1-1dot0
ch_type,1_1
kcount,1
numberNandB,1
brightnessNandB,1
carpet pos,0
pc,0
Time (ms),CH1 Auto-Correlation
1.0,0.03796377778053284
2.0,0.03753567487001419
3.0,0.03711269795894623
4.0,0.03670229762792587
5.0,0.0363166444003582
6.0,0.03593442589044571
7.0,0.03556283935904503
8.0,0.03520599380135536
9.0,0.03484693914651871
10.0,0.034483034163713455
11.0,0.03412561118602753
12.0,0.03378951922059059
13.0,0.033438827842473984
14.0,0.03310209512710571
15.0,0.03275838866829872
16.0,0.03242859989404678
18.0,0.031797319650650024
20.0,0.03120259940624237
22.0,0.030645227059721947
24.0,0.030103415250778198
26.0,0.029609616845846176
28.0,0.02914683148264885
30.0,0.028714578598737717
32.0,0.028277993202209473
36.0,0.02739657275378704
40.0,0.026594245806336403
44.0,0.025892579928040504
48.0,0.02523920126259327
52.0,0.024597017094492912
56.0,0.023920152336359024
60.0,0.023272156715393066
64.0,0.022693023085594177
72.0,0.021679049357771873
80.0,0.020663050934672356
88.0,0.019796594977378845
96.0,0.019085563719272614
104.0,0.018475119024515152
112.0,0.017922304570674896
120.0,0.017506061121821404
128.0,0.017256900668144226
144.0,0.016377197578549385
160.0,0.015312150120735168
176.0,0.014398738741874695
192.0,0.013653077185153961
208.0,0.012486781924962997
224.0,0.011309703812003136
240.0,0.010546919889748096
256.0,0.009803286753594875
288.0,0.008552184328436852
320.0,0.008083226159214973
352.0,0.007347400765866041
384.0,0.005883091129362583
416.0,0.004672896582633257
448.0,0.0038477329071611166
480.0,0.0034601103980094194
512.0,0.003446330316364765
576.0,0.00332574057392776
640.0,0.002292580669745803
704.0,0.0024598115123808384
768.0,0.00329471449367702
832.0,0.0035491224844008684
896.0,0.0032426922116428614
960.0,0.0020199730060994625
1024.0,0.001645989017561078
1152.0,-0.0017155042150989175
1280.0,-0.001986655406653881
1408.0,-0.0008263435447588563
1536.0,-0.00024286530970130116
1664.0,-0.0023166572209447622
1792.0,-0.003807339584454894
1920.0,-0.00390512403100729
2048.0,-0.004350652452558279
2304.0,-0.0017315493896603584
2560.0,-0.003663310781121254
2816.0,-0.0030111009255051613
3072.0,-0.0015516923740506172
3328.0,-0.004813171457499266
3584.0,-0.005796893034130335
3840.0,-0.006185018923133612
4096.0,-0.008552256971597672
4608.0,0.0031353808008134365
5120.0,0.0053664445877075195
5632.0,0.006546193268150091
6144.0,-0.0009922739118337631
6656.0,0.0016483287326991558
7168.0,-0.002938703401014209
7680.0,-0.0033463153522461653
8192.0,-0.00237756478600204
end
