version,3.0
numOfCh,1
type,point
parent_name,fe81d_0dot1-1dot0
ch_type,1_1
kcount,1
numberNandB,1
brightnessNandB,1
carpet pos,0
pc,0
Time (ms),CH1 Auto-Correlation
1.0,0.040649332106113434
2.0,0.040187519043684006
3.0,0.03976129740476608
4.0,0.03937096148729324
5.0,0.038997750729322433
6.0,0.03860457241535187
7.0,0.03822282701730728
8.0,0.0378350093960762
9.0,0.037461087107658386
10.0,0.03708496689796448
11.0,0.036733996123075485
12.0,0.03639240562915802
13.0,0.036063313484191895
14.0,0.035743750631809235
15.0,0.03542923182249069
16.0,0.03513653203845024
18.0,0.03452889993786812
20.0,0.03394530713558197
22.0,0.033372651785612106
24.0,0.03279184177517891
26.0,0.03220820054411888
28.0,0.031679172068834305
30.0,0.031184187158942223
32.0,0.03070240467786789
36.0,0.029761631041765213
40.0,0.028867509216070175
44.0,0.02802334353327751
48.0,0.027219140902161598
52.0,0.026411686092615128
56.0,0.025652825832366943
60.0,0.024976706132292747
64.0,0.02436133660376072
72.0,0.02325335703790188
80.0,0.022132720798254013
88.0,0.02102227881550789
96.0,0.019910244271159172
104.0,0.018875248730182648
112.0,0.017820244655013084
120.0,0.016747040674090385
128.0,0.01575447991490364
144.0,0.014177486300468445
160.0,0.013094881549477577
176.0,0.012287776917219162
192.0,0.011326558887958527
208.0,0.010542400181293488
224.0,0.009691072627902031
240.0,0.009286758489906788
256.0,0.008770751766860485
288.0,0.008333747275173664
320.0,0.00819315668195486
352.0,0.008351998403668404
384.0,0.007974649779498577
416.0,0.006957345176488161
448.0,0.006222222466021776
480.0,0.005248212721198797
512.0,0.005338056478649378
576.0,0.0057341717183589935
640.0,0.004397347569465637
704.0,0.0022440683096647263
768.0,0.0024126407224684954
832.0,0.003901276271790266
896.0,0.005220461171120405
960.0,0.005432525649666786
1024.0,0.003263966180384159
1152.0,-0.0021483274176716805
1280.0,-0.00399215379729867
1408.0,-0.002186594996601343
1536.0,-0.002046571345999837
1664.0,-0.003797242185100913
1792.0,-0.0015574812423437834
1920.0,0.002587605034932494
2048.0,0.0015788705786690116
2304.0,0.0018258295021951199
2560.0,0.0019083399092778563
2816.0,-0.0015302670653909445
3072.0,-0.0006698891520500183
3328.0,-0.0028383310418576
3584.0,-0.0031998567283153534
3840.0,-0.0009996405569836497
4096.0,0.0026464529801160097
4608.0,0.002177395159378648
5120.0,-0.0070950002409517765
5632.0,-0.0072318813763558865
6144.0,-0.008136930875480175
6656.0,0.0019924871157854795
7168.0,0.0004305741749703884
7680.0,-0.0046987649984657764
8192.0,-0.005136416293680668
end
