version,3.0
numOfCh,1
type,point
parent_name,fe81d_0dot1-1dot0
ch_type,1_1
kcount,1
numberNandB,1
brightnessNandB,1
carpet pos,0
pc,0
Time (ms),CH1 Auto-Correlation
1.0,0.041433971375226974
2.0,0.040992919355630875
3.0,0.040573906153440475
4.0,0.04018042981624603
5.0,0.03979109227657318
6.0,0.03940879926085472
7.0,0.03904534876346588
8.0,0.038703639060258865
9.0,0.03836073726415634
10.0,0.03803602606058121
11.0,0.03769640251994133
12.0,0.037360597401857376
13.0,0.037028055638074875
14.0,0.0367102213203907
15.0,0.03638925775885582
16.0,0.03606695309281349
18.0,0.035456497222185135
20.0,0.03485000506043434
22.0,0.03427308425307274
24.0,0.033720649778842926
26.0,0.03320905938744545
28.0,0.0326845645904541
30.0,0.03219641372561455
32.0,0.03175533190369606
36.0,0.031008180230855942
40.0,0.0302451029419899
44.0,0.029431460425257683
48.0,0.0286033283919096
52.0,0.027822308242321014
56.0,0.027083104476332664
60.0,0.026381729170680046
64.0,0.02572460286319256
72.0,0.024474499747157097
80.0,0.02301030419766903
88.0,0.021698525175452232
96.0,0.020477255806326866
104.0,0.01935151219367981
112.0,0.018372241407632828
120.0,0.01746288128197193
128.0,0.016741735860705376
144.0,0.01548934355378151
160.0,0.014642716385424137
176.0,0.013814560137689114
192.0,0.013019748032093048
208.0,0.012292861938476562
224.0,0.011600411497056484
240.0,0.011121629737317562
256.0,0.010833182372152805
288.0,0.01000924687832594
320.0,0.009057948365807533
352.0,0.008304855786263943
384.0,0.008049781434237957
416.0,0.0077155171893537045
448.0,0.007977884262800217
480.0,0.007254821714013815
512.0,0.006279519759118557
576.0,0.003915949258953333
640.0,0.0042340317741036415
704.0,0.004088487476110458
768.0,0.00375606887973845
832.0,0.0030591695103794336
896.0,0.0031568219419568777
960.0,0.003370970254763961
1024.0,0.0021519188303500414
1152.0,0.0017619378631934524
1280.0,0.0002124953462043777
1408.0,-0.004365542437881231
1536.0,-0.003641574177891016
1664.0,-0.0028238906525075436
1792.0,-0.0027582866605371237
1920.0,-0.002089759102091193
2048.0,-0.0017263437621295452
2304.0,-0.0018498642602935433
2560.0,0.0006079411832615733
2816.0,-0.0010982966050505638
3072.0,-0.0003042910830117762
3328.0,-0.0007920823991298676
3584.0,-0.0038154814392328262
3840.0,-0.0065524885430932045
4096.0,-0.0049669016152620316
4608.0,-0.006659485399723053
5120.0,-0.003586052916944027
5632.0,0.006857334636151791
6144.0,0.009690835140645504
6656.0,0.004795046988874674
7168.0,0.0016166996210813522
7680.0,-0.0023594931699335575
8192.0,0.00011073050700360909
end
