version,3.0
numOfCh,1
type,point
parent_name,fe81d_0dot1-1dot0
ch_type,1_1
kcount,1
numberNandB,1
brightnessNandB,1
carpet pos,0
pc,0
Time (ms),CH1 Auto-Correlation
1.0,0.04396543651819229
2.0,0.04343147575855255
3.0,0.04291500896215439
4.0,0.04238937050104141
5.0,0.041917964816093445
6.0,0.04149376600980759
7.0,0.04108009487390518
8.0,0.040658652782440186
9.0,0.040222231298685074
10.0,0.039797138422727585
11.0,0.03938159719109535
12.0,0.03897322714328766
13.0,0.0385887436568737
14.0,0.03821571171283722
15.0,0.037849441170692444
16.0,0.037502359598875046
18.0,0.03681017458438873
20.0,0.03614537790417671
22.0,0.035522233694791794
24.0,0.03495205193758011
26.0,0.03437305614352226
28.0,0.03380865603685379
30.0,0.03330463171005249
32.0,0.03281368315219879
36.0,0.031838107854127884
40.0,0.030924353748559952
44.0,0.03005409799516201
48.0,0.029300516471266747
52.0,0.02861301228404045
56.0,0.027941040694713593
60.0,0.0272345170378685
64.0,0.02652549184858799
72.0,0.02511453442275524
80.0,0.023855121806263924
88.0,0.02262980490922928
96.0,0.02147234044969082
104.0,0.020498698577284813
112.0,0.01951918564736843
120.0,0.018780071288347244
128.0,0.018261950463056564
144.0,0.01746385172009468
160.0,0.016502264887094498
176.0,0.015735546126961708
192.0,0.015371820889413357
208.0,0.014996047131717205
224.0,0.014417384751141071
240.0,0.014182992279529572
256.0,0.01375785656273365
288.0,0.012784846127033234
320.0,0.01127957459539175
352.0,0.008940127678215504
384.0,0.006578818429261446
416.0,0.004948194604367018
448.0,0.005018488969653845
480.0,0.005133818835020065
512.0,0.004635946359485388
576.0,0.0027639304753392935
640.0,0.00046226682025007904
704.0,0.0003947977675125003
768.0,0.002796790562570095
832.0,0.0020405033137649298
896.0,0.0015234487364068627
960.0,0.002047968562692404
1024.0,0.0038786763325333595
1152.0,0.002474917098879814
1280.0,0.0009676159243099391
1408.0,-0.00023959488316904753
1536.0,-0.0023591623175889254
1664.0,-0.0015996199799701571
1792.0,-0.002806892618536949
1920.0,-0.002942420542240143
2048.0,-0.0021202999632805586
2304.0,0.0023103291168808937
2560.0,-0.0022945713717490435
2816.0,-0.004125967156141996
3072.0,-0.000444047647761181
3328.0,0.003273983485996723
3584.0,0.0038148220628499985
3840.0,0.0024986048229038715
4096.0,0.002194493543356657
4608.0,-0.00016327766934409738
5120.0,-0.0005495102377608418
5632.0,-0.003414530772715807
6144.0,0.003573313355445862
6656.0,-0.0019552044104784727
7168.0,7.068922423059121e-05
7680.0,0.0002213483239756897
8192.0,0.008871269412338734
end
