version,3.0
numOfCh,1
type,point
parent_name,fe81d_0dot1-1dot0
ch_type,1_1
kcount,1
numberNandB,1
brightnessNandB,1
carpet pos,0
pc,0
Time (ms),CH1 Auto-Correlation
1.0,0.03798913210630417
2.0,0.03758746013045311
3.0,0.03720531612634659
4.0,0.0368170402944088
5.0,0.03645548224449158
6.0,0.03610493987798691
7.0,0.035768210887908936
8.0,0.03542892262339592
9.0,0.03509567305445671
10.0,0.03476797416806221
11.0,0.0344473272562027
12.0,0.03412940353155136
13.0,0.03381060063838959
14.0,0.033499788492918015
15.0,0.03319636359810829
16.0,0.032898128032684326
18.0,0.03234470263123512
20.0,0.031807683408260345
22.0,0.03127637505531311
24.0,0.030749887228012085
26.0,0.03026384487748146
28.0,0.029795436188578606
30.0,0.02934415079653263
32.0,0.028924545273184776
36.0,0.028098374605178833
40.0,0.02726416289806366
44.0,0.02646457776427269
48.0,0.025710418820381165
52.0,0.024990364909172058
56.0,0.024355977773666382
60.0,0.023807698860764503
64.0,0.023322949185967445
72.0,0.02235344611108303
80.0,0.021259315311908722
88.0,0.02028118632733822
96.0,0.019430620595812798
104.0,0.018800964578986168
112.0,0.018315907567739487
120.0,0.017806222662329674
128.0,0.01721133105456829
144.0,0.015997445210814476
160.0,0.01464998722076416
176.0,0.013842548243701458
192.0,0.013102930970489979
208.0,0.01210169680416584
224.0,0.01095937192440033
240.0,0.00973706878721714
256.0,0.008917094208300114
288.0,0.008321210741996765
320.0,0.008273241110146046
352.0,0.00812166091054678
384.0,0.007942676544189453
416.0,0.008226891979575157
448.0,0.007689562626183033
480.0,0.006647053640335798
512.0,0.005939902737736702
576.0,0.0058348216116428375
640.0,0.005345236975699663
704.0,0.00429896917194128
768.0,0.0026269862428307533
832.0,0.0012571823317557573
896.0,-0.00022537336917594075
960.0,-0.0021912381052970886
1024.0,-0.0005168931093066931
1152.0,-0.0008806330151855946
1280.0,-0.0018836819799616933
1408.0,-0.0036792089231312275
1536.0,-0.004890862386673689
1664.0,-0.004713541828095913
1792.0,-0.003547776024788618
1920.0,-0.0022896789014339447
2048.0,-0.004727569874376059
2304.0,-0.0020962096750736237
2560.0,-0.003200334729626775
2816.0,-0.005139428656548262
3072.0,-0.0028541486244648695
3328.0,-0.004194481763988733
3584.0,-0.003413441590964794
3840.0,0.001559206168167293
4096.0,-0.0022912248969078064
4608.0,-0.0010026219533756375
5120.0,-0.00578369339928031
5632.0,-0.0025935256853699684
6144.0,0.0030440122354775667
6656.0,0.006367573048919439
7168.0,0.008766167797148228
7680.0,0.003055826062336564
8192.0,-0.004199098329991102
end
