version,3.0
numOfCh,1
type,point
parent_name,fe81d_0dot1-1dot0
ch_type,1_1
kcount,1
numberNandB,1
brightnessNandB,1
carpet pos,0
pc,0
Time (ms),CH1 Auto-Correlation
1.0,0.04034041240811348
2.0,0.039783842861652374
3.0,0.03930848836898804
4.0,0.03886783868074417
5.0,0.038419414311647415
6.0,0.03802761062979698
7.0,0.03763329237699509
8.0,0.037243813276290894
9.0,0.03687996417284012
10.0,0.03649748116731644
11.0,0.036141782999038696
12.0,0.03581099957227707
13.0,0.035484183579683304
14.0,0.03514358773827553
15.0,0.03481369465589523
16.0,0.034479741007089615
18.0,0.03386487811803818
20.0,0.033258579671382904
22.0,0.03268470987677574
24.0,0.03209848329424858
26.0,0.03149791806936264
28.0,0.030922366306185722
30.0,0.030383814126253128
32.0,0.02984711341559887
36.0,0.028759798035025597
40.0,0.02766525372862816
44.0,0.026693150401115417
48.0,0.025898359715938568
52.0,0.025170475244522095
56.0,0.02452234923839569
60.0,0.02387162297964096
64.0,0.0232427679002285
72.0,0.02208890952169895
80.0,0.02100665494799614
88.0,0.0198352113366127
96.0,0.018774842843413353
104.0,0.01786632277071476
112.0,0.017180683091282845
120.0,0.01655946671962738
128.0,0.015993187204003334
144.0,0.01509942952543497
160.0,0.014406315982341766
176.0,0.013569025322794914
192.0,0.012565232813358307
208.0,0.011335466988384724
224.0,0.010334105230867863
240.0,0.009777997620403767
256.0,0.009263911284506321
288.0,0.008091307245194912
320.0,0.006947983521968126
352.0,0.00667139096185565
384.0,0.006463027559220791
416.0,0.006322962697595358
448.0,0.006908290088176727
480.0,0.00724902655929327
512.0,0.006991204340010881
576.0,0.005993367172777653
640.0,0.005334402900189161
704.0,0.005751344375312328
768.0,0.0037446110509335995
832.0,0.002645280910655856
896.0,0.0043656774796545506
960.0,0.002887482289224863
1024.0,0.0017727058148011565
1152.0,0.004508604761213064
1280.0,0.006917885970324278
1408.0,0.0036994183901697397
1536.0,0.004230579361319542
1664.0,0.005373023450374603
1792.0,0.0061761303804814816
1920.0,0.0034762544091790915
2048.0,0.004417741671204567
2304.0,0.001184929977171123
2560.0,-0.0023817606270313263
2816.0,-0.002789867576211691
3072.0,-0.001482880674302578
3328.0,0.0013028469402343035
3584.0,0.0030276060570031404
3840.0,0.00016754305397626013
4096.0,0.001021673553623259
4608.0,-0.002158709801733494
5120.0,-0.0027894366066902876
5632.0,-0.007486984599381685
6144.0,-0.008984039537608624
6656.0,-0.013926475308835506
7168.0,-0.006827179808169603
7680.0,-0.004970566835254431
8192.0,-0.008706002496182919
end
