version,3.0
numOfCh,1
type,point
parent_name,fe81d_0dot1-1dot0
ch_type,1_1
kcount,1
numberNandB,1
brightnessNandB,1
carpet pos,0
pc,0
Time (ms),CH1 Auto-Correlation
1.0,0.03386726230382919
2.0,0.03342190012335777
3.0,0.033011771738529205
4.0,0.032631270587444305
5.0,0.03225000947713852
6.0,0.031873349100351334
7.0,0.03150467202067375
8.0,0.03114953078329563
9.0,0.030800169333815575
10.0,0.030461376532912254
11.0,0.03012765385210514
12.0,0.02979903295636177
13.0,0.029463980346918106
14.0,0.02915765903890133
15.0,0.028849255293607712
16.0,0.028536658734083176
18.0,0.02794536016881466
20.0,0.027394860982894897
22.0,0.026867900043725967
24.0,0.026344528421759605
26.0,0.025865133851766586
28.0,0.02539416402578354
30.0,0.024894816800951958
32.0,0.024425888434052467
36.0,0.023604892194271088
40.0,0.022858673706650734
44.0,0.0221903957426548
48.0,0.021524805575609207
52.0,0.020866800099611282
56.0,0.02021528221666813
60.0,0.01958584599196911
64.0,0.019031431525945663
72.0,0.017941854894161224
80.0,0.016917385160923004
88.0,0.015894092619419098
96.0,0.014762401580810547
104.0,0.013594811782240868
112.0,0.012471245601773262
120.0,0.011459555476903915
128.0,0.010774120688438416
144.0,0.009993503801524639
160.0,0.009283573366701603
176.0,0.00819843728095293
192.0,0.006773731671273708
208.0,0.005290281027555466
224.0,0.004518625792115927
240.0,0.00416486756876111
256.0,0.003529213136062026
288.0,0.002320472151041031
320.0,0.0016569559229537845
352.0,0.0016376099083572626
384.0,0.0014738076133653522
416.0,0.0011852647876366973
448.0,0.0007881743367761374
480.0,0.0006274509360082448
512.0,0.0010520631913095713
576.0,0.0015296185156330466
640.0,0.0012250493746250868
704.0,-0.0012824413133785129
768.0,-0.004158513620495796
832.0,-0.0039999037981033325
896.0,-0.002964471001178026
960.0,-0.001993597485125065
1024.0,-0.001384591218084097
1152.0,-0.0033977986313402653
1280.0,-0.0026341991033405066
1408.0,-0.003147230949252844
1536.0,-0.0016339309513568878
1664.0,0.0004999211523681879
1792.0,-0.0006990977562963963
1920.0,-0.000887917703948915
2048.0,-0.0005025678547099233
2304.0,0.0011476079234853387
2560.0,-0.0010838985908776522
2816.0,0.0028012439142912626
3072.0,0.0010323371971026063
3328.0,0.00047616768279112875
3584.0,0.001918851281516254
3840.0,-0.0037251145113259554
4096.0,-0.0032403527293354273
4608.0,0.0015850139316171408
5120.0,0.003370218211784959
5632.0,-0.0007047882536426187
6144.0,-0.0032842347864061594
6656.0,0.00279534631408751
7168.0,0.00230031949467957
7680.0,-0.0005151358200237155
8192.0,-0.00506100757047534
end
