version,3.0
numOfCh,1
type,point
parent_name,fe81d_0dot1-1dot0
ch_type,1_1
kcount,1
numberNandB,1
brightnessNandB,1
carpet pos,0
pc,0
Time (ms),CH1 Auto-Correlation
1.0,0.028624102473258972
2.0,0.028225073590874672
3.0,0.027851831167936325
4.0,0.027486907318234444
5.0,0.027129873633384705
6.0,0.026776336133480072
7.0,0.02643221989274025
8.0,0.02609151415526867
9.0,0.025746595114469528
10.0,0.02540046162903309
11.0,0.025072909891605377
12.0,0.02475818432867527
13.0,0.024448104202747345
14.0,0.02413935586810112
15.0,0.023835329338908195
16.0,0.02353709749877453
18.0,0.022957082837820053
20.0,0.022384846583008766
22.0,0.02184920199215412
24.0,0.021316856145858765
26.0,0.020794371142983437
28.0,0.020296432077884674
30.0,0.01981646753847599
32.0,0.019382411614060402
36.0,0.018541373312473297
40.0,0.017720215022563934
44.0,0.01692487858235836
48.0,0.0161823108792305
52.0,0.01547759585082531
56.0,0.014858866110444069
60.0,0.014305834658443928
64.0,0.013807812705636024
72.0,0.01291230134665966
80.0,0.012139338068664074
88.0,0.011472326703369617
96.0,0.010945186018943787
104.0,0.010437661781907082
112.0,0.009873987175524235
120.0,0.009361198171973228
128.0,0.008853781037032604
144.0,0.007659340742975473
160.0,0.006503270007669926
176.0,0.005424903705716133
192.0,0.004397898446768522
208.0,0.0036583731416612864
224.0,0.003179344115778804
240.0,0.0026553496718406677
256.0,0.0019180914387106895
288.0,0.0001411867415299639
320.0,-0.0006816043751314282
352.0,-0.00044220511335879564
384.0,-2.9295253625605255e-05
416.0,0.0002793101011775434
448.0,0.0005671214312314987
480.0,0.0007205745787359774
512.0,0.0007463280344381928
576.0,0.0019538344349712133
640.0,0.0033806758001446724
704.0,0.004871118348091841
768.0,0.005135920364409685
832.0,0.003227519802749157
896.0,0.0015969343949109316
960.0,0.0010709048947319388
1024.0,0.0003302701807115227
1152.0,0.0005718450993299484
1280.0,0.0026985693257302046
1408.0,0.0027614268474280834
1536.0,-0.0010388572700321674
1664.0,-0.0036480389535427094
1792.0,-0.00339815323241055
1920.0,-0.003324073040857911
2048.0,-0.0017094291979447007
2304.0,-0.0028780533466488123
2560.0,-0.00235791620798409
2816.0,-0.0019804039038717747
3072.0,-0.003448495641350746
3328.0,-0.0038369838148355484
3584.0,-0.00259784865193069
3840.0,-0.004477905575186014
4096.0,0.000784439907874912
4608.0,-0.00023969767789822072
5120.0,0.0029778731986880302
5632.0,0.0021453825756907463
6144.0,0.002229392761364579
6656.0,0.0005214210832491517
7168.0,-0.0008109895279631019
7680.0,-0.0011633342364802957
8192.0,-0.002201167168095708
end
