version,3.0
numOfCh,1
type,point
parent_name,fe81d_0dot1-1dot0
ch_type,1_1
kcount,1
numberNandB,1
brightnessNandB,1
carpet pos,0
pc,0
Time (ms),CH1 Auto-Correlation
1.0,0.03938170149922371
2.0,0.0388675294816494
3.0,0.038394637405872345
4.0,0.03794772922992706
5.0,0.037507180124521255
6.0,0.037070367485284805
7.0,0.03667622432112694
8.0,0.036279670894145966
9.0,0.03587651252746582
10.0,0.03549845889210701
11.0,0.035114653408527374
12.0,0.0347154475748539
13.0,0.034328658133745193
14.0,0.033938296139240265
15.0,0.03354271873831749
16.0,0.033151883631944656
18.0,0.03243931010365486
20.0,0.03177110478281975
22.0,0.031164031475782394
24.0,0.030614299699664116
26.0,0.03014356829226017
28.0,0.02971009910106659
30.0,0.029293635860085487
32.0,0.028912339359521866
36.0,0.02819332294166088
40.0,0.02752365544438362
44.0,0.026881037279963493
48.0,0.02624891884624958
52.0,0.02569662779569626
56.0,0.025146685540676117
60.0,0.024591656401753426
64.0,0.023980317637324333
72.0,0.022817008197307587
80.0,0.02187413163483143
88.0,0.020919814705848694
96.0,0.020013123750686646
104.0,0.019100455567240715
112.0,0.018352029845118523
120.0,0.017876099795103073
128.0,0.01739843562245369
144.0,0.016746627166867256
160.0,0.015799405053257942
176.0,0.014913813211023808
192.0,0.01436686422675848
208.0,0.013877395540475845
224.0,0.013591119088232517
240.0,0.013070996850728989
256.0,0.012086277827620506
288.0,0.011221996508538723
320.0,0.009652940556406975
352.0,0.0078041888773441315
384.0,0.005854735616594553
416.0,0.005322737619280815
448.0,0.004963692277669907
480.0,0.004371295683085918
512.0,0.00403725728392601
576.0,0.003276784671470523
640.0,0.003891359781846404
704.0,0.004542093724012375
768.0,0.004847985226660967
832.0,0.0037962966598570347
896.0,0.0034742732532322407
960.0,0.00224409531801939
1024.0,0.002979842945933342
1152.0,0.005718864034861326
1280.0,0.006879754830151796
1408.0,0.00923612155020237
1536.0,0.009350912645459175
1664.0,0.00957738608121872
1792.0,0.009884531609714031
1920.0,0.009918860159814358
2048.0,0.006691116839647293
2304.0,0.004546364303678274
2560.0,0.005364588461816311
2816.0,0.003804536536335945
3072.0,0.00020029518054798245
3328.0,-0.003343009389936924
3584.0,-0.0032262983731925488
3840.0,0.0002774106978904456
4096.0,0.003133035497739911
4608.0,-0.004159342497587204
5120.0,-0.008971982635557652
5632.0,-0.00462420005351305
6144.0,-0.005583545658737421
6656.0,-0.007697427645325661
7168.0,-0.011258539743721485
7680.0,-0.009446817450225353
8192.0,-0.005366141442209482
end
