version,3.0
numOfCh,1
type,point
parent_name,fe81d_0dot1-1dot0
ch_type,1_1
kcount,1
numberNandB,1
brightnessNandB,1
carpet pos,0
pc,0
Time (ms),CH1 Auto-Correlation
1.0,0.03720010071992874
2.0,0.03668983280658722
3.0,0.036187201738357544
4.0,0.035715289413928986
5.0,0.03527839109301567
6.0,0.03484448045492172
7.0,0.034448929131031036
8.0,0.03404771536588669
9.0,0.033645570278167725
10.0,0.033254474401474
11.0,0.03286787495017052
12.0,0.032484132796525955
13.0,0.03211610019207001
14.0,0.03176174312829971
15.0,0.03141605854034424
16.0,0.031074337661266327
18.0,0.03037763386964798
20.0,0.029673805460333824
22.0,0.028961995616555214
24.0,0.02829003892838955
26.0,0.02763780578970909
28.0,0.026975225657224655
30.0,0.026354776695370674
32.0,0.02575964294373989
36.0,0.024648310616612434
40.0,0.02354290708899498
44.0,0.022485952824354172
48.0,0.02148505300283432
52.0,0.020531298592686653
56.0,0.019649051129817963
60.0,0.018882809206843376
64.0,0.018181264400482178
72.0,0.016888361424207687
80.0,0.015762241557240486
88.0,0.01480084378272295
96.0,0.014057964086532593
104.0,0.013426965102553368
112.0,0.012832270003855228
120.0,0.012474305927753448
128.0,0.01190388947725296
144.0,0.010578109882771969
160.0,0.009313798509538174
176.0,0.008491992950439453
192.0,0.008012151345610619
208.0,0.00747847743332386
224.0,0.0070308661088347435
240.0,0.006381302606314421
256.0,0.005105614196509123
288.0,0.003873097011819482
320.0,0.0026777051389217377
352.0,0.0024311773013323545
384.0,0.002266187220811844
416.0,0.0027115775737911463
448.0,0.0019399106968194246
480.0,0.0011741865891963243
512.0,0.0007126563577912748
576.0,-0.0001897808106150478
640.0,-0.0015053916722536087
704.0,-0.0017485676798969507
768.0,-0.0012500054435804486
832.0,-0.0015322971157729626
896.0,-0.002799095818772912
960.0,-0.003595455549657345
1024.0,-0.00426246365532279
1152.0,-0.002072672126814723
1280.0,-0.0007928508566692472
1408.0,-0.0011490428587421775
1536.0,-0.0020929742604494095
1664.0,-0.005865674931555986
1792.0,-0.004162944387644529
1920.0,-0.0037783749867230654
2048.0,-0.004925110377371311
2304.0,-0.004154609050601721
2560.0,0.0016447296366095543
2816.0,0.0058641498908400536
3072.0,0.008617947809398174
3328.0,0.0036037941463291645
3584.0,0.002382465871050954
3840.0,-0.0012090434320271015
4096.0,-0.001182768028229475
4608.0,-0.0028522468637675047
5120.0,-0.004498456604778767
5632.0,0.002189069055020809
6144.0,0.0024113410618156195
6656.0,-0.0012133992277085781
7168.0,0.0021207300014793873
7680.0,-0.001653734827414155
8192.0,-0.004052745644003153
end
