version,3.0
numOfCh,1
type,point
parent_name,fe81d_0dot1-1dot0
ch_type,1_1
kcount,1
numberNandB,1
brightnessNandB,1
carpet pos,0
pc,0
Time (ms),CH1 Auto-Correlation
1.0,0.038128700107336044
2.0,0.03768949210643768
3.0,0.03726187348365784
4.0,0.036848071962594986
5.0,0.03644508868455887
6.0,0.03604305163025856
7.0,0.035653695464134216
8.0,0.03526897355914116
9.0,0.034898802638053894
10.0,0.034538693726062775
11.0,0.034189824014902115
12.0,0.03384646773338318
13.0,0.033507198095321655
14.0,0.03315981104969978
15.0,0.03281963989138603
16.0,0.03249206766486168
18.0,0.03186551481485367
20.0,0.03127844259142876
22.0,0.030721750110387802
24.0,0.030202824622392654
26.0,0.0297086238861084
28.0,0.029244840145111084
30.0,0.02880890481173992
32.0,0.028366634622216225
36.0,0.027476716786623
40.0,0.026607675477862358
44.0,0.025792645290493965
48.0,0.025067053735256195
52.0,0.024393020197749138
56.0,0.023750539869070053
60.0,0.023151136934757233
64.0,0.02260572835803032
72.0,0.02137535810470581
80.0,0.020001690834760666
88.0,0.018934927880764008
96.0,0.018005764111876488
104.0,0.01696203462779522
112.0,0.01599615253508091
120.0,0.01517955306917429
128.0,0.014247559942305088
144.0,0.012254953384399414
160.0,0.010764618404209614
176.0,0.010036812163889408
192.0,0.009435485117137432
208.0,0.008918342180550098
224.0,0.008282170630991459
240.0,0.007309430278837681
256.0,0.006346857640892267
288.0,0.005644633434712887
320.0,0.0053628128953278065
352.0,0.0047944639809429646
384.0,0.004751409869641066
416.0,0.005345335695892572
448.0,0.005576567258685827
480.0,0.004033713135868311
512.0,0.0018881534924730659
576.0,-0.0012773438356816769
640.0,-0.0009661886724643409
704.0,0.00022285709565039724
768.0,0.002391166752204299
832.0,0.0037469719536602497
896.0,0.004024100489914417
960.0,0.00247551454231143
1024.0,0.001992699922993779
1152.0,0.004044978879392147
1280.0,0.0013791079400107265
1408.0,-0.0013391146203503013
1536.0,-0.003102273913100362
1664.0,0.00015833048382773995
1792.0,0.0014268060913309455
1920.0,0.0021792917978018522
2048.0,0.0015835792291909456
2304.0,-9.171634883387014e-05
2560.0,-0.002808985533192754
2816.0,0.0003422073496039957
3072.0,-0.0011752917198464274
3328.0,-0.0009687276906333864
3584.0,0.004805550444871187
3840.0,0.007226384244859219
4096.0,0.006014012265950441
4608.0,-0.001602846896275878
5120.0,-0.0013413075357675552
5632.0,-0.001896207220852375
6144.0,-0.00948665663599968
6656.0,-0.007851374335587025
7168.0,-0.005463292356580496
7680.0,0.0008403566316701472
8192.0,-0.00013712341024074703
end
