version,3.0
numOfCh,1
type,point
parent_name,fe81d_0dot1-1dot0
ch_type,1_1
kcount,1
numberNandB,1
brightnessNandB,1
carpet pos,0
pc,0
Time (ms),CH1 Auto-Correlation
1.0,0.03272206336259842
2.0,0.032181985676288605
3.0,0.031684111803770065
4.0,0.03125285729765892
5.0,0.030848706141114235
6.0,0.03043997660279274
7.0,0.030041029676795006
8.0,0.02966110222041607
9.0,0.02927573025226593
10.0,0.02891555242240429
11.0,0.02857702039182186
12.0,0.02826307900249958
13.0,0.027948223054409027
14.0,0.027630893513560295
15.0,0.027310071513056755
16.0,0.02700282447040081
18.0,0.026448415592312813
20.0,0.02592575177550316
22.0,0.02545447275042534
24.0,0.02502598986029625
26.0,0.024568891152739525
28.0,0.024087682366371155
30.0,0.02360968291759491
32.0,0.023100541904568672
36.0,0.022090857848525047
40.0,0.02114102989435196
44.0,0.020251696929335594
48.0,0.01945917122066021
52.0,0.018659483641386032
56.0,0.017932621762156487
60.0,0.017288561910390854
64.0,0.016711963340640068
72.0,0.015612359158694744
80.0,0.014544795267283916
88.0,0.013553502969443798
96.0,0.012717828154563904
104.0,0.01203832495957613
112.0,0.011276052333414555
120.0,0.010389146395027637
128.0,0.009675129316747189
144.0,0.008172266185283661
160.0,0.006249941419810057
176.0,0.004704538732767105
192.0,0.00391671247780323
208.0,0.00292771402746439
224.0,0.0016550910659134388
240.0,0.0006708088330924511
256.0,0.0003192924486938864
288.0,-0.00020337390014901757
320.0,-0.0003716144128702581
352.0,-4.525651456788182e-05
384.0,0.0005619604489766061
416.0,0.0008594567188993096
448.0,0.0008209345396608114
480.0,0.0012661762302741408
512.0,0.00244273548014462
576.0,0.003501345869153738
640.0,0.002770186634734273
704.0,0.002211335115134716
768.0,0.002824048977345228
832.0,0.0019669299945235252
896.0,0.0012970947427675128
960.0,0.00017335507436655462
1024.0,0.0004247887700330466
1152.0,-0.0009605508530512452
1280.0,0.0011795450700446963
1408.0,0.0044176168739795685
1536.0,0.002056916942819953
1664.0,-0.0004621276166290045
1792.0,0.002242491114884615
1920.0,0.005370696075260639
2048.0,0.006761081051081419
2304.0,0.003906738478690386
2560.0,0.003992671612650156
2816.0,0.0012822287390008569
3072.0,-0.0005808435962535441
3328.0,0.003942063078284264
3584.0,0.0013608194421976805
3840.0,-0.0003403328009881079
4096.0,0.004509092774242163
4608.0,-0.0019806313794106245
5120.0,0.000380290555767715
5632.0,-8.518740060026175e-07
6144.0,-0.0016455036820843816
6656.0,-0.004813088569790125
7168.0,-0.004060686565935612
7680.0,-0.0014139263657853007
8192.0,-0.0025641864631325006
end
