version,3.0
numOfCh,1
type,point
parent_name,fe81d_0dot1-1dot0
ch_type,1_1
kcount,1
numberNandB,1
brightnessNandB,1
carpet pos,0
pc,0
Time (ms),CH1 Auto-Correlation
1.0,0.045904457569122314
2.0,0.04538477957248688
3.0,0.04490048065781593
4.0,0.04447995498776436
5.0,0.04406461864709854
6.0,0.04368619620800018
7.0,0.04332049936056137
8.0,0.042992234230041504
9.0,0.04268297553062439
10.0,0.04237021505832672
11.0,0.04205505922436714
12.0,0.041748713701963425
13.0,0.04144318401813507
14.0,0.041123874485492706
15.0,0.040821708738803864
16.0,0.04054146260023117
18.0,0.040009476244449615
20.0,0.039490532130002975
22.0,0.03896366059780121
24.0,0.038448791950941086
26.0,0.0379696786403656
28.0,0.03750617057085037
30.0,0.037074826657772064
32.0,0.0366738960146904
36.0,0.03577890247106552
40.0,0.03484640643000603
44.0,0.03397097811102867
48.0,0.033209413290023804
52.0,0.03252542018890381
56.0,0.03183203935623169
60.0,0.031214633956551552
64.0,0.030575839802622795
72.0,0.02937019057571888
80.0,0.028237689286470413
88.0,0.027374258264899254
96.0,0.026745541021227837
104.0,0.025986123830080032
112.0,0.025193875655531883
120.0,0.02442328818142414
128.0,0.023727314546704292
144.0,0.02233705297112465
160.0,0.02083960734307766
176.0,0.019082941114902496
192.0,0.01729440502822399
208.0,0.01593637838959694
224.0,0.015090291388332844
240.0,0.014251275919377804
256.0,0.01300335768610239
288.0,0.010826973244547844
320.0,0.008624540641903877
352.0,0.006815189495682716
384.0,0.005201106425374746
416.0,0.0035205071326345205
448.0,0.0021194566506892443
480.0,0.0012700071092694998
512.0,0.0006078786100260913
576.0,0.0005549427005462348
640.0,0.0008297322201542556
704.0,0.0029152261558920145
768.0,0.0032076463103294373
832.0,0.0026490245945751667
896.0,0.0009504415211267769
960.0,0.0011435056803748012
1024.0,0.0012136155273765326
1152.0,0.0012375452788546681
1280.0,-0.000463850301457569
1408.0,0.0007286799373105168
1536.0,0.004235104192048311
1664.0,0.008791257627308369
1792.0,0.010393737815320492
1920.0,0.007688452489674091
2048.0,0.0031725286971777678
2304.0,-0.0015908728819340467
2560.0,-0.002285516122356057
2816.0,-3.404637027415447e-05
3072.0,-0.0014850238803774118
3328.0,-0.0012284911936149001
3584.0,-8.191869710572064e-05
3840.0,-0.006767991464585066
4096.0,-0.00834542978554964
4608.0,-0.01077495701611042
5120.0,-0.005796917248517275
5632.0,-0.010466341860592365
6144.0,-0.003198574995622039
6656.0,-0.002909924602136016
7168.0,-0.00517012644559145
7680.0,0.0012828082544729114
8192.0,0.00597094651311636
end
