version,3.0
numOfCh,1
type,point
parent_name,fe81d_0dot1-1dot0
ch_type,1_1
kcount,1
numberNandB,1
brightnessNandB,1
carpet pos,0
pc,0
Time (ms),CH1 Auto-Correlation
1.0,0.042805999517440796
2.0,0.04235706105828285
3.0,0.041963931173086166
4.0,0.04160524904727936
5.0,0.041250672191381454
6.0,0.04089467599987984
7.0,0.040556829422712326
8.0,0.040237367153167725
9.0,0.03991885110735893
10.0,0.03960413113236427
11.0,0.03929881006479263
12.0,0.03899006173014641
13.0,0.03868218883872032
14.0,0.03837817534804344
15.0,0.038109857589006424
16.0,0.03785195201635361
18.0,0.03732621669769287
20.0,0.03677910193800926
22.0,0.0362611748278141
24.0,0.03573775291442871
26.0,0.03522763401269913
28.0,0.034742455929517746
30.0,0.03427709639072418
32.0,0.03379066288471222
36.0,0.03291480988264084
40.0,0.032085761427879333
44.0,0.03133697435259819
48.0,0.030628055334091187
52.0,0.02990822307765484
56.0,0.029201190918684006
60.0,0.028595251962542534
64.0,0.02806711569428444
72.0,0.027143996208906174
80.0,0.02622336335480213
88.0,0.025343401357531548
96.0,0.02440781518816948
104.0,0.023497704416513443
112.0,0.022633295506238937
120.0,0.021730586886405945
128.0,0.020759789273142815
144.0,0.018979934975504875
160.0,0.017393140122294426
176.0,0.015877574682235718
192.0,0.014362846501171589
208.0,0.01305503211915493
224.0,0.0118209607899189
240.0,0.010734627954661846
256.0,0.009579249657690525
288.0,0.007273729890584946
320.0,0.005937208887189627
352.0,0.0048235016874969006
384.0,0.003792279167100787
416.0,0.002991963177919388
448.0,0.003033815184608102
480.0,0.0028781923465430737
512.0,0.0026980347465723753
576.0,0.002020106418058276
640.0,0.0015881784493103623
704.0,0.0021769411396235228
768.0,0.002099157078191638
832.0,0.0004991769674234092
896.0,-0.0012927067000418901
960.0,-0.004229514393955469
1024.0,-0.00522188376635313
1152.0,-0.004508743993937969
1280.0,-0.003894371911883354
1408.0,-0.0028786954935640097
1536.0,-0.004571216646581888
1664.0,-0.0053960541263222694
1792.0,-0.004178760107606649
1920.0,0.0007769786170683801
2048.0,0.0025900378823280334
2304.0,-0.002770915161818266
2560.0,-0.0049261595122516155
2816.0,-0.0028913449496030807
3072.0,-0.010243258439004421
3328.0,-0.007048792205750942
3584.0,9.888866770779714e-05
3840.0,0.0008717503515072167
4096.0,0.0099417045712471
4608.0,0.011413960717618465
5120.0,-0.0014364481903612614
5632.0,-0.004093145485967398
6144.0,-0.001259615528397262
6656.0,-0.004430404864251614
7168.0,-0.009112654253840446
7680.0,-0.006538903806358576
8192.0,0.006368257105350494
end
