version,3.0
numOfCh,1
type,point
parent_name,fe81d_0dot1-1dot0
ch_type,1_1
kcount,1
numberNandB,1
brightnessNandB,1
carpet pos,0
pc,0
Time (ms),CH1 Auto-Correlation
1.0,0.03966318815946579
2.0,0.03923361003398895
3.0,0.03882286697626114
4.0,0.03840091824531555
5.0,0.037992898374795914
6.0,0.03761235624551773
7.0,0.0372292697429657
8.0,0.036843959242105484
9.0,0.036467790603637695
10.0,0.03609835356473923
11.0,0.0357290580868721
12.0,0.03537758067250252
13.0,0.03503883630037308
14.0,0.034705497324466705
15.0,0.03435889631509781
16.0,0.034016937017440796
18.0,0.03338497504591942
20.0,0.032819271087646484
22.0,0.032295532524585724
24.0,0.031802065670490265
26.0,0.031333163380622864
28.0,0.030882740393280983
30.0,0.03044692613184452
32.0,0.03001394495368004
36.0,0.02916370891034603
40.0,0.02831873670220375
44.0,0.02747286856174469
48.0,0.02667367272078991
52.0,0.025877581909298897
56.0,0.025201143696904182
60.0,0.02462838403880596
64.0,0.024126039817929268
72.0,0.02329963631927967
80.0,0.022542549297213554
88.0,0.021810205653309822
96.0,0.02110469713807106
104.0,0.020399125292897224
112.0,0.019737163558602333
120.0,0.01919623650610447
128.0,0.0186598002910614
144.0,0.017639897763729095
160.0,0.016427142545580864
176.0,0.015035607852041721
192.0,0.013802795670926571
208.0,0.012688908725976944
224.0,0.01186963077634573
240.0,0.011324737221002579
256.0,0.010767715983092785
288.0,0.009825651533901691
320.0,0.009159666486084461
352.0,0.009402773343026638
384.0,0.008868004195392132
416.0,0.007973438128829002
448.0,0.007103742100298405
480.0,0.006206701043993235
512.0,0.0053317188285291195
576.0,0.005051624961197376
640.0,0.007119865622371435
704.0,0.00832188967615366
768.0,0.008207996375858784
832.0,0.00900763738900423
896.0,0.00706219719722867
960.0,0.004871734883636236
1024.0,0.0026074207853525877
1152.0,0.0011900033568963408
1280.0,1.0939127605524845e-05
1408.0,-0.0013799220323562622
1536.0,-0.00011043524864362553
1664.0,-0.003030338790267706
1792.0,-0.0064268275164067745
1920.0,-0.007266043685376644
2048.0,-0.01051175594329834
2304.0,-0.012174309231340885
2560.0,-0.009218664839863777
2816.0,-0.007824384607374668
3072.0,-0.008229177445173264
3328.0,-0.00796450860798359
3584.0,-0.005793468561023474
3840.0,-0.0014879006193950772
4096.0,0.002712502144277096
4608.0,0.0033017564564943314
5120.0,0.006525047123432159
5632.0,0.004175181966274977
6144.0,0.008154339157044888
6656.0,0.001941148773767054
7168.0,-0.002976449904963374
7680.0,-0.0050951330922544
8192.0,-0.013307307846844196
end
