version,3.0
numOfCh,1
type,point
parent_name,fe81d_0dot1-1dot0
ch_type,1_1
kcount,1
numberNandB,1
brightnessNandB,1
carpet pos,0
pc,0
Time (ms),CH1 Auto-Correlation
1.0,0.03612351417541504
2.0,0.03558555245399475
3.0,0.03508979454636574
4.0,0.034605588763952255
5.0,0.034144409000873566
6.0,0.033709634095430374
7.0,0.033287301659584045
8.0,0.03290468454360962
9.0,0.03252798691391945
10.0,0.03217374533414841
11.0,0.031830061227083206
12.0,0.03149518743157387
13.0,0.03118220530450344
14.0,0.030906861647963524
15.0,0.030621185898780823
16.0,0.030339587479829788
18.0,0.029772138223052025
20.0,0.029184021055698395
22.0,0.02860882133245468
24.0,0.028027301654219627
26.0,0.027488529682159424
28.0,0.026974232867360115
30.0,0.02649385668337345
32.0,0.026051495224237442
36.0,0.025170113891363144
40.0,0.024349231272935867
44.0,0.02351379580795765
48.0,0.02272631600499153
52.0,0.02206725999712944
56.0,0.02140960283577442
60.0,0.02076108753681183
64.0,0.020158300176262856
72.0,0.01896905153989792
80.0,0.01785113289952278
88.0,0.016909543424844742
96.0,0.01589205116033554
104.0,0.014959906227886677
112.0,0.014226347208023071
120.0,0.01331485528498888
128.0,0.012369658797979355
144.0,0.010346364229917526
160.0,0.00829645898193121
176.0,0.006347303278744221
192.0,0.004677379969507456
208.0,0.0033838297240436077
224.0,0.00238426448777318
240.0,0.0012732852483168244
256.0,0.00017763339565135539
288.0,-0.001413323450833559
320.0,-0.0025337941478937864
352.0,-0.0034876568242907524
384.0,-0.0039809271693229675
416.0,-0.0044237300753593445
448.0,-0.004019110929220915
480.0,-0.002991073066368699
512.0,-0.0026735342107713223
576.0,-0.001242940197698772
640.0,0.0019017000449821353
704.0,0.005193870980292559
768.0,0.006153217051178217
832.0,0.005599771626293659
896.0,0.0041568707674741745
960.0,0.0031025605276226997
1024.0,0.0019917439203709364
1152.0,-0.0011282952036708593
1280.0,-0.0029309215024113655
1408.0,-0.0008493817294947803
1536.0,0.0029994335491210222
1664.0,0.0011322819627821445
1792.0,-0.0028815793339163065
1920.0,-0.004926541820168495
2048.0,-0.0042546894401311874
2304.0,0.001347226556390524
2560.0,-9.719513764139265e-05
2816.0,-0.0016481656348332763
3072.0,-0.0017801782814785838
3328.0,-0.0010610013268887997
3584.0,-0.004280241671949625
3840.0,0.003984252456575632
4096.0,-0.002526218071579933
4608.0,-0.002312109572812915
5120.0,-0.0015508083160966635
5632.0,-0.001427923096343875
6144.0,0.0005894656060263515
6656.0,-0.0030315283220261335
7168.0,-0.0021925282198935747
7680.0,0.002900303341448307
8192.0,0.001431730343028903
end
