version,3.0
numOfCh,1
type,point
parent_name,fe81d_0dot1-1dot0
ch_type,1_1
kcount,1
numberNandB,1
brightnessNandB,1
carpet pos,0
pc,0
Time (ms),CH1 Auto-Correlation
1.0,0.03659079596400261
2.0,0.036147765815258026
3.0,0.03572305664420128
4.0,0.03532644733786583
5.0,0.03495017811655998
6.0,0.034588154405355453
7.0,0.03424179553985596
8.0,0.033895861357450485
9.0,0.03356179967522621
10.0,0.03323952481150627
11.0,0.03292211890220642
12.0,0.03260954096913338
13.0,0.032292552292346954
14.0,0.0320013165473938
15.0,0.031712763011455536
16.0,0.031417082995176315
18.0,0.03083934262394905
20.0,0.03028283081948757
22.0,0.029739968478679657
24.0,0.029221368953585625
26.0,0.02873721718788147
28.0,0.028264615684747696
30.0,0.02780832350254059
32.0,0.027356203645467758
36.0,0.02645203098654747
40.0,0.02564718760550022
44.0,0.024862168356776237
48.0,0.02405436895787716
52.0,0.023246396332979202
56.0,0.022484255954623222
60.0,0.021796055138111115
64.0,0.0211433544754982
72.0,0.020023340359330177
80.0,0.018937325105071068
88.0,0.01794351078569889
96.0,0.01696213148534298
104.0,0.01597490906715393
112.0,0.015114580281078815
120.0,0.014428721740841866
128.0,0.013801737688481808
144.0,0.01238892413675785
160.0,0.010753058828413486
176.0,0.009212549775838852
192.0,0.007855262607336044
208.0,0.0068527874536812305
224.0,0.006025244016200304
240.0,0.005186017137020826
256.0,0.0045218453742563725
288.0,0.0036776361521333456
320.0,0.0028873810078948736
352.0,0.002538005355745554
384.0,0.002484978409484029
416.0,0.0015314846532419324
448.0,0.0012259557843208313
480.0,0.0018357395892962813
512.0,0.0027878512628376484
576.0,0.0036490035708993673
640.0,0.002224369440227747
704.0,0.0010091352742165327
768.0,0.0008291601552627981
832.0,-0.0010595963103696704
896.0,-0.0028813218232244253
960.0,-0.003712674370035529
1024.0,-0.004045331384986639
1152.0,-0.006349814590066671
1280.0,-0.007469824980944395
1408.0,-0.0064786882139742374
1536.0,-0.0058723920956254005
1664.0,-0.004731304012238979
1792.0,-0.001763125415891409
1920.0,-0.0028533004224300385
2048.0,-0.0030770525336265564
2304.0,9.911265078699216e-05
2560.0,0.0016624524723738432
2816.0,0.004122175741940737
3072.0,0.0020090406760573387
3328.0,0.0008696701261214912
3584.0,0.0005759980413131416
3840.0,0.001543399877846241
4096.0,-0.0006376797682605684
4608.0,0.0010575519409030676
5120.0,0.002567093353718519
5632.0,0.00034835399128496647
6144.0,-0.0011298786848783493
6656.0,-0.003278817515820265
7168.0,-0.00802856869995594
7680.0,-0.000846677168738097
8192.0,0.005346162710338831
end
