version,3.0
numOfCh,1
type,point
parent_name,ff67b_0dot4-0dot01
ch_type,1_1
kcount,1
numberNandB,1
brightnessNandB,1
carpet pos,0
pc,0
Time (ms),CH1 Auto-Correlation
1.0,0.05293356627225876
2.0,0.051612816751003265
3.0,0.050350580364465714
4.0,0.04921144247055054
5.0,0.04811903461813927
6.0,0.047050829976797104
7.0,0.046116627752780914
8.0,0.04531067982316017
9.0,0.04458945617079735
10.0,0.04396156966686249
11.0,0.04338454082608223
12.0,0.04278514161705971
13.0,0.04231901466846466
14.0,0.0418553426861763
15.0,0.041449762880802155
16.0,0.04094836860895157
18.0,0.039927903562784195
20.0,0.038969043642282486
22.0,0.037927720695734024
24.0,0.03700936958193779
26.0,0.03605964779853821
28.0,0.03502695634961128
30.0,0.03411467745900154
32.0,0.03314134106040001
36.0,0.03101111389696598
40.0,0.029467331245541573
44.0,0.0283285453915596
48.0,0.027247773483395576
52.0,0.02593548595905304
56.0,0.02425648272037506
60.0,0.022653969004750252
64.0,0.02084524743258953
72.0,0.01862337440252304
80.0,0.01694301888346672
88.0,0.015481007285416126
96.0,0.0138906454667449
104.0,0.012874221429228783
112.0,0.011652883142232895
120.0,0.009905094280838966
128.0,0.00876027625054121
144.0,0.008200517855584621
160.0,0.00831217784434557
176.0,0.007869274355471134
192.0,0.005230860318988562
208.0,0.0012247535632923245
224.0,-0.00015099544543772936
240.0,0.00041270162910223007
256.0,0.0006089761154726148
288.0,-0.0012551802210509777
320.0,-0.004327006172388792
352.0,-0.007476049941033125
384.0,-0.008778969757258892
416.0,-0.010094592347741127
448.0,-0.008932392112910748
480.0,-0.006825788412243128
512.0,-0.006745811086148024
576.0,-0.00746223796159029
640.0,-0.008519546128809452
704.0,-0.0035933710169047117
768.0,-0.00458862166851759
832.0,-0.00418077502399683
896.0,-0.007986954413354397
960.0,-0.012607939541339874
1024.0,-0.008493089117109776
1152.0,-0.0012918434804305434
1280.0,-0.0029266178607940674
1408.0,-0.0002438010269543156
1536.0,0.0006140648038126528
1664.0,-0.0011138779809698462
1792.0,0.0007809255039319396
1920.0,-0.0007182505214586854
2048.0,0.00010001097689382732
end
