version,3.0
numOfCh,1
type,point
parent_name,ff67b_0dot4-0dot01
ch_type,1_1
kcount,1
numberNandB,1
brightnessNandB,1
carpet pos,0
pc,0
Time (ms),CH1 Auto-Correlation
1.0,0.04282506927847862
2.0,0.04172263294458389
3.0,0.040693335235118866
4.0,0.03969653323292732
5.0,0.0387267991900444
6.0,0.03781179338693619
7.0,0.03699670359492302
8.0,0.03621118888258934
9.0,0.03547341004014015
10.0,0.03475368395447731
11.0,0.03406352549791336
12.0,0.03339461237192154
13.0,0.03276802971959114
14.0,0.03212614357471466
15.0,0.0315072201192379
16.0,0.030888164415955544
18.0,0.029751203954219818
20.0,0.02867702953517437
22.0,0.027589188888669014
24.0,0.02660095877945423
26.0,0.025707749649882317
28.0,0.024851031601428986
30.0,0.024042818695306778
32.0,0.023274015635252
36.0,0.02196117863059044
40.0,0.02085966058075428
44.0,0.019853804260492325
48.0,0.01873575896024704
52.0,0.01768040470778942
56.0,0.016814302653074265
60.0,0.01600482687354088
64.0,0.015413440763950348
72.0,0.014600705355405807
80.0,0.013737634755671024
88.0,0.012468237429857254
96.0,0.011313882656395435
104.0,0.010297825559973717
112.0,0.009313232265412807
120.0,0.008725171908736229
128.0,0.008610410615801811
144.0,0.007761688437312841
160.0,0.0071478639729321
176.0,0.00683020893484354
192.0,0.006916007027029991
208.0,0.0074282195419073105
224.0,0.007622382137924433
240.0,0.00758678512647748
256.0,0.006947890855371952
288.0,0.005213278811424971
320.0,0.0030306263361126184
352.0,0.0023845520336180925
384.0,0.0018452353542670608
416.0,0.003639727598056197
448.0,0.002292947843670845
480.0,-2.6102006813744083e-05
512.0,-4.336320216680178e-06
576.0,0.0026267447974532843
640.0,0.004977396689355373
704.0,0.0065424502827227116
768.0,0.0031895942520350218
832.0,0.0012733063194900751
896.0,0.0003076127031818032
960.0,0.0013394752750173211
1024.0,0.0016607966972514987
1152.0,-0.002197402063757181
1280.0,-0.0016705254092812538
1408.0,-0.0007454953738488257
1536.0,-0.0005311292479746044
1664.0,0.0009130918770097196
1792.0,-0.0052049169316887856
1920.0,-0.006280723959207535
2048.0,-0.006554462946951389
2304.0,-0.006611173506826162
2560.0,-0.0017920412356033921
2816.0,0.0012538941809907556
3072.0,0.002863476285710931
3328.0,0.00286450725980103
3584.0,0.003971024416387081
3840.0,0.00136123679112643
4096.0,0.000827862648293376
4608.0,0.0005210994859226048
5120.0,-0.004555758088827133
5632.0,-0.0068415384739637375
6144.0,-0.0014437584904953837
6656.0,-0.006138714030385017
7168.0,-0.0011190540390089154
7680.0,0.0020595495589077473
8192.0,-0.004401390440762043
end
