version,3.0
numOfCh,1
type,point
parent_name,ff67b_0dot4-0dot01
ch_type,1_1
kcount,1
numberNandB,1
brightnessNandB,1
carpet pos,0
pc,0
Time (ms),CH1 Auto-Correlation
1.0,0.046614933758974075
2.0,0.04545844718813896
3.0,0.04436798393726349
4.0,0.043366365134716034
5.0,0.04242238402366638
6.0,0.04152767360210419
7.0,0.040655191987752914
8.0,0.03984953835606575
9.0,0.039044804871082306
10.0,0.03830686956644058
11.0,0.03758882358670235
12.0,0.03688559681177139
13.0,0.036182284355163574
14.0,0.03552836924791336
15.0,0.03491455689072609
16.0,0.03433172404766083
18.0,0.03325073793530464
20.0,0.03227151930332184
22.0,0.03142369166016579
24.0,0.030649689957499504
26.0,0.029950130730867386
28.0,0.02923726662993431
30.0,0.028589501976966858
32.0,0.027989285066723824
36.0,0.026719214394688606
40.0,0.025507807731628418
44.0,0.024375086650252342
48.0,0.023373719304800034
52.0,0.022407280281186104
56.0,0.021424846723675728
60.0,0.020327361300587654
64.0,0.019392142072319984
72.0,0.017854761332273483
80.0,0.016687646508216858
88.0,0.016010433435440063
96.0,0.01564154215157032
104.0,0.015549461357295513
112.0,0.01555727794766426
120.0,0.015385018661618233
128.0,0.015113472007215023
144.0,0.014407130889594555
160.0,0.013502075336873531
176.0,0.011857583187520504
192.0,0.009567195549607277
208.0,0.0073358602821826935
224.0,0.0053402818739414215
240.0,0.0035143811255693436
256.0,0.002202082658186555
288.0,0.0023929141461849213
320.0,0.0025130335707217455
352.0,0.003153780475258827
384.0,0.002279837615787983
416.0,0.0007720746798440814
448.0,0.001606884878128767
480.0,0.0025422393810003996
512.0,0.003136605955660343
576.0,0.002721434226259589
640.0,0.0032093513291329145
704.0,0.002799768466502428
768.0,0.0027159054297953844
832.0,0.001269319443963468
896.0,0.0019551091827452183
960.0,0.002468412509188056
1024.0,0.000458901165984571
1152.0,-0.0010795837733894587
1280.0,-0.0015516954008489847
1408.0,-0.0004839294997509569
1536.0,-0.00122075283434242
1664.0,-2.4260250938823447e-05
1792.0,0.003412411315366626
1920.0,0.006301701068878174
2048.0,0.0011179335415363312
2304.0,0.0017528304597362876
2560.0,0.002389023080468178
2816.0,-0.0017590634524822235
3072.0,-0.005322538781911135
3328.0,-0.0031683894339948893
3584.0,0.001635595690459013
3840.0,0.0012288209982216358
4096.0,0.00231398013420403
4608.0,0.0037263669073581696
5120.0,-0.0030082205776125193
5632.0,-0.0013558452483266592
6144.0,0.000364159990567714
6656.0,0.0019889550749212503
7168.0,0.004775131121277809
7680.0,-0.00588923180475831
8192.0,-0.002969349967315793
end
