version,3.0
numOfCh,1
type,point
parent_name,ff67b_0dot4-0dot01
ch_type,1_1
kcount,1
numberNandB,1
brightnessNandB,1
carpet pos,0
pc,0
Time (ms),CH1 Auto-Correlation
1.0,0.0368104912340641
2.0,0.03568349406123161
3.0,0.0346226766705513
4.0,0.03357866406440735
5.0,0.03260531276464462
6.0,0.03167375922203064
7.0,0.030803000554442406
8.0,0.029964758083224297
9.0,0.029186932370066643
10.0,0.028475437313318253
11.0,0.02781413123011589
12.0,0.02720501273870468
13.0,0.026628512889146805
14.0,0.026083681732416153
15.0,0.025528689846396446
16.0,0.025009334087371826
18.0,0.02401145175099373
20.0,0.02312242053449154
22.0,0.02227906323969364
24.0,0.021404903382062912
26.0,0.020622175186872482
28.0,0.01991923898458481
30.0,0.01928393542766571
32.0,0.018737750127911568
36.0,0.01788223721086979
40.0,0.017194097861647606
44.0,0.016557207331061363
48.0,0.01594071090221405
52.0,0.015412167645990849
56.0,0.01510524470359087
60.0,0.014800654724240303
64.0,0.014479323290288448
72.0,0.013667505234479904
80.0,0.013294428586959839
88.0,0.012576225213706493
96.0,0.011483817361295223
104.0,0.010790101252496243
112.0,0.010357712395489216
120.0,0.010175689123570919
128.0,0.00978786125779152
144.0,0.008908659219741821
160.0,0.008857062086462975
176.0,0.008277231827378273
192.0,0.007361137308180332
208.0,0.006871326826512814
224.0,0.006510339677333832
240.0,0.006666019093245268
256.0,0.006538722664117813
288.0,0.007143155671656132
320.0,0.007823202759027481
352.0,0.008399112150073051
384.0,0.008670501410961151
416.0,0.00817906204611063
448.0,0.007004926912486553
480.0,0.005732254590839148
512.0,0.005911660846322775
576.0,0.006054981611669064
640.0,0.0072035593912005424
704.0,0.0076182992197573185
768.0,0.006041849963366985
832.0,0.004110238514840603
896.0,0.0017449907027184963
960.0,0.0017803017981350422
1024.0,0.003125258721411228
1152.0,0.0016291796928271651
1280.0,-0.0009494101395830512
1408.0,0.0005325464881025255
1536.0,-0.003594194306060672
1664.0,-0.004832269158214331
1792.0,-0.003048615762963891
1920.0,-0.0039259945042431355
2048.0,-0.004856000654399395
2304.0,-0.0069310967810451984
2560.0,-0.006382415071129799
2816.0,-0.005584322847425938
3072.0,-0.004595618695020676
3328.0,-0.001703510875813663
3584.0,0.000304867688100785
3840.0,0.00045544933527708054
4096.0,0.0026968333404511213
4608.0,0.00406512850895524
5120.0,0.0029187751933932304
5632.0,-0.0003385839518159628
6144.0,-0.0029120491817593575
6656.0,-0.0018220292404294014
7168.0,-0.0004564591799862683
7680.0,0.0005682562477886677
8192.0,-5.280688128550537e-05
end
