version,3.0
numOfCh,1
type,point
parent_name,ff67b_0dot4-0dot01
ch_type,1_1
kcount,1
numberNandB,1
brightnessNandB,1
carpet pos,0
pc,0
Time (ms),CH1 Auto-Correlation
1.0,0.039490021765232086
2.0,0.038311682641506195
3.0,0.03719952329993248
4.0,0.036138199269771576
5.0,0.035147421061992645
6.0,0.034205205738544464
7.0,0.033298030495643616
8.0,0.03241702914237976
9.0,0.031579792499542236
10.0,0.03080086037516594
11.0,0.030063442885875702
12.0,0.029391927644610405
13.0,0.028792433440685272
14.0,0.02819354087114334
15.0,0.02762860804796219
16.0,0.027080010622739792
18.0,0.02600879594683647
20.0,0.025017935782670975
22.0,0.024164101108908653
24.0,0.023394189774990082
26.0,0.022675612941384315
28.0,0.022023402154445648
30.0,0.02139473892748356
32.0,0.020779039710760117
36.0,0.01967001147568226
40.0,0.01858680322766304
44.0,0.017542557790875435
48.0,0.016550594940781593
52.0,0.015740234404802322
56.0,0.015103751793503761
60.0,0.014695610851049423
64.0,0.014266837388277054
72.0,0.012975215911865234
80.0,0.01154703926295042
88.0,0.010465518571436405
96.0,0.009793789125978947
104.0,0.008896874263882637
112.0,0.007640241179615259
120.0,0.0068464502692222595
128.0,0.0065679168328642845
144.0,0.006114991847425699
160.0,0.005662472918629646
176.0,0.004818614572286606
192.0,0.0040665664710104465
208.0,0.002911530202254653
224.0,0.0014474467607215047
240.0,0.0013414924032986164
256.0,0.0018014300148934126
288.0,0.001967593329027295
320.0,0.002752315253019333
352.0,0.003095746273174882
384.0,0.002127849729731679
416.0,0.0020166877657175064
448.0,0.0031563034281134605
480.0,0.0036687038373202085
512.0,0.0041350992396473885
576.0,-0.00031639388180337846
640.0,-5.15809006174095e-05
704.0,0.000431273685535416
768.0,-0.0015351392794400454
832.0,-0.0017879591323435307
896.0,-0.001897691166959703
960.0,-0.0031582419760525227
1024.0,-0.0024456693790853024
1152.0,-0.003578035393729806
1280.0,-0.0028232031036168337
1408.0,-0.002242972608655691
1536.0,-0.0017813013400882483
1664.0,-0.0016954991733655334
1792.0,-0.0013120408402755857
1920.0,-0.0007340445881709456
2048.0,0.0007107596029527485
2304.0,0.0016762656159698963
2560.0,0.0003094966523349285
2816.0,0.0001693249650998041
3072.0,-0.0013922152575105429
3328.0,-0.0018281296361237764
3584.0,0.0008597270934842527
3840.0,0.0020459634251892567
4096.0,0.002456839894875884
4608.0,-0.0015472315717488527
5120.0,-0.0030390643514692783
5632.0,0.0013887815875932574
6144.0,0.003681608010083437
6656.0,0.0002904378343373537
7168.0,-0.004745674319565296
7680.0,-0.003352366155013442
8192.0,0.0018911851802840829
end
