version,3.0
numOfCh,1
type,point
parent_name,ff67b_0dot4-0dot01
ch_type,1_1
kcount,1
numberNandB,1
brightnessNandB,1
carpet pos,0
pc,0
Time (ms),CH1 Auto-Correlation
1.0,0.027606770396232605
2.0,0.026538273319602013
3.0,0.02549341879785061
4.0,0.024523135274648666
5.0,0.02361922152340412
6.0,0.022834034636616707
7.0,0.02208097279071808
8.0,0.02133188024163246
9.0,0.020616166293621063
10.0,0.019943589344620705
11.0,0.0192969162017107
12.0,0.01868014596402645
13.0,0.018062464892864227
14.0,0.017415177077054977
15.0,0.0167661365121603
16.0,0.016160663217306137
18.0,0.01502416841685772
20.0,0.01394424308091402
22.0,0.012927976436913013
24.0,0.0119850505143404
26.0,0.011294727213680744
28.0,0.010709783993661404
30.0,0.010158101096749306
32.0,0.00946645438671112
36.0,0.008173733949661255
40.0,0.007171697914600372
44.0,0.006538693793118
48.0,0.006155897863209248
52.0,0.005664971191436052
56.0,0.00518412422388792
60.0,0.0048256320878863335
64.0,0.004647558555006981
72.0,0.0035474025644361973
80.0,0.0021749224979430437
88.0,0.0013327470514923334
96.0,0.0011973766377195716
104.0,0.0012394186342135072
112.0,0.0010595816420391202
120.0,0.0010507869301363826
128.0,0.0014078014064580202
144.0,0.0017448272556066513
160.0,0.0019621681421995163
176.0,0.002405705628916621
192.0,0.0010094918543472886
208.0,3.90905152016785e-05
224.0,0.00022857400472275913
240.0,0.0007770175579935312
256.0,0.00021306674170773476
288.0,-0.0007092678570188582
320.0,-0.0036827034782618284
352.0,-0.004785471595823765
384.0,-0.0032127343583852053
416.0,-0.0007514078752137721
448.0,0.0013461061753332615
480.0,0.0012652876321226358
512.0,0.0015724713448435068
576.0,-0.0008045145659707487
640.0,0.0008591982768848538
704.0,0.003451306140050292
768.0,0.0034648568835109472
832.0,-0.0005764570087194443
896.0,-0.0008572841179557145
960.0,0.0017231504898518324
1024.0,0.0012395213125273585
1152.0,0.0006685011903755367
1280.0,-0.0010662080021575093
1408.0,-0.0030287327244877815
1536.0,-0.0027043772861361504
1664.0,-8.164860628312454e-05
1792.0,0.00041134064667858183
1920.0,0.0001740160078043118
2048.0,-0.003549612360075116
2304.0,-0.000968114472925663
2560.0,-0.0021026895847171545
2816.0,-0.0023334110155701637
3072.0,0.0011017447104677558
3328.0,-0.0005976611282676458
3584.0,0.0007383080082945526
3840.0,-0.0004279307904653251
4096.0,0.0022998929489403963
end
