version,3.0
numOfCh,1
type,point
parent_name,ff67b_0dot4-0dot01
ch_type,1_1
kcount,1
numberNandB,1
brightnessNandB,1
carpet pos,0
pc,0
Time (ms),CH1 Auto-Correlation
1.0,0.0387033075094223
2.0,0.037511974573135376
3.0,0.03639783710241318
4.0,0.035368550568819046
5.0,0.0344383679330349
6.0,0.03353211656212807
7.0,0.03266218304634094
8.0,0.031868141144514084
9.0,0.031053921207785606
10.0,0.03026813641190529
11.0,0.02950103208422661
12.0,0.028786811977624893
13.0,0.028088437393307686
14.0,0.027432158589363098
15.0,0.026778055354952812
16.0,0.02615537866950035
18.0,0.024953380227088928
20.0,0.023746339604258537
22.0,0.022692833095788956
24.0,0.02168518863618374
26.0,0.020729495212435722
28.0,0.019838305190205574
30.0,0.019079605117440224
32.0,0.018326718360185623
36.0,0.01709221862256527
40.0,0.0161675363779068
44.0,0.01500697247684002
48.0,0.013858511112630367
52.0,0.012935164384543896
56.0,0.012115133926272392
60.0,0.011544828303158283
64.0,0.011063985526561737
72.0,0.010105338878929615
80.0,0.009397018700838089
88.0,0.008918434381484985
96.0,0.008664403110742569
104.0,0.008294245228171349
112.0,0.007835387252271175
120.0,0.007022917736321688
128.0,0.006532830651849508
144.0,0.0061567360535264015
160.0,0.006270783022046089
176.0,0.005580629222095013
192.0,0.004776340909302235
208.0,0.00399974687024951
224.0,0.004022086039185524
240.0,0.0046131606213748455
256.0,0.005353820975869894
288.0,0.0042751324363052845
320.0,0.0029308267403393984
352.0,0.003941739443689585
384.0,0.005284992977976799
416.0,0.004178657196462154
448.0,0.0029519139789044857
480.0,0.0034812570083886385
512.0,0.0034836058039218187
576.0,0.000359096797183156
640.0,0.0005511904018931091
704.0,-0.0003369527403265238
768.0,-0.000906818313524127
832.0,0.000514258979819715
896.0,0.0007951578591018915
960.0,0.0007019955664873123
1024.0,0.001063377596437931
1152.0,4.995805284124799e-05
1280.0,-0.00024334156478289515
1408.0,0.0023341714404523373
1536.0,0.0004892428987659514
1664.0,0.003970629069954157
1792.0,0.004920483101159334
1920.0,0.00440633948892355
2048.0,0.006515040062367916
2304.0,0.002348534995689988
2560.0,-0.003732406534254551
2816.0,-0.003987195901572704
3072.0,-0.004956749267876148
3328.0,-0.0029777130112051964
3584.0,-0.0008827504934743047
3840.0,0.0005369705031625926
4096.0,-0.0005337129696272314
4608.0,-0.005629506427794695
5120.0,-0.0052167149260640144
5632.0,-0.0014908219454810023
6144.0,-0.001803319319151342
6656.0,-0.004288698546588421
7168.0,-0.0030847324524074793
7680.0,0.00029356544837355614
8192.0,0.0021058437414467335
end
