version,3.0
numOfCh,1
type,point
parent_name,ff67b_0dot4-0dot01
ch_type,1_1
kcount,1
numberNandB,1
brightnessNandB,1
carpet pos,0
pc,0
Time (ms),CH1 Auto-Correlation
1.0,0.03368836268782616
2.0,0.03249962255358696
3.0,0.03136596083641052
4.0,0.030347688123583794
5.0,0.029391178861260414
6.0,0.028499383479356766
7.0,0.027631893754005432
8.0,0.02680116705596447
9.0,0.026033852249383926
10.0,0.025337139144539833
11.0,0.02468900941312313
12.0,0.024082012474536896
13.0,0.023491786792874336
14.0,0.022915707901120186
15.0,0.022368697449564934
16.0,0.021830501034855843
18.0,0.020807698369026184
20.0,0.019869009032845497
22.0,0.019033055752515793
24.0,0.018250426277518272
26.0,0.01754569448530674
28.0,0.01692516915500164
30.0,0.01633301191031933
32.0,0.015748798847198486
36.0,0.01465197466313839
40.0,0.01382175087928772
44.0,0.01304294541478157
48.0,0.012371941469609737
52.0,0.01176213938742876
56.0,0.011218519881367683
60.0,0.0105630774050951
64.0,0.009863125160336494
72.0,0.008686481043696404
80.0,0.008192744106054306
88.0,0.007951000705361366
96.0,0.007361610420048237
104.0,0.006775934714823961
112.0,0.006271342746913433
120.0,0.005875096656382084
128.0,0.005614071618765593
144.0,0.005309589207172394
160.0,0.0045966897159814835
176.0,0.004116719122976065
192.0,0.0030702324584126472
208.0,0.002036200137808919
224.0,0.0025403699837625027
240.0,0.00264040008187294
256.0,0.002233298262581229
288.0,0.0015324611449614167
320.0,0.0020540726836770773
352.0,0.0021484491880983114
384.0,0.0026993541978299618
416.0,0.0019389430526643991
448.0,0.0012620668858289719
480.0,0.000830928620416671
512.0,0.0005460397806018591
576.0,0.0001959737710421905
640.0,-1.1792792975029442e-05
704.0,0.00030891431379131973
768.0,-0.0005596959381364286
832.0,-0.00037641535163857043
896.0,-0.00021369321621023118
960.0,0.00010328472126275301
1024.0,-0.00047893691225908697
1152.0,-0.0021354269701987505
1280.0,-0.0007631350890733302
1408.0,0.00021207219106145203
1536.0,-0.00135810486972332
1664.0,-0.001872210530564189
1792.0,-0.0032130598556250334
1920.0,-0.0038748846855014563
2048.0,-0.0037682976108044386
2304.0,-0.0008292305865325034
2560.0,-0.00011426548735471442
2816.0,0.0014870661543682218
3072.0,0.0015409763436764479
3328.0,0.0008367028785869479
3584.0,-0.0005782825755886734
3840.0,0.001846260274760425
4096.0,0.0007561799720861018
4608.0,-0.0018966415664181113
5120.0,-0.0007415783475153148
5632.0,-0.000679872406180948
6144.0,0.000301545747788623
6656.0,0.0002631681854836643
7168.0,0.0007842776249162853
7680.0,-0.0016408025985583663
8192.0,0.0007537835626862943
end
