version,3.0
numOfCh,1
type,point
parent_name,ff67b_0dot4-0dot01
ch_type,1_1
kcount,1
numberNandB,1
brightnessNandB,1
carpet pos,0
pc,0
Time (ms),CH1 Auto-Correlation
1.0,0.03412124142050743
2.0,0.03303391486406326
3.0,0.032034363597631454
4.0,0.03109700419008732
5.0,0.03020589053630829
6.0,0.02936633862555027
7.0,0.028572220355272293
8.0,0.027824940159916878
9.0,0.027117513120174408
10.0,0.0264586191624403
11.0,0.025858795270323753
12.0,0.025308510288596153
13.0,0.02474704571068287
14.0,0.024214422330260277
15.0,0.023690296337008476
16.0,0.0231718048453331
18.0,0.022192394360899925
20.0,0.02126394771039486
22.0,0.0204087495803833
24.0,0.019652903079986572
26.0,0.018956484273076057
28.0,0.018301885575056076
30.0,0.01765107735991478
32.0,0.01705436035990715
36.0,0.016065210103988647
40.0,0.015244188718497753
44.0,0.014638371765613556
48.0,0.014117238111793995
52.0,0.013777049258351326
56.0,0.013352836482226849
60.0,0.012957011349499226
64.0,0.012490006163716316
72.0,0.011158706620335579
80.0,0.009627962484955788
88.0,0.008420689031481743
96.0,0.007253730203956366
104.0,0.006409855093806982
112.0,0.005915069952607155
120.0,0.005565404426306486
128.0,0.00526746129617095
144.0,0.004630391951650381
160.0,0.004150318447500467
176.0,0.004508741665631533
192.0,0.004113880451768637
208.0,0.0029469316359609365
224.0,0.002805151976644993
240.0,0.0027696830220520496
256.0,0.0023184067104011774
288.0,0.0017885678680613637
320.0,0.0016699028201401234
352.0,0.002870189491659403
384.0,0.0034692692570388317
416.0,0.0029963194392621517
448.0,0.0024854096118360758
480.0,0.002377366181463003
512.0,0.0016525601968169212
576.0,0.0006806030287407339
640.0,0.002659670077264309
704.0,0.0014590817736461759
768.0,0.00030064384918659925
832.0,0.0004142496909480542
896.0,-0.0013752892846241593
960.0,-0.0028826810885220766
1024.0,-0.0014005210250616074
1152.0,-0.0015170519473031163
1280.0,-0.004167152103036642
1408.0,-0.004288430325686932
1536.0,-0.002398241776973009
1664.0,-0.00043994601583108306
1792.0,-0.0018468779744580388
1920.0,-0.002016176236793399
2048.0,-0.004914408084005117
2304.0,-0.0015555055579170585
2560.0,0.00014967902097851038
2816.0,-0.0022826651111245155
3072.0,-0.0018345247954130173
3328.0,0.0012867628829553723
3584.0,0.0022717611864209175
3840.0,0.00018405243463348597
4096.0,0.0010595705825835466
4608.0,0.0013959851348772645
5120.0,0.0018356841756030917
5632.0,-0.001288484432734549
6144.0,-0.002491733757779002
6656.0,-0.0041518257930874825
7168.0,0.0004775826237164438
7680.0,0.0013307486660778522
8192.0,0.0025857281871140003
end
