version,3.0
numOfCh,1
type,point
parent_name,ff67b_0dot4-0dot01
ch_type,1_1
kcount,1
numberNandB,1
brightnessNandB,1
carpet pos,0
pc,0
Time (ms),CH1 Auto-Correlation
1.0,0.03216139227151871
2.0,0.03104597143828869
3.0,0.030032390728592873
4.0,0.0290719885379076
5.0,0.02816111408174038
6.0,0.02730484865605831
7.0,0.026534562930464745
8.0,0.025796981528401375
9.0,0.025074666365981102
10.0,0.0244086142629385
11.0,0.023731112480163574
12.0,0.02311820536851883
13.0,0.02252042293548584
14.0,0.021917834877967834
15.0,0.021348075941205025
16.0,0.02078915759921074
18.0,0.01974489539861679
20.0,0.018827147781848907
22.0,0.01802336610853672
24.0,0.017348701134324074
26.0,0.016743294894695282
28.0,0.016143454238772392
30.0,0.015608485788106918
32.0,0.015155471861362457
36.0,0.01442896667867899
40.0,0.013810007832944393
44.0,0.013181301765143871
48.0,0.012576624751091003
52.0,0.012147871777415276
56.0,0.0118367038667202
60.0,0.011491323821246624
64.0,0.011087092570960522
72.0,0.010454047471284866
80.0,0.010057812556624413
88.0,0.009276350028812885
96.0,0.008495399728417397
104.0,0.007606212981045246
112.0,0.006951934192329645
120.0,0.006553782150149345
128.0,0.006108405534178019
144.0,0.006112073548138142
160.0,0.005436524748802185
176.0,0.005144109949469566
192.0,0.004348315764218569
208.0,0.0025844345800578594
224.0,0.0008851858437992632
240.0,0.0006929005612619221
256.0,0.00029444191022776067
288.0,0.00016503030201420188
320.0,-0.0004761565360240638
352.0,-0.0010217829840257764
384.0,0.00039399811066687107
416.0,-0.0004901531501673162
448.0,0.0005237392615526915
480.0,0.0008083409047685564
512.0,5.237192090135068e-05
576.0,-0.0009868864435702562
640.0,0.000898415339179337
704.0,0.002562115900218487
768.0,0.002846640069037676
832.0,0.0038668850902467966
896.0,0.004426614381372929
960.0,0.0050066993571817875
1024.0,0.004131275694817305
1152.0,0.0024832305498421192
1280.0,1.1310846275591757e-05
1408.0,0.0009837019024416804
1536.0,0.0011020434321835637
1664.0,0.002201636554673314
1792.0,0.004061215091496706
1920.0,0.0006823808653280139
2048.0,-0.0029938386287540197
2304.0,-0.0034116064198315144
2560.0,-0.0013999997172504663
2816.0,-0.00017054605996236205
3072.0,-0.0030779701191931963
3328.0,-0.005151705350726843
3584.0,-0.0034583040978759527
3840.0,-0.004074855707585812
4096.0,-0.0017077358206734061
4608.0,-0.001991061959415674
5120.0,-0.0005332440487109125
5632.0,0.001201500417664647
6144.0,0.0006519856979139149
6656.0,0.0005907739396207035
7168.0,-9.180679626297206e-05
7680.0,-0.0006827304023317993
8192.0,-0.0003264913393650204
end
