version,3.0
numOfCh,1
type,point
parent_name,ff67b_0dot4-0dot01
ch_type,1_1
kcount,1
numberNandB,1
brightnessNandB,1
carpet pos,0
pc,0
Time (ms),CH1 Auto-Correlation
1.0,0.03224204480648041
2.0,0.031101221218705177
3.0,0.03000841848552227
4.0,0.028986122459173203
5.0,0.028023242950439453
6.0,0.027087030932307243
7.0,0.02618688903748989
8.0,0.025363530963659286
9.0,0.024601029232144356
10.0,0.023853540420532227
11.0,0.023162104189395905
12.0,0.022503595799207687
13.0,0.021891644224524498
14.0,0.021323828026652336
15.0,0.020753957331180573
16.0,0.020221693441271782
18.0,0.019209325313568115
20.0,0.018296215683221817
22.0,0.017451394349336624
24.0,0.016648421064019203
26.0,0.015935953706502914
28.0,0.015327337197959423
30.0,0.014723522588610649
32.0,0.014145329594612122
36.0,0.013043210841715336
40.0,0.01202430296689272
44.0,0.011106288991868496
48.0,0.010256494395434856
52.0,0.009483927860856056
56.0,0.008913916535675526
60.0,0.00848257914185524
64.0,0.008086159825325012
72.0,0.007309512700885534
80.0,0.006589144002646208
88.0,0.0059386566281318665
96.0,0.0059421551413834095
104.0,0.006127930711954832
112.0,0.005907547194510698
120.0,0.005742805544286966
128.0,0.005458236206322908
144.0,0.004823905881494284
160.0,0.004869272466748953
176.0,0.004091538954526186
192.0,0.0032051741145551205
208.0,0.0028059573378413916
224.0,0.002425336977466941
240.0,0.0020927637815475464
256.0,0.0011943918652832508
288.0,0.0017483734991401434
320.0,0.0025514469016343355
352.0,0.0025328455958515406
384.0,0.002158418530598283
416.0,0.0008744611986912787
448.0,0.000169423408806324
480.0,0.0009007793851196766
512.0,0.000920577091164887
576.0,0.0011698482558131218
640.0,0.0016322227893397212
704.0,0.0009693801985122263
768.0,0.0004128731379751116
832.0,0.0011719216126948595
896.0,-0.00012659553613048047
960.0,-0.00041397972381673753
1024.0,-0.0005201800959184766
1152.0,0.0004946037661284208
1280.0,-0.0011329037370160222
1408.0,-0.0017894431948661804
1536.0,-0.0010319649009034038
1664.0,0.0006182909128256142
1792.0,0.0012788042658939958
1920.0,-0.0004676620592363179
2048.0,-0.0018375107320025563
2304.0,-0.0016934132436290383
2560.0,-0.0017164727905765176
2816.0,-0.002703288570046425
3072.0,0.0005812316085211933
3328.0,0.0008031070465222001
3584.0,0.0006601756322197616
3840.0,0.0016677231760695577
4096.0,-0.0004062850493937731
4608.0,-0.00015260247164405882
5120.0,0.001108005060814321
5632.0,-0.00033199790050275624
6144.0,0.0013184642884880304
6656.0,-0.0008505090372636914
7168.0,-0.0026167354080826044
7680.0,-0.0001916729233926162
8192.0,-0.002212539315223694
end
