version,3.0
numOfCh,1
type,point
parent_name,ff67b_0dot4-0dot01
ch_type,1_1
kcount,1
numberNandB,1
brightnessNandB,1
carpet pos,0
pc,0
Time (ms),CH1 Auto-Correlation
1.0,0.034789666533470154
2.0,0.03366634622216225
3.0,0.03264683485031128
4.0,0.031709223985672
5.0,0.03083455003798008
6.0,0.029991643503308296
7.0,0.02921018749475479
8.0,0.02844899147748947
9.0,0.027746453881263733
10.0,0.027075815945863724
11.0,0.026424391195178032
12.0,0.02585328184068203
13.0,0.02528936229646206
14.0,0.024724528193473816
15.0,0.02416447550058365
16.0,0.023646676912903786
18.0,0.022716233506798744
20.0,0.02183443494141102
22.0,0.02107367292046547
24.0,0.02040145732462406
26.0,0.019880516454577446
28.0,0.019334597513079643
30.0,0.018774639815092087
32.0,0.01830560341477394
36.0,0.017726397141814232
40.0,0.017249586060643196
44.0,0.016823574900627136
48.0,0.016329357400536537
52.0,0.01593891531229019
56.0,0.01556569617241621
60.0,0.015316068194806576
64.0,0.015113471075892448
72.0,0.0140936728566885
80.0,0.013323360122740269
88.0,0.012705392204225063
96.0,0.011972948908805847
104.0,0.011132907122373581
112.0,0.010347101837396622
120.0,0.010037258267402649
128.0,0.009844736196100712
144.0,0.009575579315423965
160.0,0.00863243080675602
176.0,0.0071668848395347595
192.0,0.0069534657523036
208.0,0.007223726250231266
224.0,0.0066902064718306065
240.0,0.005808773450553417
256.0,0.0052010114304721355
288.0,0.003422290552407503
320.0,0.0022607764694839716
352.0,0.0017161580035462976
384.0,0.0015088284853845835
416.0,0.0015099180163815618
448.0,0.0027447431348264217
480.0,0.0021751418244093657
512.0,0.0012897077249363065
576.0,0.002245852956548333
640.0,0.00426463084295392
704.0,0.004850811790674925
768.0,0.0055581009946763515
832.0,0.003106019226834178
896.0,0.0019425315549597144
960.0,0.0008040549582801759
1024.0,0.00010942013614112511
1152.0,0.0038247029297053814
1280.0,0.003117506392300129
1408.0,0.002486662706360221
1536.0,0.0014166375622153282
1664.0,0.000818326196167618
1792.0,-0.00031034083804115653
1920.0,-0.0008507460588589311
2048.0,6.115542782936245e-05
2304.0,0.0029337694868445396
2560.0,0.0020778225734829903
2816.0,-0.0017239688895642757
3072.0,-0.0015592534327879548
3328.0,-0.004079319071024656
3584.0,-0.004163977690041065
3840.0,-0.00034815320395864546
4096.0,-0.004173230845481157
4608.0,-0.007997537963092327
5120.0,-0.005933837499469519
5632.0,-0.003924135584384203
6144.0,0.0009696194319985807
6656.0,-0.004212976433336735
7168.0,-0.003360745031386614
7680.0,-0.004633944481611252
8192.0,0.019999735057353973
end
