version,3.0
numOfCh,1
type,point
parent_name,ff67b_0dot4-0dot01
ch_type,1_1
kcount,1
numberNandB,1
brightnessNandB,1
carpet pos,0
pc,0
Time (ms),CH1 Auto-Correlation
1.0,0.02556987665593624
2.0,0.02441738359630108
3.0,0.023312024772167206
4.0,0.022305451333522797
5.0,0.021450750529766083
6.0,0.020671328529715538
7.0,0.01995152048766613
8.0,0.019260110333561897
9.0,0.018629059195518494
10.0,0.017963416874408722
11.0,0.017305957153439522
12.0,0.01667841337621212
13.0,0.016069777309894562
14.0,0.015496551990509033
15.0,0.014947389252483845
16.0,0.014420796185731888
18.0,0.013385474681854248
20.0,0.01249372772872448
22.0,0.011659662239253521
24.0,0.010827259160578251
26.0,0.010133531875908375
28.0,0.009514706209301949
30.0,0.008986041881144047
32.0,0.008465960621833801
36.0,0.007512648589909077
40.0,0.006687225308269262
44.0,0.005899285897612572
48.0,0.0053160060197114944
52.0,0.004570728167891502
56.0,0.0036791006568819284
60.0,0.0031263299752026796
64.0,0.0026157198008149862
72.0,0.0017867948627099395
80.0,0.0013402998447418213
88.0,0.0009095038403756917
96.0,0.0010487542022019625
104.0,0.000994440051726997
112.0,0.0010851892875507474
120.0,0.0015500620938837528
128.0,0.001814367133192718
144.0,-0.00019843134214170277
160.0,-0.0024825255386531353
176.0,-0.003339282935485244
192.0,-0.0031960338819772005
208.0,-0.0032424135133624077
224.0,-0.001741899410262704
240.0,-0.0008016780484467745
256.0,-0.0009423123556189239
288.0,-0.0013753148959949613
320.0,-0.0026801046915352345
352.0,-0.002116189803928137
384.0,-0.0008317407919093966
416.0,-0.0009376986417919397
448.0,-0.0011656786082312465
480.0,-0.0006192790460772812
512.0,0.0008829081198200583
576.0,0.0009877190459519625
640.0,-5.585091275861487e-05
704.0,0.0005332932341843843
768.0,0.001244893646799028
832.0,-4.261970389052294e-05
896.0,-0.0013060140190646052
960.0,-0.001607172074727714
1024.0,-0.0011379985371604562
1152.0,-0.0012367117451503873
1280.0,-0.0013757426058873534
1408.0,-0.00015636363241355866
1536.0,0.00042775055044330657
1664.0,-9.344450518256053e-05
1792.0,0.0013044679071754217
1920.0,0.0023302168119698763
2048.0,-0.0004912933218292892
2304.0,-0.00047946019913069904
2560.0,0.0012479487340897322
2816.0,-0.0018758850637823343
3072.0,-0.000645003339741379
3328.0,-0.0006563286879099905
3584.0,0.0006493968539871275
3840.0,0.0006606689421460032
4096.0,-0.00012141223851358518
end
