version,3.0
numOfCh,1
type,point
parent_name,ff67b_0dot4-0dot01
ch_type,1_1
kcount,1
numberNandB,1
brightnessNandB,1
carpet pos,0
pc,0
Time (ms),CH1 Auto-Correlation
1.0,0.16698718070983887
2.0,0.16505980491638184
3.0,0.16314910352230072
4.0,0.16147728264331818
5.0,0.15987707674503326
6.0,0.15837273001670837
7.0,0.15693135559558868
8.0,0.15563072264194489
9.0,0.15439362823963165
10.0,0.15325291454792023
11.0,0.15210939943790436
12.0,0.15085719525814056
13.0,0.14965814352035522
14.0,0.1484854519367218
15.0,0.14737017452716827
16.0,0.14633731544017792
18.0,0.143137589097023
20.0,0.1409093141555786
22.0,0.13884566724300385
24.0,0.13683103024959564
26.0,0.13463500142097473
28.0,0.13240446150302887
30.0,0.13004691898822784
32.0,0.12779371440410614
36.0,0.12304946035146713
40.0,0.11839207261800766
44.0,0.11406145989894867
48.0,0.11039706319570541
52.0,0.10694960504770279
56.0,0.10292740911245346
60.0,0.09875550121068954
64.0,0.09482418745756149
72.0,0.08608922362327576
80.0,0.077268585562706
88.0,0.06902531534433365
96.0,0.06160872057080269
104.0,0.05352460965514183
112.0,0.04461235553026199
120.0,0.0362938791513443
128.0,0.029371162876486778
144.0,0.014156214892864227
160.0,0.011371486820280552
176.0,0.008596694096922874
192.0,0.006444159429520369
208.0,0.005094461143016815
224.0,0.0043008094653487206
240.0,0.005262874066829681
256.0,0.004831274040043354
288.0,0.0030158862937241793
320.0,0.004423202481120825
352.0,0.003441030392423272
384.0,0.004005658905953169
416.0,0.0020137678366154432
448.0,0.0012796915834769607
480.0,0.002281227381899953
512.0,-0.0003006212937179953
576.0,-0.0014998514670878649
640.0,0.0018076765118166804
704.0,0.0044049485586583614
768.0,0.006551831960678101
832.0,-0.001337807858362794
896.0,-0.009449322707951069
960.0,-0.009515853598713875
1024.0,-0.0007144539849832654
1152.0,-0.0013132994063198566
1280.0,-0.015408885665237904
1408.0,-0.004087727051228285
1536.0,-0.0046242703683674335
1664.0,-0.0014305229997262359
1792.0,0.012255010195076466
1920.0,0.007627151440829039
2048.0,-0.005399615503847599
2304.0,-0.0022640926763415337
2560.0,0.0010385825298726559
2816.0,0.002217591507360339
3072.0,0.0002836765197571367
3328.0,-0.0010580441448837519
3584.0,0.002410558983683586
3840.0,0.004086569417268038
4096.0,0.0014031095197424293
4608.0,0.004150743130594492
5120.0,0.0003924630582332611
5632.0,0.007054138462990522
6144.0,0.007721540983766317
6656.0,-0.0011086006416007876
7168.0,-0.0001614344510016963
7680.0,0.006743418052792549
8192.0,-0.005399541929364204
end
