version,3.0
numOfCh,1
type,point
parent_name,ff67b_0dot4-0dot01
ch_type,1_1
kcount,1
numberNandB,1
brightnessNandB,1
carpet pos,0
pc,0
Time (ms),CH1 Auto-Correlation
1.0,0.037596337497234344
2.0,0.03645480051636696
3.0,0.03537977114319801
4.0,0.034361038357019424
5.0,0.03345227986574173
6.0,0.03256341069936752
7.0,0.03172137588262558
8.0,0.03092470020055771
9.0,0.030167140066623688
10.0,0.02943536825478077
11.0,0.028751222416758537
12.0,0.028108110651373863
13.0,0.02748994529247284
14.0,0.026872262358665466
15.0,0.02627345360815525
16.0,0.025706948712468147
18.0,0.02461625449359417
20.0,0.02365192212164402
22.0,0.022838983684778214
24.0,0.022108513861894608
26.0,0.02144816517829895
28.0,0.020858705043792725
30.0,0.02026721090078354
32.0,0.019710268825292587
36.0,0.018663538619875908
40.0,0.017707448452711105
44.0,0.01661909557878971
48.0,0.01558007299900055
52.0,0.01462769415229559
56.0,0.013827520422637463
60.0,0.013009940274059772
64.0,0.012160130776464939
72.0,0.010533723048865795
80.0,0.009638755582273006
88.0,0.009350969456136227
96.0,0.009129375219345093
104.0,0.008791455067694187
112.0,0.008356936275959015
120.0,0.007672646548599005
128.0,0.00710263941437006
144.0,0.006824164651334286
160.0,0.005768551956862211
176.0,0.00470518646761775
192.0,0.004559806548058987
208.0,0.004629548639059067
224.0,0.004346191883087158
240.0,0.00423901341855526
256.0,0.004488923121243715
288.0,0.003265370847657323
320.0,0.00269051780924201
352.0,0.001473462674766779
384.0,-1.4080153960094322e-05
416.0,-0.000997255789116025
448.0,-0.0014503397978842258
480.0,-0.0004361821338534355
512.0,0.00033568814978934824
576.0,-0.0007094288594089448
640.0,-0.0022255047224462032
704.0,-0.002973171416670084
768.0,-0.0027558917645365
832.0,-0.0005365774850361049
896.0,0.0004209197941236198
960.0,-0.00035437929909676313
1024.0,-0.0012298498768359423
1152.0,-0.00047479162458330393
1280.0,0.0003494542033877224
1408.0,-0.0010294694220647216
1536.0,-0.00235351943410933
1664.0,0.0010592244798317552
1792.0,0.0046918741427361965
1920.0,0.0031143713276833296
2048.0,0.000862224493175745
2304.0,0.0014179990394040942
2560.0,0.0007677407120354474
2816.0,-0.0006330306059680879
3072.0,-0.0006980662583373487
3328.0,-0.00045941356802359223
3584.0,0.00036514856037683785
3840.0,0.002538550877943635
4096.0,-0.0010124272666871548
4608.0,0.0012961365282535553
5120.0,0.0030487021431326866
5632.0,-0.0019469140097498894
6144.0,-0.0010667869355529547
6656.0,0.0011024470441043377
7168.0,-0.0007075493922457099
7680.0,-0.0011585827451199293
8192.0,0.0009928252547979355
9216.0,0.0008904748247005045
10240.0,-0.005174150224775076
11264.0,0.001393557176925242
12288.0,-0.005118004512041807
13312.0,0.0020807830151170492
14336.0,-0.010608838871121407
end
