version,3.0
numOfCh,1
type,point
parent_name,ff67b_0dot4-0dot01
ch_type,1_1
kcount,1
numberNandB,1
brightnessNandB,1
carpet pos,0
pc,0
Time (ms),CH1 Auto-Correlation
1.0,0.04219059273600578
2.0,0.041093576699495316
3.0,0.040019940584897995
4.0,0.03896595537662506
5.0,0.0379912368953228
6.0,0.03705110773444176
7.0,0.03617362678050995
8.0,0.035326533019542694
9.0,0.03451176732778549
10.0,0.03373812139034271
11.0,0.03304273635149002
12.0,0.03239821270108223
13.0,0.03180494159460068
14.0,0.03124144673347473
15.0,0.03070700354874134
16.0,0.03019651211798191
18.0,0.029225338250398636
20.0,0.028314031660556793
22.0,0.027397412806749344
24.0,0.026478350162506104
26.0,0.02558201737701893
28.0,0.024735689163208008
30.0,0.023953694850206375
32.0,0.02320728451013565
36.0,0.022006291896104813
40.0,0.0211715679615736
44.0,0.0203402042388916
48.0,0.0195472352206707
52.0,0.01895105466246605
56.0,0.018465334549546242
60.0,0.017914576455950737
64.0,0.01749809831380844
72.0,0.016613084822893143
80.0,0.01562817022204399
88.0,0.013994874432682991
96.0,0.012533462606370449
104.0,0.011406251229345798
112.0,0.010225810110569
120.0,0.009571850299835205
128.0,0.009066145867109299
144.0,0.007651547435671091
160.0,0.006634803023189306
176.0,0.005578610114753246
192.0,0.005409593228250742
208.0,0.005883623845875263
224.0,0.00603258702903986
240.0,0.006193298380821943
256.0,0.005973472259938717
288.0,0.005680136848241091
320.0,0.005970697849988937
352.0,0.005523299798369408
384.0,0.0047365096397697926
416.0,0.0037969506811350584
448.0,0.0020444355905056
480.0,-0.0010186994913965464
512.0,-0.002754457760602236
576.0,-0.0028497963212430477
640.0,-0.0008521031704731286
704.0,-0.00024095247499644756
768.0,-0.0002289910044055432
832.0,-0.001214722404256463
896.0,-0.0018980930326506495
960.0,0.0004431747947819531
1024.0,0.003692236030474305
1152.0,0.0007766896742396057
1280.0,0.0002317932085134089
1408.0,0.0008023551781661808
1536.0,-0.001376294414512813
1664.0,-0.0011965716257691383
1792.0,0.0036973583046346903
1920.0,0.005117729771882296
2048.0,0.004996451083570719
2304.0,0.00801792461425066
2560.0,9.51550027821213e-05
2816.0,-0.0009968348313122988
3072.0,-0.0017894728807732463
3328.0,-0.0004253292572684586
3584.0,-0.007001414429396391
3840.0,-0.004450205713510513
4096.0,0.001702413079328835
4608.0,-0.000633974268566817
5120.0,-0.005721225868910551
5632.0,-0.0045402743853628635
6144.0,-0.004565093200653791
6656.0,-0.008731513284146786
7168.0,-0.002435831120237708
7680.0,-0.00476338854059577
8192.0,-0.0070751141756772995
end
