version,3.0
numOfCh,1
type,point
parent_name,ff67b_0dot4-0dot01
ch_type,1_1
kcount,1
numberNandB,1
brightnessNandB,1
carpet pos,0
pc,0
Time (ms),CH1 Auto-Correlation
1.0,0.03395313024520874
2.0,0.03279566392302513
3.0,0.03171126917004585
4.0,0.03070821985602379
5.0,0.029737617820501328
6.0,0.028842192143201828
7.0,0.027988376095891
8.0,0.02717890590429306
9.0,0.026422809809446335
10.0,0.025699125602841377
11.0,0.025012509897351265
12.0,0.024347245693206787
13.0,0.023704877123236656
14.0,0.023081906139850616
15.0,0.02249564416706562
16.0,0.021940916776657104
18.0,0.02094518020749092
20.0,0.0200231671333313
22.0,0.019173545762896538
24.0,0.018397247418761253
26.0,0.017626667395234108
28.0,0.016934728249907494
30.0,0.016266101971268654
32.0,0.015549161471426487
36.0,0.014253010042011738
40.0,0.013121775351464748
44.0,0.011997416615486145
48.0,0.010812504217028618
52.0,0.009717989712953568
56.0,0.00874006375670433
60.0,0.007788688410073519
64.0,0.007136896718293428
72.0,0.005882743280380964
80.0,0.004670262802392244
88.0,0.003725043497979641
96.0,0.0030228421092033386
104.0,0.002578136045485735
112.0,0.0024303810205310583
120.0,0.002056433819234371
128.0,0.0014740403275936842
144.0,0.0012752246111631393
160.0,0.002049204893410206
176.0,0.003019836964085698
192.0,0.0029213055968284607
208.0,0.0026035457849502563
224.0,0.00208077859133482
240.0,0.0013316107215359807
256.0,0.0012627124087885022
288.0,0.0013633358757942915
320.0,0.0007895645103417337
352.0,-0.0003731961187440902
384.0,-0.0007070231367833912
416.0,-5.5498236179118976e-05
448.0,0.0007194644422270358
480.0,0.0003350673068780452
512.0,0.0009216373437084258
576.0,0.0007854779250919819
640.0,-0.0003549429529812187
704.0,0.0006274863844737411
768.0,-0.0007035906310193241
832.0,-0.0011102930875495076
896.0,-0.0012589519610628486
960.0,-0.0010430817492306232
1024.0,0.0007951357983984053
1152.0,-0.0013720437418669462
1280.0,-0.0015658109914511442
1408.0,0.0012057601707056165
1536.0,-0.0011721421033143997
1664.0,-0.0008032569894567132
1792.0,-0.0028548541013151407
1920.0,-0.0018016688991338015
2048.0,0.0005766514805145562
2304.0,0.0006339503452181816
2560.0,-0.001942283590324223
2816.0,-0.002109192544594407
3072.0,-0.0012661645887419581
3328.0,-0.00015826326853130013
3584.0,0.0015679842326790094
3840.0,0.0016899307956919074
4096.0,-5.34871214767918e-05
4608.0,0.0006351653719320893
5120.0,-0.0007723142043687403
5632.0,-0.002118257340043783
6144.0,-0.0007053485023789108
6656.0,-1.6190762835321948e-05
7168.0,0.0007682511350139976
7680.0,0.0029199926648288965
8192.0,0.0016090841963887215
end
