version,3.0
numOfCh,1
type,point
parent_name,ff67b_0dot4-0dot01
ch_type,1_1
kcount,1
numberNandB,1
brightnessNandB,1
carpet pos,0
pc,0
Time (ms),CH1 Auto-Correlation
1.0,0.03545065596699715
2.0,0.03436627611517906
3.0,0.03336640074849129
4.0,0.032426804304122925
5.0,0.03155370429158211
6.0,0.030714407563209534
7.0,0.029916174709796906
8.0,0.029164612293243408
9.0,0.02845926210284233
10.0,0.027789752930402756
11.0,0.027150437235832214
12.0,0.026540543884038925
13.0,0.025950424373149872
14.0,0.025367097929120064
15.0,0.024820009246468544
16.0,0.024300605058670044
18.0,0.02336699888110161
20.0,0.022500988095998764
22.0,0.021633723750710487
24.0,0.020728550851345062
26.0,0.019889911636710167
28.0,0.01915840059518814
30.0,0.018487434834241867
32.0,0.01785515807569027
36.0,0.016658419743180275
40.0,0.015604990534484386
44.0,0.014760785736143589
48.0,0.01406402699649334
52.0,0.013432941399514675
56.0,0.013057591393589973
60.0,0.012857314199209213
64.0,0.012643241323530674
72.0,0.01202312670648098
80.0,0.011262251995503902
88.0,0.01020209863781929
96.0,0.009361977688968182
104.0,0.008783772587776184
112.0,0.008612629026174545
120.0,0.00867166556417942
128.0,0.008746236562728882
144.0,0.008510795421898365
160.0,0.008172878064215183
176.0,0.007785378955304623
192.0,0.007936714217066765
208.0,0.007764650043100119
224.0,0.007328835316002369
240.0,0.006799721159040928
256.0,0.00654401071369648
288.0,0.005718663800507784
320.0,0.004481611307710409
352.0,0.0054714130237698555
384.0,0.005946693941950798
416.0,0.005797987803816795
448.0,0.005636025220155716
480.0,0.005564678460359573
512.0,0.004873967729508877
576.0,0.004921816289424896
640.0,0.0036061867140233517
704.0,0.003561825957149267
768.0,0.0024047268088907003
832.0,0.002327738096937537
896.0,0.0011818547500297427
960.0,0.0004238311666995287
1024.0,0.0007680182461626828
1152.0,0.0023051768075674772
1280.0,0.0032903989776968956
1408.0,0.0006719101802445948
1536.0,-0.0008158744312822819
1664.0,0.0023537850938737392
1792.0,0.002555494662374258
1920.0,0.001573862275108695
2048.0,0.0012886670883744955
2304.0,0.00027158108423464
2560.0,-0.0002761810028459877
2816.0,-0.0010154935298487544
3072.0,0.002209912519901991
3328.0,0.0019321813015267253
3584.0,0.0017058892408385873
3840.0,0.002818731125444174
4096.0,0.0003441244480200112
4608.0,-0.0037152660079300404
5120.0,-0.004960821941494942
5632.0,-0.002782219322398305
6144.0,-0.0006527531077153981
6656.0,-0.003085925942286849
7168.0,-0.002977540949359536
7680.0,-0.0032726386561989784
8192.0,-0.0066360547207295895
end
