version,3.0
numOfCh,1
type,point
parent_name,ff67b_0dot4-0dot01
ch_type,1_1
kcount,1
numberNandB,1
brightnessNandB,1
carpet pos,0
pc,0
Time (ms),CH1 Auto-Correlation
1.0,0.03651341423392296
2.0,0.03532649949193001
3.0,0.034222643822431564
4.0,0.0331859327852726
5.0,0.03219034522771835
6.0,0.03128734603524208
7.0,0.03042609430849552
8.0,0.02960871532559395
9.0,0.028811022639274597
10.0,0.028070779517292976
11.0,0.027380293235182762
12.0,0.02670673280954361
13.0,0.026086125522851944
14.0,0.025497913360595703
15.0,0.02494855597615242
16.0,0.024411290884017944
18.0,0.02336842752993107
20.0,0.022396283224225044
22.0,0.02153623476624489
24.0,0.020764579996466637
26.0,0.02005772478878498
28.0,0.019427798688411713
30.0,0.018876174464821815
32.0,0.018323341384530067
36.0,0.017398318275809288
40.0,0.016628233715891838
44.0,0.015771202743053436
48.0,0.014857858419418335
52.0,0.01397707499563694
56.0,0.013240344822406769
60.0,0.012696796096861362
64.0,0.012351160869002342
72.0,0.011444438248872757
80.0,0.010961434803903103
88.0,0.010764832608401775
96.0,0.010219702497124672
104.0,0.009508869610726833
112.0,0.008788751438260078
120.0,0.008450858294963837
128.0,0.007813380099833012
144.0,0.007032017223536968
160.0,0.007193372119218111
176.0,0.007407667115330696
192.0,0.007753316778689623
208.0,0.007887442596256733
224.0,0.007408183068037033
240.0,0.006668607704341412
256.0,0.006764014717191458
288.0,0.004921542014926672
320.0,0.0031113936565816402
352.0,0.0034216013737022877
384.0,0.0031565092504024506
416.0,0.002206613542512059
448.0,0.0007423291099257767
480.0,0.0013220018008723855
512.0,0.0006782228592783213
576.0,-0.000292419659672305
640.0,-0.000946411513723433
704.0,-0.0005696875741705298
768.0,-0.0010336812119930983
832.0,4.426481245900504e-05
896.0,-0.0002189393708249554
960.0,-0.0006712686154060066
1024.0,-0.0003336879890412092
1152.0,-0.0007929762359708548
1280.0,-0.00035435109748505056
1408.0,0.002320626052096486
1536.0,0.0011584381572902203
1664.0,-0.00028697127709165215
1792.0,-0.0013058653566986322
1920.0,-0.0011077804956585169
2048.0,-0.0006591640994884074
2304.0,0.0006993497372604907
2560.0,-0.0018026184989139438
2816.0,-0.0005330288549885154
3072.0,0.00041880985372699797
3328.0,-0.001284787547774613
3584.0,-0.002809190656989813
3840.0,-0.0024373165797442198
4096.0,-0.002213967964053154
4608.0,0.0011429812293499708
5120.0,0.0007022534846328199
5632.0,0.0017967700259760022
6144.0,0.0005390357691794634
6656.0,-0.0022290244232863188
7168.0,-0.0022438527084887028
7680.0,-0.0015376033261418343
8192.0,7.477401231881231e-05
end
