version,3.0
numOfCh,1
type,point
parent_name,ff67b_0dot4-0dot01
ch_type,1_1
kcount,1
numberNandB,1
brightnessNandB,1
carpet pos,0
pc,0
Time (ms),CH1 Auto-Correlation
1.0,0.0369965098798275
2.0,0.03551496937870979
3.0,0.03416237607598305
4.0,0.03291187062859535
5.0,0.03172183036804199
6.0,0.030586378648877144
7.0,0.029436646029353142
8.0,0.028327228501439095
9.0,0.027289532124996185
10.0,0.026282669976353645
11.0,0.025285976007580757
12.0,0.024321844801306725
13.0,0.02344704233109951
14.0,0.022552669048309326
15.0,0.021690718829631805
16.0,0.02088225446641445
18.0,0.01929543912410736
20.0,0.0177420973777771
22.0,0.016506776213645935
24.0,0.015719572082161903
26.0,0.015012480318546295
28.0,0.014410421252250671
30.0,0.013828095979988575
32.0,0.013367331586778164
36.0,0.012393594719469547
40.0,0.011527092196047306
44.0,0.010833443142473698
48.0,0.01008877344429493
52.0,0.009428540244698524
56.0,0.008889864198863506
60.0,0.008409879170358181
64.0,0.007976858876645565
72.0,0.007304968312382698
80.0,0.0067905886098742485
88.0,0.0061489250510931015
96.0,0.005074654705822468
104.0,0.00414685532450676
112.0,0.003555340226739645
120.0,0.00301143666729331
128.0,0.0030684892553836107
144.0,0.003231415990740061
160.0,0.002596833510324359
176.0,0.002030268544331193
192.0,0.0015186574310064316
208.0,0.0010462024947628379
224.0,0.0016016581794247031
240.0,0.0012724590487778187
256.0,0.00022264645667746663
288.0,-0.0006790771149098873
320.0,-0.0016521743964403868
352.0,-0.001281558652408421
384.0,-0.00025279365945607424
416.0,0.0012855344684794545
448.0,0.0030155195854604244
480.0,0.0027669791597872972
512.0,0.001413982710801065
576.0,0.000623576226644218
640.0,0.001437883940525353
704.0,-0.0004033669538330287
768.0,-0.0008033998892642558
832.0,-0.00032670077052898705
896.0,-0.0002524853916838765
960.0,0.0007958405767567456
1024.0,0.0011227303184568882
1152.0,0.002459249459207058
1280.0,0.0025672854389995337
1408.0,0.0013033944414928555
1536.0,-0.0007363596232607961
1664.0,-0.0027799191884696484
1792.0,-0.0025805316399782896
1920.0,-0.0018799504032358527
2048.0,-0.001521209953352809
2304.0,-0.0022551517467945814
2560.0,0.0003849400090985
2816.0,-0.0013595478376373649
3072.0,-0.0023268877994269133
3328.0,-0.0005856975330971181
3584.0,-0.0020785934757441282
3840.0,1.5768640878377482e-05
4096.0,-0.0006333458586595953
4608.0,0.0007364556659013033
5120.0,-0.0021889307536184788
5632.0,-0.00022619255469180644
6144.0,0.00021699281933251768
6656.0,0.002441571792587638
7168.0,0.003538284683600068
7680.0,0.0014820420183241367
8192.0,0.001320337993092835
end
