version,3.0
numOfCh,1
type,point
parent_name,ff67b_0dot4-0dot01
ch_type,1_1
kcount,1
numberNandB,1
brightnessNandB,1
carpet pos,0
pc,0
Time (ms),CH1 Auto-Correlation
1.0,0.032604143023490906
2.0,0.031458333134651184
3.0,0.03037404455244541
4.0,0.029412105679512024
5.0,0.028542479500174522
6.0,0.02772059291601181
7.0,0.02692476287484169
8.0,0.026192326098680496
9.0,0.025503752753138542
10.0,0.02485845424234867
11.0,0.024241214618086815
12.0,0.023644767701625824
13.0,0.023114681243896484
14.0,0.02261992357671261
15.0,0.022114049643278122
16.0,0.02161174826323986
18.0,0.02074274607002735
20.0,0.01991446316242218
22.0,0.01909244991838932
24.0,0.018310818821191788
26.0,0.017526475712656975
28.0,0.01685246266424656
30.0,0.016339749097824097
32.0,0.015895331278443336
36.0,0.015117432922124863
40.0,0.01443521212786436
44.0,0.01379094086587429
48.0,0.013189412653446198
52.0,0.012611965648829937
56.0,0.012096429243683815
60.0,0.01169777661561966
64.0,0.011467838659882545
72.0,0.011118720285594463
80.0,0.010637224651873112
88.0,0.010510186664760113
96.0,0.010213388130068779
104.0,0.00977517943829298
112.0,0.009470074437558651
120.0,0.008667625486850739
128.0,0.007721130270510912
144.0,0.006890620104968548
160.0,0.005902271252125502
176.0,0.005620299838483334
192.0,0.005486269481480122
208.0,0.005496520083397627
224.0,0.00609243381768465
240.0,0.0060175396502017975
256.0,0.006204207427799702
288.0,0.005787064787000418
320.0,0.0050802710466086864
352.0,0.004352590534836054
384.0,0.0036435083020478487
416.0,0.003884183010086417
448.0,0.004069462884217501
480.0,0.00563029432669282
512.0,0.006348948925733566
576.0,0.004841738846153021
640.0,0.0016505616949871182
704.0,0.000670765177346766
768.0,0.00047096447087824345
832.0,0.002440735464915633
896.0,0.0006197065231390297
960.0,-0.0003838453849311918
1024.0,-0.0006614861194975674
1152.0,0.0005021583056077361
1280.0,-0.004221312701702118
1408.0,-0.004319149535149336
1536.0,-0.003605252830311656
1664.0,-0.002468739403411746
1792.0,-0.0018390659242868423
1920.0,-0.0007254455704241991
2048.0,0.0005327561520971358
2304.0,0.0012336360523477197
2560.0,0.001804387429729104
2816.0,0.006388484034687281
3072.0,-0.0010932600125670433
3328.0,-0.002062837826088071
3584.0,-0.006668716669082642
3840.0,-0.008861963637173176
4096.0,-0.011462913826107979
end
