version,3.0
numOfCh,1
type,point
parent_name,ff67b_0dot4-0dot01
ch_type,1_1
kcount,1
numberNandB,1
brightnessNandB,1
carpet pos,0
pc,0
Time (ms),CH1 Auto-Correlation
1.0,0.04564398154616356
2.0,0.044468555599451065
3.0,0.04339549317955971
4.0,0.04242332652211189
5.0,0.04152894765138626
6.0,0.04068833962082863
7.0,0.03987615182995796
8.0,0.039107829332351685
9.0,0.03838222846388817
10.0,0.0376734584569931
11.0,0.03702948987483978
12.0,0.03641785308718681
13.0,0.03584425896406174
14.0,0.03532953932881355
15.0,0.034857623279094696
16.0,0.03443755581974983
18.0,0.033735211938619614
20.0,0.03299986943602562
22.0,0.03232191503047943
24.0,0.031744956970214844
26.0,0.03113546036183834
28.0,0.030565187335014343
30.0,0.03006834350526333
32.0,0.029558289796113968
36.0,0.028454750776290894
40.0,0.02737916260957718
44.0,0.026367882266640663
48.0,0.02570929564535618
52.0,0.025173349305987358
56.0,0.0246072206646204
60.0,0.02403341233730316
64.0,0.023659272119402885
72.0,0.023007772862911224
80.0,0.022074056789278984
88.0,0.021136075258255005
96.0,0.020400917157530785
104.0,0.019858775660395622
112.0,0.01933939941227436
120.0,0.018855435773730278
128.0,0.018761014565825462
144.0,0.01880360208451748
160.0,0.018809262663125992
176.0,0.018781058490276337
192.0,0.01837664097547531
208.0,0.016994114965200424
224.0,0.015553158707916737
240.0,0.015064859762787819
256.0,0.015263747423887253
288.0,0.015089217573404312
320.0,0.013602808117866516
352.0,0.013230723328888416
384.0,0.012670324184000492
416.0,0.011877462267875671
448.0,0.01130706537514925
480.0,0.011423558928072453
512.0,0.011034553870558739
576.0,0.010777431540191174
640.0,0.009781947359442711
704.0,0.009290766902267933
768.0,0.008096465840935707
832.0,0.00613915640860796
896.0,0.007810578215867281
960.0,0.009259916841983795
1024.0,0.00854872353374958
1152.0,0.005205344874411821
1280.0,0.005482841748744249
1408.0,0.002428934210911393
1536.0,0.004641806241124868
1664.0,0.004356530960649252
1792.0,0.004233947489410639
1920.0,0.006283148657530546
2048.0,0.00543546536937356
2304.0,0.004250291269272566
2560.0,0.0038794022984802723
2816.0,0.0030082720331847668
3072.0,0.00274871033616364
3328.0,0.0011395059991627932
3584.0,0.0017702567856758833
3840.0,0.002755787456408143
4096.0,0.004040127620100975
4608.0,-0.0003051711246371269
5120.0,-0.006866792216897011
5632.0,-0.01061632763594389
6144.0,-0.008641927503049374
6656.0,-0.008737161755561829
7168.0,-0.013490322977304459
7680.0,-0.01383974775671959
8192.0,-0.016819030046463013
end
