version,3.0
numOfCh,1
type,point
parent_name,ff67b_0dot4-0dot01
ch_type,1_1
kcount,1
numberNandB,1
brightnessNandB,1
carpet pos,0
pc,0
Time (ms),CH1 Auto-Correlation
1.0,0.051456306129693985
2.0,0.04935001581907272
3.0,0.047334715723991394
4.0,0.04553035646677017
5.0,0.043851520866155624
6.0,0.04233352839946747
7.0,0.04096125811338425
8.0,0.03965200483798981
9.0,0.03841554373502731
10.0,0.03716787323355675
11.0,0.03583599254488945
12.0,0.03437628597021103
13.0,0.03304813802242279
14.0,0.031905386596918106
15.0,0.030782753601670265
16.0,0.029600920155644417
18.0,0.026998870074748993
20.0,0.024131322279572487
22.0,0.021305035799741745
24.0,0.019569607451558113
26.0,0.018789321184158325
28.0,0.017952056601643562
30.0,0.017031637951731682
32.0,0.01616722345352173
36.0,0.014824781566858292
40.0,0.013858086429536343
44.0,0.013248306699097157
48.0,0.012916329316794872
52.0,0.012608731165528297
56.0,0.012762471102178097
60.0,0.012732655741274357
64.0,0.012644407339394093
72.0,0.012131372466683388
80.0,0.01188199408352375
88.0,0.011157653294503689
96.0,0.009734578430652618
104.0,0.008183808997273445
112.0,0.0071335649117827415
120.0,0.006547614932060242
128.0,0.005405793897807598
144.0,0.0033700827043503523
160.0,0.002993267495185137
176.0,0.0028788193594664335
192.0,0.0025968055706471205
208.0,0.004351719748228788
224.0,0.005917815491557121
240.0,0.00487856287509203
256.0,0.004621204454451799
288.0,0.004914004821330309
320.0,0.004023258108645678
352.0,0.0026366848032921553
384.0,0.0007420642650686204
416.0,0.0016571520827710629
448.0,0.001511010923422873
480.0,0.001917139976285398
512.0,0.002312564058229327
576.0,0.0017728578532114625
640.0,0.0006169165135361254
704.0,-0.00336562842130661
768.0,-0.004503682721406221
832.0,-0.0014277686132118106
896.0,0.000696216186042875
960.0,-0.00010193455818807706
1024.0,0.0010505402460694313
1152.0,-0.00259341555647552
1280.0,-0.0038705901242792606
1408.0,0.0006540610338561237
1536.0,0.0020173892844468355
1664.0,0.0027963703032583
1792.0,0.001462430227547884
1920.0,0.0061978986486792564
2048.0,0.0030067111365497112
end
