version,3.0
numOfCh,1
type,point
parent_name,20-cuts
ch_type,1_1
kcount,1
numberNandB,1
brightnessNandB,1
carpet pos,0
pc,0
Time (ms),CH1 Auto-Correlation
1.0,0.027124034240841866
2.0,0.024962645024061203
3.0,0.023129921406507492
4.0,0.021559344604611397
5.0,0.020121553912758827
6.0,0.018912753090262413
7.0,0.01784614659845829
8.0,0.01683894731104374
9.0,0.01594609208405018
10.0,0.015085390768945217
11.0,0.01427930686622858
12.0,0.01356044877320528
13.0,0.012861262075603008
14.0,0.01224814634770155
15.0,0.011654574424028397
16.0,0.011070131324231625
18.0,0.010092394426465034
20.0,0.009170956909656525
22.0,0.008296660147607327
24.0,0.007526913657784462
26.0,0.006757176015526056
28.0,0.006091120652854443
30.0,0.005641359370201826
32.0,0.005190524738281965
36.0,0.0043927025981247425
40.0,0.003770655719563365
44.0,0.0033425798173993826
48.0,0.0029682577587664127
52.0,0.002359656384214759
56.0,0.0017644502222537994
60.0,0.0013026467058807611
64.0,0.0006964021013118327
72.0,0.0003173893201164901
80.0,0.0003281634417362511
88.0,0.000717031944077462
96.0,0.0008245744975283742
104.0,0.0011914267670363188
112.0,0.001063859323039651
120.0,0.0007559522637166083
128.0,0.0003825502935796976
144.0,1.6507367035956122e-05
160.0,-0.0005354085005819798
176.0,-0.0001413682766724378
192.0,0.00042072730138897896
208.0,0.00015225663082674146
224.0,0.0003763030399568379
240.0,0.0005605706246569753
256.0,1.4680016647616867e-05
288.0,-0.0009293666807934642
320.0,-0.0001041967625496909
352.0,-0.00024040686548687518
384.0,5.103567673359066e-05
416.0,0.0009136798325926065
448.0,0.0007043320219963789
480.0,0.0012086285278201103
512.0,0.0013180894311517477
576.0,-0.00026410751161165535
640.0,0.00015979298041202128
704.0,0.0010802298784255981
768.0,0.0006030733929947019
832.0,0.00038525895797647536
896.0,-0.00030206830706447363
960.0,-0.0006342200213111937
1024.0,0.0002416531933704391
1152.0,0.00026547853485681117
1280.0,0.00032059644581750035
1408.0,0.0004233492072671652
1536.0,-0.00013508983829524368
1664.0,0.0002676627482287586
1792.0,-0.00030980375595390797
1920.0,-0.0007085844408720732
2048.0,-0.0004912939039058983
2304.0,0.00014327187091112137
2560.0,-0.0005685566575266421
2816.0,0.0007181700202636421
3072.0,0.00014457727957051247
3328.0,0.0003791840863414109
3584.0,-0.00016191675968002528
3840.0,0.0006812573410570621
4096.0,0.00019218696979805827
4608.0,3.8539761590072885e-05
5120.0,-0.00030337172211147845
5632.0,-1.5238160813169088e-05
6144.0,-0.00024021643912419677
6656.0,-2.0451892851269804e-05
7168.0,0.00014283486234489828
7680.0,-0.0008445389685221016
8192.0,-0.0005941693671047688
9216.0,-0.00023777881870046258
10240.0,-0.00024757132632657886
11264.0,-8.559608249925077e-05
12288.0,-0.0004168786108493805
13312.0,0.00042554843821562827
14336.0,-0.0004268975753802806
end
