version,3.0
numOfCh,1
type,point
parent_name,20-cuts
ch_type,1_1
kcount,1
numberNandB,1
brightnessNandB,1
carpet pos,0
pc,0
Time (ms),CH1 Auto-Correlation
1.0,0.03712774068117142
2.0,0.034034792333841324
3.0,0.03128628805279732
4.0,0.028855353593826294
5.0,0.026753772050142288
6.0,0.024945247918367386
7.0,0.023306604474782944
8.0,0.02190195955336094
9.0,0.020593084394931793
10.0,0.019475560635328293
11.0,0.018410351127386093
12.0,0.017425518482923508
13.0,0.01656275987625122
14.0,0.015744052827358246
15.0,0.015045864507555962
16.0,0.014352898113429546
18.0,0.01310909353196621
20.0,0.012146576307713985
22.0,0.011232600547373295
24.0,0.010414370335638523
26.0,0.009638328105211258
28.0,0.008867830969393253
30.0,0.008260611444711685
32.0,0.007716387510299683
36.0,0.006417403928935528
40.0,0.005605611018836498
44.0,0.005215382669121027
48.0,0.004731535911560059
52.0,0.004460034426301718
56.0,0.004134998191148043
60.0,0.003572556423023343
64.0,0.003111891448497772
72.0,0.00235234247520566
80.0,0.0011888382723554969
88.0,-0.0002905704313889146
96.0,-0.0006463530007749796
104.0,0.00019685228471644223
112.0,0.0006845426978543401
120.0,0.0005024686688557267
128.0,0.00027477715048007667
144.0,-0.0008184359758161008
160.0,-0.0002941497368738055
176.0,0.0006991904228925705
192.0,0.002029144437983632
208.0,0.0025603296235203743
224.0,0.002386057283729315
240.0,0.0024730474688112736
256.0,0.002178868278861046
288.0,0.001459109946154058
320.0,0.00028587429551407695
352.0,-0.0007166274590417743
384.0,5.879433615518792e-07
416.0,-0.0005651121609844267
448.0,-3.562376514310017e-05
480.0,0.00026837224140763283
512.0,-0.00024989276425912976
576.0,-0.001709242700599134
640.0,-0.0014686634531244636
704.0,-0.0008396306657232344
768.0,0.0009482561144977808
832.0,0.0003694135812111199
896.0,-0.0018600972834974527
960.0,-0.00011495166108943522
1024.0,-9.760790817381348e-06
1152.0,8.03520597401075e-05
1280.0,-0.0005035562207922339
1408.0,0.0015977442963048816
1536.0,0.0010378619190305471
1664.0,0.0004328380455262959
1792.0,0.0001512589369667694
1920.0,-0.0011511200573295355
2048.0,-0.000575645302888006
2304.0,-0.0013213548809289932
2560.0,-9.372092608828098e-05
2816.0,0.0015003398293629289
3072.0,0.00019384401093702763
3328.0,0.0006811729399487376
3584.0,0.00045705941738560796
3840.0,-0.00044891523430123925
4096.0,-0.0006577215390279889
4608.0,0.0020962716080248356
5120.0,-0.0010198289528489113
5632.0,0.00042427421431057155
6144.0,-0.0008821032242849469
6656.0,-0.0012053734390065074
7168.0,-6.298664811765775e-05
7680.0,0.0007342210155911744
8192.0,-0.00020372554718051106
9216.0,-0.0005057422677055001
10240.0,-0.00021788659796584398
11264.0,-0.0009721372043713927
12288.0,0.0004729747015517205
13312.0,-0.0004055929312016815
14336.0,-0.0020000669173896313
end
