version,3.0
numOfCh,1
type,point
parent_name,20-cuts
ch_type,1_1
kcount,1
numberNandB,1
brightnessNandB,1
carpet pos,0
pc,0
Time (ms),CH1 Auto-Correlation
1.0,0.03922940045595169
2.0,0.03598657622933388
3.0,0.03322109952569008
4.0,0.030892914161086082
5.0,0.028893494978547096
6.0,0.027236158028244972
7.0,0.02571062557399273
8.0,0.02432880364358425
9.0,0.023103078827261925
10.0,0.022002875804901123
11.0,0.020960286259651184
12.0,0.020134212449193
13.0,0.019366001710295677
14.0,0.01868198812007904
15.0,0.017930684611201286
16.0,0.017265774309635162
18.0,0.015871187672019005
20.0,0.01444238517433405
22.0,0.013172321021556854
24.0,0.01196346152573824
26.0,0.01105325948446989
28.0,0.010309322737157345
30.0,0.009419083595275879
32.0,0.008720412850379944
36.0,0.007994651794433594
40.0,0.007381876464933157
44.0,0.0068552023731172085
48.0,0.006309993099421263
52.0,0.006148278713226318
56.0,0.005683334544301033
60.0,0.00472820270806551
64.0,0.004009227268397808
72.0,0.003677235683426261
80.0,0.003945131786167622
88.0,0.004103821702301502
96.0,0.004657573066651821
104.0,0.004447495564818382
112.0,0.003484040033072233
120.0,0.0029676249250769615
128.0,0.002384103601798415
144.0,0.0017659621080383658
160.0,0.0007356545538641512
176.0,7.222958083730191e-05
192.0,0.0011881383834406734
208.0,0.0035118702799081802
224.0,0.005221816245466471
240.0,0.006048752460628748
256.0,0.005733949597924948
288.0,0.0032316299621015787
320.0,0.002972480608150363
352.0,0.003075177315622568
384.0,0.0008863262482918799
416.0,0.00039269845001399517
448.0,0.0014669791562482715
480.0,0.001155029982328415
512.0,0.000848547148052603
576.0,-0.0009889838984236121
640.0,-0.0014450117014348507
704.0,0.00019497597531881183
768.0,0.0004581495304591954
832.0,-0.000505339412484318
896.0,-0.0022995888721197844
960.0,-6.892671808600426e-05
1024.0,-0.0005827530403621495
1152.0,-0.0015722624957561493
1280.0,-0.0004612448683474213
1408.0,-0.0011060659307986498
1536.0,0.0010254066437482834
1664.0,-0.0006631516735069454
1792.0,0.0007496624020859599
1920.0,-9.25171552808024e-05
2048.0,0.00015838690160308033
2304.0,0.0003559729957487434
2560.0,-0.00024917570408433676
2816.0,-0.00041348941158503294
3072.0,-0.0008399487123824656
3328.0,0.0007406718214042485
3584.0,0.00044809794053435326
3840.0,-0.00021040148567408323
4096.0,-0.0014635588740929961
4608.0,-0.0006915888516232371
5120.0,-0.0004400236648507416
5632.0,-0.0005925279692746699
6144.0,0.0009908184874802828
6656.0,-0.000125614256830886
7168.0,-0.0010168786393478513
7680.0,-0.00014405813999474049
8192.0,0.0005425266572274268
9216.0,-0.00033368359436281025
10240.0,-0.0002778618363663554
11264.0,0.0011880847159773111
12288.0,0.0020776414312422276
13312.0,0.0005196761339902878
14336.0,-0.002403942169621587
end
