version,3.0
numOfCh,1
type,point
parent_name,20-cuts
ch_type,1_1
kcount,1
numberNandB,1
brightnessNandB,1
carpet pos,0
pc,0
Time (ms),CH1 Auto-Correlation
1.0,0.043240986764431
2.0,0.03998876363039017
3.0,0.03728492185473442
4.0,0.03493305668234825
5.0,0.03290616348385811
6.0,0.030963877215981483
7.0,0.029097476974129677
8.0,0.0275106281042099
9.0,0.025988897308707237
10.0,0.02473839744925499
11.0,0.02354193478822708
12.0,0.022404804825782776
13.0,0.02134138159453869
14.0,0.0203250739723444
15.0,0.01937764510512352
16.0,0.018502989783883095
18.0,0.017192771658301353
20.0,0.01595541276037693
22.0,0.014809265732765198
24.0,0.013963393867015839
26.0,0.013422364369034767
28.0,0.012851647101342678
30.0,0.012367392890155315
32.0,0.011840478517115116
36.0,0.01081311795860529
40.0,0.010141387581825256
44.0,0.009172885678708553
48.0,0.008373623713850975
52.0,0.0077266390435397625
56.0,0.007454583887010813
60.0,0.0072397273033857346
64.0,0.007029032800346613
72.0,0.006495419889688492
80.0,0.004787502344697714
88.0,0.004174613859504461
96.0,0.003251793561503291
104.0,0.002824686234816909
112.0,0.0025618840008974075
120.0,0.0025773285888135433
128.0,0.002295401878654957
144.0,0.0011400602525100112
160.0,2.3793783839209937e-05
176.0,-8.01991336629726e-05
192.0,-0.0010550073347985744
208.0,-0.0010792334796860814
224.0,-0.0015025350730866194
240.0,-0.0028214610647410154
256.0,-0.0018752658506855369
288.0,-0.001477273995988071
320.0,-0.001594244153238833
352.0,-0.001256219926290214
384.0,0.0004933155723847449
416.0,-0.00013719193520955741
448.0,-0.0013457891764119267
480.0,-0.00028438164736144245
512.0,9.77373474597698e-06
576.0,-0.0004091445298399776
640.0,-0.00032508629374206066
704.0,0.0012724321568384767
768.0,0.001201641047373414
832.0,0.0011353804729878902
896.0,-9.917120769387111e-05
960.0,-2.3640994584184227e-07
1024.0,-0.0002463535638526082
1152.0,-0.001232390757650137
1280.0,-0.0010756328701972961
1408.0,-0.0003374763182364404
1536.0,0.0018856327515095472
1664.0,0.001125017530284822
1792.0,-0.00014613577513955534
1920.0,0.0004442238132469356
2048.0,-0.0004138402873650193
2304.0,0.0005401353701017797
2560.0,-0.00032515652128495276
2816.0,-0.0005186885828152299
3072.0,0.0006487989448942244
3328.0,0.0011180663714185357
3584.0,0.0005000205710530281
3840.0,-0.00019323571177665144
4096.0,0.000934974174015224
4608.0,0.00018640069174580276
5120.0,-0.00036695628659799695
5632.0,-0.0013905959203839302
6144.0,-0.0009326066938228905
6656.0,-0.00013111090811435133
7168.0,0.00015234656166285276
7680.0,-9.59632670856081e-05
8192.0,-0.0004816576256416738
9216.0,-0.0012189429253339767
10240.0,-0.0005502485437318683
11264.0,0.0008715122239664197
12288.0,0.00038759352173656225
13312.0,-0.001309411833062768
14336.0,0.0003511288668960333
end
