version,3.0
numOfCh,1
type,point
parent_name,20-cuts
ch_type,1_1
kcount,1
numberNandB,1
brightnessNandB,1
carpet pos,0
pc,0
Time (ms),CH1 Auto-Correlation
1.0,0.04004042223095894
2.0,0.03674051910638809
3.0,0.0339517667889595
4.0,0.03143705800175667
5.0,0.02932410128414631
6.0,0.027491776272654533
7.0,0.025936447083950043
8.0,0.024554820731282234
9.0,0.02332863211631775
10.0,0.02211862802505493
11.0,0.02094324864447117
12.0,0.019825616851449013
13.0,0.018761783838272095
14.0,0.017837606370449066
15.0,0.016973605379462242
16.0,0.01617114618420601
18.0,0.014851314947009087
20.0,0.013636400923132896
22.0,0.012591766193509102
24.0,0.01172355841845274
26.0,0.010707799345254898
28.0,0.009828613139688969
30.0,0.009126733988523483
32.0,0.008561760187149048
36.0,0.007779136765748262
40.0,0.0072893849574029446
44.0,0.0067829047329723835
48.0,0.006233804393559694
52.0,0.006009150296449661
56.0,0.005773675628006458
60.0,0.00534710381180048
64.0,0.00479097431525588
72.0,0.0038590137846767902
80.0,0.0032770405523478985
88.0,0.00268394872546196
96.0,0.002364108804613352
104.0,0.0020705091301351786
112.0,0.0008106785826385021
120.0,0.0004591170290950686
128.0,0.00022123110829852521
144.0,-0.00024277066404465586
160.0,-0.0009260429651476443
176.0,-0.001133630401454866
192.0,-0.0006014911341480911
208.0,-0.0006745867431163788
224.0,-0.0009067101636901498
240.0,-0.0005357230547815561
256.0,-0.001272252993658185
288.0,-0.0023934124037623405
320.0,-0.00017933336494024843
352.0,-0.0009015357354655862
384.0,-0.0005604029865935445
416.0,-0.0005434986669570208
448.0,0.0004861632769461721
480.0,0.0012930614175274968
512.0,-0.0007239452097564936
576.0,0.00013588514411821961
640.0,3.5024656881432747e-06
704.0,-0.0011012502945959568
768.0,-0.0003817681863438338
832.0,0.00025011980324052274
896.0,-0.001163431559689343
960.0,-0.0005415609921328723
1024.0,0.0016680631088092923
1152.0,0.0005439522792585194
1280.0,-0.0008918416569940746
1408.0,-0.0029819090850651264
1536.0,-0.001166082569397986
1664.0,0.0007184084970504045
1792.0,-0.0010998938232660294
1920.0,-0.000903087726328522
2048.0,-0.0002002592955250293
2304.0,-0.00018682971131056547
2560.0,0.0011275399010628462
2816.0,0.0011169362114742398
3072.0,-0.0009541606996208429
3328.0,0.0003269428270868957
3584.0,0.0010642127599567175
3840.0,-0.002349015325307846
4096.0,-0.0014374390011653304
4608.0,0.00010392165859229863
5120.0,0.0007919120835140347
5632.0,-8.871695172274485e-05
6144.0,0.00041966509888879955
6656.0,-0.0010962079977616668
7168.0,0.00047371204709634185
7680.0,-0.00013334622781258076
8192.0,0.0009231268777512014
9216.0,-0.0004425975203048438
10240.0,-0.00016760318248998374
11264.0,-0.00028890991234220564
12288.0,0.00023812564904801548
13312.0,0.0009072833345271647
14336.0,-0.0008718198514543474
end
