version,3.0
numOfCh,1
type,point
parent_name,20-cuts
ch_type,1_1
kcount,1
numberNandB,1
brightnessNandB,1
carpet pos,0
pc,0
Time (ms),CH1 Auto-Correlation
1.0,0.09253319352865219
2.0,0.08577679842710495
3.0,0.07990626990795135
4.0,0.07479897141456604
5.0,0.07034658640623093
6.0,0.06653373688459396
7.0,0.06308948993682861
8.0,0.059954702854156494
9.0,0.057030826807022095
10.0,0.05447472631931305
11.0,0.05232543125748634
12.0,0.05008630454540253
13.0,0.0479552187025547
14.0,0.04600078985095024
15.0,0.04416651278734207
16.0,0.042623523622751236
18.0,0.039927393198013306
20.0,0.0373588502407074
22.0,0.03499963879585266
24.0,0.03279726952314377
26.0,0.030309012159705162
28.0,0.028029009699821472
30.0,0.026020832359790802
32.0,0.024568473920226097
36.0,0.02122252993285656
40.0,0.01878911443054676
44.0,0.017792101949453354
48.0,0.016939396038651466
52.0,0.016198555007576942
56.0,0.015198421664536
60.0,0.013021948747336864
64.0,0.012158242985606194
72.0,0.012533352710306644
80.0,0.01120434608310461
88.0,0.008604678325355053
96.0,0.006183328106999397
104.0,0.004160434938967228
112.0,0.003576761344447732
120.0,0.004808756988495588
128.0,0.008050506003201008
144.0,0.00924665667116642
160.0,0.006021563429385424
176.0,0.004504855256527662
192.0,0.005349970888346434
208.0,0.006505848839879036
224.0,0.005306882318109274
240.0,0.0025312139187008142
256.0,-0.0017454277258366346
288.0,-0.00243628048337996
320.0,-0.00022699050896335393
352.0,0.0024651112034916878
384.0,0.0025945883244276047
416.0,0.0008616889244876802
448.0,-0.00013589263835456222
480.0,-0.0013505644164979458
512.0,-0.0014446276472881436
576.0,-0.0013270199997350574
640.0,-0.0010064519010484219
704.0,0.0020674497354775667
768.0,0.0028486268129199743
832.0,0.003789701731875539
896.0,-0.0006260505178943276
960.0,-0.0009013638482429087
1024.0,-0.004922731313854456
1152.0,-0.00106248224619776
1280.0,9.385638986714184e-05
1408.0,-0.003683127462863922
1536.0,0.001222330378368497
1664.0,-0.001025704899802804
1792.0,-0.004689405672252178
1920.0,-0.002504476113244891
2048.0,-0.0005980485584586859
2304.0,-0.0006793636130169034
2560.0,-0.00028275480144657195
2816.0,-0.00011619707220233977
3072.0,-0.001087098615244031
3328.0,0.002355390228331089
3584.0,-0.00415464024990797
3840.0,-0.0029345492366701365
4096.0,0.0009941296884790063
4608.0,0.00045014850911684334
5120.0,0.00015429159975610673
5632.0,-0.0019231815822422504
6144.0,-0.0018847021274268627
6656.0,-0.0009098310838453472
7168.0,0.0002801681694108993
7680.0,0.0016343173338100314
8192.0,0.0014988110633566976
9216.0,0.000469281745608896
10240.0,0.004310561344027519
11264.0,0.001162896049208939
12288.0,-0.002302898094058037
13312.0,-0.001545837614685297
14336.0,-0.0028062257915735245
end
