version,3.0
numOfCh,1
type,point
parent_name,20-cuts
ch_type,1_1
kcount,1
numberNandB,1
brightnessNandB,1
carpet pos,0
pc,0
Time (ms),CH1 Auto-Correlation
1.0,0.044432271271944046
2.0,0.04123154655098915
3.0,0.0385015532374382
4.0,0.036226868629455566
5.0,0.034181952476501465
6.0,0.0323600210249424
7.0,0.030669676139950752
8.0,0.029227443039417267
9.0,0.027974694967269897
10.0,0.02681863121688366
11.0,0.025686221197247505
12.0,0.024579161778092384
13.0,0.023557603359222412
14.0,0.02263929322361946
15.0,0.021727602928876877
16.0,0.020863844081759453
18.0,0.019249774515628815
20.0,0.017866458743810654
22.0,0.016807936131954193
24.0,0.015947239473462105
26.0,0.015051929280161858
28.0,0.014085599221289158
30.0,0.013344456441700459
32.0,0.01272632833570242
36.0,0.011802028864622116
40.0,0.010961980558931828
44.0,0.009932032786309719
48.0,0.008723754435777664
52.0,0.007175437640398741
56.0,0.006022504530847073
60.0,0.005325817968696356
64.0,0.004553759004920721
72.0,0.003289194079115987
80.0,0.0032547356095165014
88.0,0.0031767045147717
96.0,0.003072763327509165
104.0,0.0017156337853521109
112.0,0.0007411088445223868
120.0,0.0004954925389029086
128.0,7.578048098366708e-05
144.0,6.211920117493719e-05
160.0,0.0008668799418956041
176.0,0.0011136832181364298
192.0,0.0007605830323882401
208.0,0.00025092187570407987
224.0,7.687102333875373e-05
240.0,0.001129376469179988
256.0,0.0014885741984471679
288.0,0.0012446473119780421
320.0,0.00025805801851674914
352.0,0.00023422177764587104
384.0,-0.0010439724428579211
416.0,-0.00031445600325241685
448.0,0.0014202767051756382
480.0,0.0016016701702028513
512.0,0.00048587852506898344
576.0,0.001166085246950388
640.0,0.00014776068564970046
704.0,-0.0007160815875977278
768.0,0.00181358412373811
832.0,0.001762645784765482
896.0,0.0003266565327066928
960.0,-0.0006459452561102808
1024.0,-0.0018875716486945748
1152.0,-0.0011130162747576833
1280.0,-0.0022422338370233774
1408.0,0.001593194785527885
1536.0,0.0006945757777430117
1664.0,-0.0005746835959143937
1792.0,-0.0005880811950191855
1920.0,0.0009552494739182293
2048.0,-4.5816707938683976e-07
2304.0,0.0007280866266228259
2560.0,-0.0014979507541283965
2816.0,0.000994836213067174
3072.0,-0.0014620862202718854
3328.0,1.537048774480354e-05
3584.0,0.0005283972714096308
3840.0,0.0011892106849700212
4096.0,-0.0012074167607352138
4608.0,9.249326467397623e-06
5120.0,-3.6260033084545285e-05
5632.0,-0.0023197070695459843
6144.0,-0.0008373298915103078
6656.0,-0.0016867402009665966
7168.0,0.00046967080561444163
7680.0,0.00017069235036615282
8192.0,-0.0006596571765840054
9216.0,-0.0005376324988901615
10240.0,0.0007521049119532108
11264.0,-0.0005112352664582431
12288.0,0.00075770344119519
13312.0,0.0013052725698798895
14336.0,-0.0012002362636849284
end
