version,3.0
numOfCh,1
type,point
parent_name,20-cuts
ch_type,1_1
kcount,1
numberNandB,1
brightnessNandB,1
carpet pos,0
pc,0
Time (ms),CH1 Auto-Correlation
1.0,0.04046580567955971
2.0,0.03718996047973633
3.0,0.03436427190899849
4.0,0.031872913241386414
5.0,0.02962515875697136
6.0,0.027632098644971848
7.0,0.025824300944805145
8.0,0.02415671944618225
9.0,0.02262556366622448
10.0,0.021208614110946655
11.0,0.020024742931127548
12.0,0.01890582963824272
13.0,0.01789332553744316
14.0,0.016980459913611412
15.0,0.016116607934236526
16.0,0.01538630947470665
18.0,0.013985458761453629
20.0,0.01284761168062687
22.0,0.011984365060925484
24.0,0.011273202486336231
26.0,0.010659841820597649
28.0,0.010191958397626877
30.0,0.009702842682600021
32.0,0.009157851338386536
36.0,0.007947028614580631
40.0,0.006869715638458729
44.0,0.006008544936776161
48.0,0.005467828828841448
52.0,0.005010342691093683
56.0,0.004731600172817707
60.0,0.004200300667434931
64.0,0.004207680467516184
72.0,0.004436906892806292
80.0,0.0041371299885213375
88.0,0.0037417076528072357
96.0,0.0035119187086820602
104.0,0.004066761117428541
112.0,0.003787347348406911
120.0,0.0030452196951955557
128.0,0.002480332739651203
144.0,0.001966156531125307
160.0,0.00266626151278615
176.0,0.0031483806669712067
192.0,0.0034969383850693703
208.0,0.002557391067966819
224.0,0.0029705988708883524
240.0,0.002669899258762598
256.0,0.0021700714714825153
288.0,0.0023226679768413305
320.0,0.0023151186760514975
352.0,0.00033990194788202643
384.0,0.0007374468259513378
416.0,0.00021953291434329003
448.0,-0.0009038781281560659
480.0,-0.0012615901650860906
512.0,-0.0005440443055704236
576.0,-0.0010878975735977292
640.0,-0.0007451568963006139
704.0,-0.0017545911250635982
768.0,-0.0008533059735782444
832.0,-0.0011170677607879043
896.0,-0.0011245692148804665
960.0,5.111733844387345e-05
1024.0,-0.0002471886982675642
1152.0,0.0007671841303817928
1280.0,0.002246664371341467
1408.0,0.0017766888486221433
1536.0,0.001686813193373382
1664.0,0.0023113067727535963
1792.0,0.0006084353080950677
1920.0,-0.00011006355634890497
2048.0,-6.837484397692606e-05
2304.0,-0.0010730738285928965
2560.0,-0.0008898464730009437
2816.0,5.0883514632005244e-05
3072.0,0.0003531303955242038
3328.0,-0.00021002927678637207
3584.0,-0.0014526854502037168
3840.0,-0.00020074626081623137
4096.0,-9.350024629384279e-05
4608.0,-0.0007246948662213981
5120.0,0.0004267451004125178
5632.0,-0.0004747555940411985
6144.0,-0.0007284565945155919
6656.0,1.4615452528232709e-05
7168.0,0.0001182911146315746
7680.0,-0.0024884820450097322
8192.0,0.00029110637842677534
9216.0,-0.00033203052589669824
10240.0,-0.000137670649564825
11264.0,0.001693329424597323
12288.0,-0.00027960535953752697
13312.0,-0.0017722422489896417
14336.0,-0.0011197008425369859
end
