version,3.0
numOfCh,1
type,point
parent_name,20-cuts
ch_type,1_1
kcount,1
numberNandB,1
brightnessNandB,1
carpet pos,0
pc,0
Time (ms),CH1 Auto-Correlation
1.0,0.027489496394991875
2.0,0.025366252288222313
3.0,0.023569682613015175
4.0,0.022001324221491814
5.0,0.020669665187597275
6.0,0.019504046067595482
7.0,0.018466420471668243
8.0,0.01756833679974079
9.0,0.0167560875415802
10.0,0.015932520851492882
11.0,0.015152719803154469
12.0,0.014433691278100014
13.0,0.013744373805820942
14.0,0.013191122561693192
15.0,0.012689544819295406
16.0,0.012208462692797184
18.0,0.011158266104757786
20.0,0.010187705047428608
22.0,0.009454990737140179
24.0,0.008864996954798698
26.0,0.008419325575232506
28.0,0.007798469625413418
30.0,0.007232804782688618
32.0,0.006743890233337879
36.0,0.005963165313005447
40.0,0.0055100987665355206
44.0,0.0049969786778092384
48.0,0.004550586920231581
52.0,0.004086192697286606
56.0,0.0037220066878944635
60.0,0.0033077464904636145
64.0,0.0029063469264656305
72.0,0.0023882791865617037
80.0,0.002079574391245842
88.0,0.0017677871510386467
96.0,0.0017630638321861625
104.0,0.002084185369312763
112.0,0.0023284880444407463
120.0,0.0024065200705081224
128.0,0.0016274238005280495
144.0,0.0007483289227820933
160.0,0.0007029008702374995
176.0,0.001327427220530808
192.0,0.001148286391980946
208.0,0.000707154453266412
224.0,-0.0004079689388163388
240.0,-0.00013897869212087244
256.0,0.0003981620247941464
288.0,0.0009246841073036194
320.0,0.002324894070625305
352.0,0.0012069637887179852
384.0,0.0009343504789285362
416.0,5.599149972113082e-06
448.0,0.0008736333111301064
480.0,-8.883151167538017e-06
512.0,0.0001212309070979245
576.0,-0.0016538093332201242
640.0,-0.0006250223959796131
704.0,0.00016943020455073565
768.0,-0.000160990675794892
832.0,-0.000657599070109427
896.0,-0.0007230702321976423
960.0,0.00041212228825315833
1024.0,0.0007560282247141004
1152.0,0.0007875089067965746
1280.0,-0.0004734750255011022
1408.0,0.0002406694839010015
1536.0,0.0008873434853740036
1664.0,-0.0007206675363704562
1792.0,-0.000890884140972048
1920.0,-0.0008947449387051165
2048.0,0.000338634941726923
2304.0,-6.0830541769973934e-05
2560.0,-0.0008437358192168176
2816.0,-0.000915064534638077
3072.0,-0.0013409197563305497
3328.0,-0.00028308641049079597
3584.0,0.0007031621062196791
3840.0,0.00017200522415805608
4096.0,0.00018043936870526522
4608.0,0.000688201398588717
5120.0,0.00015309240552596748
5632.0,0.0006963175255805254
6144.0,8.775161404628307e-06
6656.0,-0.0011665349593386054
7168.0,-0.001171716838143766
7680.0,0.00035958641092292964
8192.0,0.0006214893655851483
9216.0,0.0006210192805156112
10240.0,0.0004476912727113813
11264.0,-0.0012484501348808408
12288.0,-0.0012076108250766993
13312.0,-0.0006240889197215438
14336.0,0.0005725062219426036
end
