version,3.0
numOfCh,1
type,point
parent_name,20-cuts
ch_type,1_1
kcount,1
numberNandB,1
brightnessNandB,1
carpet pos,0
pc,0
Time (ms),CH1 Auto-Correlation
1.0,0.030939273536205292
2.0,0.02879982441663742
3.0,0.02693929709494114
4.0,0.025294559076428413
5.0,0.02382974699139595
6.0,0.022478967905044556
7.0,0.021239887923002243
8.0,0.02014230564236641
9.0,0.019131183624267578
10.0,0.018203474581241608
11.0,0.017329560592770576
12.0,0.016558587551116943
13.0,0.015897225588560104
14.0,0.015349696390330791
15.0,0.014837932772934437
16.0,0.014290736988186836
18.0,0.013454527594149113
20.0,0.012775102630257607
22.0,0.012081350199878216
24.0,0.011399378068745136
26.0,0.010788463987410069
28.0,0.010223262943327427
30.0,0.009752732701599598
32.0,0.00934895034879446
36.0,0.008680912666022778
40.0,0.008021504618227482
44.0,0.007351492531597614
48.0,0.0068285842426121235
52.0,0.0062481798231601715
56.0,0.005684726405888796
60.0,0.005106394179165363
64.0,0.0043451800011098385
72.0,0.0035843728110194206
80.0,0.002589443465694785
88.0,0.0019196119392290711
96.0,0.002191747073084116
104.0,0.0022907948587089777
112.0,0.0022897720336914062
120.0,0.0021725690457969904
128.0,0.0024893954396247864
144.0,0.0018006423488259315
160.0,0.0021899405401200056
176.0,0.002246830379590392
192.0,0.0024455422535538673
208.0,0.0026035895571112633
224.0,0.002077777637168765
240.0,0.0012848718324676156
256.0,0.0007197409286163747
288.0,0.000700603995937854
320.0,-5.3787869546795264e-05
352.0,-0.001178145408630371
384.0,-0.0013736104592680931
416.0,-0.0018169119721278548
448.0,-0.002143098507076502
480.0,-0.002045693574473262
512.0,-0.0015955873532220721
576.0,-0.0009917393326759338
640.0,-0.0017088514287024736
704.0,-0.0008375559118576348
768.0,0.0003743194101843983
832.0,0.000143547571497038
896.0,0.001176506862975657
960.0,0.0008966655004769564
1024.0,0.0011716948356479406
1152.0,-0.00023483778932131827
1280.0,-0.0010354405967518687
1408.0,-0.0004222626448608935
1536.0,-0.000495546730235219
1664.0,0.0002461671538185328
1792.0,-0.0018148283706977963
1920.0,-0.000487988960230723
2048.0,-0.0013091647997498512
2304.0,-0.00028971576830372214
2560.0,0.000815228617284447
2816.0,-0.00020464276894927025
3072.0,-0.0002832900790963322
3328.0,-2.9804117730236612e-05
3584.0,0.00044835335575044155
3840.0,-0.0009685785626061261
4096.0,8.956561214290559e-05
4608.0,-2.990883331221994e-05
5120.0,-0.0005511372582986951
5632.0,-0.00023802038049325347
6144.0,-0.0003833337686955929
6656.0,0.00022341734438668936
7168.0,-0.0010706420289352536
7680.0,0.0009291713358834386
8192.0,0.0007745561888441443
9216.0,7.279568671947345e-05
10240.0,-0.0007515414035879076
11264.0,0.0001410484837833792
12288.0,0.0009954544948413968
13312.0,-0.0020405836403369904
14336.0,0.0006201371434144676
end
