version,3.0
numOfCh,1
type,point
parent_name,20-cuts
ch_type,1_1
kcount,1
numberNandB,1
brightnessNandB,1
carpet pos,0
pc,0
Time (ms),CH1 Auto-Correlation
1.0,0.02945873513817787
2.0,0.027300531044602394
3.0,0.0254984088242054
4.0,0.023937979713082314
5.0,0.022593969479203224
6.0,0.0214021448045969
7.0,0.020264362916350365
8.0,0.01928083784878254
9.0,0.01843610778450966
10.0,0.017737220972776413
11.0,0.017121896147727966
12.0,0.01660251058638096
13.0,0.01610993966460228
14.0,0.015671098604798317
15.0,0.0151748051866889
16.0,0.014754174277186394
18.0,0.013968476094305515
20.0,0.013202466070652008
22.0,0.012552979402244091
24.0,0.011927817948162556
26.0,0.011363271623849869
28.0,0.010914620943367481
30.0,0.010520807467401028
32.0,0.010261507704854012
36.0,0.009918994270265102
40.0,0.009509318508207798
44.0,0.00907069444656372
48.0,0.008654084987938404
52.0,0.00810724962502718
56.0,0.007803583517670631
60.0,0.007616261951625347
64.0,0.0074341753497719765
72.0,0.0065470170229673386
80.0,0.005889813415706158
88.0,0.005571411922574043
96.0,0.005164601840078831
104.0,0.004566572140902281
112.0,0.0036399830132722855
120.0,0.00286130141466856
128.0,0.002128198277205229
144.0,0.0017136044334620237
160.0,0.001865637139417231
176.0,0.0017118422547355294
192.0,0.0015910646179690957
208.0,0.0012471610680222511
224.0,0.0007196330116130412
240.0,7.129089499358088e-05
256.0,0.00020640807633753866
288.0,-0.0007052546134218574
320.0,-0.000976548355538398
352.0,-0.000941936974413693
384.0,-0.0009664979879744351
416.0,-0.0006047606002539396
448.0,-3.2670595828676596e-05
480.0,0.0006262320675887167
512.0,0.0012174618896096945
576.0,0.0011839786311611533
640.0,-0.00016644137213006616
704.0,-0.0004784417396876961
768.0,0.0002622347674332559
832.0,-6.43566163489595e-05
896.0,-5.334909656085074e-05
960.0,0.0003253587638027966
1024.0,0.0009478092542849481
1152.0,-0.0012749716406688094
1280.0,-0.0020102406851947308
1408.0,-0.0023891625460237265
1536.0,-0.001314279856160283
1664.0,-0.0016981627559289336
1792.0,6.035630212863907e-05
1920.0,-0.0005770095740444958
2048.0,-0.0010233032517135143
2304.0,-0.0004514943575486541
2560.0,0.0023529401514679193
2816.0,0.0015824416186660528
3072.0,0.0011418287176638842
3328.0,-9.575126023264602e-05
3584.0,-0.0010340072913095355
3840.0,0.00015219952911138535
4096.0,-0.0009312234469689429
4608.0,-0.0007702301954850554
5120.0,0.0007947171689011157
5632.0,0.0020710660610347986
6144.0,-0.0002105157182086259
6656.0,-0.0013529373100027442
7168.0,-0.0011527003953233361
7680.0,7.811463729012758e-05
8192.0,0.0020949714817106724
9216.0,-0.0007511962321586907
10240.0,-0.001578583032824099
11264.0,0.00042240420589223504
12288.0,-0.0006993896677158773
13312.0,-1.7946587831829675e-05
14336.0,-9.924791083903983e-05
end
