version,3.0
numOfCh,1
type,point
parent_name,20-cuts
ch_type,1_1
kcount,1
numberNandB,1
brightnessNandB,1
carpet pos,0
pc,0
Time (ms),CH1 Auto-Correlation
1.0,0.0900115966796875
2.0,0.08301438391208649
3.0,0.07682114094495773
4.0,0.07106544077396393
5.0,0.06591597944498062
6.0,0.06137282773852348
7.0,0.05729682371020317
8.0,0.05375570431351662
9.0,0.05037768557667732
10.0,0.04721378535032272
11.0,0.044250085949897766
12.0,0.04149289429187775
13.0,0.039246514439582825
14.0,0.037304043769836426
15.0,0.03589361906051636
16.0,0.03454016521573067
18.0,0.031795136630535126
20.0,0.02960781566798687
22.0,0.027994943782687187
24.0,0.026589157059788704
26.0,0.024913383647799492
28.0,0.023162171244621277
30.0,0.021562667563557625
32.0,0.020149482414126396
36.0,0.017348235473036766
40.0,0.015527895651757717
44.0,0.014583144336938858
48.0,0.014742948114871979
52.0,0.014811192639172077
56.0,0.01479395106434822
60.0,0.014144494198262691
64.0,0.013493447564542294
72.0,0.012152418494224548
80.0,0.011368042789399624
88.0,0.011315502226352692
96.0,0.010894649662077427
104.0,0.0105065256357193
112.0,0.010096344165503979
120.0,0.009036075323820114
128.0,0.008224881254136562
144.0,0.006976966746151447
160.0,0.006939309649169445
176.0,0.006702257785946131
192.0,0.006312704645097256
208.0,0.004175396170467138
224.0,0.0036746314726769924
240.0,0.0006203118828125298
256.0,0.0003285028215032071
288.0,0.002063547493889928
320.0,0.0016546064289286733
352.0,0.0024032823275774717
384.0,0.001835652976296842
416.0,0.0016006923979148269
448.0,0.0009707385906949639
480.0,-0.0014726134249940515
512.0,-0.0019404643680900335
576.0,0.0011471958132460713
640.0,0.001956220716238022
704.0,0.00010139173537027091
768.0,0.0021814461797475815
832.0,-0.0001312540116487071
896.0,0.0016890695551410317
960.0,0.004669495392590761
1024.0,0.0055146245285868645
1152.0,0.006337970029562712
1280.0,0.0014175180112943053
1408.0,-0.0005349629209376872
1536.0,-0.003749015973880887
1664.0,-0.003817452583462
1792.0,-0.005396922584623098
1920.0,-0.004750185180455446
2048.0,-0.000606943154707551
2304.0,0.000281344837276265
2560.0,-0.0014429677976295352
2816.0,-0.0035481371451169252
3072.0,-0.0018463042797520757
3328.0,0.0005544956657104194
3584.0,-0.000949315435718745
3840.0,-0.00345448381267488
4096.0,-0.004417418967932463
4608.0,5.796168989036232e-05
5120.0,-0.00281548616476357
5632.0,0.001392196980305016
6144.0,-0.003571169450879097
6656.0,-0.0005430736928246915
7168.0,-0.0029809295665472746
7680.0,0.0006024873000569642
8192.0,-0.0010885114315897226
9216.0,0.002994740614667535
10240.0,0.0041980748064816
11264.0,-0.001405621413141489
12288.0,-0.0036057953257113695
13312.0,0.00234242738224566
14336.0,0.0011734479339793324
end
