version,3.0
numOfCh,1
type,point
parent_name,20-cuts
ch_type,1_1
kcount,1
numberNandB,1
brightnessNandB,1
carpet pos,0
pc,0
Time (ms),CH1 Auto-Correlation
1.0,0.041804537177085876
2.0,0.038559846580028534
3.0,0.03573296591639519
4.0,0.03330975025892258
5.0,0.03115980513393879
6.0,0.029183220118284225
7.0,0.027361474931240082
8.0,0.025707222521305084
9.0,0.024317843839526176
10.0,0.02313726209104061
11.0,0.022033076733350754
12.0,0.021056383848190308
13.0,0.020269040018320084
14.0,0.019487610086798668
15.0,0.018759913742542267
16.0,0.018052591010928154
18.0,0.016972163692116737
20.0,0.01591246761381626
22.0,0.014817938208580017
24.0,0.013785592280328274
26.0,0.012870551086962223
28.0,0.011930336244404316
30.0,0.011184651404619217
32.0,0.010576440021395683
36.0,0.009394983761012554
40.0,0.008341356180608273
44.0,0.007808924186974764
48.0,0.007600633893162012
52.0,0.007514546625316143
56.0,0.007249222602695227
60.0,0.006187597755342722
64.0,0.005218997597694397
72.0,0.0043346877209842205
80.0,0.003572390880435705
88.0,0.0026405269745737314
96.0,0.0018552795518189669
104.0,0.001840896555222571
112.0,0.0013433592393994331
120.0,0.0012916862033307552
128.0,0.0011598487617447972
144.0,0.0004642028361558914
160.0,0.0003620695788413286
176.0,-0.00020240273443050683
192.0,-0.0006816146778874099
208.0,-0.0008216439164243639
224.0,-0.00046994059812277555
240.0,-0.0007569975568912923
256.0,-0.001768137444742024
288.0,-0.0014190590009093285
320.0,-0.0024191502016037703
352.0,-0.0029602432623505592
384.0,-0.0018171068513765931
416.0,-0.0016890024999156594
448.0,0.00022308183542918414
480.0,0.0015688546700403094
512.0,0.003003181191161275
576.0,0.0021781239192932844
640.0,0.0015228246338665485
704.0,0.0011539501138031483
768.0,6.001066867611371e-05
832.0,-0.0014926953008398414
896.0,-0.0016385590424761176
960.0,-0.0023958547972142696
1024.0,-0.0014219459844753146
1152.0,-0.0005115789826959372
1280.0,0.0006084609194658697
1408.0,-0.00040057903970591724
1536.0,-0.003935822751373053
1664.0,0.0001613954664207995
1792.0,-0.0003234678297303617
1920.0,0.0010209826286882162
2048.0,-0.0009651624131947756
2304.0,0.0002999595017172396
2560.0,0.0011253644479438663
2816.0,-0.0005673820269294083
3072.0,0.0007699353154748678
3328.0,0.00012374762445688248
3584.0,0.00030318560311570764
3840.0,-0.0010506396647542715
4096.0,-0.0015569677343592048
4608.0,-0.00040207462734542787
5120.0,-0.0014492599293589592
5632.0,-9.456982661504298e-05
6144.0,0.001647094264626503
6656.0,0.0010242242133244872
7168.0,-0.0006881127483211458
7680.0,-0.0009330163011327386
8192.0,0.0011517979437485337
9216.0,0.0006052755634300411
10240.0,-0.00015550274110864848
11264.0,-0.0013744622701779008
12288.0,0.0006775215733796358
13312.0,0.00018817753880284727
14336.0,9.593502909410745e-05
end
