version,3.0
numOfCh,1
type,point
parent_name,20-cuts
ch_type,1_1
kcount,1
numberNandB,1
brightnessNandB,1
carpet pos,0
pc,0
Time (ms),CH1 Auto-Correlation
1.0,0.08039665222167969
2.0,0.07333053648471832
3.0,0.06730403751134872
4.0,0.06232743710279465
5.0,0.05804647505283356
6.0,0.054426174610853195
7.0,0.051078490912914276
8.0,0.047678910195827484
9.0,0.04476701468229294
10.0,0.04216916486620903
11.0,0.03987247869372368
12.0,0.03784620016813278
13.0,0.035887639969587326
14.0,0.034312088042497635
15.0,0.03285306692123413
16.0,0.0313296839594841
18.0,0.028749773278832436
20.0,0.026510052382946014
22.0,0.024680085480213165
24.0,0.02316480688750744
26.0,0.021726710721850395
28.0,0.02057841047644615
30.0,0.01984081231057644
32.0,0.018458209931850433
36.0,0.01622278057038784
40.0,0.01386219821870327
44.0,0.011982161551713943
48.0,0.011145289987325668
52.0,0.010563110001385212
56.0,0.010718864388763905
60.0,0.011275019496679306
64.0,0.011604487895965576
72.0,0.010453655384480953
80.0,0.010073707439005375
88.0,0.010916660539805889
96.0,0.010311339050531387
104.0,0.00870391633361578
112.0,0.008007142692804337
120.0,0.008230121806263924
128.0,0.007741845678538084
144.0,0.005144114140421152
160.0,0.004756408743560314
176.0,0.002432948909699917
192.0,-9.86328723229235e-06
208.0,0.0024473341181874275
224.0,0.0043359920382499695
240.0,0.004415402188897133
256.0,0.0024269679561257362
288.0,0.0017064993735402822
320.0,0.002521718153730035
352.0,0.0012473887763917446
384.0,-0.0024050488136708736
416.0,-0.002993097761645913
448.0,-0.0033493819646537304
480.0,-0.004726809449493885
512.0,-0.003829494584351778
576.0,-0.004005774389952421
640.0,-0.0003884383477270603
704.0,0.0006024087779223919
768.0,0.0004994018818251789
832.0,-0.0036854040808975697
896.0,-0.0022513007279485464
960.0,-0.0017399861244484782
1024.0,-0.0008193083922378719
1152.0,-0.0034603551030158997
1280.0,-0.004433405585587025
1408.0,-0.0019063377985730767
1536.0,0.00010328903590561822
1664.0,0.0012904948089271784
1792.0,0.0045830742456018925
1920.0,0.003378867171704769
2048.0,0.003416589926928282
2304.0,-0.001237784861586988
2560.0,-0.0008891864563338459
2816.0,-0.0011077439412474632
3072.0,-0.004330001771450043
3328.0,-0.0002767264377325773
3584.0,0.0010152921313419938
3840.0,0.0014050878817215562
4096.0,-0.0015739593654870987
4608.0,-0.0008756484021432698
5120.0,0.00042562538874335587
5632.0,0.0012131418334320188
6144.0,-0.0015126661164686084
6656.0,-0.0002764545497484505
7168.0,0.0007335448171943426
7680.0,-0.001416685408912599
8192.0,-0.0010686442255973816
9216.0,-0.0005265009240247309
10240.0,0.0021492335945367813
11264.0,0.0019185392884537578
12288.0,0.0012380412081256509
13312.0,-0.004280091263353825
14336.0,0.0026568209286779165
end
