version,3.0
numOfCh,1
type,point
parent_name,20-cuts
ch_type,1_1
kcount,1
numberNandB,1
brightnessNandB,1
carpet pos,0
pc,0
Time (ms),CH1 Auto-Correlation
1.0,0.041178178042173386
2.0,0.037884507328271866
3.0,0.03506039083003998
4.0,0.03268067166209221
5.0,0.03044964373111725
6.0,0.028412066400051117
7.0,0.026819517835974693
8.0,0.025363413617014885
9.0,0.024090023711323738
10.0,0.022869804874062538
11.0,0.021661311388015747
12.0,0.020503094419836998
13.0,0.019400767982006073
14.0,0.01841103471815586
15.0,0.017570313066244125
16.0,0.0167407039552927
18.0,0.015353481285274029
20.0,0.014234861359000206
22.0,0.01323364581912756
24.0,0.012352748773992062
26.0,0.011629427783191204
28.0,0.010989201255142689
30.0,0.010384181514382362
32.0,0.009874177165329456
36.0,0.008905214257538319
40.0,0.008075940422713757
44.0,0.007185812573879957
48.0,0.006431087851524353
52.0,0.005678932648152113
56.0,0.004888414405286312
60.0,0.004460982512682676
64.0,0.00404690857976675
72.0,0.004313427954912186
80.0,0.004296448081731796
88.0,0.004389628767967224
96.0,0.003943612799048424
104.0,0.0034369025379419327
112.0,0.002571471966803074
120.0,0.002327837748453021
128.0,0.0021370339673012495
144.0,0.0020796149037778378
160.0,0.0009236935875378549
176.0,8.916333626984851e-07
192.0,-0.000544981099665165
208.0,-0.0017367965774610639
224.0,-0.0017453276086598635
240.0,-0.0012141623301431537
256.0,-7.861742778914049e-05
288.0,-0.0008642821339890361
320.0,-0.002020660787820816
352.0,-0.001837050192989409
384.0,0.00012030544166918844
416.0,-0.0006741578108631074
448.0,0.00018051362712867558
480.0,-0.0007727260235697031
512.0,-0.0016210322501137853
576.0,-9.669848077464849e-05
640.0,0.0007847275701351464
704.0,0.0008273873827420175
768.0,0.00036326059489510953
832.0,0.00240855454467237
896.0,0.0024508796632289886
960.0,0.0007857344462536275
1024.0,0.0005921506672166288
1152.0,0.0006441366276703775
1280.0,-0.0015236721374094486
1408.0,-0.0007444322109222412
1536.0,-0.00027755103656090796
1664.0,0.00013072174624539912
1792.0,0.0004773099790327251
1920.0,0.0011846899287775159
2048.0,0.0002291560813318938
2304.0,-0.0021115781273692846
2560.0,-0.00035877578193321824
2816.0,-0.0014991062926128507
3072.0,0.000607442983891815
3328.0,0.0009915019618347287
3584.0,0.0005454447818920016
3840.0,-0.00039619015296921134
4096.0,0.00023532928025815636
4608.0,0.00026568773319013417
5120.0,0.0019853413105010986
5632.0,-0.0015025947941467166
6144.0,-0.000768730416893959
6656.0,-0.00035487973946146667
7168.0,-0.0009014940587803721
7680.0,-0.0014562923461198807
8192.0,0.001671990961767733
9216.0,-0.0006522376206703484
10240.0,-0.0008629378280602396
11264.0,-0.0023130576591938734
12288.0,-0.00031221183598972857
13312.0,0.002406687242910266
14336.0,-0.0014771433779969811
end
