version,3.0
numOfCh,1
type,point
parent_name,20-cuts
ch_type,1_1
kcount,1
numberNandB,1
brightnessNandB,1
carpet pos,0
pc,0
Time (ms),CH1 Auto-Correlation
1.0,0.02915746159851551
2.0,0.027029696851968765
3.0,0.025220628827810287
4.0,0.02365165390074253
5.0,0.022301994264125824
6.0,0.021134553477168083
7.0,0.020016225054860115
8.0,0.01910027116537094
9.0,0.018202291801571846
10.0,0.01738254353404045
11.0,0.016673395410180092
12.0,0.016016343608498573
13.0,0.015461943112313747
14.0,0.014936920255422592
15.0,0.01441288087517023
16.0,0.014013480395078659
18.0,0.013307943940162659
20.0,0.012835695408284664
22.0,0.01234721951186657
24.0,0.011732283048331738
26.0,0.011201929301023483
28.0,0.010664421133697033
30.0,0.010096152313053608
32.0,0.00959824863821268
36.0,0.008495621383190155
40.0,0.007556632626801729
44.0,0.006913886871188879
48.0,0.00639251759275794
52.0,0.00576658034697175
56.0,0.005193199031054974
60.0,0.004760480485856533
64.0,0.004424535669386387
72.0,0.00386248342692852
80.0,0.003254139795899391
88.0,0.0025192988105118275
96.0,0.00236355047672987
104.0,0.002510173013433814
112.0,0.0023399728816002607
120.0,0.0022610381711274385
128.0,0.002572443801909685
144.0,0.0017559512052685022
160.0,0.0014860786031931639
176.0,0.0006363536813296378
192.0,0.0003782327985391021
208.0,0.0009651931468397379
224.0,0.0012987070949748158
240.0,0.0015750108286738396
256.0,0.001087650191038847
288.0,0.00022406628704629838
320.0,-0.00016043159121181816
352.0,-5.954908192506991e-05
384.0,-0.00010341779852751642
416.0,-0.0003928189107682556
448.0,-0.0011266556102782488
480.0,-0.0018528723157942295
512.0,-0.0019460221519693732
576.0,-0.0017932690680027008
640.0,-0.0012957191793248057
704.0,-0.00015942023310344666
768.0,-0.0002678650780580938
832.0,-0.002087571658194065
896.0,-0.0017508585005998611
960.0,-0.00010653412027750164
1024.0,0.0006004555034451187
1152.0,-0.0007181924884207547
1280.0,-0.0006258726352825761
1408.0,0.00015388567408081144
1536.0,-0.0007734984392300248
1664.0,0.000325702887494117
1792.0,0.0007837554439902306
1920.0,4.967584754922427e-05
2048.0,0.0005899095558561385
2304.0,0.0007793011609464884
2560.0,-0.0017159931594505906
2816.0,0.00018068260396830738
3072.0,-1.5063656064739916e-05
3328.0,-0.0007478666375391185
3584.0,-0.0004982841783203185
3840.0,0.0004161536053288728
4096.0,0.0009507238864898682
4608.0,8.23492300696671e-05
5120.0,0.00030037041869945824
5632.0,-0.0013456089654937387
6144.0,-0.00048335970495827496
6656.0,0.001099977409467101
7168.0,-0.0005285074003040791
7680.0,3.163012479490135e-06
8192.0,0.0007551043527200818
9216.0,9.334894275525585e-05
10240.0,-0.0002506914606783539
11264.0,-9.158408647635952e-05
12288.0,-0.0004371402901597321
13312.0,-0.00034482841147109866
14336.0,0.00024847497115843
end
