version,3.0
numOfCh,1
type,point
parent_name,20-cuts
ch_type,1_1
kcount,1
numberNandB,1
brightnessNandB,1
carpet pos,0
pc,0
Time (ms),CH1 Auto-Correlation
1.0,0.04315246269106865
2.0,0.0399051271378994
3.0,0.03719653934240341
4.0,0.03481721132993698
5.0,0.0326942503452301
6.0,0.03078353777527809
7.0,0.02899971231818199
8.0,0.027447978034615517
9.0,0.026016630232334137
10.0,0.024760905653238297
11.0,0.02359461598098278
12.0,0.022650474682450294
13.0,0.021741103380918503
14.0,0.02083778940141201
15.0,0.019981173798441887
16.0,0.01922737807035446
18.0,0.017919395118951797
20.0,0.016602544113993645
22.0,0.015457781963050365
24.0,0.014436875469982624
26.0,0.01358270738273859
28.0,0.012766997329890728
30.0,0.012160981073975563
32.0,0.011679579503834248
36.0,0.011015733703970909
40.0,0.010447317734360695
44.0,0.010011730715632439
48.0,0.009819654747843742
52.0,0.009676381945610046
56.0,0.008846884593367577
60.0,0.00812800507992506
64.0,0.007119577378034592
72.0,0.005991916637867689
80.0,0.00469207065179944
88.0,0.003908827435225248
96.0,0.003023517318069935
104.0,0.0020298275630921125
112.0,0.001470850664190948
120.0,0.0006544727366417646
128.0,0.0002944610605482012
144.0,-0.0003188409027643502
160.0,0.0005723715294152498
176.0,0.0015409234911203384
192.0,0.003687771735712886
208.0,0.002776365727186203
224.0,0.003100240370258689
240.0,0.004124307073652744
256.0,0.004749557934701443
288.0,0.004216563887894154
320.0,0.0021180403418838978
352.0,0.00088025868171826
384.0,0.000762622628826648
416.0,0.00017126509919762611
448.0,-0.0004372107796370983
480.0,-0.0007848393870517612
512.0,-0.0007283490849658847
576.0,0.0013455324806272984
640.0,0.0019059579353779554
704.0,0.0010388466762378812
768.0,0.0010307896882295609
832.0,0.0016981296939775348
896.0,0.0018955291016027331
960.0,0.001774870208464563
1024.0,0.0007327895145863295
1152.0,0.00025549926795065403
1280.0,-0.00037759647238999605
1408.0,-0.001956525957211852
1536.0,-0.0015782639384269714
1664.0,-0.0004407228552736342
1792.0,-0.0015740141971036792
1920.0,-0.00014423788525164127
2048.0,-0.004307251889258623
2304.0,-0.0018164328066632152
2560.0,-0.003207794390618801
2816.0,-0.0014319542096927762
3072.0,-0.0009835968958213925
3328.0,-0.0009569397661834955
3584.0,-0.000666408974211663
3840.0,0.0007669465849176049
4096.0,0.0009837596444413066
4608.0,0.0011615091934800148
5120.0,-0.00010039577318821102
5632.0,-0.00041396263986825943
6144.0,-0.0005600289441645145
6656.0,-0.00096175103681162
7168.0,-0.0005016127834096551
7680.0,-0.0004003740905318409
8192.0,0.0004487450059968978
9216.0,0.0006151743000373244
10240.0,0.0007891273126006126
11264.0,0.0001567702420288697
12288.0,-0.001345496391877532
13312.0,-0.0007011458510532975
14336.0,0.0005271753179840744
end
