version,3.0
numOfCh,1
type,point
parent_name,20-cuts
ch_type,1_1
kcount,1
numberNandB,1
brightnessNandB,1
carpet pos,0
pc,0
Time (ms),CH1 Auto-Correlation
1.0,0.04090290889143944
2.0,0.03770073130726814
3.0,0.034948285669088364
4.0,0.03254444897174835
5.0,0.030384723097085953
6.0,0.028464490547776222
7.0,0.02678787335753441
8.0,0.025312526151537895
9.0,0.024025816470384598
10.0,0.022820841521024704
11.0,0.021662013605237007
12.0,0.020574407652020454
13.0,0.01961689628660679
14.0,0.018666889518499374
15.0,0.017797939479351044
16.0,0.01700069196522236
18.0,0.015531961806118488
20.0,0.014380211010575294
22.0,0.013471032492816448
24.0,0.012677468359470367
26.0,0.01192918885499239
28.0,0.011204514652490616
30.0,0.010480240918695927
32.0,0.00969619769603014
36.0,0.008267974480986595
40.0,0.007250155322253704
44.0,0.00667858449742198
48.0,0.006198113318532705
52.0,0.005963888950645924
56.0,0.005732824560254812
60.0,0.005684980656951666
64.0,0.005222849082201719
72.0,0.004697796422988176
80.0,0.004120383411645889
88.0,0.003608457976952195
96.0,0.002873237943276763
104.0,0.0019931967835873365
112.0,0.0017985011218115687
120.0,0.0012243071105331182
128.0,0.0006398214027285576
144.0,0.001060834270901978
160.0,0.002011330099776387
176.0,0.0024519392754882574
192.0,0.0028243479318916798
208.0,0.001731248339638114
224.0,0.0014487890293821692
240.0,0.0006370200426317751
256.0,0.00013338113785721362
288.0,-0.0004087136185262352
320.0,-0.0009594165603630245
352.0,-0.0011653986293822527
384.0,-0.0003831156063824892
416.0,-0.0007255816017277539
448.0,-0.0012287392746657133
480.0,-0.0019812346436083317
512.0,-0.001295778201892972
576.0,-0.00043498873128555715
640.0,-0.0005680602043867111
704.0,-0.0014715217985212803
768.0,-0.0006278841756284237
832.0,0.00024822927662171423
896.0,0.0012936640996485949
960.0,-0.00042803771793842316
1024.0,-0.0007035884773358703
1152.0,-0.0009738215012475848
1280.0,-0.0025633079931139946
1408.0,-0.000605179404374212
1536.0,0.0003931816900148988
1664.0,0.002612356562167406
1792.0,0.0007650944753549993
1920.0,-0.0007116587366908789
2048.0,-0.0006774187786504626
2304.0,-0.0016054667066782713
2560.0,0.00042445361032150686
2816.0,-0.0008982669096440077
3072.0,-0.00017872177704703063
3328.0,0.0011864519910886884
3584.0,0.002081221202388406
3840.0,0.0001767394132912159
4096.0,0.0004132347530685365
4608.0,-0.001728396164253354
5120.0,-0.00037623161915689707
5632.0,0.0004432789864949882
6144.0,-0.0007227423484437168
6656.0,-0.0008973056683316827
7168.0,0.0011177193373441696
7680.0,-0.000181424300535582
8192.0,-0.0005561350262723863
9216.0,-0.00021290483709890395
10240.0,0.0004624058783520013
11264.0,0.0008489916217513382
12288.0,-0.0005960236303508282
13312.0,0.001091359881684184
14336.0,-0.000771918217651546
end
