version,3.0
numOfCh,1
type,point
parent_name,20-cuts
ch_type,1_1
kcount,1
numberNandB,1
brightnessNandB,1
carpet pos,0
pc,0
Time (ms),CH1 Auto-Correlation
1.0,0.08754856139421463
2.0,0.0806816965341568
3.0,0.07448333501815796
4.0,0.06934137642383575
5.0,0.06505283713340759
6.0,0.06110520288348198
7.0,0.05753868445754051
8.0,0.05408378690481186
9.0,0.05094544589519501
10.0,0.04796849191188812
11.0,0.04546678438782692
12.0,0.04322289675474167
13.0,0.04118086025118828
14.0,0.039249252527952194
15.0,0.03738672286272049
16.0,0.035802051424980164
18.0,0.03266770392656326
20.0,0.029927914962172508
22.0,0.02732311561703682
24.0,0.024958541616797447
26.0,0.022871004417538643
28.0,0.02127854898571968
30.0,0.01970234140753746
32.0,0.018324021250009537
36.0,0.01631271466612816
40.0,0.013802221044898033
44.0,0.01209338940680027
48.0,0.011066623032093048
52.0,0.010321469977498055
56.0,0.008820394985377789
60.0,0.007328618783503771
64.0,0.00748431496322155
72.0,0.008474060334265232
80.0,0.008973238058388233
88.0,0.009109449572861195
96.0,0.007066407240927219
104.0,0.004708199296146631
112.0,0.0025741099379956722
120.0,0.0020498568192124367
128.0,0.0002620680024847388
144.0,-0.0033481204882264137
160.0,-0.004308599513024092
176.0,-0.004344367887824774
192.0,-0.003455263562500477
208.0,-0.0010998748475685716
224.0,0.0016834051348268986
240.0,0.0029729572124779224
256.0,0.002078379737213254
288.0,0.0009617236792109907
320.0,0.0029678544960916042
352.0,0.0024548782967031
384.0,0.0013295758981257677
416.0,0.0012281588278710842
448.0,-2.7453261282062158e-05
480.0,-0.0026367439422756433
512.0,-0.0027667528484016657
576.0,0.0004729341890197247
640.0,0.0012476325500756502
704.0,0.0014901832910254598
768.0,0.000504670140799135
832.0,0.0017767532262951136
896.0,0.0005525533924810588
960.0,0.0020531737245619297
1024.0,0.0028061161283403635
1152.0,0.0015099149895831943
1280.0,-0.000719228177331388
1408.0,-0.003645834280177951
1536.0,-0.0009199431515298784
1664.0,-0.000476104614790529
1792.0,-0.001074673025868833
1920.0,-0.0002669281093403697
2048.0,0.001830312074162066
2304.0,-0.0018374150386080146
2560.0,-5.940607297816314e-05
2816.0,0.0019826842471957207
3072.0,-0.0029257284477353096
3328.0,-0.0026887061540037394
3584.0,-0.000262997520621866
3840.0,0.002637189580127597
4096.0,-0.0020816524047404528
4608.0,0.0026875841431319714
5120.0,-0.002091749105602503
5632.0,1.3898890756536275e-05
6144.0,-0.00110952602699399
6656.0,-0.0006715119234286249
7168.0,-0.003362448187544942
7680.0,-0.0025827025528997183
8192.0,-0.0008348620031028986
9216.0,-2.784407297440339e-05
10240.0,-0.0007501530344597995
11264.0,0.0015175878070294857
12288.0,-0.00045653677079826593
13312.0,0.0021449094638228416
14336.0,-0.0009597909520380199
end
