version,3.0
numOfCh,1
type,point
parent_name,20-cuts
ch_type,1_1
kcount,1
numberNandB,1
brightnessNandB,1
carpet pos,0
pc,0
Time (ms),CH1 Auto-Correlation
1.0,0.09033229947090149
2.0,0.08354153484106064
3.0,0.0776773989200592
4.0,0.07235423475503922
5.0,0.06785526871681213
6.0,0.06402723491191864
7.0,0.06052982062101364
8.0,0.05727984756231308
9.0,0.054379966109991074
10.0,0.05172937363386154
11.0,0.049271341413259506
12.0,0.04695698246359825
13.0,0.044874437153339386
14.0,0.04290865734219551
15.0,0.04115983098745346
16.0,0.03951024264097214
18.0,0.03607625141739845
20.0,0.03308560699224472
22.0,0.03065897896885872
24.0,0.028394421562552452
26.0,0.026550306007266045
28.0,0.024992497637867928
30.0,0.02371462620794773
32.0,0.022332124412059784
36.0,0.02034858986735344
40.0,0.01843549869954586
44.0,0.01641549915075302
48.0,0.013959057629108429
52.0,0.011886699125170708
56.0,0.01076491642743349
60.0,0.009672394022345543
64.0,0.008785543963313103
72.0,0.008798017166554928
80.0,0.007508646696805954
88.0,0.005679842550307512
96.0,0.004286084324121475
104.0,0.005094528663903475
112.0,0.0048384107649326324
120.0,0.0025048269890248775
128.0,0.0015116765862330794
144.0,0.0036829637829214334
160.0,0.004103509709239006
176.0,-0.0001343308249488473
192.0,-0.004227356985211372
208.0,-0.0026625366881489754
224.0,-0.0010895004961639643
240.0,-0.0022952486760914326
256.0,-0.0028033482376486063
288.0,-0.0034762409050017595
320.0,-0.002991858869791031
352.0,-0.002060863422229886
384.0,0.0010496126487851143
416.0,0.002657766919583082
448.0,0.004508312791585922
480.0,0.0031611628364771605
512.0,0.003023890545591712
576.0,0.0031534063164144754
640.0,0.00016934375162236392
704.0,0.0007539415964856744
768.0,0.0003977353044319898
832.0,0.0046712555922567844
896.0,0.0045806048437952995
960.0,-0.0014819360803812742
1024.0,-0.002820719964802265
1152.0,-0.0010304872412234545
1280.0,0.0004093902825843543
1408.0,-0.0008867043070495129
1536.0,-0.004029137548059225
1664.0,0.001877125003375113
1792.0,0.0022847868967801332
1920.0,-0.002923553576692939
2048.0,-0.00012362661072984338
2304.0,0.0003554928698576987
2560.0,0.0008514944929629564
2816.0,-0.0024536713026463985
3072.0,-0.0017711889231577516
3328.0,0.0026824218221008778
3584.0,-0.0013792312238365412
3840.0,-0.0003416455292608589
4096.0,-0.0012322904076427221
4608.0,-0.002860491629689932
5120.0,-0.000283642002614215
5632.0,0.00223225518129766
6144.0,0.001466858317144215
6656.0,-0.0010342549066990614
7168.0,-0.0011578723788261414
7680.0,0.001292632077820599
8192.0,-0.002254488645121455
9216.0,-0.00047020617057569325
10240.0,-0.0031249227467924356
11264.0,0.0017362816724926233
12288.0,-0.0014250252861529589
13312.0,0.003779749386012554
14336.0,0.00037963269278407097
end
