version,3.0
numOfCh,1
type,point
parent_name,20-cuts
ch_type,1_1
kcount,1
numberNandB,1
brightnessNandB,1
carpet pos,0
pc,0
Time (ms),CH1 Auto-Correlation
1.0,0.09163821488618851
2.0,0.08455578237771988
3.0,0.07852011919021606
4.0,0.07327283918857574
5.0,0.06871829181909561
6.0,0.06476503610610962
7.0,0.06141219288110733
8.0,0.05861111730337143
9.0,0.05595000088214874
10.0,0.05353085696697235
11.0,0.05118631199002266
12.0,0.04884932190179825
13.0,0.04679890722036362
14.0,0.044969700276851654
15.0,0.04322833940386772
16.0,0.04138755425810814
18.0,0.03798434138298035
20.0,0.03523983806371689
22.0,0.03286416828632355
24.0,0.030715761706233025
26.0,0.029009688645601273
28.0,0.02744511514902115
30.0,0.026514777913689613
32.0,0.025409670546650887
36.0,0.02270537056028843
40.0,0.020456984639167786
44.0,0.018971050158143044
48.0,0.016123861074447632
52.0,0.013204465620219707
56.0,0.010563235729932785
60.0,0.009031938388943672
64.0,0.007281339727342129
72.0,0.005535184405744076
80.0,0.00530915055423975
88.0,0.0046174065209925175
96.0,0.005455928388983011
104.0,0.004714048933237791
112.0,0.005350026302039623
120.0,0.006895320490002632
128.0,0.006957466248422861
144.0,0.004631583578884602
160.0,0.0029841370414942503
176.0,0.0031202801037579775
192.0,0.0019595343619585037
208.0,0.00164592859800905
224.0,0.0032050686422735453
240.0,0.0019484636140987277
256.0,0.0006617632461711764
288.0,-9.980666800402105e-05
320.0,0.0004963165265507996
352.0,-0.00020587006292771548
384.0,-0.00213556457310915
416.0,-0.0011590304784476757
448.0,0.0004148938169237226
480.0,-0.0032644590828567743
512.0,-0.00741654122248292
576.0,-0.0032796182204037905
640.0,-0.003417316358536482
704.0,-0.0013364061014726758
768.0,-0.0034648654982447624
832.0,-0.002013539895415306
896.0,0.002477985108271241
960.0,0.005455234553664923
1024.0,0.0019935162272304296
1152.0,-0.0023702257312834263
1280.0,-0.0024823627900332212
1408.0,-0.001535796676762402
1536.0,-6.925612524355529e-06
1664.0,0.001771376933902502
1792.0,0.00306654698215425
1920.0,0.0017719384049996734
2048.0,0.0019333121599629521
2304.0,0.0007252847426570952
2560.0,0.0004932193551212549
2816.0,-0.0006443264428526163
3072.0,-0.0031749664340168238
3328.0,-0.0024112060200423002
3584.0,-0.0017601385479792953
3840.0,0.0011491191107779741
4096.0,0.0005427438882179558
4608.0,0.002411247231066227
5120.0,-0.003460831940174103
5632.0,-0.0007320203585550189
6144.0,-0.00010639317042659968
6656.0,1.6316160326823592e-05
7168.0,-0.0014705678913742304
7680.0,-0.002731512300670147
8192.0,0.003571689361706376
9216.0,-0.0011564623564481735
10240.0,0.003296981332823634
11264.0,-0.0019441087497398257
12288.0,0.0024114116095006466
13312.0,-0.002132108900696039
14336.0,-0.004078217316418886
end
