version,3.0
numOfCh,1
type,point
parent_name,20-cuts
ch_type,1_1
kcount,1
numberNandB,1
brightnessNandB,1
carpet pos,0
pc,0
Time (ms),CH1 Auto-Correlation
1.0,0.041232410818338394
2.0,0.03802894428372383
3.0,0.03535504266619682
4.0,0.03299199044704437
5.0,0.030944686383008957
6.0,0.029106756672263145
7.0,0.027478305622935295
8.0,0.026072636246681213
9.0,0.024781065061688423
10.0,0.023608757182955742
11.0,0.022469187155365944
12.0,0.021384866908192635
13.0,0.020376158878207207
14.0,0.019468607380986214
15.0,0.018602102994918823
16.0,0.017804626375436783
18.0,0.01658855564892292
20.0,0.015534134581685066
22.0,0.014528759755194187
24.0,0.013675538823008537
26.0,0.012854554690420628
28.0,0.0121729401871562
30.0,0.01163497194647789
32.0,0.011233692988753319
36.0,0.010513047687709332
40.0,0.009966045618057251
44.0,0.009592598304152489
48.0,0.009259374812245369
52.0,0.00901088397949934
56.0,0.008803284727036953
60.0,0.008304785937070847
64.0,0.008220340125262737
72.0,0.007794024422764778
80.0,0.007189126219600439
88.0,0.006937409285455942
96.0,0.006717653479427099
104.0,0.005981823429465294
112.0,0.005761944688856602
120.0,0.00523602357134223
128.0,0.004916301928460598
144.0,0.0050696078687906265
160.0,0.004889348521828651
176.0,0.005039139185100794
192.0,0.004686754196882248
208.0,0.004556616768240929
224.0,0.0032581782434135675
240.0,0.003533095121383667
256.0,0.0035015526227653027
288.0,0.002272270852699876
320.0,0.0029837130568921566
352.0,0.0018334470223635435
384.0,0.0014233846450224519
416.0,0.00249914126470685
448.0,0.0030175980646163225
480.0,0.002418330404907465
512.0,0.002391168847680092
576.0,0.001440068008378148
640.0,0.001999348634853959
704.0,0.0015460781287401915
768.0,0.000937524950131774
832.0,0.0017562599387019873
896.0,0.0019412828842177987
960.0,0.002651357091963291
1024.0,0.0015974167035892606
1152.0,0.0004091185692232102
1280.0,0.001318505615927279
1408.0,0.0027853469364345074
1536.0,-0.0001803265477064997
1664.0,-0.00023071606119628996
1792.0,-0.0015886155888438225
1920.0,-0.0008642793400213122
2048.0,-0.0014914391795173287
2304.0,0.0013739140704274178
2560.0,-0.001988234929740429
2816.0,0.0003277343639638275
3072.0,0.0003642438678070903
3328.0,0.0024718071799725294
3584.0,-0.0009507357026450336
3840.0,0.0008455437491647899
4096.0,-0.0008387615671381354
4608.0,-0.0005957458633929491
5120.0,-0.0014706659130752087
5632.0,-0.0014161401195451617
6144.0,-0.0013741181464865804
6656.0,-0.0012291735038161278
7168.0,-0.0012096845312044024
7680.0,-0.003125861519947648
8192.0,-0.0016894328873604536
9216.0,0.000496216060128063
10240.0,0.0002292820136062801
11264.0,-0.00047236078535206616
12288.0,-0.0029729416128247976
13312.0,0.0011015243362635374
14336.0,0.002802738919854164
end
