version,3.0
numOfCh,1
type,point
parent_name,20-cuts
ch_type,1_1
kcount,1
numberNandB,1
brightnessNandB,1
carpet pos,0
pc,0
Time (ms),CH1 Auto-Correlation
1.0,0.08783473819494247
2.0,0.0807482972741127
3.0,0.07477445155382156
4.0,0.0694507509469986
5.0,0.06475424766540527
6.0,0.06062924861907959
7.0,0.057022660970687866
8.0,0.05377828702330589
9.0,0.05089758709073067
10.0,0.04835585504770279
11.0,0.04620013386011124
12.0,0.044136691838502884
13.0,0.04227134585380554
14.0,0.04039551317691803
15.0,0.038796566426754
16.0,0.037186793982982635
18.0,0.0343339666724205
20.0,0.031863678246736526
22.0,0.029322413727641106
24.0,0.027008695527911186
26.0,0.02509993128478527
28.0,0.0236674677580595
30.0,0.022616172209382057
32.0,0.021699633449316025
36.0,0.019479017704725266
40.0,0.017057830467820168
44.0,0.015107889659702778
48.0,0.012524413876235485
52.0,0.010992782190442085
56.0,0.009937617927789688
60.0,0.009895367547869682
64.0,0.009495350532233715
72.0,0.00752726336941123
80.0,0.007110551930963993
88.0,0.008433409966528416
96.0,0.009253725409507751
104.0,0.008643997833132744
112.0,0.008338682353496552
120.0,0.007395347114652395
128.0,0.006304123438894749
144.0,0.003903002245351672
160.0,0.0011995071545243263
176.0,0.0011641328455880284
192.0,0.0010731009533628821
208.0,0.0015418907860293984
224.0,0.00231130956672132
240.0,0.003524656407535076
256.0,0.0055333394557237625
288.0,0.004195497836917639
320.0,0.001313026063144207
352.0,0.0009801904670894146
384.0,-0.0010973551543429494
416.0,-0.001557659008540213
448.0,-0.002707118634134531
480.0,-0.001601944211870432
512.0,-0.0014855879126116633
576.0,-0.003919767681509256
640.0,-0.0031449191737920046
704.0,-0.004190854728221893
768.0,-0.0011212780373170972
832.0,0.0003883377357851714
896.0,-0.00017159650451503694
960.0,-0.0004477056791074574
1024.0,0.0005855673225596547
1152.0,0.0009268959984183311
1280.0,0.0023437130730599165
1408.0,-0.004096257500350475
1536.0,-0.0034963255748152733
1664.0,-0.0018952874233946204
1792.0,0.003250489244237542
1920.0,0.0007505116518586874
2048.0,0.0039464314468204975
2304.0,0.0026111179031431675
2560.0,0.0014337061438709497
2816.0,-0.0016050421399995685
3072.0,0.0012120874598622322
3328.0,-0.0013978939969092607
3584.0,0.0001231984788319096
3840.0,0.0004750265507027507
4096.0,-0.00027863431023433805
4608.0,-0.0012106150388717651
5120.0,-0.00424471078440547
5632.0,2.0181809304631315e-05
6144.0,9.812132338993251e-05
6656.0,0.0009317225776612759
7168.0,-0.0036844732239842415
7680.0,-0.0038482854142785072
8192.0,0.0002939898695331067
9216.0,-0.00045424848212860525
10240.0,-0.0009481990709900856
11264.0,0.00048526108730584383
12288.0,0.001042751013301313
13312.0,-0.0017067112494260073
14336.0,0.0021338730584830046
end
