version,3.0
numOfCh,1
type,point
parent_name,20-cuts
ch_type,1_1
kcount,1
numberNandB,1
brightnessNandB,1
carpet pos,0
pc,0
Time (ms),CH1 Auto-Correlation
1.0,0.08018650114536285
2.0,0.07299018651247025
3.0,0.06687641888856888
4.0,0.06154933571815491
5.0,0.05692160129547119
6.0,0.05288109928369522
7.0,0.049316421151161194
8.0,0.04618758335709572
9.0,0.043251801282167435
10.0,0.04087831452488899
11.0,0.0385252945125103
12.0,0.03634355217218399
13.0,0.03450345620512962
14.0,0.03276107832789421
15.0,0.031335048377513885
16.0,0.030007943511009216
18.0,0.027820957824587822
20.0,0.026119457557797432
22.0,0.02466374821960926
24.0,0.02341664955019951
26.0,0.022398628294467926
28.0,0.02082844264805317
30.0,0.01903010904788971
32.0,0.01725117489695549
36.0,0.014994361437857151
40.0,0.013720876537263393
44.0,0.01242011971771717
48.0,0.011167755350470543
52.0,0.010266760364174843
56.0,0.010083510540425777
60.0,0.00994353648275137
64.0,0.009875347837805748
72.0,0.009420208632946014
80.0,0.00882413424551487
88.0,0.007395882625132799
96.0,0.006090135779231787
104.0,0.004105590749531984
112.0,0.002200744580477476
120.0,0.0016346172196790576
128.0,0.00030024818261153996
144.0,-0.000460589537397027
160.0,-0.00046547839883714914
176.0,-0.00022752955555915833
192.0,-0.0018284154357388616
208.0,-0.001026662066578865
224.0,0.0011169029166921973
240.0,0.0010776595445349813
256.0,0.0014345679664984345
288.0,-0.0001693378435447812
320.0,0.0009386492311023176
352.0,0.003243708750233054
384.0,0.0008303881622850895
416.0,-0.0006189772393554449
448.0,0.0030749267898499966
480.0,0.0020985545124858618
512.0,0.0003236026968806982
576.0,0.0023608016781508923
640.0,0.00120694434735924
704.0,0.002111452864482999
768.0,-0.00036722345976158977
832.0,-0.0021019047126173973
896.0,-0.001706888317130506
960.0,-0.004772173706442118
1024.0,0.0009281296515837312
1152.0,0.0002599589352030307
1280.0,-0.003846773412078619
1408.0,-0.002151989610865712
1536.0,-0.0012771794572472572
1664.0,-0.0010129438014701009
1792.0,0.0031885586213320494
1920.0,-0.0008839139482006431
2048.0,-0.00261301058344543
2304.0,0.00215527624823153
2560.0,0.003083805786445737
2816.0,0.0008017883519642055
3072.0,0.0015708436258137226
3328.0,0.001238123863004148
3584.0,-0.0005418124492280185
3840.0,-0.0014400696381926537
4096.0,-0.00228050141595304
4608.0,-0.0022451705299317837
5120.0,-0.001260453136637807
5632.0,0.0007419197936542332
6144.0,0.0017321272753179073
6656.0,0.0008296192972920835
7168.0,-0.002337942598387599
7680.0,-0.0025356984697282314
8192.0,0.0004602137196343392
9216.0,0.0002723908983170986
10240.0,-0.002217340748757124
11264.0,-0.000977422227151692
12288.0,0.0005109278718009591
13312.0,0.0007728207856416702
14336.0,0.004768810234963894
end
