version,3.0
numOfCh,1
type,point
parent_name,20-cuts
ch_type,1_1
kcount,1
numberNandB,1
brightnessNandB,1
carpet pos,0
pc,0
Time (ms),CH1 Auto-Correlation
1.0,0.08802475035190582
2.0,0.08112093061208725
3.0,0.07489672303199768
4.0,0.0696948990225792
5.0,0.06537994742393494
6.0,0.061565011739730835
7.0,0.058160942047834396
8.0,0.05519935116171837
9.0,0.05256373807787895
10.0,0.0502019077539444
11.0,0.04813259094953537
12.0,0.04611428081989288
13.0,0.04408251494169235
14.0,0.04212302342057228
15.0,0.04038302227854729
16.0,0.03876614198088646
18.0,0.03592408448457718
20.0,0.03352354094386101
22.0,0.03163968399167061
24.0,0.030008729547262192
26.0,0.02856447733938694
28.0,0.02713962458074093
30.0,0.02596861682832241
32.0,0.025108523666858673
36.0,0.023889943957328796
40.0,0.02282017096877098
44.0,0.021786917001008987
48.0,0.02061966247856617
52.0,0.018664361909031868
56.0,0.017533322796225548
60.0,0.016919396817684174
64.0,0.016030753031373024
72.0,0.0156452227383852
80.0,0.015200982801616192
88.0,0.013155491091310978
96.0,0.00947402510792017
104.0,0.006382002029567957
112.0,0.004713484551757574
120.0,0.004568847361952066
128.0,0.004305688664317131
144.0,0.00419207289814949
160.0,0.0055158850736916065
176.0,0.004823426716029644
192.0,0.004104465711861849
208.0,0.004398557357490063
224.0,0.00524376705288887
240.0,0.003463174682110548
256.0,0.0013525912072509527
288.0,0.004138368181884289
320.0,0.0038725438062101603
352.0,0.002835680730640888
384.0,0.0028472028207033873
416.0,-0.0006551778060384095
448.0,-0.0003148514952044934
480.0,0.0010691483039408922
512.0,0.0016491222195327282
576.0,0.00029902279493398964
640.0,0.0020656888373196125
704.0,-0.0002928694593720138
768.0,-0.0005706502124667168
832.0,-0.0009120524628087878
896.0,-0.00027274308376945555
960.0,0.0010244881268590689
1024.0,-0.002233920618891716
1152.0,-0.0015629826812073588
1280.0,-0.0020068080630153418
1408.0,-0.0004910388379357755
1536.0,-0.0015835078665986657
1664.0,0.0008698949823155999
1792.0,-0.0015684437239542603
1920.0,-0.008049208670854568
2048.0,-0.007284885738044977
2304.0,0.0010674098739400506
2560.0,0.0019793391693383455
2816.0,0.000577117083594203
3072.0,0.0034356527030467987
3328.0,0.0011822809465229511
3584.0,-0.0013957575429230928
3840.0,-0.0038682532031089067
4096.0,-0.003837777767330408
4608.0,0.0006057372083887458
5120.0,-0.00119775568600744
5632.0,-0.0009416209650225937
6144.0,0.006460876204073429
6656.0,-0.00023045775014907122
7168.0,-0.0022457451559603214
7680.0,0.0013689248589798808
8192.0,-0.006703964434564114
9216.0,0.00032474868930876255
10240.0,-0.00044233506196178496
11264.0,-0.0022074226289987564
12288.0,0.004657994955778122
13312.0,-0.0017005614936351776
14336.0,-0.006763258948922157
end
