version,3.0
numOfCh,1
type,point
parent_name,20-cuts
ch_type,1_1
kcount,1
numberNandB,1
brightnessNandB,1
carpet pos,0
pc,0
Time (ms),CH1 Auto-Correlation
1.0,0.02823653444647789
2.0,0.026081999763846397
3.0,0.024243757128715515
4.0,0.022699061781167984
5.0,0.021356910467147827
6.0,0.020193304866552353
7.0,0.01914025843143463
8.0,0.018215544521808624
9.0,0.017415227368474007
10.0,0.016716770827770233
11.0,0.01611863076686859
12.0,0.015529215335845947
13.0,0.014991173520684242
14.0,0.014418010599911213
15.0,0.013905049301683903
16.0,0.013479707762598991
18.0,0.012714486569166183
20.0,0.011954274959862232
22.0,0.011228877119719982
24.0,0.01055328268557787
26.0,0.009938744828104973
28.0,0.009458986110985279
30.0,0.008975238539278507
32.0,0.008478442206978798
36.0,0.007445117924362421
40.0,0.006463916506618261
44.0,0.005737398751080036
48.0,0.0050815376453101635
52.0,0.004433935508131981
56.0,0.003646587021648884
60.0,0.0031126311514526606
64.0,0.002546530682593584
72.0,0.00149387342389673
80.0,0.0012452523224055767
88.0,0.0011919081443920732
96.0,0.0007931769359856844
104.0,0.0006300845416262746
112.0,0.000803171016741544
120.0,0.0005827976856380701
128.0,0.0008434287155978382
144.0,0.0011261311592534184
160.0,0.0017813375452533364
176.0,0.0018067470518872142
192.0,0.000513210950884968
208.0,-0.0004934828612022102
224.0,-0.0013574403710663319
240.0,-0.0009929407387971878
256.0,-5.199644510867074e-05
288.0,0.0007450676639564335
320.0,0.0014174815732985735
352.0,0.0012706373818218708
384.0,0.0010755474213510752
416.0,0.0004841223999392241
448.0,0.0006658495985902846
480.0,0.0006893398240208626
512.0,0.00016393566329497844
576.0,-3.294462294434197e-05
640.0,0.001238435273990035
704.0,-0.00019576546037569642
768.0,-0.00020046939607709646
832.0,0.0011169337667524815
896.0,-0.00010900523193413392
960.0,-0.0007488640840165317
1024.0,3.311000546091236e-05
1152.0,-4.952239032718353e-05
1280.0,0.0009521442116238177
1408.0,0.00034077168675139546
1536.0,-0.000471669394755736
1664.0,0.000634235271718353
1792.0,-0.000968422566074878
1920.0,0.0006485520862042904
2048.0,0.000612399133387953
2304.0,-0.0008148038759827614
2560.0,-0.00010114538599736989
2816.0,-0.0016022049821913242
3072.0,-0.0014368994161486626
3328.0,0.0006355266086757183
3584.0,0.00016557205526623875
3840.0,-1.5065945262904279e-05
4096.0,-0.00048484423314221203
4608.0,-0.0009486305061727762
5120.0,-0.0003026098129339516
5632.0,0.0008418363286182284
6144.0,-0.0005987663753330708
6656.0,-0.00017971903434954584
7168.0,0.0001719163847155869
7680.0,-0.00031683268025517464
8192.0,-0.00025507225655019283
9216.0,0.0008240611641667783
10240.0,-0.00038600811967626214
11264.0,-0.00041277773561887443
12288.0,0.0010017076274380088
13312.0,-0.0002046880981652066
14336.0,-0.0006118370220065117
end
