version,3.0
numOfCh,1
type,point
parent_name,20-cuts
ch_type,1_1
kcount,1
numberNandB,1
brightnessNandB,1
carpet pos,0
pc,0
Time (ms),CH1 Auto-Correlation
1.0,0.08386989682912827
2.0,0.07728531956672668
3.0,0.07180272787809372
4.0,0.0668657124042511
5.0,0.06242283806204796
6.0,0.05851002037525177
7.0,0.05488310754299164
8.0,0.051635678857564926
9.0,0.04850423336029053
10.0,0.045529138296842575
11.0,0.04286070913076401
12.0,0.04055653512477875
13.0,0.0385722741484642
14.0,0.03683900460600853
15.0,0.03554357960820198
16.0,0.03438739478588104
18.0,0.032494764775037766
20.0,0.030539875850081444
22.0,0.028736025094985962
24.0,0.02713380940258503
26.0,0.025725560262799263
28.0,0.024451442062854767
30.0,0.022839941084384918
32.0,0.020619435235857964
36.0,0.016534574329853058
40.0,0.014584267511963844
44.0,0.013434519059956074
48.0,0.01249978132545948
52.0,0.011049418710172176
56.0,0.01042473316192627
60.0,0.009444932453334332
64.0,0.008220809511840343
72.0,0.00708058662712574
80.0,0.005510979797691107
88.0,0.003198422258719802
96.0,0.0020528011955320835
104.0,0.0014347088290378451
112.0,0.0015590672846883535
120.0,0.00238132500089705
128.0,0.002048626309260726
144.0,0.0011295360745862126
160.0,0.00026791778509505093
176.0,0.00039339394425041974
192.0,0.0013292221119627357
208.0,0.0030154793057590723
224.0,0.0025422805920243263
240.0,0.0003938711597584188
256.0,0.0006269427831284702
288.0,0.0004614003992173821
320.0,-0.0013193906052038074
352.0,-0.0015560542233288288
384.0,-0.0011484366841614246
416.0,-0.0031399938743561506
448.0,-0.006125510670244694
480.0,-0.004955308511853218
512.0,-0.003967551980167627
576.0,-0.002944291802123189
640.0,-0.00038189947372302413
704.0,-0.0025622209068387747
768.0,-0.0014031397877261043
832.0,-0.0002149025531252846
896.0,0.0020365514792501926
960.0,0.0013469880213961005
1024.0,-0.002791940001770854
1152.0,-0.004277921747416258
1280.0,0.0014145015738904476
1408.0,0.002174353925511241
1536.0,-0.00020738325838465244
1664.0,0.0010290000354871154
1792.0,0.001140362466685474
1920.0,-0.0017250010278075933
2048.0,-0.0019716466777026653
2304.0,0.0003207834088243544
2560.0,-0.0022466026712208986
2816.0,-0.00031278026290237904
3072.0,0.0009648020495660603
3328.0,0.001522617880254984
3584.0,0.0020707861986011267
3840.0,-0.002352600684389472
4096.0,-0.0003759015817195177
4608.0,-0.0009042517049238086
5120.0,0.0022973010782152414
5632.0,-0.0005014530615881085
6144.0,-1.0409598871774506e-05
6656.0,0.0008869151934050024
7168.0,-0.0006232761079445481
7680.0,-0.0018433609511703253
8192.0,-0.00029964541317895055
9216.0,0.0006383571308106184
10240.0,-0.0009641664801165462
11264.0,-0.00023452530149370432
12288.0,-0.00015783344861119986
13312.0,-3.9441860280930996e-05
14336.0,0.0016426488291472197
end
