version,3.0
numOfCh,1
type,point
parent_name,20-cuts
ch_type,1_1
kcount,1
numberNandB,1
brightnessNandB,1
carpet pos,0
pc,0
Time (ms),CH1 Auto-Correlation
1.0,0.044100984930992126
2.0,0.040806714445352554
3.0,0.03793792799115181
4.0,0.035484813153743744
5.0,0.033377755433321
6.0,0.031566984951496124
7.0,0.029911352321505547
8.0,0.028480689972639084
9.0,0.027225619181990623
10.0,0.026072924956679344
11.0,0.024930913001298904
12.0,0.023806706070899963
13.0,0.02270597778260708
14.0,0.02173181250691414
15.0,0.020760582759976387
16.0,0.01992812566459179
18.0,0.018561936914920807
20.0,0.01737566851079464
22.0,0.01631951704621315
24.0,0.015456471592187881
26.0,0.014608470723032951
28.0,0.014009793289005756
30.0,0.01361222006380558
32.0,0.01329201553016901
36.0,0.012333495542407036
40.0,0.011877509765326977
44.0,0.011454533785581589
48.0,0.010750904679298401
52.0,0.009721441194415092
56.0,0.008804624900221825
60.0,0.007993648760020733
64.0,0.007231553550809622
72.0,0.005906782113015652
80.0,0.004972582682967186
88.0,0.0033079441636800766
96.0,0.001861638156697154
104.0,0.0003072745748795569
112.0,-0.00015864663873799145
120.0,-4.507574703893624e-05
128.0,0.00015874409291427583
144.0,-0.0001412110577803105
160.0,-0.00028407236095517874
176.0,-0.0012134276330471039
192.0,-0.0009168036631308496
208.0,-0.0005510004120878875
224.0,0.00035519213997758925
240.0,0.00017993466462939978
256.0,0.000864155066665262
288.0,0.002111752051860094
320.0,0.0028779988642781973
352.0,0.002824273193255067
384.0,0.002632073126733303
416.0,0.001671456266194582
448.0,0.000278834457276389
480.0,-0.0008291101548820734
512.0,-0.001969266915693879
576.0,-0.0024394849315285683
640.0,0.0021573316771537066
704.0,0.0004952899180352688
768.0,-0.0015642567304894328
832.0,-0.0017190028447657824
896.0,-0.0017710416577756405
960.0,0.0008364018285647035
1024.0,0.0009996690787374973
1152.0,0.0013358542928472161
1280.0,0.0011508212191984057
1408.0,-0.0004481470095925033
1536.0,0.00034330651396885514
1664.0,-0.00023707754735369235
1792.0,-0.00042792223393917084
1920.0,3.132947313133627e-05
2048.0,-0.00037375709507614374
2304.0,-0.0014462984399870038
2560.0,0.00011616486881393939
2816.0,-0.002229244215413928
3072.0,-0.0015248095151036978
3328.0,-0.000574955774936825
3584.0,-0.0011611024383455515
3840.0,-0.00015278489445336163
4096.0,0.00020529812900349498
4608.0,0.0018439646810293198
5120.0,0.0007365425117313862
5632.0,0.0007331144297495484
6144.0,0.0013522832887247205
6656.0,0.000253975362284109
7168.0,-7.181744877016172e-05
7680.0,-0.0013059902703389525
8192.0,-0.002225305885076523
9216.0,-0.0005539656267501414
10240.0,6.521359318867326e-05
11264.0,0.0014304937794804573
12288.0,-0.0003102700284216553
13312.0,-0.0018481782171875238
14336.0,-0.0025430945679545403
end
