version,3.0
numOfCh,1
type,point
parent_name,20-cuts
ch_type,1_1
kcount,1
numberNandB,1
brightnessNandB,1
carpet pos,0
pc,0
Time (ms),CH1 Auto-Correlation
1.0,0.040232304483652115
2.0,0.037012360990047455
3.0,0.03424517437815666
4.0,0.03191084414720535
5.0,0.029865022748708725
6.0,0.02797897346317768
7.0,0.026353897526860237
8.0,0.024887237697839737
9.0,0.02357807755470276
10.0,0.022502852603793144
11.0,0.02150350995361805
12.0,0.020611634477972984
13.0,0.01982317678630352
14.0,0.01903909631073475
15.0,0.018307451158761978
16.0,0.01755400560796261
18.0,0.016208987683057785
20.0,0.015123885124921799
22.0,0.014192158356308937
24.0,0.01329056080430746
26.0,0.012322727590799332
28.0,0.011496365070343018
30.0,0.010762745514512062
32.0,0.010162965394556522
36.0,0.009109124541282654
40.0,0.007791176903992891
44.0,0.0067871566861867905
48.0,0.006162147503346205
52.0,0.006090195849537849
56.0,0.005907784216105938
60.0,0.005469738505780697
64.0,0.005347315687686205
72.0,0.005768058821558952
80.0,0.005781204905360937
88.0,0.005001152399927378
96.0,0.004249952267855406
104.0,0.0026276870630681515
112.0,0.0021774207707494497
120.0,0.0020813026931136847
128.0,0.0021964998450130224
144.0,0.002434782451018691
160.0,0.0021844031289219856
176.0,0.0017964536091312766
192.0,0.0005487410235218704
208.0,0.00014391937293112278
224.0,0.0007176231010816991
240.0,-0.0002237125299870968
256.0,-0.00034472622792236507
288.0,-0.0021153201814740896
320.0,-0.002828598255291581
352.0,-0.0023438602220267057
384.0,-0.0010457937605679035
416.0,-0.00010420147737022489
448.0,-0.00012947276991326362
480.0,-0.0008524218574166298
512.0,-0.001039070775732398
576.0,0.0005232094554230571
640.0,0.0006616809987463057
704.0,0.00045709841651842
768.0,-0.002679659752175212
832.0,-0.0020327605307102203
896.0,-0.0016562772216275334
960.0,-0.003465543268248439
1024.0,-0.0026044738478958607
1152.0,-0.0018027470214292407
1280.0,0.0010641043772920966
1408.0,0.0009468256030231714
1536.0,0.00048064778093248606
1664.0,0.001148447161540389
1792.0,0.0013624418061226606
1920.0,0.00045051550841890275
2048.0,-0.00041328585939481854
2304.0,0.0011217602295801044
2560.0,0.0008244413184002042
2816.0,-0.0008680438040755689
3072.0,-0.00044915583566762507
3328.0,-0.0008599201100878417
3584.0,-0.0027393177151679993
3840.0,0.0007094109896570444
4096.0,0.0023157265968620777
4608.0,0.001919062458910048
5120.0,-0.002392939757555723
5632.0,-0.0004155859933234751
6144.0,0.0009252495365217328
6656.0,-0.0006879813736304641
7168.0,0.0009648023988120258
7680.0,-0.001607443206012249
8192.0,-0.0012000565184280276
9216.0,-0.001077780150808394
10240.0,0.0006013514939695597
11264.0,-0.0005506214220076799
12288.0,1.69374470715411e-05
13312.0,-0.00015783918206579983
14336.0,0.000884508597664535
end
