version,3.0
numOfCh,1
type,point
parent_name,20-cuts
ch_type,1_1
kcount,1
numberNandB,1
brightnessNandB,1
carpet pos,0
pc,0
Time (ms),CH1 Auto-Correlation
1.0,0.09503423422574997
2.0,0.0883365124464035
3.0,0.08255096524953842
4.0,0.07738600671291351
5.0,0.07262880355119705
6.0,0.06848493963479996
7.0,0.06481867283582687
8.0,0.06136643514037132
9.0,0.058307673782110214
10.0,0.05547792837023735
11.0,0.052745141088962555
12.0,0.05022978037595749
13.0,0.0479850247502327
14.0,0.04601919278502464
15.0,0.04415331780910492
16.0,0.04242686182260513
18.0,0.039246611297130585
20.0,0.03642512485384941
22.0,0.03405161574482918
24.0,0.032199908047914505
26.0,0.03039943426847458
28.0,0.028447512537240982
30.0,0.02705720067024231
32.0,0.02569488249719143
36.0,0.023382697254419327
40.0,0.02085525542497635
44.0,0.018223345279693604
48.0,0.016581889241933823
52.0,0.01613599807024002
56.0,0.015388747677206993
60.0,0.014757638797163963
64.0,0.01456269808113575
72.0,0.01352915819734335
80.0,0.011962758377194405
88.0,0.01068562176078558
96.0,0.011054785922169685
104.0,0.01214035414159298
112.0,0.011776612140238285
120.0,0.0091905128210783
128.0,0.007839416153728962
144.0,0.007558694574981928
160.0,0.01057521067559719
176.0,0.012469816952943802
192.0,0.010357064194977283
208.0,0.007669403683394194
224.0,0.005252484232187271
240.0,0.0034840686712414026
256.0,0.0025462883058935404
288.0,0.006392753683030605
320.0,0.004824452567845583
352.0,0.0036852252669632435
384.0,0.002507069380953908
416.0,0.00204234616830945
448.0,0.0036892862990498543
480.0,0.0025471681728959084
512.0,0.0022753640078008175
576.0,0.0014985543675720692
640.0,0.003992865327745676
704.0,0.0021671049762517214
768.0,0.0006328914314508438
832.0,0.0019180461531504989
896.0,0.0012887663906440139
960.0,5.86941241635941e-05
1024.0,0.0015950489323586226
1152.0,0.006078294012695551
1280.0,-0.0003094794228672981
1408.0,0.0008646309142932296
1536.0,0.0032626884058117867
1664.0,0.0016833040863275528
1792.0,-0.0019128340063616633
1920.0,-0.004010046366602182
2048.0,-0.0018084852490574121
2304.0,0.0029073995538055897
2560.0,0.0025614758487790823
2816.0,-0.00048583507305011153
3072.0,-0.001973838545382023
3328.0,-0.002295590005815029
3584.0,-0.00033829931635409594
3840.0,-0.00040266712312586606
4096.0,-0.001690977718681097
4608.0,-0.0029152887873351574
5120.0,-0.0049999481998384
5632.0,-0.004177398048341274
6144.0,-0.003659664187580347
6656.0,-0.0024599474854767323
7168.0,-2.9374195946729742e-05
7680.0,-0.0015408974140882492
8192.0,-3.798079342232086e-05
9216.0,0.0009663963573984802
10240.0,-0.0007058680057525635
11264.0,0.0050309146754443645
12288.0,-0.0025722505524754524
13312.0,0.0021246850956231356
14336.0,0.0007802065811119974
end
