version,3.0
numOfCh,1
type,point
parent_name,20-cuts
ch_type,1_1
kcount,1
numberNandB,1
brightnessNandB,1
carpet pos,0
pc,0
Time (ms),CH1 Auto-Correlation
1.0,0.08453375846147537
2.0,0.07774271070957184
3.0,0.07194795459508896
4.0,0.06702224165201187
5.0,0.06284406036138535
6.0,0.0591888464987278
7.0,0.05593794211745262
8.0,0.052846670150756836
9.0,0.05003083497285843
10.0,0.047418564558029175
11.0,0.044921401888132095
12.0,0.04271554574370384
13.0,0.04084683209657669
14.0,0.0391942597925663
15.0,0.03756163641810417
16.0,0.03591112792491913
18.0,0.033303022384643555
20.0,0.031183863058686256
22.0,0.029013026505708694
24.0,0.026898112148046494
26.0,0.024760114029049873
28.0,0.02290145866572857
30.0,0.021249007433652878
32.0,0.019533762708306313
36.0,0.016840726137161255
40.0,0.014601285569369793
44.0,0.012770980596542358
48.0,0.011548261158168316
52.0,0.011028727516531944
56.0,0.010057169944047928
60.0,0.009721963666379452
64.0,0.009023814462125301
72.0,0.007289647124707699
80.0,0.005627762526273727
88.0,0.0032343463972210884
96.0,0.0019696210511028767
104.0,0.0011461686808615923
112.0,0.0006597738247364759
120.0,0.0006753304623998702
128.0,-0.0007236643577925861
144.0,4.568773874780163e-06
160.0,0.0027648175600916147
176.0,0.00324241048656404
192.0,0.002872806042432785
208.0,0.0025155344046652317
224.0,0.0017181134317070246
240.0,-0.0006441483274102211
256.0,-0.0005965284071862698
288.0,-0.0002563806192483753
320.0,0.00022706028539687395
352.0,0.006146838888525963
384.0,0.004113940522074699
416.0,0.003319572191685438
448.0,0.002438392722979188
480.0,0.0005949340993538499
512.0,0.0014620507135987282
576.0,0.002660805592313409
640.0,0.0027620091568678617
704.0,0.0037960803601890802
768.0,0.004695356823503971
832.0,-0.0006990218535065651
896.0,-0.0038900766521692276
960.0,-0.00016095842875074595
1024.0,-0.0024179357569664717
1152.0,0.000813627615571022
1280.0,-0.002165452344343066
1408.0,-0.005420788656920195
1536.0,-0.0029846415854990482
1664.0,-0.005940995179116726
1792.0,-0.0011714812135323882
1920.0,-0.0045107342302799225
2048.0,-0.004364482592791319
2304.0,-0.0038706143386662006
2560.0,-0.0005350151332095265
2816.0,-0.0021110207308083773
3072.0,0.0013953056186437607
3328.0,0.0017459890805184841
3584.0,0.00245782732963562
3840.0,0.0036316667683422565
4096.0,0.0029711220413446426
4608.0,0.000734961882699281
5120.0,-0.0014590994687750936
5632.0,-0.002665921114385128
6144.0,-0.0008121159626170993
6656.0,-3.7111042274773354e-06
7168.0,0.0006039195577614009
7680.0,0.001566149527207017
8192.0,0.0010722596198320389
9216.0,-0.0006590886041522026
10240.0,-0.0003183020744472742
11264.0,0.0006210668943822384
12288.0,0.0002888322633225471
13312.0,8.199040894396603e-05
14336.0,-9.934120316756889e-05
end
