version,3.0
numOfCh,1
type,point
parent_name,20-cuts
ch_type,1_1
kcount,1
numberNandB,1
brightnessNandB,1
carpet pos,0
pc,0
Time (ms),CH1 Auto-Correlation
1.0,0.027300626039505005
2.0,0.025142619386315346
3.0,0.023326588794589043
4.0,0.021702323108911514
5.0,0.020288491621613503
6.0,0.01900056190788746
7.0,0.01778576709330082
8.0,0.01667325384914875
9.0,0.015729207545518875
10.0,0.014900821261107922
11.0,0.01417554635554552
12.0,0.013490647077560425
13.0,0.01280719880014658
14.0,0.012195168994367123
15.0,0.011667546816170216
16.0,0.011177902109920979
18.0,0.010291402228176594
20.0,0.009543666616082191
22.0,0.008949224837124348
24.0,0.008431301452219486
26.0,0.008067258633673191
28.0,0.007686167024075985
30.0,0.007242341060191393
32.0,0.0068601444363594055
36.0,0.005809993017464876
40.0,0.005072121042758226
44.0,0.00446108914911747
48.0,0.0039616902358829975
52.0,0.003479154547676444
56.0,0.003009629203006625
60.0,0.002923591760918498
64.0,0.0029782697092741728
72.0,0.0027677989564836025
80.0,0.002311232965439558
88.0,0.0017386528197675943
96.0,0.0011804644018411636
104.0,0.0009227718692272902
112.0,0.0012239773059263825
120.0,0.0009988684905692935
128.0,0.00041276036063209176
144.0,0.0005619970615953207
160.0,0.0006733281188644469
176.0,0.0006397617398761213
192.0,-0.00011718359746737406
208.0,-0.00021755699708592147
224.0,-0.00018880117568187416
240.0,-0.0008122106664814055
256.0,-0.0011490981560200453
288.0,-0.000561554275918752
320.0,-0.00016297381080221385
352.0,-3.857043702737428e-05
384.0,-0.00014532558270730078
416.0,-0.0005147037445567548
448.0,-0.0011218397412449121
480.0,-0.001163381151854992
512.0,-0.0008262632763944566
576.0,0.0006437352858483791
640.0,0.000770576240029186
704.0,0.0007350452360697091
768.0,0.0005039600073359907
832.0,0.0004771831154357642
896.0,0.00018777951481752098
960.0,0.0003981931949965656
1024.0,-0.0006885118200443685
1152.0,0.0002200913440901786
1280.0,-0.000380964542273432
1408.0,-0.0004173774505034089
1536.0,0.00024534837575629354
1664.0,0.00021615454170387238
1792.0,-0.0009546641376800835
1920.0,-0.00023435418552253395
2048.0,0.00012938094732817262
2304.0,0.0007260146085172892
2560.0,0.0004012534918729216
2816.0,5.4396066843764856e-05
3072.0,0.0006807767786085606
3328.0,-0.00040067569352686405
3584.0,-0.0009230702999047935
3840.0,-0.0002391760644968599
4096.0,-0.00025669659953564405
4608.0,4.058540071127936e-06
5120.0,1.607117519597523e-05
5632.0,-0.0001041831128532067
6144.0,9.880610014079139e-05
6656.0,6.707420106977224e-05
7168.0,0.0003108197415713221
7680.0,0.00032493812614120543
8192.0,0.00017293788550887257
9216.0,7.32329353922978e-05
10240.0,-0.0006792716449126601
11264.0,-0.0005717281601391733
12288.0,-0.0011390604777261615
13312.0,-0.0008166186162270606
14336.0,-0.0005598043790087104
end
