version,3.0
numOfCh,1
type,point
parent_name,20-cuts
ch_type,1_1
kcount,1
numberNandB,1
brightnessNandB,1
carpet pos,0
pc,0
Time (ms),CH1 Auto-Correlation
1.0,0.09107301384210587
2.0,0.08424176275730133
3.0,0.07849520444869995
4.0,0.07344751805067062
5.0,0.0691162645816803
6.0,0.0649876520037651
7.0,0.061188142746686935
8.0,0.057718075811862946
9.0,0.0547516793012619
10.0,0.051898617297410965
11.0,0.04913503676652908
12.0,0.046724602580070496
13.0,0.04425429552793503
14.0,0.04200170189142227
15.0,0.03990641608834267
16.0,0.03804910555481911
18.0,0.034446217119693756
20.0,0.03133361041545868
22.0,0.028718290850520134
24.0,0.026738466694951057
26.0,0.025172598659992218
28.0,0.023737046867609024
30.0,0.0223167035728693
32.0,0.02130286581814289
36.0,0.01941601373255253
40.0,0.017776019871234894
44.0,0.01633216068148613
48.0,0.014740300364792347
52.0,0.014001662842929363
56.0,0.013721653260290623
60.0,0.013449614867568016
64.0,0.013324575498700142
72.0,0.011551366187632084
80.0,0.008968899957835674
88.0,0.006875065620988607
96.0,0.006733729038387537
104.0,0.007591949310153723
112.0,0.007656508591026068
120.0,0.0075917369686067104
128.0,0.0072335898876190186
144.0,0.005210066679865122
160.0,0.003989956341683865
176.0,0.001826985739171505
192.0,0.001312742941081524
208.0,0.00021455639216583222
224.0,0.0006470212247222662
240.0,-2.392925125604961e-05
256.0,-0.0004981522797606885
288.0,-0.00214461050927639
320.0,-0.00204475992359221
352.0,-0.0032109427265822887
384.0,-0.0024497201666235924
416.0,-0.0015903078019618988
448.0,-0.0002986039035022259
480.0,-0.002159401075914502
512.0,-0.0019498494220897555
576.0,0.0007971612503752112
640.0,0.001981388544663787
704.0,0.0031312652863562107
768.0,0.0024074746761471033
832.0,0.001196022261865437
896.0,-0.0014697753358632326
960.0,-0.003333472879603505
1024.0,-0.0010001537157222629
1152.0,-0.000730961502995342
1280.0,-0.0005493945209309459
1408.0,0.002537954831495881
1536.0,0.003667282173410058
1664.0,-0.002166318241506815
1792.0,-0.0012435143580660224
1920.0,0.001529370783828199
2048.0,0.004226744174957275
2304.0,0.0015645308885723352
2560.0,-4.045507375849411e-05
2816.0,-0.0033065432216972113
3072.0,2.2921905838302337e-05
3328.0,-0.0024760346859693527
3584.0,0.001978960819542408
3840.0,5.142072041053325e-05
4096.0,0.002587780822068453
4608.0,8.08567856438458e-05
5120.0,-0.00332490261644125
5632.0,-0.0020505855791270733
6144.0,0.0004442701756488532
6656.0,-0.0007798291626386344
7168.0,-0.0029978298116475344
7680.0,-0.0011992313666269183
8192.0,-0.001362815499305725
9216.0,-0.002598460530862212
10240.0,-0.000632488401606679
11264.0,0.0009747649310156703
12288.0,0.0023337379097938538
13312.0,0.0019390317611396313
14336.0,0.003311202861368656
end
