version,3.0
numOfCh,1
type,point
parent_name,20-cuts
ch_type,1_1
kcount,1
numberNandB,1
brightnessNandB,1
carpet pos,0
pc,0
Time (ms),CH1 Auto-Correlation
1.0,0.0852343738079071
2.0,0.07850109785795212
3.0,0.07259318977594376
4.0,0.06742831319570541
5.0,0.06292724609375
6.0,0.05898142233490944
7.0,0.05538620054721832
8.0,0.05204058066010475
9.0,0.04900723323225975
10.0,0.046198710799217224
11.0,0.043579913675785065
12.0,0.04124687612056732
13.0,0.03915020078420639
14.0,0.03715194761753082
15.0,0.03542973846197128
16.0,0.03398274630308151
18.0,0.03202720358967781
20.0,0.03026115894317627
22.0,0.028022922575473785
24.0,0.02638213150203228
26.0,0.024705160409212112
28.0,0.023291243240237236
30.0,0.02226352132856846
32.0,0.021352484822273254
36.0,0.019700799137353897
40.0,0.019088812172412872
44.0,0.018257565796375275
48.0,0.01686405949294567
52.0,0.015396961942315102
56.0,0.014598147943615913
60.0,0.014156674034893513
64.0,0.013973629102110863
72.0,0.013074269518256187
80.0,0.013150548562407494
88.0,0.012611077167093754
96.0,0.011273756623268127
104.0,0.010848397389054298
112.0,0.009762829169631004
120.0,0.009333201684057713
128.0,0.009141748771071434
144.0,0.008241141214966774
160.0,0.0069136242382228374
176.0,0.0051090773195028305
192.0,0.0038749247323721647
208.0,0.0031215439084917307
224.0,0.00433585187420249
240.0,0.006338287144899368
256.0,0.005607302766293287
288.0,0.004162184428423643
320.0,0.003926111850887537
352.0,0.0016506515676155686
384.0,0.0014468468725681305
416.0,0.002029359107837081
448.0,0.001785185420885682
480.0,0.0002572003868408501
512.0,-0.0011458243243396282
576.0,-0.002997731324285269
640.0,-0.002055229851976037
704.0,-0.00631142221391201
768.0,-0.006797616835683584
832.0,-0.009157149121165276
896.0,-0.008117122575640678
960.0,-0.0037955937441438437
1024.0,-0.0034545972011983395
1152.0,-0.0013919221237301826
1280.0,0.001829331973567605
1408.0,0.003036489710211754
1536.0,0.0032229197677224874
1664.0,0.002650958951562643
1792.0,0.0027303360402584076
1920.0,0.005170490127056837
2048.0,0.0031649433076381683
2304.0,0.0001484106614952907
2560.0,-0.003550716442987323
2816.0,-0.0036774829495698214
3072.0,0.0011921559926122427
3328.0,0.0018428746843710542
3584.0,0.0017666906351223588
3840.0,0.0009427400655113161
4096.0,-0.0010329443030059338
4608.0,0.0004549789591692388
5120.0,-0.003333786502480507
5632.0,0.00042688040412031114
6144.0,-0.00270252232439816
6656.0,-0.003907752688974142
7168.0,-0.002688412554562092
7680.0,0.002341561485081911
8192.0,-0.00048484725994057953
9216.0,8.313272701343521e-05
10240.0,-0.002310333540663123
11264.0,0.0007291864603757858
12288.0,0.0024794305209070444
13312.0,0.0006027778727002442
14336.0,0.0011426948476582766
end
