version,3.0
numOfCh,1
type,point
parent_name,20-cuts
ch_type,1_1
kcount,1
numberNandB,1
brightnessNandB,1
carpet pos,0
pc,0
Time (ms),CH1 Auto-Correlation
1.0,0.09100453555583954
2.0,0.08416053652763367
3.0,0.07850321382284164
4.0,0.0734814703464508
5.0,0.069224052131176
6.0,0.06548883765935898
7.0,0.06201161816716194
8.0,0.05902722477912903
9.0,0.05638537555932999
10.0,0.05372660979628563
11.0,0.05122070759534836
12.0,0.048834655433893204
13.0,0.04675270989537239
14.0,0.04508187994360924
15.0,0.04332781210541725
16.0,0.04166761785745621
18.0,0.03874245658516884
20.0,0.03634900599718094
22.0,0.034147657454013824
24.0,0.0321100614964962
26.0,0.029555022716522217
28.0,0.027436474338173866
30.0,0.026275599375367165
32.0,0.025766026228666306
36.0,0.023618385195732117
40.0,0.021270068362355232
44.0,0.019710326567292213
48.0,0.018564589321613312
52.0,0.017792297527194023
56.0,0.017380490899086
60.0,0.016737282276153564
64.0,0.015820316970348358
72.0,0.013522372581064701
80.0,0.011323101818561554
88.0,0.00907548051327467
96.0,0.008791789412498474
104.0,0.009315943345427513
112.0,0.009198088198900223
120.0,0.007574077229946852
128.0,0.00595205370336771
144.0,0.005420540925115347
160.0,0.00459293182939291
176.0,0.003191079944372177
192.0,0.0034957665484398603
208.0,0.0030757649801671505
224.0,0.001852761721238494
240.0,0.0010265570599585772
256.0,0.002021192805841565
288.0,0.0037910279352217913
320.0,0.002718785312026739
352.0,0.004773750901222229
384.0,0.0032630807254463434
416.0,0.0012160602491348982
448.0,0.0008928531315177679
480.0,-0.00014274092973209918
512.0,0.0007343987817876041
576.0,-0.0068533471785485744
640.0,-0.003996414132416248
704.0,-0.0031299288384616375
768.0,0.0024045284371823072
832.0,0.0003447558847256005
896.0,-0.0004128776490688324
960.0,-0.0036694875452667475
1024.0,0.0005215022247284651
1152.0,-0.0023982906714081764
1280.0,-0.0027092667296528816
1408.0,-0.0003802913997787982
1536.0,-0.0013270066119730473
1664.0,-0.006548428907990456
1792.0,-0.0010769636137410998
1920.0,0.00200805370695889
2048.0,-9.339451207779348e-05
2304.0,-0.0008551530772820115
2560.0,0.0025017790030688047
2816.0,0.003912222571671009
3072.0,0.0021213337313383818
3328.0,0.0001125539347412996
3584.0,-0.002043071435764432
3840.0,-0.0009279737714678049
4096.0,0.0003742270637303591
4608.0,-0.0014091467019170523
5120.0,0.0010894701117649674
5632.0,-0.00026133167557418346
6144.0,-0.0006505633355118334
6656.0,0.0007204240537248552
7168.0,0.0015705520054325461
7680.0,0.0012505126651376486
8192.0,-0.002362725790590048
9216.0,-0.004539881367236376
10240.0,0.000453889457276091
11264.0,-0.0011745044030249119
12288.0,-0.0026576188392937183
13312.0,0.0005763281369581819
14336.0,0.0005493424832820892
end
