version,3.0
numOfCh,1
type,point
parent_name,20-cuts
ch_type,1_1
kcount,1
numberNandB,1
brightnessNandB,1
carpet pos,0
pc,0
Time (ms),CH1 Auto-Correlation
1.0,0.09461911767721176
2.0,0.08768142014741898
3.0,0.08164739608764648
4.0,0.07616672664880753
5.0,0.07136660814285278
6.0,0.06721735745668411
7.0,0.06367307156324387
8.0,0.060616713017225266
9.0,0.057775575667619705
10.0,0.054950255900621414
11.0,0.052493155002593994
12.0,0.05025199055671692
13.0,0.048139143735170364
14.0,0.04630328342318535
15.0,0.04464135691523552
16.0,0.04303697869181633
18.0,0.03990218788385391
20.0,0.03711656108498573
22.0,0.034864965826272964
24.0,0.03324490785598755
26.0,0.031649891287088394
28.0,0.029854418709874153
30.0,0.028124792501330376
32.0,0.026250697672367096
36.0,0.022676292806863785
40.0,0.019928982481360435
44.0,0.01824849843978882
48.0,0.016773929819464684
52.0,0.01566728949546814
56.0,0.015079649165272713
60.0,0.014088395982980728
64.0,0.013815443962812424
72.0,0.014010046608746052
80.0,0.014401125721633434
88.0,0.014409065246582031
96.0,0.013132698833942413
104.0,0.012112075462937355
112.0,0.011165074072778225
120.0,0.009105488657951355
128.0,0.0058619920164346695
144.0,0.004465731326490641
160.0,0.0034011933021247387
176.0,0.0040513901039958
192.0,0.0021196925081312656
208.0,0.00032808203832246363
224.0,-0.00018196633027400821
240.0,-0.00220646895468235
256.0,-0.0032235162798315287
288.0,-0.0018515265546739101
320.0,-0.004550043027848005
352.0,-0.005226164124906063
384.0,0.0011541652493178844
416.0,0.005101843271404505
448.0,0.0038939951919019222
480.0,0.0036034323275089264
512.0,0.0022860150784254074
576.0,0.0026118382811546326
640.0,-0.003463645000010729
704.0,-0.005068938247859478
768.0,-0.0065654851496219635
832.0,-9.456376574235037e-05
896.0,0.002825674833729863
960.0,0.003632892621681094
1024.0,0.006698537617921829
1152.0,0.0007830981048755348
1280.0,-0.0008021231624297798
1408.0,-9.407193283550441e-05
1536.0,-0.001340866438113153
1664.0,-0.002913858974352479
1792.0,-0.004436089191585779
1920.0,-0.00031688655144535005
2048.0,9.36216747504659e-05
2304.0,-0.004478419665247202
2560.0,-0.0017079783137887716
2816.0,-0.00062430405523628
3072.0,-0.0003351545019540936
3328.0,-0.0024839728139340878
3584.0,-0.0004936503246426582
3840.0,0.0016610893653705716
4096.0,0.0006873456877656281
4608.0,-0.0014311164850369096
5120.0,0.001875359914265573
5632.0,-8.243219781434163e-05
6144.0,-0.0020225036423653364
6656.0,-0.0022639459930360317
7168.0,-0.00010266886238241568
7680.0,0.004288730211555958
8192.0,-0.002551044337451458
9216.0,-0.002720309654250741
10240.0,-0.00037538239848800004
11264.0,0.0032069729641079903
12288.0,0.001758008380420506
13312.0,0.0012206252431496978
14336.0,-0.0024775383062660694
end
