version,3.0
numOfCh,1
type,point
parent_name,20-cuts
ch_type,1_1
kcount,1
numberNandB,1
brightnessNandB,1
carpet pos,0
pc,0
Time (ms),CH1 Auto-Correlation
1.0,0.04038906469941139
2.0,0.037298399955034256
3.0,0.03470613807439804
4.0,0.03243454918265343
5.0,0.030346689745783806
6.0,0.028548872098326683
7.0,0.026923978701233864
8.0,0.02547217160463333
9.0,0.024114729836583138
10.0,0.02289358153939247
11.0,0.021818554028868675
12.0,0.02086964063346386
13.0,0.019977672025561333
14.0,0.019216960296034813
15.0,0.018411263823509216
16.0,0.017693370580673218
18.0,0.016360536217689514
20.0,0.015085535123944283
22.0,0.013775977306067944
24.0,0.012520741671323776
26.0,0.011451850645244122
28.0,0.010496477596461773
30.0,0.00963482353836298
32.0,0.008811553940176964
36.0,0.007638178765773773
40.0,0.006372557021677494
44.0,0.0052759768441319466
48.0,0.004597278777509928
52.0,0.004295805469155312
56.0,0.004382243845611811
60.0,0.004327825736254454
64.0,0.004158282186836004
72.0,0.00420576985925436
80.0,0.004640322178602219
88.0,0.004418481606990099
96.0,0.004566267132759094
104.0,0.004709686152637005
112.0,0.003881438635289669
120.0,0.0028809134382754564
128.0,0.0021543363109230995
144.0,0.0012584449723362923
160.0,0.0009520356543362141
176.0,0.0001860153570305556
192.0,7.749610813334584e-05
208.0,0.0015281200176104903
224.0,0.0017697042785584927
240.0,0.0013502389192581177
256.0,0.001407478703185916
288.0,0.0016435185680165887
320.0,0.0009423338924534619
352.0,0.0007686735480092466
384.0,0.0006616957252845168
416.0,-0.000808351906016469
448.0,-0.00046972636482678354
480.0,0.00036996512790210545
512.0,9.158896864391863e-05
576.0,-0.0010343428002670407
640.0,-0.00021026903414167464
704.0,-0.002420073840767145
768.0,-0.0019211905309930444
832.0,-0.0029512483160942793
896.0,-0.003418656764551997
960.0,-0.001974638784304261
1024.0,-0.0016304826131090522
1152.0,-0.001558522810228169
1280.0,-0.00027740103541873395
1408.0,0.0008429434383288026
1536.0,0.0017925251740962267
1664.0,0.003102091606706381
1792.0,0.0017036341596394777
1920.0,0.000773247389588505
2048.0,-0.0006030509830452502
2304.0,-0.0009080052841454744
2560.0,-0.0024378804955631495
2816.0,-0.001203629421070218
3072.0,0.00021486777404788882
3328.0,0.0009038133430294693
3584.0,0.0007956093177199364
3840.0,0.0012329131131991744
4096.0,-0.0023473091423511505
4608.0,0.00010652303899405524
5120.0,0.0004600796091835946
5632.0,-0.0010460390476509929
6144.0,0.00044940703082829714
6656.0,0.001821583486162126
7168.0,-0.0007751465891487896
7680.0,-0.0016113676829263568
8192.0,0.0015033287927508354
9216.0,-0.0013600168749690056
10240.0,0.0008004762348718941
11264.0,-0.00031730617047287524
12288.0,0.0004130404850002378
13312.0,0.00036883336724713445
14336.0,-0.00012181456258986145
end
