version,3.0
numOfCh,1
type,point
parent_name,20-cuts
ch_type,1_1
kcount,1
numberNandB,1
brightnessNandB,1
carpet pos,0
pc,0
Time (ms),CH1 Auto-Correlation
1.0,0.08469201624393463
2.0,0.07782159745693207
3.0,0.0719362273812294
4.0,0.06691819429397583
5.0,0.0626755803823471
6.0,0.0592624731361866
7.0,0.056374918669462204
8.0,0.053662367165088654
9.0,0.051035478711128235
10.0,0.048680711537599564
11.0,0.046607255935668945
12.0,0.04477037861943245
13.0,0.043116964399814606
14.0,0.041408199816942215
15.0,0.03984629735350609
16.0,0.038431547582149506
18.0,0.0364534854888916
20.0,0.03428100794553757
22.0,0.03217928111553192
24.0,0.03040875494480133
26.0,0.028683729469776154
28.0,0.02679271437227726
30.0,0.02532823197543621
32.0,0.02414301037788391
36.0,0.021317383274435997
40.0,0.01882350631058216
44.0,0.01728372648358345
48.0,0.015719356015324593
52.0,0.01439506746828556
56.0,0.012909837998449802
60.0,0.011633412912487984
64.0,0.010412076488137245
72.0,0.009586847387254238
80.0,0.00891976710408926
88.0,0.009181749075651169
96.0,0.00980239175260067
104.0,0.008877775631844997
112.0,0.00863553211092949
120.0,0.007881776429712772
128.0,0.005999094806611538
144.0,0.003906669560819864
160.0,0.0024537136778235435
176.0,0.0014907270669937134
192.0,-0.0004917588084936142
208.0,-0.0029375660233199596
224.0,-0.0028938245959579945
240.0,-0.0005493821226991713
256.0,0.0002528657205402851
288.0,0.0003470867231953889
320.0,-0.0013567385030910373
352.0,-0.001930085476487875
384.0,4.5855380449211225e-05
416.0,0.0027403950225561857
448.0,0.004052501171827316
480.0,0.0029248734936118126
512.0,0.005236361175775528
576.0,-0.00022828279179520905
640.0,-0.0035682297311723232
704.0,-0.004505197051912546
768.0,-0.0017761139897629619
832.0,-0.002195190405473113
896.0,0.0016654954524710774
960.0,0.0007932298467494547
1024.0,-0.0008628448704257607
1152.0,-0.0017893469193950295
1280.0,-0.0029956502839922905
1408.0,-0.0002919952676165849
1536.0,0.001557486248202622
1664.0,0.0004928576527163386
1792.0,-0.0013717577094212174
1920.0,0.0034876184072345495
2048.0,0.007181278429925442
2304.0,-0.0004994510672986507
2560.0,-0.001982841407880187
2816.0,0.001217287965118885
3072.0,-0.002047270303592086
3328.0,-0.002317034872248769
3584.0,-0.0015315726632252336
3840.0,0.004729290027171373
4096.0,-0.0015422417782247066
4608.0,-0.0028612350579351187
5120.0,-0.0005103275761939585
5632.0,-0.0024199297185987234
6144.0,-0.003938928246498108
6656.0,-0.0009381147101521492
7168.0,-0.0020042031537741423
7680.0,0.0005010484019294381
8192.0,-0.000271925498964265
9216.0,0.003919470589607954
10240.0,-0.0012332156766206026
11264.0,0.0037784564774483442
12288.0,0.00199383613653481
13312.0,-0.001950350939296186
14336.0,0.000303558335872367
end
