version,3.0
numOfCh,1
type,point
parent_name,20-cuts
ch_type,1_1
kcount,1
numberNandB,1
brightnessNandB,1
carpet pos,0
pc,0
Time (ms),CH1 Auto-Correlation
1.0,0.02824818715453148
2.0,0.026118064299225807
3.0,0.02432241104543209
4.0,0.02274496480822563
5.0,0.021350139752030373
6.0,0.02011333778500557
7.0,0.01904897950589657
8.0,0.01808468997478485
9.0,0.01724017970263958
10.0,0.016528263688087463
11.0,0.01583564281463623
12.0,0.015214454382658005
13.0,0.014660067856311798
14.0,0.014139881357550621
15.0,0.013643236830830574
16.0,0.01310392003506422
18.0,0.012076320126652718
20.0,0.01117031741887331
22.0,0.01043172087520361
24.0,0.009848595596849918
26.0,0.009396061301231384
28.0,0.008938301354646683
30.0,0.008548528887331486
32.0,0.008156617172062397
36.0,0.007495776284486055
40.0,0.00712899025529623
44.0,0.006807398051023483
48.0,0.006638337392359972
52.0,0.006338595412671566
56.0,0.006073431111872196
60.0,0.0055554877035319805
64.0,0.00524922227486968
72.0,0.005220211111009121
80.0,0.005403165239840746
88.0,0.005301397293806076
96.0,0.004546979442238808
104.0,0.0039033617358654737
112.0,0.0036506461910903454
120.0,0.0035910806618630886
128.0,0.0034397828858345747
144.0,0.0024251106660813093
160.0,0.0018770802998915315
176.0,0.0015611585695296526
192.0,0.0007712881197221577
208.0,0.00048700033221393824
224.0,0.000399560114601627
240.0,0.0009364293073303998
256.0,0.0015116045251488686
288.0,0.0006468367646448314
320.0,0.00035927488352172077
352.0,-8.274287392850965e-05
384.0,-0.0005120862042531371
416.0,1.3192928236094303e-05
448.0,-0.000571324722841382
480.0,-0.0005302808713167906
512.0,-0.00029278089641593397
576.0,-0.0002912625204771757
640.0,0.0003003869205713272
704.0,0.0015460761496797204
768.0,0.0022659951355308294
832.0,0.0016899211332201958
896.0,0.0009045582264661789
960.0,0.0015112775145098567
1024.0,0.001514613744802773
1152.0,0.0004259188426658511
1280.0,-3.193336306139827e-05
1408.0,-0.0015899792779237032
1536.0,-0.0018672951264306903
1664.0,-0.0016681405249983072
1792.0,0.0004957865457981825
1920.0,0.00018977872969117016
2048.0,-0.0010963671375066042
2304.0,-0.001901577808894217
2560.0,-0.0009249363210983574
2816.0,-0.0003169324481859803
3072.0,-0.00046914329868741333
3328.0,-0.0007694442756474018
3584.0,-0.0013752481900155544
3840.0,0.001123256515711546
4096.0,0.00013808287621941417
4608.0,0.0009214469464495778
5120.0,0.001902591553516686
5632.0,0.0009490176453255117
6144.0,-0.0005951588391326368
6656.0,-0.0017282005865126848
7168.0,-0.001714409445412457
7680.0,-0.0005548769258894026
8192.0,-0.0007646033773198724
9216.0,0.00013394909910857677
10240.0,-0.0004908942501060665
11264.0,-0.0009528261725790799
12288.0,-0.00030239790794439614
13312.0,0.0013988714199513197
14336.0,0.0012625970412045717
end
