version,3.0
numOfCh,1
type,point
parent_name,20-cuts
ch_type,1_1
kcount,1
numberNandB,1
brightnessNandB,1
carpet pos,0
pc,0
Time (ms),CH1 Auto-Correlation
1.0,0.08791433274745941
2.0,0.08111333101987839
3.0,0.07512379437685013
4.0,0.06980399787425995
5.0,0.06530269980430603
6.0,0.061264682561159134
7.0,0.05768643319606781
8.0,0.054427992552518845
9.0,0.051549095660448074
10.0,0.04883735626935959
11.0,0.046322211623191833
12.0,0.04399186000227928
13.0,0.041898079216480255
14.0,0.04003845900297165
15.0,0.03829192742705345
16.0,0.03659413009881973
18.0,0.03357074782252312
20.0,0.03115917555987835
22.0,0.029420645907521248
24.0,0.027752617374062538
26.0,0.025991695001721382
28.0,0.02421940304338932
30.0,0.02251858450472355
32.0,0.02085968106985092
36.0,0.01843535713851452
40.0,0.01661498099565506
44.0,0.014347624033689499
48.0,0.012269900180399418
52.0,0.01039993204176426
56.0,0.00863057654350996
60.0,0.007032531779259443
64.0,0.006181083153933287
72.0,0.004346626810729504
80.0,0.0024664783850312233
88.0,0.0013508927077054977
96.0,0.001049036392942071
104.0,0.00011367019760655239
112.0,-0.0016510534333065152
120.0,-0.0026703891344368458
128.0,-0.003227989422157407
144.0,-0.002290713367983699
160.0,-0.0002796065527945757
176.0,-0.0018476889235898852
192.0,-0.0009261813829652965
208.0,0.0013870828552171588
224.0,0.0016561982920393348
240.0,0.0014346861280500889
256.0,0.001070428523235023
288.0,-4.989661101717502e-05
320.0,-0.001878865179605782
352.0,-0.002394255017861724
384.0,-0.002429259940981865
416.0,-0.002329836832359433
448.0,-0.0030611427500844
480.0,-0.005280674900859594
512.0,-0.007268137764185667
576.0,-0.002369103254750371
640.0,-0.0012624455848708749
704.0,-0.0026351825799793005
768.0,0.0017799539491534233
832.0,0.0007167552830651402
896.0,0.00018818916578311473
960.0,0.0002587745839264244
1024.0,0.0013138527283445
1152.0,0.0003636011097114533
1280.0,-0.0011513859499245882
1408.0,0.0003443255554884672
1536.0,-0.0027862624265253544
1664.0,0.0005172730307094753
1792.0,0.0026544558349996805
1920.0,2.7082804081146605e-05
2048.0,0.0021968602668493986
2304.0,-0.0022725239396095276
2560.0,-0.0006826460012234747
2816.0,0.0012307805009186268
3072.0,-0.0001438759354641661
3328.0,0.0025967895053327084
3584.0,-0.0004947681445628405
3840.0,-0.0005305464146658778
4096.0,0.0011985378805547953
4608.0,-0.0005244457861408591
5120.0,-0.0006995625444687903
5632.0,0.0010531024308875203
6144.0,-0.0005599875003099442
6656.0,-0.0014590129721909761
7168.0,0.0012223153607919812
7680.0,-0.0017952162306755781
8192.0,-0.0018570099491626024
9216.0,0.00024941633455455303
10240.0,-0.0013420864706858993
11264.0,0.000509456149302423
12288.0,0.0010156786302104592
13312.0,0.00045171144302003086
14336.0,0.002387832384556532
end
