version,3.0
numOfCh,1
type,point
parent_name,20-cuts
ch_type,1_1
kcount,1
numberNandB,1
brightnessNandB,1
carpet pos,0
pc,0
Time (ms),CH1 Auto-Correlation
1.0,0.04201829060912132
2.0,0.03877028822898865
3.0,0.036009278148412704
4.0,0.03359570354223251
5.0,0.03153093904256821
6.0,0.029681243002414703
7.0,0.028153376653790474
8.0,0.026737632229924202
9.0,0.02545352652668953
10.0,0.02436453476548195
11.0,0.023364732041954994
12.0,0.022451236844062805
13.0,0.02157696895301342
14.0,0.020814545452594757
15.0,0.019977910444140434
16.0,0.019158218055963516
18.0,0.017543969675898552
20.0,0.016117602586746216
22.0,0.015056930482387543
24.0,0.014183265157043934
26.0,0.013348311185836792
28.0,0.012438350357115269
30.0,0.011649099178612232
32.0,0.010868309065699577
36.0,0.009475079365074635
40.0,0.008307458832859993
44.0,0.0075860293582081795
48.0,0.006567803211510181
52.0,0.0056487745605409145
56.0,0.004748806823045015
60.0,0.0037685728166252375
64.0,0.0031874747946858406
72.0,0.002818495035171509
80.0,0.0028830822557210922
88.0,0.003348835278302431
96.0,0.0034452704712748528
104.0,0.0036389329470694065
112.0,0.003241035621613264
120.0,0.0025197225622832775
128.0,0.0019851443357765675
144.0,0.0007963164825923741
160.0,0.0005146091571077704
176.0,0.0005732814897783101
192.0,0.00038296543061733246
208.0,-0.00010843790369108319
224.0,-0.0005606984486803412
240.0,-0.0005887307925149798
256.0,0.00029961802647449076
288.0,0.00010474674490978941
320.0,-0.000750971317756921
352.0,-0.001980292145162821
384.0,-0.000891883100848645
416.0,-0.0007338264840655029
448.0,0.0005122224101796746
480.0,-0.00057877047220245
512.0,0.0008199993171729147
576.0,-0.00019626409630291164
640.0,-0.0007479885825887322
704.0,0.00019507996330503374
768.0,-6.185626989463344e-05
832.0,-0.0005214480916038156
896.0,-0.0006039059371687472
960.0,-0.000929107831325382
1024.0,-0.0005184764158912003
1152.0,0.0004351795359980315
1280.0,-0.0006998745375312865
1408.0,-0.0021936374250799417
1536.0,-0.0016014757566154003
1664.0,0.0010959708597511053
1792.0,-4.326787529862486e-05
1920.0,0.0004217198002152145
2048.0,0.0015161170158535242
2304.0,0.000572835560888052
2560.0,-0.0016360891750082374
2816.0,-0.00048138623242266476
3072.0,0.0009440180147066712
3328.0,-0.0019465532386675477
3584.0,-0.0006976260920055211
3840.0,-0.0008585499599575996
4096.0,8.568206976633519e-05
4608.0,0.0009667651611380279
5120.0,0.0002162105665775016
5632.0,-0.001651268103159964
6144.0,0.00047409761464223266
6656.0,0.0006452285451814532
7168.0,0.0010698591358959675
7680.0,-0.0007658692193217576
8192.0,-0.0008070862386375666
9216.0,0.0004911359283141792
10240.0,-0.0009202102664858103
11264.0,0.001539425808005035
12288.0,-0.0003712432226166129
13312.0,-0.0002430442691547796
14336.0,0.0006395881646312773
end
