version,3.0
numOfCh,1
type,point
parent_name,20-cuts
ch_type,1_1
kcount,1
numberNandB,1
brightnessNandB,1
carpet pos,0
pc,0
Time (ms),CH1 Auto-Correlation
1.0,0.02700071409344673
2.0,0.024753587320446968
3.0,0.02289692498743534
4.0,0.021219678223133087
5.0,0.01980319805443287
6.0,0.01856437511742115
7.0,0.017567936331033707
8.0,0.016665777191519737
9.0,0.015896929427981377
10.0,0.015190918929874897
11.0,0.014577140100300312
12.0,0.014006431214511395
13.0,0.013537449762225151
14.0,0.013093391433358192
15.0,0.01269971951842308
16.0,0.012317297048866749
18.0,0.01144486479461193
20.0,0.01054924726486206
22.0,0.009721248410642147
24.0,0.009060646407306194
26.0,0.008452510461211205
28.0,0.007972152903676033
30.0,0.007467432413250208
32.0,0.006929139140993357
36.0,0.006067271810024977
40.0,0.005285857245326042
44.0,0.0045902603305876255
48.0,0.004219394642859697
52.0,0.0038617218378931284
56.0,0.003570258617401123
60.0,0.003586615901440382
64.0,0.0036842203699052334
72.0,0.0030669921543449163
80.0,0.0028802272863686085
88.0,0.002930856542661786
96.0,0.0024702881928533316
104.0,0.0017018013168126345
112.0,0.0010513593442738056
120.0,0.0005371110746636987
128.0,0.0006230748258531094
144.0,0.0013843118213117123
160.0,0.0011794823221862316
176.0,0.0006295142229646444
192.0,0.00023631851945538074
208.0,0.0001324356417171657
224.0,-0.00015771863400004804
240.0,-2.9882692615501583e-05
256.0,5.559642886510119e-05
288.0,-0.00035743892658501863
320.0,-0.0008280569454655051
352.0,-0.0013344628969207406
384.0,-0.0014784066006541252
416.0,-0.001441011787392199
448.0,-0.0005222345353104174
480.0,-0.00017492524057161063
512.0,3.558127355063334e-05
576.0,-0.0011263772612437606
640.0,0.0003391157079022378
704.0,-3.975876097683795e-05
768.0,-0.00033542324672453105
832.0,0.0006716455682180822
896.0,5.9497553593246266e-05
960.0,-0.0005268555833026767
1024.0,-0.0011665045749396086
1152.0,-0.00042365622357465327
1280.0,-0.0014948680764064193
1408.0,-0.0006193625740706921
1536.0,0.00045195664279162884
1664.0,0.0019775896798819304
1792.0,0.0008789919083938003
1920.0,-0.00048679561587050557
2048.0,0.00010223827121080831
2304.0,-0.0001564666599733755
2560.0,-0.000765226548537612
2816.0,-0.0004502738593146205
3072.0,-0.000593534903600812
3328.0,0.0006210098508745432
3584.0,-9.064710297934653e-07
3840.0,-0.0005216340068727732
4096.0,0.0010597556829452515
4608.0,-0.00029339102911762893
5120.0,-0.0004556705243885517
5632.0,0.0005704077193513513
6144.0,0.0006536413566209376
6656.0,-0.001002536271698773
7168.0,0.0006051486707292497
7680.0,0.0005358128692023456
8192.0,-0.0007708680350333452
9216.0,-0.0004541299713309854
10240.0,0.0001713350065983832
11264.0,-0.00024105932970996946
12288.0,0.00039334912435151637
13312.0,-0.0003046811616513878
14336.0,-8.475629874737933e-05
end
