version,3.0
numOfCh,1
type,point
parent_name,20-cuts
ch_type,1_1
kcount,1
numberNandB,1
brightnessNandB,1
carpet pos,0
pc,0
Time (ms),CH1 Auto-Correlation
1.0,0.08857333660125732
2.0,0.0818772166967392
3.0,0.07586448639631271
4.0,0.07055661082267761
5.0,0.06601548194885254
6.0,0.062036480754613876
7.0,0.058482903987169266
8.0,0.055458057671785355
9.0,0.052735183387994766
10.0,0.05003082752227783
11.0,0.04754253849387169
12.0,0.04516506567597389
13.0,0.043200261890888214
14.0,0.041361432522535324
15.0,0.03948770835995674
16.0,0.037978529930114746
18.0,0.03540688753128052
20.0,0.03335008770227432
22.0,0.031603872776031494
24.0,0.029990846291184425
26.0,0.028489015996456146
28.0,0.026543041691184044
30.0,0.024735722690820694
32.0,0.02374369278550148
36.0,0.021427277475595474
40.0,0.019123682752251625
44.0,0.01649138517677784
48.0,0.014216110110282898
52.0,0.012340608984231949
56.0,0.010641241446137428
60.0,0.009751792065799236
64.0,0.009168136864900589
72.0,0.007372249849140644
80.0,0.005636512767523527
88.0,0.005903999786823988
96.0,0.006468237843364477
104.0,0.006601988337934017
112.0,0.007154700346291065
120.0,0.007624052930623293
128.0,0.008094293996691704
144.0,0.005310040432959795
160.0,0.0007715935353189707
176.0,-0.0002492759667802602
192.0,0.0004608641902450472
208.0,0.003176542930305004
224.0,0.003899232018738985
240.0,0.0014855348272249103
256.0,-0.00021323007240425795
288.0,-0.0014248513616621494
320.0,0.0004169429012108594
352.0,-0.0003884010366164148
384.0,-3.9180296880658716e-05
416.0,0.0019956801552325487
448.0,0.0023835867177695036
480.0,-0.00029524590354412794
512.0,-0.00242117908783257
576.0,0.003553652437403798
640.0,0.00236167898401618
704.0,0.002784048905596137
768.0,0.002574456389993429
832.0,0.000308064540149644
896.0,-0.0017787630204111338
960.0,-0.002931520575657487
1024.0,4.118355263926787e-06
1152.0,-0.0029957168735563755
1280.0,0.0015011020004749298
1408.0,-0.00028766223113052547
1536.0,-0.0015506275231018662
1664.0,-0.0015687319682911038
1792.0,-0.0021717273630201817
1920.0,0.0008441816898994148
2048.0,0.001162114436738193
2304.0,0.00042175306589342654
2560.0,0.002072059316560626
2816.0,0.002871220465749502
3072.0,-0.0009071971871890128
3328.0,-0.00033264074590988457
3584.0,0.0020659295842051506
3840.0,0.0010061007924377918
4096.0,0.00023569077893625945
4608.0,0.00047412014100700617
5120.0,-0.001327894744463265
5632.0,-0.0018728494178503752
6144.0,-0.0011631749803200364
6656.0,-0.0003370877238921821
7168.0,0.0007726607145741582
7680.0,-0.0039035084191709757
8192.0,0.0019546295516192913
9216.0,-0.005775799509137869
10240.0,0.0016222053673118353
11264.0,0.0016665231669321656
12288.0,-0.003232974326238036
13312.0,0.004245874006301165
14336.0,-0.001740294974297285
end
