version,3.0
numOfCh,1
type,point
parent_name,20-cuts
ch_type,1_1
kcount,1
numberNandB,1
brightnessNandB,1
carpet pos,0
pc,0
Time (ms),CH1 Auto-Correlation
1.0,0.028192918747663498
2.0,0.025971269235014915
3.0,0.024079227820038795
4.0,0.022382834926247597
5.0,0.020897777751088142
6.0,0.01956217549741268
7.0,0.018410155549645424
8.0,0.01735166646540165
9.0,0.01641928404569626
10.0,0.01555075403302908
11.0,0.014755608513951302
12.0,0.014011501334607601
13.0,0.013300826773047447
14.0,0.012691761367022991
15.0,0.01210366003215313
16.0,0.011487907730042934
18.0,0.010506877675652504
20.0,0.009582508355379105
22.0,0.008868140168488026
24.0,0.008220931515097618
26.0,0.007755046710371971
28.0,0.007374599575996399
30.0,0.007059549447149038
32.0,0.006680332589894533
36.0,0.006039820145815611
40.0,0.005673988256603479
44.0,0.005266267340630293
48.0,0.004980634432286024
52.0,0.004827926401048899
56.0,0.004438364878296852
60.0,0.004050536546856165
64.0,0.003519065910950303
72.0,0.0025636644568294287
80.0,0.002065605018287897
88.0,0.0015215168241411448
96.0,0.0010267356410622597
104.0,0.0007040574564598501
112.0,0.00029901706147938967
120.0,-0.0002224603231297806
128.0,-3.094321073149331e-05
144.0,0.0007361057214438915
160.0,0.0007933072629384696
176.0,0.0017690564272925258
192.0,0.001746766734868288
208.0,0.0014784431550651789
224.0,0.0019363590981811285
240.0,0.002051048679277301
256.0,0.0019785710610449314
288.0,0.0012867709156125784
320.0,0.0010186878498643637
352.0,0.0007354139816015959
384.0,0.00028613442555069923
416.0,0.001061023911461234
448.0,0.0002125897299265489
480.0,0.00012745233834721148
512.0,0.0008581718429923058
576.0,0.0016119052888825536
640.0,0.0007247172761708498
704.0,0.0012622709618881345
768.0,0.0003603165678214282
832.0,-0.0012424725573509932
896.0,-0.0012470659567043185
960.0,-0.0012963998597115278
1024.0,-7.733038364676759e-05
1152.0,0.00045701037743128836
1280.0,-6.923163164174184e-05
1408.0,-0.0001566397404531017
1536.0,-0.0002730502455960959
1664.0,8.166160841938108e-05
1792.0,-0.00035846952232532203
1920.0,-0.0018909930950030684
2048.0,-0.0018376910593360662
2304.0,-0.0017338532488793135
2560.0,-0.0012504758778959513
2816.0,-0.00013846834190189838
3072.0,-0.0010147200664505363
3328.0,-0.0008713610004633665
3584.0,-0.0013083764351904392
3840.0,0.00018788393936119974
4096.0,0.0011305810185149312
4608.0,0.0003441710432525724
5120.0,-2.4568958906456828e-05
5632.0,0.0024151368997991085
6144.0,0.00046486849896609783
6656.0,-0.00046286368160508573
7168.0,-0.00022049155086278915
7680.0,-0.0008357508922927082
8192.0,-0.0002211054234066978
9216.0,-0.0006766741280443966
10240.0,-0.00010961374937323853
11264.0,0.0021008639596402645
12288.0,-0.0008148989290930331
13312.0,-0.0017081679543480277
14336.0,0.0015040019061416388
end
