version,3.0
numOfCh,1
type,point
parent_name,20-cuts
ch_type,1_1
kcount,1
numberNandB,1
brightnessNandB,1
carpet pos,0
pc,0
Time (ms),CH1 Auto-Correlation
1.0,0.0392850823700428
2.0,0.03608248382806778
3.0,0.033348020166158676
4.0,0.030949968844652176
5.0,0.028854934498667717
6.0,0.02711130678653717
7.0,0.025459107011556625
8.0,0.024026047438383102
9.0,0.022698091343045235
10.0,0.021518174558877945
11.0,0.020517446100711823
12.0,0.019579928368330002
13.0,0.018797386437654495
14.0,0.01808279938995838
15.0,0.017382504418492317
16.0,0.016759289428591728
18.0,0.015542463399469852
20.0,0.0142601253464818
22.0,0.013143625110387802
24.0,0.012486099265515804
26.0,0.011757822707295418
28.0,0.011114794760942459
30.0,0.010552196763455868
32.0,0.010061311535537243
36.0,0.008989890106022358
40.0,0.007899093441665173
44.0,0.007088019046932459
48.0,0.006451551336795092
52.0,0.005749971140176058
56.0,0.0050153774209320545
60.0,0.004728741478174925
64.0,0.00451058940961957
72.0,0.004011700861155987
80.0,0.003388086101040244
88.0,0.002691791160032153
96.0,0.0016910972772166133
104.0,0.001347417593933642
112.0,0.0012416297104209661
120.0,0.0008255971479229629
128.0,3.1127685360843316e-05
144.0,-0.00043786855530925095
160.0,-1.3809277334075887e-05
176.0,-0.0002627008070703596
192.0,-5.918184251640923e-05
208.0,-0.0005167973577044904
224.0,0.00044582021655514836
240.0,0.0014526708982884884
256.0,0.0017004474066197872
288.0,0.0020761953201144934
320.0,0.002021570224314928
352.0,0.0013626967556774616
384.0,-0.000500334135722369
416.0,-0.0021266259718686342
448.0,-0.0013164563570171595
480.0,-0.0017184087773784995
512.0,-0.0024416125379502773
576.0,-0.001785498345270753
640.0,-0.0011902677360922098
704.0,-2.2243377316044644e-05
768.0,0.0008569346973672509
832.0,0.0008609555079601705
896.0,-0.0010628444142639637
960.0,1.2865411008533556e-05
1024.0,-0.001149417134001851
1152.0,0.0002655379648786038
1280.0,-0.0010148599976673722
1408.0,-0.0017184618627652526
1536.0,-0.00023932808835525066
1664.0,-3.8068072171881795e-05
1792.0,-0.0011819247156381607
1920.0,0.0005051543121226132
2048.0,0.0006695885676890612
2304.0,0.0004407814994920045
2560.0,-0.0005306217353790998
2816.0,-0.00025433223345316947
3072.0,0.00016079570923466235
3328.0,0.00020534977375064045
3584.0,0.00011507485032780096
3840.0,0.00019345256441738456
4096.0,1.5734460248495452e-05
4608.0,-0.0005768227274529636
5120.0,-0.0005869795568287373
5632.0,0.0009626832325011492
6144.0,-0.0004630604526028037
6656.0,-0.0003066795179620385
7168.0,-0.0007453595171682537
7680.0,0.000342365208780393
8192.0,-8.251536200987175e-05
9216.0,-0.0001827916712500155
10240.0,-0.0009883746970444918
11264.0,0.0018938613357022405
12288.0,-0.00023834200692363083
13312.0,0.0007900408818386495
14336.0,-0.0021248997654765844
end
