version,3.0
numOfCh,1
type,point
parent_name,20-cuts
ch_type,1_1
kcount,1
numberNandB,1
brightnessNandB,1
carpet pos,0
pc,0
Time (ms),CH1 Auto-Correlation
1.0,0.02812589518725872
2.0,0.02601047419011593
3.0,0.02419048734009266
4.0,0.022679394111037254
5.0,0.021296054124832153
6.0,0.020047834143042564
7.0,0.018946630880236626
8.0,0.017970066517591476
9.0,0.017028503119945526
10.0,0.016193421557545662
11.0,0.015478188171982765
12.0,0.01479154359549284
13.0,0.014131494797766209
14.0,0.013523989357054234
15.0,0.012921093963086605
16.0,0.012344400398433208
18.0,0.011292300187051296
20.0,0.010225779376924038
22.0,0.00931340642273426
24.0,0.008480310440063477
26.0,0.007790062110871077
28.0,0.007175086066126823
30.0,0.006759090349078178
32.0,0.006419188342988491
36.0,0.0058565386570990086
40.0,0.0051581840962171555
44.0,0.004663966130465269
48.0,0.004313020966947079
52.0,0.00383313512429595
56.0,0.0034394750837236643
60.0,0.003180874977260828
64.0,0.0029109350871294737
72.0,0.002035626443102956
80.0,0.0015710643492639065
88.0,0.0013161135138943791
96.0,0.001376666477881372
104.0,0.0017933668568730354
112.0,0.0019696869421750307
120.0,0.002094435738399625
128.0,0.0021562937181442976
144.0,0.0020654057152569294
160.0,0.001480807433836162
176.0,0.001535296207293868
192.0,0.0010139236692339182
208.0,0.00012996315490454435
224.0,0.00019181103562004864
240.0,0.0006607010727748275
256.0,0.0008572673541493714
288.0,-0.00047351521789096296
320.0,-0.0003770409384742379
352.0,-0.0015518191503360868
384.0,-0.0012690074509009719
416.0,-0.0014626908814534545
448.0,-0.0011776688043028116
480.0,-0.0011929728789255023
512.0,-0.0017231140518561006
576.0,-0.0003747949667740613
640.0,-0.0004196165536995977
704.0,-0.0009879759745672345
768.0,-0.0005808271234855056
832.0,-5.7726130762603134e-05
896.0,-0.0008480022079311311
960.0,-0.001311653875745833
1024.0,-0.0008224889170378447
1152.0,-0.0015497494023293257
1280.0,-0.0012422475265339017
1408.0,0.00018098914006259292
1536.0,0.0005488167516887188
1664.0,0.0013466982636600733
1792.0,0.00038364718784578145
1920.0,-0.00026272254763171077
2048.0,0.0003112050471827388
2304.0,-0.0005120366695336998
2560.0,-0.0002462316188029945
2816.0,0.00037064251955598593
3072.0,0.00011586581968003884
3328.0,-2.8425827622413635e-05
3584.0,0.0004256481770426035
3840.0,-0.0011828526621684432
4096.0,-0.0007582496618852019
4608.0,0.0008309466647915542
5120.0,0.00023738591698929667
5632.0,-0.0010438095778226852
6144.0,-0.0002452668559271842
6656.0,0.0006882635643705726
7168.0,0.0008109946502372622
7680.0,-0.0008099594269879162
8192.0,-0.0004417954187374562
9216.0,0.00012832219363190234
10240.0,0.00014397039194591343
11264.0,-0.0002248691307613626
12288.0,2.446506914566271e-05
13312.0,-0.00030854501528665423
14336.0,0.00040479208109900355
end
