version,3.0
numOfCh,1
type,point
parent_name,20-cuts
ch_type,1_1
kcount,1
numberNandB,1
brightnessNandB,1
carpet pos,0
pc,0
Time (ms),CH1 Auto-Correlation
1.0,0.04318748787045479
2.0,0.040081582963466644
3.0,0.03748113289475441
4.0,0.03520403429865837
5.0,0.03317459300160408
6.0,0.031411200761795044
7.0,0.029878418892621994
8.0,0.02856963314116001
9.0,0.027316179126501083
10.0,0.026199746876955032
11.0,0.025123029947280884
12.0,0.024081213399767876
13.0,0.02317415364086628
14.0,0.02242261916399002
15.0,0.02178473398089409
16.0,0.021113010123372078
18.0,0.01989777944982052
20.0,0.018834656104445457
22.0,0.017739994451403618
24.0,0.016800029203295708
26.0,0.0159839428961277
28.0,0.015235069207847118
30.0,0.014546386897563934
32.0,0.014058519154787064
36.0,0.013275563716888428
40.0,0.012464328669011593
44.0,0.011529522947967052
48.0,0.010652577504515648
52.0,0.009855953976511955
56.0,0.009113296866416931
60.0,0.008749348111450672
64.0,0.008603045716881752
72.0,0.007845589891076088
80.0,0.007363388780504465
88.0,0.006787701044231653
96.0,0.00613392423838377
104.0,0.005540692247450352
112.0,0.004628676455467939
120.0,0.003915972076356411
128.0,0.002988862106576562
144.0,0.002039294457063079
160.0,0.002248032484203577
176.0,0.002654824173077941
192.0,0.003015709575265646
208.0,0.003925102762877941
224.0,0.00308479112572968
240.0,0.002692008623853326
256.0,0.0032167036551982164
288.0,0.0038647798355668783
320.0,0.0034015276469290257
352.0,0.001761393272317946
384.0,0.0007144584669731557
416.0,0.0004349200171418488
448.0,0.0007046193350106478
480.0,0.0014280217001214623
512.0,0.00022626848658546805
576.0,-0.0011355845490470529
640.0,0.00037259497912600636
704.0,0.0003805931773968041
768.0,0.0005992406513541937
832.0,-0.0004959545913152397
896.0,-0.001368910539895296
960.0,0.0009035454713739455
1024.0,0.0025536054745316505
1152.0,0.0029560495167970657
1280.0,-7.238145190058276e-05
1408.0,-0.00151383550837636
1536.0,-0.0012581981718540192
1664.0,-0.00028654246125370264
1792.0,-0.0014870567247271538
1920.0,0.0018477302510291338
2048.0,-2.7802339900517836e-05
2304.0,0.00021482256124727428
2560.0,-0.002590416232123971
2816.0,-0.0017538209212943912
3072.0,-0.002044542459771037
3328.0,-9.293745824834332e-05
3584.0,-0.0020184642635285854
3840.0,-0.002157301176339388
4096.0,-0.002432742156088352
4608.0,-0.0007279011770151556
5120.0,0.00040146394167095423
5632.0,-0.0017741116462275386
6144.0,0.0020675670821219683
6656.0,0.002047153189778328
7168.0,0.0022160650696605444
7680.0,-0.0010345473419874907
8192.0,-0.00035059184301644564
9216.0,-0.001349142869003117
10240.0,-0.002796252490952611
11264.0,-0.000660991296172142
12288.0,0.0010474852751940489
13312.0,0.003211881034076214
14336.0,-0.00265082367695868
end
