version,3.0
numOfCh,1
type,point
parent_name,20-cuts
ch_type,1_1
kcount,1
numberNandB,1
brightnessNandB,1
carpet pos,0
pc,0
Time (ms),CH1 Auto-Correlation
1.0,0.028571534901857376
2.0,0.026411928236484528
3.0,0.024527177214622498
4.0,0.022863460704684258
5.0,0.0213545560836792
6.0,0.020052988082170486
7.0,0.018873311579227448
8.0,0.017781907692551613
9.0,0.01682613417506218
10.0,0.0159431304782629
11.0,0.0151543989777565
12.0,0.014390251599252224
13.0,0.013700584881007671
14.0,0.013091317377984524
15.0,0.012508973479270935
16.0,0.011933794245123863
18.0,0.01085765939205885
20.0,0.009910738095641136
22.0,0.009018868207931519
24.0,0.00823772232979536
26.0,0.007564387749880552
28.0,0.007061176002025604
30.0,0.006749842315912247
32.0,0.006494308356195688
36.0,0.006026464980095625
40.0,0.005344020202755928
44.0,0.004586744122207165
48.0,0.004106941167265177
52.0,0.0037721795961260796
56.0,0.003447970375418663
60.0,0.003048371057957411
64.0,0.0029325545765459538
72.0,0.0028030741959810257
80.0,0.0024452765937894583
88.0,0.0028081140480935574
96.0,0.002845257520675659
104.0,0.0026025439146906137
112.0,0.002597251906991005
120.0,0.0027277814224362373
128.0,0.002496063709259033
144.0,0.001351511455141008
160.0,0.0018848271574825048
176.0,0.0018082117894664407
192.0,0.0008425058331340551
208.0,0.0003047290665563196
224.0,-0.000271588476607576
240.0,-0.00023548690660391003
256.0,0.00031932356068864465
288.0,0.0008863062248565257
320.0,0.001053428277373314
352.0,0.0003876359842251986
384.0,0.0006278405780903995
416.0,0.0002840479137375951
448.0,0.0004920880310237408
480.0,0.001402642228640616
512.0,0.0006637207116000354
576.0,-6.630053394474089e-05
640.0,-0.000658213859423995
704.0,-0.0002286822855239734
768.0,-0.0012742263497784734
832.0,-0.0005382043891586363
896.0,-0.0005791517323814332
960.0,-0.0018335070926696062
1024.0,-0.0015552499098703265
1152.0,-7.349998486461118e-05
1280.0,-0.00027860814589075744
1408.0,-0.00022362453455571085
1536.0,0.0004305793554522097
1664.0,0.0013453545980155468
1792.0,-0.0003311575565021485
1920.0,0.00039934844244271517
2048.0,0.0001660100679146126
2304.0,-0.0005083789001218975
2560.0,-0.0005667551886290312
2816.0,-2.7608202799456194e-05
3072.0,8.619362233730499e-06
3328.0,2.7979260266874917e-05
3584.0,0.00039110216312110424
3840.0,0.00017926687723957002
4096.0,-0.0003341029805596918
4608.0,-0.001228412496857345
5120.0,-0.00023757365124765784
5632.0,0.0010426684748381376
6144.0,0.00012062897440046072
6656.0,-0.00042326716356910765
7168.0,0.001344839227385819
7680.0,0.00019596477795857936
8192.0,-0.001495754113420844
9216.0,-0.0002535573148634285
10240.0,-0.0009215858299285173
11264.0,-0.0004961610538884997
12288.0,0.0002549536293372512
13312.0,7.20541356713511e-05
14336.0,0.0006403527804650366
end
