version,3.0
numOfCh,1
type,point
parent_name,20-cuts
ch_type,1_1
kcount,1
numberNandB,1
brightnessNandB,1
carpet pos,0
pc,0
Time (ms),CH1 Auto-Correlation
1.0,0.027973344549536705
2.0,0.025706037878990173
3.0,0.02376854605972767
4.0,0.02206871099770069
5.0,0.0205824077129364
6.0,0.019258582964539528
7.0,0.0181861761957407
8.0,0.01717817783355713
9.0,0.016185488551855087
10.0,0.015239852480590343
11.0,0.014393288642168045
12.0,0.013618811033666134
13.0,0.012975871562957764
14.0,0.012370839715003967
15.0,0.011856386438012123
16.0,0.011349850334227085
18.0,0.010606376454234123
20.0,0.009869340807199478
22.0,0.009221896529197693
24.0,0.008500448428094387
26.0,0.007897388190031052
28.0,0.00740856071934104
30.0,0.006893145386129618
32.0,0.006379870232194662
36.0,0.005282935220748186
40.0,0.0046641952358186245
44.0,0.004018660634756088
48.0,0.0034587844274938107
52.0,0.0031707671005278826
56.0,0.002890499774366617
60.0,0.002576697152107954
64.0,0.0020500551909208298
72.0,0.0013056532479822636
80.0,0.000961870769970119
88.0,0.0007051824359223247
96.0,0.0008675599819980562
104.0,0.0008470522589050233
112.0,0.0010479489574208856
120.0,0.0007231321069411933
128.0,0.0004818787856493145
144.0,0.0011711003025993705
160.0,0.0016870079562067986
176.0,0.0016223937273025513
192.0,0.0007929728017188609
208.0,-9.140064503299072e-05
224.0,1.0989763723046053e-05
240.0,0.000117396870336961
256.0,0.0007969996659085155
288.0,0.0009072383982129395
320.0,0.0006967406952753663
352.0,0.0015885357279330492
384.0,0.0017705615609884262
416.0,0.0010197743540629745
448.0,0.00021329379524104297
480.0,-0.000914214993827045
512.0,0.00029179517878219485
576.0,0.0015424450393766165
640.0,0.0006900294683873653
704.0,0.00026764872018247843
768.0,-8.731315574550536e-06
832.0,-0.0012204676168039441
896.0,-0.00042028288589790463
960.0,0.0005917937960475683
1024.0,-0.0010049701668322086
1152.0,0.000482479837955907
1280.0,0.000522047106642276
1408.0,-0.0003574466682039201
1536.0,-0.0001073372841347009
1664.0,0.00013041746569797397
1792.0,-0.0002896824444178492
1920.0,-0.00018924428150057793
2048.0,-0.00045775764738209546
2304.0,-0.0007745256298221648
2560.0,-0.0005028723389841616
2816.0,0.00017007750284392387
3072.0,-0.00012348325981292874
3328.0,0.00019418452575337142
3584.0,-0.00045807447168044746
3840.0,-0.00044027509284205735
4096.0,0.00019714479276444763
4608.0,0.0006334951613098383
5120.0,8.60554282553494e-05
5632.0,0.00016717192193027586
6144.0,0.0006135299918241799
6656.0,-0.00016337855777237564
7168.0,-0.0001299708237638697
7680.0,-0.00023102920386008918
8192.0,-0.0008809344726614654
9216.0,-0.0001357984874630347
10240.0,-0.00046488415682688355
11264.0,-0.0010555892949923873
12288.0,0.00042624713387340307
13312.0,-0.000419255142332986
14336.0,0.0009187336545437574
end
