version,3.0
numOfCh,1
type,point
parent_name,20-cuts
ch_type,1_1
kcount,1
numberNandB,1
brightnessNandB,1
carpet pos,0
pc,0
Time (ms),CH1 Auto-Correlation
1.0,0.0880054384469986
2.0,0.08085846155881882
3.0,0.07496197521686554
4.0,0.06990685313940048
5.0,0.06541404873132706
6.0,0.061462774872779846
7.0,0.057847995311021805
8.0,0.054734982550144196
9.0,0.052076153457164764
10.0,0.04959378018975258
11.0,0.047386184334754944
12.0,0.04524426534771919
13.0,0.043139100074768066
14.0,0.04146091639995575
15.0,0.03990042209625244
16.0,0.03840667009353638
18.0,0.03537493944168091
20.0,0.03265559673309326
22.0,0.030100591480731964
24.0,0.027812382206320763
26.0,0.025800323113799095
28.0,0.024187522009015083
30.0,0.023043429479002953
32.0,0.02187783643603325
36.0,0.019239595159888268
40.0,0.016237394884228706
44.0,0.013228125870227814
48.0,0.01205447968095541
52.0,0.011016957461833954
56.0,0.011203368194401264
60.0,0.011028197593986988
64.0,0.009713905863463879
72.0,0.00813209917396307
80.0,0.00673284474760294
88.0,0.004117783159017563
96.0,0.003684782888740301
104.0,0.0032097683288156986
112.0,0.004213017877191305
120.0,0.005377608351409435
128.0,0.005255628377199173
144.0,0.0022724212612956762
160.0,0.0014002496609464288
176.0,0.0012301558163017035
192.0,0.0011128471232950687
208.0,0.0002629560767672956
224.0,0.0020042522810399532
240.0,0.0026647814083844423
256.0,0.002539366949349642
288.0,-0.0003169789561070502
320.0,0.00039244978688657284
352.0,0.0007435794686898589
384.0,0.002726782113313675
416.0,0.005237391218543053
448.0,-9.930806118063629e-05
480.0,-0.0012528910301625729
512.0,0.002874927129596472
576.0,-0.0010723827872425318
640.0,-0.0022650680039077997
704.0,6.810992658756732e-07
768.0,0.0027599502354860306
832.0,-0.001052305568009615
896.0,0.0017396255861967802
960.0,0.0036175563000142574
1024.0,-0.0017131107160821557
1152.0,0.0003488156362436712
1280.0,-0.00043539275065995753
1408.0,-0.005486031528562307
1536.0,-0.005583807360380888
1664.0,-0.0023735943250358105
1792.0,-0.0038552405312657356
1920.0,-0.001969667850062251
2048.0,-0.000777434790506959
2304.0,-0.0018019159324467182
2560.0,0.0011213282123208046
2816.0,-0.002436991548165679
3072.0,0.0012298168148845434
3328.0,0.0009899594588205218
3584.0,-0.0016930137062445283
3840.0,0.0008831807062961161
4096.0,-0.0006348745664581656
4608.0,-0.0005053646164014935
5120.0,-0.00029458932112902403
5632.0,-0.0011552822543308139
6144.0,0.0012402695138007402
6656.0,0.0006265109986998141
7168.0,0.00047981954412534833
7680.0,-0.0006778424140065908
8192.0,-0.0006216249894350767
9216.0,0.0009142925264313817
10240.0,-0.0012948092771694064
11264.0,-0.0023309499956667423
12288.0,0.005702564027160406
13312.0,0.00012447478366084397
14336.0,-0.004887857940047979
end
