version,3.0
numOfCh,1
type,point
parent_name,20-cuts
ch_type,1_1
kcount,1
numberNandB,1
brightnessNandB,1
carpet pos,0
pc,0
Time (ms),CH1 Auto-Correlation
1.0,0.09935423731803894
2.0,0.09196831285953522
3.0,0.0854022353887558
4.0,0.07981301099061966
5.0,0.07518785446882248
6.0,0.07112757116556168
7.0,0.06724461913108826
8.0,0.0636286735534668
9.0,0.06046139821410179
10.0,0.05776868015527725
11.0,0.0552963949739933
12.0,0.0531669557094574
13.0,0.05085064098238945
14.0,0.04855022951960564
15.0,0.04639977216720581
16.0,0.04441234469413757
18.0,0.04137750342488289
20.0,0.038764387369155884
22.0,0.03626815974712372
24.0,0.03443361818790436
26.0,0.03310178592801094
28.0,0.032038528472185135
30.0,0.03134351968765259
32.0,0.030878722667694092
36.0,0.029902029782533646
40.0,0.028675522655248642
44.0,0.027109652757644653
48.0,0.02563345618546009
52.0,0.024907613173127174
56.0,0.025409946218132973
60.0,0.02587760239839554
64.0,0.02519022487103939
72.0,0.02388354018330574
80.0,0.0213700532913208
88.0,0.018757600337266922
96.0,0.017279542982578278
104.0,0.016134805977344513
112.0,0.015685755759477615
120.0,0.015202770009636879
128.0,0.01483062282204628
144.0,0.01215975359082222
160.0,0.009470898658037186
176.0,0.008805636316537857
192.0,0.0064591108821332455
208.0,0.00390654755756259
224.0,0.002314372919499874
240.0,0.001880885218270123
256.0,0.003068365389481187
288.0,0.0010429098038002849
320.0,3.960801041102968e-05
352.0,0.00030770085868425667
384.0,-0.0020468311849981546
416.0,-0.0021365145221352577
448.0,-0.004145917948335409
480.0,-0.005217769183218479
512.0,-0.0018354217754676938
576.0,0.0017314841970801353
640.0,-0.00018697598716244102
704.0,-0.0022198318038135767
768.0,-0.0014718547463417053
832.0,-0.004427370149642229
896.0,-0.007166716735810041
960.0,-0.004960936494171619
1024.0,-0.0035026189871132374
1152.0,-0.0037037848960608244
1280.0,-0.004758666735142469
1408.0,-0.004692232236266136
1536.0,0.00097605463815853
1664.0,0.0017915823264047503
1792.0,0.005796459969133139
1920.0,0.004144740290939808
2048.0,0.0013806172646582127
2304.0,-0.005427300464361906
2560.0,-0.002200070070102811
2816.0,-0.0023257683496922255
3072.0,-0.0034430052619427443
3328.0,-0.0013783822068944573
3584.0,0.000218504254007712
3840.0,0.00134438241366297
4096.0,-0.0006342540727928281
4608.0,0.004317610524594784
5120.0,-0.0016391813987866044
5632.0,0.0008987686596810818
6144.0,-0.0007761831511743367
6656.0,0.0036389862652868032
7168.0,-0.0021229228004813194
7680.0,-0.0021188680548220873
8192.0,0.0005440559471026063
9216.0,-0.0023624298628419638
10240.0,0.003466862952336669
11264.0,0.004077513236552477
12288.0,-0.00674872100353241
13312.0,-0.003713550278916955
14336.0,0.004036496393382549
end
