version,3.0
numOfCh,1
type,point
parent_name,20-cuts
ch_type,1_1
kcount,1
numberNandB,1
brightnessNandB,1
carpet pos,0
pc,0
Time (ms),CH1 Auto-Correlation
1.0,0.04183389991521835
2.0,0.03855758160352707
3.0,0.03566886484622955
4.0,0.03311562165617943
5.0,0.03090262971818447
6.0,0.028980594128370285
7.0,0.02730105072259903
8.0,0.025730209425091743
9.0,0.024299168959259987
10.0,0.023076606914401054
11.0,0.021977901458740234
12.0,0.020993122830986977
13.0,0.020047523081302643
14.0,0.019219882786273956
15.0,0.018509909510612488
16.0,0.017916806042194366
18.0,0.016863124445080757
20.0,0.015723278746008873
22.0,0.014726009219884872
24.0,0.013576212339103222
26.0,0.012596078217029572
28.0,0.011837963946163654
30.0,0.011229299940168858
32.0,0.010655662044882774
36.0,0.009942388162016869
40.0,0.00944236945360899
44.0,0.0093886973336339
48.0,0.009156053885817528
52.0,0.008607619442045689
56.0,0.007717160042375326
60.0,0.006788145285099745
64.0,0.006285795010626316
72.0,0.005580935161560774
80.0,0.00495633902028203
88.0,0.004398185294121504
96.0,0.003850604873150587
104.0,0.003656124696135521
112.0,0.003291630418971181
120.0,0.002638706471771002
128.0,0.002547890180721879
144.0,0.0023005930706858635
160.0,0.0016453532734885812
176.0,0.0008024757844395936
192.0,0.0006143770297057927
208.0,-0.000962767458986491
224.0,-0.001982162706553936
240.0,-0.0024554231204092503
256.0,-0.002326501766219735
288.0,-0.0008412898750975728
320.0,-0.0016515844035893679
352.0,-0.0017657100688666105
384.0,-0.0010669472394511104
416.0,-0.0005742253270000219
448.0,0.0005590327200479805
480.0,0.0011220240266993642
512.0,0.0016428835224360228
576.0,-0.0006375137018039823
640.0,-0.0021700540091842413
704.0,-0.002799734240397811
768.0,-0.0024308236315846443
832.0,-0.0029401793144643307
896.0,-0.0017343558138236403
960.0,-0.0010761558078229427
1024.0,-0.0012877924600616097
1152.0,0.0001801121252356097
1280.0,-0.0006616174941882491
1408.0,-5.15599713253323e-05
1536.0,-0.0007750316290184855
1664.0,0.0014557834947481751
1792.0,0.001034588203765452
1920.0,-0.0003109785611741245
2048.0,-0.0003194535674992949
2304.0,0.00023926538415253162
2560.0,0.0011088547762483358
2816.0,0.0002806328993756324
3072.0,5.914144276175648e-05
3328.0,-0.00042294428567402065
3584.0,-0.0024270100984722376
3840.0,0.000357692944817245
4096.0,-0.0002496408415026963
4608.0,-0.0005301421624608338
5120.0,0.000932712631765753
5632.0,0.0017850863514468074
6144.0,-0.002264510840177536
6656.0,-0.0006359323742799461
7168.0,0.0010470704874023795
7680.0,-0.0010234734509140253
8192.0,0.00035569630563259125
9216.0,-0.00036727989208884537
10240.0,0.0002454277127981186
11264.0,0.00042230167309753597
12288.0,-0.00025446192012168467
13312.0,-0.0006570055847987533
14336.0,0.0007952897576615214
end
