version,3.0
numOfCh,1
type,point
parent_name,20-cuts
ch_type,1_1
kcount,1
numberNandB,1
brightnessNandB,1
carpet pos,0
pc,0
Time (ms),CH1 Auto-Correlation
1.0,0.08928454667329788
2.0,0.08237184584140778
3.0,0.07652916014194489
4.0,0.07157456129789352
5.0,0.06733287870883942
6.0,0.06337860226631165
7.0,0.059760984033346176
8.0,0.0565909817814827
9.0,0.05371454730629921
10.0,0.05106085166335106
11.0,0.04871271550655365
12.0,0.046410687267780304
13.0,0.04446117579936981
14.0,0.04265198856592178
15.0,0.04109463095664978
16.0,0.0396856851875782
18.0,0.03714776411652565
20.0,0.034819792956113815
22.0,0.0326768159866333
24.0,0.03066384792327881
26.0,0.028902864083647728
28.0,0.027275804430246353
30.0,0.02565477415919304
32.0,0.02426888607442379
36.0,0.021630333736538887
40.0,0.019661379978060722
44.0,0.01824592985212803
48.0,0.016611473634839058
52.0,0.015554594807326794
56.0,0.01545418705791235
60.0,0.015311011113226414
64.0,0.014948141761124134
72.0,0.01379202026873827
80.0,0.011486782692372799
88.0,0.008416648954153061
96.0,0.005265871062874794
104.0,0.0024388153105974197
112.0,0.0002559426357038319
120.0,0.00048807516577653587
128.0,0.0013251628261059523
144.0,0.001658742781728506
160.0,-0.0008714633877389133
176.0,-0.0008857687353156507
192.0,0.0005733917350880802
208.0,-0.00025510520208626986
224.0,-0.0015808048192411661
240.0,-0.002297582570463419
256.0,-0.0021263533271849155
288.0,-0.000582239415962249
320.0,-0.0008724890649318695
352.0,-0.004013729747384787
384.0,-0.004248782992362976
416.0,-0.004171065986156464
448.0,-0.0010373549303039908
480.0,0.0006788147729821503
512.0,0.0005524844746105373
576.0,0.0021307608112692833
640.0,0.0031250030733644962
704.0,0.0005815007025375962
768.0,-0.0020672334358096123
832.0,-0.0017206432530656457
896.0,-0.002663497580215335
960.0,-0.0014009495498612523
1024.0,-0.005197056103497744
1152.0,-0.004092662129551172
1280.0,-0.0017186133190989494
1408.0,0.00012167087697889656
1536.0,-0.0023271895479410887
1664.0,0.0010376321151852608
1792.0,-0.0005054010543972254
1920.0,-0.0026810981798917055
2048.0,-0.0005591579829342663
2304.0,-0.0012676093028858304
2560.0,0.0010660527041181922
2816.0,-0.0006008812342770398
3072.0,0.00179973803460598
3328.0,0.0022874970454722643
3584.0,0.0009933765977621078
3840.0,0.0034231008030474186
4096.0,-0.000603575143031776
4608.0,-0.00204896810464561
5120.0,0.0003402151050977409
5632.0,-0.0013092092704027891
6144.0,-0.0012753255432471633
6656.0,0.0018387464806437492
7168.0,0.002002512104809284
7680.0,-0.000789550831541419
8192.0,-0.003071313025429845
9216.0,1.67419966601301e-05
10240.0,0.0009715298656374216
11264.0,-0.0009815050289034843
12288.0,-0.0005423888214863837
13312.0,0.00015768989396747202
14336.0,-0.0007306276238523424
end
