version,3.0
numOfCh,1
type,point
parent_name,20-cuts
ch_type,1_1
kcount,1
numberNandB,1
brightnessNandB,1
carpet pos,0
pc,0
Time (ms),CH1 Auto-Correlation
1.0,0.026566732674837112
2.0,0.02446661703288555
3.0,0.022633209824562073
4.0,0.02098212018609047
5.0,0.01950971595942974
6.0,0.01822197623550892
7.0,0.01706082932651043
8.0,0.01597420871257782
9.0,0.014989204704761505
10.0,0.014140944927930832
11.0,0.013441585935652256
12.0,0.012803581543266773
13.0,0.012178763747215271
14.0,0.011634399183094501
15.0,0.011104930192232132
16.0,0.010605063289403915
18.0,0.009704393334686756
20.0,0.008884754963219166
22.0,0.008200813084840775
24.0,0.0075798025354743
26.0,0.006947267334908247
28.0,0.00639355881139636
30.0,0.005820818245410919
32.0,0.005428884644061327
36.0,0.004734520800411701
40.0,0.003967006225138903
44.0,0.0036546962801367044
48.0,0.003754374571144581
52.0,0.003772512311115861
56.0,0.003583070822060108
60.0,0.003282401943579316
64.0,0.00311211496591568
72.0,0.002970045665279031
80.0,0.00258409371599555
88.0,0.0022653406485915184
96.0,0.0019671705085784197
104.0,0.001854461501352489
112.0,0.0022021066397428513
120.0,0.0020143978763371706
128.0,0.0020015977788716555
144.0,0.002263555536046624
160.0,0.001632279367186129
176.0,0.0013386415084823966
192.0,0.0008492365595884621
208.0,0.0009962574113160372
224.0,0.0014650135999545455
240.0,0.0013565506087616086
256.0,0.0009664469980634749
288.0,0.0007608406594954431
320.0,0.0016452409327030182
352.0,0.0016646893927827477
384.0,0.0004832594422623515
416.0,-0.0002588436473160982
448.0,2.985714445458143e-06
480.0,0.0004930318100377917
512.0,0.00010616773943183944
576.0,-0.0016451295232400298
640.0,-0.0004661805578507483
704.0,0.0009022787562571466
768.0,0.0009063276811502874
832.0,0.0005989829078316689
896.0,-0.00022242384147830307
960.0,0.0005230184178799391
1024.0,-7.739044667687267e-05
1152.0,0.0014071738114580512
1280.0,0.00033336313208565116
1408.0,0.0004520972433965653
1536.0,5.408390279626474e-05
1664.0,0.0004920557839795947
1792.0,-0.00037284978316165507
1920.0,0.0004351259267423302
2048.0,-0.00027322492678649724
2304.0,0.00042153961840085685
2560.0,-0.00029635909595526755
2816.0,-5.349153798306361e-05
3072.0,-0.00014793654554523528
3328.0,0.0004214974760543555
3584.0,0.0013412253465503454
3840.0,0.00015614225412718952
4096.0,-0.00041822425555437803
4608.0,0.0005205606576055288
5120.0,-0.0008289175457321107
5632.0,-0.00018569687381386757
6144.0,0.00020750550902448595
6656.0,-0.0004791022220160812
7168.0,-0.00020843253878410906
7680.0,-0.0003061450843233615
8192.0,0.0011415771441534162
9216.0,-1.505441923654871e-05
10240.0,-0.0011661830358207226
11264.0,-0.0003309023450128734
12288.0,-0.001949081546626985
13312.0,-0.0009094878332689404
14336.0,-0.0011072758352383971
end
