version,3.0
numOfCh,1
type,point
parent_name,20-cuts
ch_type,1_1
kcount,1
numberNandB,1
brightnessNandB,1
carpet pos,0
pc,0
Time (ms),CH1 Auto-Correlation
1.0,0.025744490325450897
2.0,0.023670878261327744
3.0,0.021894412115216255
4.0,0.020324895158410072
5.0,0.018870694562792778
6.0,0.01760835386812687
7.0,0.016520224511623383
8.0,0.015580227598547935
9.0,0.014749357476830482
10.0,0.01399102620780468
11.0,0.013262888416647911
12.0,0.012602726928889751
13.0,0.011998755857348442
14.0,0.011371789500117302
15.0,0.010842160321772099
16.0,0.010392218828201294
18.0,0.009556567296385765
20.0,0.008865301497280598
22.0,0.008208523504436016
24.0,0.007579813711345196
26.0,0.007119570858776569
28.0,0.006691792514175177
30.0,0.006264285650104284
32.0,0.00589990196749568
36.0,0.005262571852654219
40.0,0.004632802680134773
44.0,0.004110714886337519
48.0,0.0035154870711266994
52.0,0.003110018791630864
56.0,0.0027586552314460278
60.0,0.0025802289601415396
64.0,0.002538040280342102
72.0,0.001965730683878064
80.0,0.0019390498055145144
88.0,0.001630848040804267
96.0,0.0014659863663837314
104.0,0.0014339600456878543
112.0,0.0011513613862916827
120.0,0.0010634129866957664
128.0,0.0012693324824795127
144.0,0.0014516588998958468
160.0,0.0009306258871220052
176.0,0.00022697010717820376
192.0,3.613098306232132e-05
208.0,-7.7996970503591e-05
224.0,0.0007311557419598103
240.0,0.000500137684866786
256.0,0.00045505992602556944
288.0,-0.0005037349765188992
320.0,-0.00046033511171117425
352.0,-0.0004535973130259663
384.0,-2.7259016860625707e-05
416.0,0.0006581380148418248
448.0,0.0005027980078011751
480.0,-0.0013304686872288585
512.0,-0.0017713946290314198
576.0,-3.420888606342487e-05
640.0,0.00035752789699472487
704.0,6.441194273065776e-05
768.0,0.00029115000506863
832.0,0.001257896306924522
896.0,0.002309489296749234
960.0,0.001820032368414104
1024.0,0.00028270416078157723
1152.0,6.835150270489976e-05
1280.0,-8.071793854469433e-05
1408.0,-0.0007199092069640756
1536.0,0.0012185904197394848
1664.0,0.001731967437081039
1792.0,0.0012964357156306505
1920.0,0.0008360362844541669
2048.0,-0.0011986378813162446
2304.0,-0.00047638369142077863
2560.0,-0.0006197325419634581
2816.0,-0.0003212970623280853
3072.0,0.0004843260394409299
3328.0,0.0003653854946605861
3584.0,-0.0005661532049998641
3840.0,-0.0012449078494682908
4096.0,-0.0003065638884436339
4608.0,-0.0003233611350879073
5120.0,0.00020987397874705493
5632.0,-0.0009293694165535271
6144.0,-6.855073297629133e-05
6656.0,-0.0005011966568417847
7168.0,-0.0009137968299910426
7680.0,-0.0011132863583043218
8192.0,-7.410295074805617e-05
9216.0,-0.0004553149046842009
10240.0,6.559384928550571e-05
11264.0,0.001768063404597342
12288.0,0.0007316670962609351
13312.0,-0.0008379069622606039
14336.0,0.0005554365343414247
end
