version,3.0
numOfCh,1
type,point
parent_name,20-cuts
ch_type,1_1
kcount,1
numberNandB,1
brightnessNandB,1
carpet pos,0
pc,0
Time (ms),CH1 Auto-Correlation
1.0,0.029977427795529366
2.0,0.027810443192720413
3.0,0.02595626935362816
4.0,0.02434729039669037
5.0,0.022854188457131386
6.0,0.021514618769288063
7.0,0.020337553694844246
8.0,0.01927146129310131
9.0,0.018308239057660103
10.0,0.01746729016304016
11.0,0.016724128276109695
12.0,0.016068072989583015
13.0,0.015512261539697647
14.0,0.0149613618850708
15.0,0.014389341697096825
16.0,0.013868824578821659
18.0,0.012974466197192669
20.0,0.012218189425766468
22.0,0.011663596145808697
24.0,0.011178882792592049
26.0,0.010725919157266617
28.0,0.010224561206996441
30.0,0.009758294560015202
32.0,0.009348475374281406
36.0,0.008663446642458439
40.0,0.008168114349246025
44.0,0.0077120717614889145
48.0,0.007327070459723473
52.0,0.0070138839073479176
56.0,0.006698410492390394
60.0,0.006337817758321762
64.0,0.005787077825516462
72.0,0.005076475441455841
80.0,0.004252144601196051
88.0,0.0032714265398681164
96.0,0.0026609511114656925
104.0,0.0018771683098748326
112.0,0.0015365201979875565
120.0,0.0018208152614533901
128.0,0.0020714665297418833
144.0,0.002008961047977209
160.0,0.0017908521695062518
176.0,0.0011554256780073047
192.0,0.00020397464686539024
208.0,0.00039484689477831125
224.0,0.0011083675781264901
240.0,0.0004920880892314017
256.0,6.209584535099566e-05
288.0,0.0006593310972675681
320.0,0.0003873994864989072
352.0,0.0007755872211419046
384.0,0.00019814968982245773
416.0,-0.00019185546261724085
448.0,-0.0005967142060399055
480.0,-0.0009208064875565469
512.0,-0.0001918216294143349
576.0,-0.001340413116849959
640.0,-0.0016775286057963967
704.0,-0.002270936965942383
768.0,-0.0018800492398440838
832.0,-0.00021895594545640051
896.0,0.0005512039642781019
960.0,-0.0004509687714744359
1024.0,-0.00033605535281822085
1152.0,-0.0003335588553454727
1280.0,-0.0003107213997282088
1408.0,0.0008939703111536801
1536.0,0.0009125479264184833
1664.0,0.000207238583243452
1792.0,0.00041291723027825356
1920.0,-0.00022033601999282837
2048.0,-0.0011113049695268273
2304.0,0.00036314153112471104
2560.0,0.0019584139809012413
2816.0,0.0021447944454848766
3072.0,0.00012116613652324304
3328.0,-0.0008824236574582756
3584.0,-0.002129044383764267
3840.0,0.0001633173815207556
4096.0,0.0015853563090786338
4608.0,0.0008670250535942614
5120.0,-0.0005167730851098895
5632.0,-0.0009266766137443483
6144.0,-0.0004352153919171542
6656.0,-1.2265011719136965e-05
7168.0,0.000584952998906374
7680.0,-0.0010836536530405283
8192.0,-0.0018714910838752985
9216.0,-0.0002398620854364708
10240.0,-0.0007110937149263918
11264.0,-0.0001966781564988196
12288.0,-0.0005619479925371706
13312.0,-0.00017364035011269152
14336.0,3.278154690633528e-05
end
