version,3.0
numOfCh,1
type,point
parent_name,20-cuts
ch_type,1_1
kcount,1
numberNandB,1
brightnessNandB,1
carpet pos,0
pc,0
Time (ms),CH1 Auto-Correlation
1.0,0.026568815112113953
2.0,0.02438492700457573
3.0,0.022554833441972733
4.0,0.020975008606910706
5.0,0.019570589065551758
6.0,0.01830860786139965
7.0,0.017169620841741562
8.0,0.016100062057375908
9.0,0.015163478441536427
10.0,0.014283709228038788
11.0,0.01347373891621828
12.0,0.012777278199791908
13.0,0.012141595594584942
14.0,0.011561664752662182
15.0,0.010963412001729012
16.0,0.0104453656822443
18.0,0.009480612352490425
20.0,0.008660633116960526
22.0,0.007892398163676262
24.0,0.007315169088542461
26.0,0.006855745334178209
28.0,0.006425513420253992
30.0,0.005927082151174545
32.0,0.005426349118351936
36.0,0.004623884800821543
40.0,0.003939206246286631
44.0,0.0035468561109155416
48.0,0.0032311466056853533
52.0,0.00276749930344522
56.0,0.0021533193066716194
60.0,0.0018459754064679146
64.0,0.0016203352715820074
72.0,0.0016288376646116376
80.0,0.0016709927003830671
88.0,0.0015488486969843507
96.0,0.0013213501079007983
104.0,0.0012023085728287697
112.0,0.0012146971421316266
120.0,0.00112235639244318
128.0,0.0011246203212067485
144.0,0.00046717916848137975
160.0,0.0005004071863368154
176.0,-0.0007236999226734042
192.0,-0.0009664876270107925
208.0,-0.0011771690333262086
224.0,-0.0008876072242856026
240.0,-0.0006613844889216125
256.0,-0.0001668293698458001
288.0,-0.000866954680532217
320.0,-0.001418735133484006
352.0,-0.0013293083757162094
384.0,-0.0009312031324952841
416.0,-0.0004022167413495481
448.0,-0.0002524655719753355
480.0,0.00024069247592706233
512.0,1.3349830624065362e-05
576.0,5.773198790848255e-05
640.0,-0.000984294107183814
704.0,-0.0005406919517554343
768.0,0.0004372400580905378
832.0,-0.0002298369654454291
896.0,-0.0004742291639558971
960.0,-0.0006586628151126206
1024.0,-0.0008022043039090931
1152.0,0.00046599749475717545
1280.0,-0.0002890110481530428
1408.0,0.0005414322367869318
1536.0,0.0008936389349400997
1664.0,0.001185355125926435
1792.0,0.0005683682393282652
1920.0,-0.0002831933961715549
2048.0,-0.001031922292895615
2304.0,-0.0009927741484716535
2560.0,-7.68262761994265e-05
2816.0,0.000473578431410715
3072.0,-0.0008126951288431883
3328.0,-0.0002913011994678527
3584.0,-1.2203900041640736e-05
3840.0,-0.0006154848379082978
4096.0,0.0003352136118337512
4608.0,0.00038006811519153416
5120.0,0.0002524518349673599
5632.0,-0.0005133931408636272
6144.0,0.0005602562450803816
6656.0,-2.2889715182827786e-05
7168.0,-0.0007553539471700788
7680.0,-0.00024472433142364025
8192.0,7.02003890182823e-05
9216.0,0.00018101953901350498
10240.0,0.00021283142268657684
11264.0,0.0002101498539559543
12288.0,-0.0002189953811466694
13312.0,-0.00038433060399256647
14336.0,-0.00028592965099960566
end
