version,3.0
numOfCh,1
type,point
parent_name,20-cuts
ch_type,1_1
kcount,1
numberNandB,1
brightnessNandB,1
carpet pos,0
pc,0
Time (ms),CH1 Auto-Correlation
1.0,0.042348768562078476
2.0,0.039061348885297775
3.0,0.03635147213935852
4.0,0.03398650512099266
5.0,0.031892452389001846
6.0,0.029993565753102303
7.0,0.028312990441918373
8.0,0.02671941928565502
9.0,0.02540898695588112
10.0,0.024226151406764984
11.0,0.023195780813694
12.0,0.02229314111173153
13.0,0.021430306136608124
14.0,0.020559854805469513
15.0,0.019793754443526268
16.0,0.01916314847767353
18.0,0.017962854355573654
20.0,0.016837228089571
22.0,0.01588752679526806
24.0,0.01497354730963707
26.0,0.014304296113550663
28.0,0.013757601380348206
30.0,0.01321124006062746
32.0,0.012704531662166119
36.0,0.011476265266537666
40.0,0.010217162780463696
44.0,0.009282241575419903
48.0,0.008245889097452164
52.0,0.007203366607427597
56.0,0.0062354495748877525
60.0,0.005751719698309898
64.0,0.0052401963621377945
72.0,0.004581698216497898
80.0,0.0035313712432980537
88.0,0.0026276137214154005
96.0,0.0021503595635294914
104.0,0.0016636560903862119
112.0,0.0012956103309988976
120.0,0.001912783714942634
128.0,0.0017021476523950696
144.0,-0.0003255256451666355
160.0,4.325357804191299e-05
176.0,0.00026144355069845915
192.0,-0.00021998568263370544
208.0,-0.0001790165260899812
224.0,-0.001016455702483654
240.0,-0.0011662611505016685
256.0,-0.000983012723736465
288.0,-0.0021361284889280796
320.0,-0.0012380197877064347
352.0,-0.0016387931536883116
384.0,-0.0012087076902389526
416.0,0.00043962389463558793
448.0,0.0023736865259706974
480.0,0.001667534583248198
512.0,0.0003362565767019987
576.0,-0.0005790847935713828
640.0,-0.0004824578936677426
704.0,-6.0875172493979335e-05
768.0,-0.0009006107575260103
832.0,-0.0006628650007769465
896.0,0.0019204054260626435
960.0,0.001597175607457757
1024.0,0.0022797673009335995
1152.0,0.0016774950781837106
1280.0,-0.0007315927068702877
1408.0,0.0008706348016858101
1536.0,-0.00031172166927717626
1664.0,4.1631537897046655e-05
1792.0,-0.00026837061159312725
1920.0,0.0008557158871553838
2048.0,0.0016933126607909799
2304.0,0.00029017485212534666
2560.0,-0.0007482310174964368
2816.0,-0.0014763755025342107
3072.0,-1.3041013517067768e-05
3328.0,0.0005279116448946297
3584.0,-0.002071764785796404
3840.0,-0.0010158795630559325
4096.0,-0.00022059392358642071
4608.0,-0.00018195413576904684
5120.0,-8.370219438802451e-05
5632.0,-0.0006223729578778148
6144.0,0.00034080768818967044
6656.0,0.00041728775249794126
7168.0,0.0009069046936929226
7680.0,0.0002901921689044684
8192.0,-0.0004806710931006819
9216.0,0.0010085044195875525
10240.0,-0.00021846071467734873
11264.0,0.001030262210406363
12288.0,-0.0020095801446586847
13312.0,-0.0024392325431108475
14336.0,-0.0017463488038629293
end
