version,3.0
numOfCh,1
type,point
parent_name,20-cuts
ch_type,1_1
kcount,1
numberNandB,1
brightnessNandB,1
carpet pos,0
pc,0
Time (ms),CH1 Auto-Correlation
1.0,0.027428118512034416
2.0,0.025225698947906494
3.0,0.02332489565014839
4.0,0.021625982597470284
5.0,0.020157786086201668
6.0,0.018805529922246933
7.0,0.017617352306842804
8.0,0.016552792862057686
9.0,0.015601767227053642
10.0,0.014802685007452965
11.0,0.014052920043468475
12.0,0.01340918242931366
13.0,0.012813671492040157
14.0,0.01222717110067606
15.0,0.01163916103541851
16.0,0.011091836728155613
18.0,0.01020778063684702
20.0,0.009523848071694374
22.0,0.008873440325260162
24.0,0.008376095443964005
26.0,0.007858295924961567
28.0,0.00733219925314188
30.0,0.006846352480351925
32.0,0.006389764603227377
36.0,0.00546400947496295
40.0,0.0048512909561395645
44.0,0.004444248043000698
48.0,0.004045567940920591
52.0,0.0036647217348217964
56.0,0.0031689172610640526
60.0,0.0026993840001523495
64.0,0.002649659523740411
72.0,0.0025170487351715565
80.0,0.0019482939969748259
88.0,0.0013433857820928097
96.0,0.001347217126749456
104.0,0.0013898640172556043
112.0,0.0014812692534178495
120.0,0.0016584888799116015
128.0,0.001795683754608035
144.0,0.0023674857802689075
160.0,0.002609632909297943
176.0,0.0022121823858469725
192.0,0.001836826209910214
208.0,0.0015442436560988426
224.0,0.000995149719528854
240.0,0.0007984806434251368
256.0,0.0009199270862154663
288.0,0.000788830395322293
320.0,0.000592840719036758
352.0,0.0005562345613725483
384.0,-8.060690015554428e-05
416.0,-0.00035107051371596754
448.0,-0.00026218988932669163
480.0,-0.0002546484174672514
512.0,0.00044483543024398386
576.0,0.000805629650130868
640.0,0.00042848489829339087
704.0,8.156270268955268e-06
768.0,-0.0008618351421318948
832.0,-0.0005064177676104009
896.0,-0.0008487140294164419
960.0,-0.0017912728944793344
1024.0,-0.001614221604540944
1152.0,-2.9883982278988697e-05
1280.0,-0.0006564880022779107
1408.0,-0.0006744603160768747
1536.0,-0.0003098483139183372
1664.0,9.366539597976953e-05
1792.0,-0.00011438994260970503
1920.0,-8.375869947485626e-05
2048.0,-0.000687404302880168
2304.0,-0.0010620254324749112
2560.0,-0.0013617443619295955
2816.0,-0.0011093198554590344
3072.0,-0.0014709498500451446
3328.0,0.0003213568706996739
3584.0,0.0015850006602704525
3840.0,0.001763452310115099
4096.0,0.0014045087154954672
4608.0,0.00038366371882148087
5120.0,-8.217243885155767e-05
5632.0,0.00048075997619889677
6144.0,-0.0012185780797153711
6656.0,-0.0012128876987844706
7168.0,-0.0007540196529589593
7680.0,0.00033725943649187684
8192.0,0.0005947782774455845
9216.0,0.0006398514960892498
10240.0,-0.0004987625870853662
11264.0,-0.0009100055904127657
12288.0,0.00010113218741025776
13312.0,0.0006119123427197337
14336.0,-0.00022976593754719943
end
