version,3.0
numOfCh,1
type,point
parent_name,20-cuts
ch_type,1_1
kcount,1
numberNandB,1
brightnessNandB,1
carpet pos,0
pc,0
Time (ms),CH1 Auto-Correlation
1.0,0.02766755223274231
2.0,0.025490257889032364
3.0,0.02356160432100296
4.0,0.021879611536860466
5.0,0.020458703860640526
6.0,0.01921033300459385
7.0,0.018141264095902443
8.0,0.01720285229384899
9.0,0.01639159955084324
10.0,0.015620758756995201
11.0,0.014960886910557747
12.0,0.014372904784977436
13.0,0.013882657513022423
14.0,0.013396451249718666
15.0,0.012878856621682644
16.0,0.012440916150808334
18.0,0.011680586263537407
20.0,0.010800371877849102
22.0,0.010053599253296852
24.0,0.009427540935575962
26.0,0.008818449452519417
28.0,0.008186397142708302
30.0,0.007593079470098019
32.0,0.007162483409047127
36.0,0.00650400435552001
40.0,0.006001412868499756
44.0,0.0052757482044398785
48.0,0.004752016626298428
52.0,0.004306839779019356
56.0,0.0038594165816903114
60.0,0.0037728939205408096
64.0,0.0037345371674746275
72.0,0.003243165323510766
80.0,0.0027932499069720507
88.0,0.002730379346758127
96.0,0.0029148836620151997
104.0,0.003188047092407942
112.0,0.0029340798500925303
120.0,0.0024314194452017546
128.0,0.001964391442015767
144.0,0.001326519763097167
160.0,0.0019680240657180548
176.0,0.00266357627697289
192.0,0.00302253570407629
208.0,0.0028557346668094397
224.0,0.002538868226110935
240.0,0.0023062368854880333
256.0,0.0019319158745929599
288.0,0.001660019508562982
320.0,0.00026789685944095254
352.0,0.00010923516674665734
384.0,0.0005601924494840205
416.0,0.00019340719154570252
448.0,-0.00037061219336465
480.0,0.00046192665467970073
512.0,-0.0003678412758745253
576.0,0.0006533560808748007
640.0,0.0008465144783258438
704.0,0.000793321116361767
768.0,0.0010938725899904966
832.0,0.0012202926445752382
896.0,-0.0003707008727360517
960.0,0.00014564319280907512
1024.0,-7.543476840510266e-06
1152.0,-0.000543139292858541
1280.0,-0.00035706281778402627
1408.0,-0.0010653060162439942
1536.0,-0.001061317278072238
1664.0,-7.306676707230508e-05
1792.0,-3.5979453969048336e-05
1920.0,0.0007753406534902751
2048.0,0.0019219930982217193
2304.0,0.00086635397747159
2560.0,0.00010928040865110233
2816.0,-0.00035057219793088734
3072.0,-9.742478869156912e-05
3328.0,-0.0007396542350761592
3584.0,-0.0008643223554827273
3840.0,-0.0006625176756642759
4096.0,-0.0006644256063736975
4608.0,-8.159202843671665e-05
5120.0,0.00013396781287156045
5632.0,-0.001083875889889896
6144.0,-0.001390014193020761
6656.0,-0.0006220348295755684
7168.0,0.0017029503360390663
7680.0,0.0014868794241920114
8192.0,5.806055196444504e-05
9216.0,0.00046320277033373713
10240.0,0.0007059177150949836
11264.0,-0.0007938244962133467
12288.0,-0.0007323518511839211
13312.0,-0.00244963844306767
14336.0,-0.0013823339249938726
end
