version,3.0
numOfCh,1
type,point
parent_name,20-cuts
ch_type,1_1
kcount,1
numberNandB,1
brightnessNandB,1
carpet pos,0
pc,0
Time (ms),CH1 Auto-Correlation
1.0,0.101131871342659
2.0,0.09408735483884811
3.0,0.0878700464963913
4.0,0.08233844488859177
5.0,0.07763625681400299
6.0,0.07340330630540848
7.0,0.06963346898555756
8.0,0.06627821922302246
9.0,0.06315182149410248
10.0,0.06018998846411705
11.0,0.05740157887339592
12.0,0.05502474308013916
13.0,0.05286025255918503
14.0,0.05075672268867493
15.0,0.048909109085798264
16.0,0.04728832468390465
18.0,0.04409664124250412
20.0,0.04116099700331688
22.0,0.03850621357560158
24.0,0.0359930582344532
26.0,0.03400009870529175
28.0,0.0324646420776844
30.0,0.031159086152911186
32.0,0.029741870239377022
36.0,0.02771286480128765
40.0,0.026291383430361748
44.0,0.024489371106028557
48.0,0.022501293569803238
52.0,0.02152719348669052
56.0,0.02099309116601944
60.0,0.02001374214887619
64.0,0.018402669578790665
72.0,0.014654848724603653
80.0,0.012239968404173851
88.0,0.009765584021806717
96.0,0.00859295204281807
104.0,0.009183651767671108
112.0,0.009545225650072098
120.0,0.008607862517237663
128.0,0.007197269704192877
144.0,0.0049558719620108604
160.0,0.004706468433141708
176.0,0.0027343665715306997
192.0,0.0016078148037195206
208.0,0.00024366701836697757
224.0,-0.00014002867101226002
240.0,-0.0005473154014907777
256.0,0.0032067950814962387
288.0,0.0038995109498500824
320.0,0.002476325025781989
352.0,-0.0008227247162722051
384.0,0.0009126947843469679
416.0,0.0032497199717909098
448.0,0.001502305967733264
480.0,-0.002375820418819785
512.0,-0.002699021715670824
576.0,-0.001432495890185237
640.0,-0.00011217566498089582
704.0,0.00010384646157035604
768.0,-0.0030179540626704693
832.0,-0.003472411772236228
896.0,-0.0015572130214422941
960.0,-0.0011760116321966052
1024.0,-0.0024486815091222525
1152.0,0.004592446144670248
1280.0,-0.00026384388911537826
1408.0,-0.0024630739353597164
1536.0,-0.004522649105638266
1664.0,0.0024666443932801485
1792.0,-0.00448488537222147
1920.0,-0.0025978602934628725
2048.0,0.004059552680701017
2304.0,0.0033025883603841066
2560.0,-0.001192937372252345
2816.0,-0.0013782158493995667
3072.0,0.004813384730368853
3328.0,0.0038378313183784485
3584.0,-0.0017765823286026716
3840.0,-0.007876928895711899
4096.0,-0.000994571135379374
4608.0,0.0013638843083754182
5120.0,-0.00017285121430177242
5632.0,5.5472894018748775e-05
6144.0,-0.0027883565053343773
6656.0,0.0007226382149383426
7168.0,0.00045228804810903966
7680.0,0.005059041082859039
8192.0,0.00018361637194175273
9216.0,-0.0029039729852229357
10240.0,-0.002915686694905162
11264.0,-0.003984053153544664
12288.0,-0.0015821178676560521
13312.0,-0.0046188607811927795
14336.0,-0.0026983933057636023
end
