version,3.0
numOfCh,1
type,point
parent_name,20-cuts
ch_type,1_1
kcount,1
numberNandB,1
brightnessNandB,1
carpet pos,0
pc,0
Time (ms),CH1 Auto-Correlation
1.0,0.04043984413146973
2.0,0.0371360182762146
3.0,0.034314852207899094
4.0,0.031874123960733414
5.0,0.029729565605521202
6.0,0.027804026380181313
7.0,0.02597923018038273
8.0,0.024360759183764458
9.0,0.022928904742002487
10.0,0.02167154848575592
11.0,0.020493626594543457
12.0,0.019482314586639404
13.0,0.01850825734436512
14.0,0.01760752685368061
15.0,0.016777146607637405
16.0,0.01603957638144493
18.0,0.014790977351367474
20.0,0.013695955276489258
22.0,0.012910467572510242
24.0,0.012089845724403858
26.0,0.011428805999457836
28.0,0.010908623225986958
30.0,0.010345996357500553
32.0,0.009971670806407928
36.0,0.00880424864590168
40.0,0.00768297677859664
44.0,0.006974326446652412
48.0,0.006558169610798359
52.0,0.006124959792941809
56.0,0.005620033945888281
60.0,0.005117105320096016
64.0,0.00467402208596468
72.0,0.004823098424822092
80.0,0.004506606608629227
88.0,0.004201612435281277
96.0,0.0036713986191898584
104.0,0.0027844724245369434
112.0,0.002546069910749793
120.0,0.002301944885402918
128.0,0.0018624725053086877
144.0,0.0020329654216766357
160.0,0.0013035082956776023
176.0,0.0013822814216837287
192.0,0.00045988013152964413
208.0,0.00018162722699344158
224.0,-0.0009327212464995682
240.0,-0.0008998183766379952
256.0,-0.0008908780291676521
288.0,-0.0009294148185290396
320.0,-0.0007260684506036341
352.0,0.00028288300381973386
384.0,-0.0007001700578257442
416.0,-0.0003459186991676688
448.0,-0.0006347702001221478
480.0,-0.0003144333022646606
512.0,0.0003804566222243011
576.0,-0.0017392932204529643
640.0,-0.0018133179983124137
704.0,-0.0015544150955975056
768.0,-0.0009584064828231931
832.0,-0.0005996960098855197
896.0,0.002274391707032919
960.0,0.0014684274792671204
1024.0,0.00018160298350267112
1152.0,0.0002746549725998193
1280.0,-0.0007209775503724813
1408.0,8.627638453617692e-05
1536.0,0.0005697002052329481
1664.0,7.50371182220988e-05
1792.0,-0.0004758941358886659
1920.0,-0.00044259478454478085
2048.0,-0.00036947245826013386
2304.0,-0.0007800039602443576
2560.0,0.0013980480143800378
2816.0,0.0009201095090247691
3072.0,-0.0018679278437048197
3328.0,-0.0024827145971357822
3584.0,-0.0008645658963359892
3840.0,0.0006094664568081498
4096.0,0.001687496667727828
4608.0,-0.0006899889558553696
5120.0,-7.596680370625108e-05
5632.0,-0.0004575869534164667
6144.0,0.00037593068554997444
6656.0,0.0008089386974461377
7168.0,-0.0016232047928497195
7680.0,-0.0009636980830691755
8192.0,7.476247265003622e-05
9216.0,0.00029254562105052173
10240.0,0.0015497831627726555
11264.0,0.0008542540017515421
12288.0,-5.16615436936263e-05
13312.0,-0.0011197492713108659
14336.0,-0.0018980527529492974
end
