version,3.0
numOfCh,1
type,point
parent_name,20-cuts
ch_type,1_1
kcount,1
numberNandB,1
brightnessNandB,1
carpet pos,0
pc,0
Time (ms),CH1 Auto-Correlation
1.0,0.08558937162160873
2.0,0.07892704755067825
3.0,0.07291600853204727
4.0,0.06772764772176743
5.0,0.06300479918718338
6.0,0.0588587261736393
7.0,0.05512083321809769
8.0,0.05195876210927963
9.0,0.04919713735580444
10.0,0.04661960154771805
11.0,0.04434038698673248
12.0,0.042429372668266296
13.0,0.0405283123254776
14.0,0.038833703845739365
15.0,0.03742589056491852
16.0,0.03617529571056366
18.0,0.03389556705951691
20.0,0.03190737962722778
22.0,0.029922420158982277
24.0,0.02772718295454979
26.0,0.025789562612771988
28.0,0.02376638352870941
30.0,0.021861078217625618
32.0,0.02012263797223568
36.0,0.0184638611972332
40.0,0.016704555600881577
44.0,0.0156570952385664
48.0,0.014826692640781403
52.0,0.013722047209739685
56.0,0.012954107485711575
60.0,0.011828696355223656
64.0,0.010083378292620182
72.0,0.008572302758693695
80.0,0.005715905223041773
88.0,0.00402242224663496
96.0,0.003096655709668994
104.0,0.0012656644685193896
112.0,-0.0005606429185718298
120.0,-0.0010958906495943666
128.0,-0.0019180643139407039
144.0,-0.0033031499478965998
160.0,-0.003406252944841981
176.0,-0.004252495709806681
192.0,-0.00448869401589036
208.0,-0.0013807910727337003
224.0,-0.002701924182474613
240.0,-0.002479321090504527
256.0,-0.003498296719044447
288.0,-0.0017233145190402865
320.0,-0.0015409811167046428
352.0,-0.0012485524639487267
384.0,-0.001001588418148458
416.0,0.00013256535748951137
448.0,0.0016342928865924478
480.0,-0.002035795943811536
512.0,-0.00231186137534678
576.0,-0.0005627425853163004
640.0,0.002487091114744544
704.0,0.0021085210610181093
768.0,-0.00045649713138118386
832.0,0.0020776246674358845
896.0,0.002176871756091714
960.0,0.0018817775417119265
1024.0,0.0033833933994174004
1152.0,0.0016807893989607692
1280.0,-0.0010076722828671336
1408.0,-3.9577309507876635e-05
1536.0,0.0012545172357931733
1664.0,0.0021143511403352022
1792.0,-0.0009541735053062439
1920.0,-0.0019364908803254366
2048.0,0.0012698399368673563
2304.0,1.6277906979667023e-05
2560.0,-0.0007341548334807158
2816.0,-0.001450595911592245
3072.0,-0.0005638457951135933
3328.0,0.00038732789107598364
3584.0,-0.0011356484610587358
3840.0,-0.003481463994830847
4096.0,-0.00045872392365708947
4608.0,6.631186988670379e-05
5120.0,-0.0001449632691219449
5632.0,0.0015080854063853621
6144.0,0.00042820684029720724
6656.0,-0.0020313733257353306
7168.0,0.000950643268879503
7680.0,-0.0007784665795043111
8192.0,0.0012641038047149777
9216.0,0.0002381702943239361
10240.0,-0.0004356592835392803
11264.0,-0.0009010201320052147
12288.0,-0.0020202058367431164
13312.0,-0.00021995887800585479
14336.0,-0.000966344028711319
end
