version,3.0
numOfCh,1
type,point
parent_name,0cd20_0dot4-0dot1
ch_type,1_1
kcount,1
numberNandB,1
brightnessNandB,1
carpet pos,0
pc,0
Time (ms),CH1 Auto-Correlation
1.0,0.027920300140976906
2.0,0.02691754698753357
3.0,0.025999393314123154
4.0,0.025133738294243813
5.0,0.02431463822722435
6.0,0.023531535640358925
7.0,0.022733088582754135
8.0,0.02196916565299034
9.0,0.021238945424556732
10.0,0.020582985132932663
11.0,0.01991209387779236
12.0,0.019271444529294968
13.0,0.018640467897057533
14.0,0.018056854605674744
15.0,0.0174655020236969
16.0,0.016929902136325836
18.0,0.015973059460520744
20.0,0.015121419914066792
22.0,0.01429666206240654
24.0,0.013503813184797764
26.0,0.012787031941115856
28.0,0.012128994800150394
30.0,0.011556548997759819
32.0,0.011013047769665718
36.0,0.01002633385360241
40.0,0.009335034526884556
44.0,0.008764082565903664
48.0,0.008248953148722649
52.0,0.007828605361282825
56.0,0.0074218022637069225
60.0,0.0070955343544483185
64.0,0.006935325916856527
72.0,0.006499011069536209
80.0,0.005958909634500742
88.0,0.005586666986346245
96.0,0.005152557976543903
104.0,0.004797391593456268
112.0,0.004656197968870401
120.0,0.0044450219720602036
128.0,0.004303014371544123
144.0,0.004292276222258806
160.0,0.003452758304774761
176.0,0.0024414437357336283
192.0,0.0014208020875230432
208.0,0.001505488296970725
224.0,0.002868486335501075
240.0,0.0033594807609915733
256.0,0.0030116578564047813
288.0,0.0020738658495247364
320.0,0.001613389584235847
352.0,0.001614476670511067
384.0,0.002493948210030794
416.0,0.0020394250750541687
448.0,0.0024282769300043583
480.0,0.0017536003142595291
512.0,0.000995640642940998
576.0,-0.00016675068764016032
640.0,0.00019312967197038233
704.0,0.0022039113100618124
768.0,0.0028016658034175634
832.0,0.001260853256098926
896.0,-0.0005802094237878919
960.0,-0.00028469206881709397
1024.0,0.0007581727113574743
1152.0,8.380995132029057e-05
1280.0,-0.0004517623456194997
1408.0,0.001273106667213142
1536.0,0.0016978348139673471
1664.0,0.002334592631086707
1792.0,0.0019551923032850027
1920.0,6.048380964784883e-05
2048.0,-0.000524091359693557
2304.0,-0.0022989476565271616
2560.0,-0.0032064940314739943
2816.0,-0.0017657377757132053
3072.0,-0.00107241899240762
3328.0,0.0007373933913186193
3584.0,0.000878490274772048
3840.0,-0.0009040196309797466
4096.0,-0.002575514605268836
4608.0,-0.0014093739446252584
5120.0,0.0005368753336369991
5632.0,-0.0032589577604085207
6144.0,-0.003594469279050827
6656.0,0.0005108687910251319
7168.0,0.0008399038924835622
7680.0,-0.0006703285616822541
8192.0,0.0029394987504929304
end
