version,3.0
numOfCh,1
type,point
parent_name,0cd20_0dot4-0dot1
ch_type,1_1
kcount,1
numberNandB,1
brightnessNandB,1
carpet pos,0
pc,0
Time (ms),CH1 Auto-Correlation
1.0,0.03753535449504852
2.0,0.03631714731454849
3.0,0.035171329975128174
4.0,0.03413868695497513
5.0,0.03315199166536331
6.0,0.03220412880182266
7.0,0.031293608248233795
8.0,0.030438140034675598
9.0,0.029634054750204086
10.0,0.028859874233603477
11.0,0.028104329481720924
12.0,0.02736728824675083
13.0,0.02664940245449543
14.0,0.025975646451115608
15.0,0.02535349689424038
16.0,0.024778302758932114
18.0,0.023692572489380836
20.0,0.022645311430096626
22.0,0.021679965779185295
24.0,0.02078045718371868
26.0,0.019999850541353226
28.0,0.01929480768740177
30.0,0.01870046928524971
32.0,0.01817619986832142
36.0,0.0171416737139225
40.0,0.016198059543967247
44.0,0.015371214598417282
48.0,0.014522522687911987
52.0,0.013643392361700535
56.0,0.012907810509204865
60.0,0.012184944935142994
64.0,0.011330938898026943
72.0,0.009861575439572334
80.0,0.008953346870839596
88.0,0.00818545464426279
96.0,0.007462444715201855
104.0,0.006953183561563492
112.0,0.006344011053442955
120.0,0.0065198964439332485
128.0,0.00682024797424674
144.0,0.007411879021674395
160.0,0.008343704044818878
176.0,0.008101390674710274
192.0,0.007189067080616951
208.0,0.006917253136634827
224.0,0.005636538844555616
240.0,0.004203133285045624
256.0,0.0031934783328324556
288.0,0.0024192563723772764
320.0,0.0019173463806509972
352.0,0.002643591957166791
384.0,0.004146905150264502
416.0,0.005519741214811802
448.0,0.004454759880900383
480.0,0.0035546717699617147
512.0,0.004007022827863693
576.0,0.0038714278489351273
640.0,0.005590963177382946
704.0,0.003913732245564461
768.0,0.0029467716813087463
832.0,0.0011540254345163703
896.0,0.0019293575314804912
960.0,0.0023758811876177788
1024.0,0.001164113637059927
1152.0,-0.000110151908302214
1280.0,0.0001878839684650302
1408.0,-0.000599827035330236
1536.0,0.000134473288198933
1664.0,2.921054510807153e-05
1792.0,-0.00025211533647961915
1920.0,0.0034929164685308933
2048.0,0.004511672537773848
2304.0,0.000250958459218964
2560.0,0.0009485635091550648
2816.0,0.00016729148046579212
3072.0,-0.00034444211632944643
3328.0,-0.0037285189609974623
3584.0,-0.004920955281704664
3840.0,-0.0019668175373226404
4096.0,-0.0048286933451890945
4608.0,-0.004305002745240927
5120.0,-0.003474945668131113
5632.0,-0.002545194001868367
6144.0,-0.005696480628103018
6656.0,-0.0013544476823881269
7168.0,-0.0003267889842391014
7680.0,9.946672798832878e-05
8192.0,-0.0019356058910489082
end
