version,3.0
numOfCh,1
type,point
parent_name,0cd20_0dot4-0dot1
ch_type,1_1
kcount,1
numberNandB,1
brightnessNandB,1
carpet pos,0
pc,0
Time (ms),CH1 Auto-Correlation
1.0,0.02980024553835392
2.0,0.028428498655557632
3.0,0.027157701551914215
4.0,0.02600889280438423
5.0,0.024957476183772087
6.0,0.02401067689061165
7.0,0.02312721125781536
8.0,0.022291798144578934
9.0,0.021506497636437416
10.0,0.02079598605632782
11.0,0.02016475237905979
12.0,0.019581953063607216
13.0,0.019065670669078827
14.0,0.018568608909845352
15.0,0.018141694366931915
16.0,0.01766815036535263
18.0,0.016723869368433952
20.0,0.015847913920879364
22.0,0.015147130936384201
24.0,0.014574769884347916
26.0,0.013977207243442535
28.0,0.013463935814797878
30.0,0.013034651055932045
32.0,0.012582276947796345
36.0,0.011668318882584572
40.0,0.011075716465711594
44.0,0.010610937140882015
48.0,0.010365567170083523
52.0,0.009934436529874802
56.0,0.009344566613435745
60.0,0.00874764658510685
64.0,0.008126700296998024
72.0,0.00750564131885767
80.0,0.006612948141992092
88.0,0.005525057669728994
96.0,0.004540500231087208
104.0,0.0040723117999732494
112.0,0.0036063757725059986
120.0,0.002976010087877512
128.0,0.002375862328335643
144.0,0.002090943744406104
160.0,0.0019949255511164665
176.0,0.0020920648239552975
192.0,0.002461174037307501
208.0,0.0022083022631704807
224.0,0.001691267709247768
240.0,0.0010853589046746492
256.0,0.0008225696510635316
288.0,0.0006780322873964906
320.0,-0.0004927220288664103
352.0,-0.0003966384974773973
384.0,0.00024030379427131265
416.0,0.001825158018618822
448.0,0.0023363609798252583
480.0,0.0019683793652802706
512.0,0.0014986781170591712
576.0,0.0007510795257985592
640.0,0.0015971142565831542
704.0,0.0012835951056331396
768.0,0.0007998234359547496
832.0,0.000590674055274576
896.0,-0.00032596770324744284
960.0,-0.00031633840990252793
1024.0,-0.0009875519899651408
1152.0,0.0015046537155285478
1280.0,0.001064806361682713
1408.0,-0.000501545611768961
1536.0,0.00040258397348225117
1664.0,-0.0007695698877796531
1792.0,-0.0016930244164541364
1920.0,-0.0018093568505719304
2048.0,-0.00020714729907922447
2304.0,-0.0005162681918591261
2560.0,-0.0002737748436629772
2816.0,-0.0009380548144690692
3072.0,-0.00224914588034153
3328.0,-0.0031282734125852585
3584.0,-0.001975704450160265
3840.0,-0.002051511313766241
4096.0,-0.0023095232900232077
4608.0,-0.0004925178363919258
5120.0,0.0011133634252473712
5632.0,0.0012344795977696776
6144.0,-0.0004230027843732387
6656.0,0.0002657853183336556
7168.0,0.0008563015144318342
7680.0,0.0019884926732629538
8192.0,-0.00020160674466751516
end
