version,3.0
numOfCh,1
type,point
parent_name,0cd20_0dot4-0dot1
ch_type,1_1
kcount,1
numberNandB,1
brightnessNandB,1
carpet pos,0
pc,0
Time (ms),CH1 Auto-Correlation
1.0,0.03789576515555382
2.0,0.036526694893836975
3.0,0.03524864464998245
4.0,0.03397011756896973
5.0,0.03280937299132347
6.0,0.03175708279013634
7.0,0.030762016773223877
8.0,0.029843013733625412
9.0,0.02890476956963539
10.0,0.028040625154972076
11.0,0.0271456278860569
12.0,0.02633267268538475
13.0,0.02558921091258526
14.0,0.024895094335079193
15.0,0.02425444684922695
16.0,0.023678405210375786
18.0,0.022637614980340004
20.0,0.021554414182901382
22.0,0.020552916452288628
24.0,0.019629228860139847
26.0,0.018864762037992477
28.0,0.018189257010817528
30.0,0.01752454973757267
32.0,0.01686684414744377
36.0,0.01600942574441433
40.0,0.01543221902102232
44.0,0.01497478038072586
48.0,0.014371276833117008
52.0,0.013499333523213863
56.0,0.012371156364679337
60.0,0.011410090140998363
64.0,0.010967385955154896
72.0,0.010115480050444603
80.0,0.009034077636897564
88.0,0.008017811924219131
96.0,0.007391374558210373
104.0,0.0072184400632977486
112.0,0.007107211276888847
120.0,0.007605374325066805
128.0,0.008262824267148972
144.0,0.007716427091509104
160.0,0.007745363749563694
176.0,0.007742385379970074
192.0,0.007059257477521896
208.0,0.007035036105662584
224.0,0.005965055897831917
240.0,0.004862453322857618
256.0,0.00469145318493247
288.0,0.0029993983916938305
320.0,0.002309046220034361
352.0,0.0021728137508034706
384.0,0.0025675895158201456
416.0,0.003280628938227892
448.0,0.0037473442498594522
480.0,0.002431096276268363
512.0,0.0018543213373050094
576.0,0.0006364000728353858
640.0,0.0004450415726751089
704.0,0.000510858022607863
768.0,-0.000709796731825918
832.0,0.0022047837264835835
896.0,0.00018169436953030527
960.0,0.0009088022052310407
1024.0,-4.896349855698645e-05
1152.0,-0.000524521223269403
1280.0,0.0005511060007847846
1408.0,0.0017229346558451653
1536.0,0.0037303180433809757
1664.0,0.005923500284552574
1792.0,0.00514843687415123
1920.0,0.0030881185084581375
2048.0,0.0032054847106337547
2304.0,0.00037062971387058496
2560.0,0.0013989732833579183
2816.0,0.0029206692706793547
3072.0,0.0003573211724869907
3328.0,0.0031859942246228456
3584.0,0.0009297344367951155
3840.0,-0.0005469603929668665
4096.0,-0.0012268582358956337
4608.0,0.00199091131798923
5120.0,0.0009453821112401783
5632.0,-0.0032598087564110756
6144.0,-0.0022520970087498426
6656.0,-0.0003624864330049604
7168.0,-0.001192067051306367
7680.0,-0.0032452531158924103
8192.0,-0.005479190032929182
end
