version,3.0
numOfCh,1
type,point
parent_name,0cd20_0dot4-0dot1
ch_type,1_1
kcount,1
numberNandB,1
brightnessNandB,1
carpet pos,0
pc,0
Time (ms),CH1 Auto-Correlation
1.0,0.02924608439207077
2.0,0.028172867372632027
3.0,0.0271754190325737
4.0,0.02625390887260437
5.0,0.025363443419337273
6.0,0.024556318297982216
7.0,0.02376384660601616
8.0,0.023009469732642174
9.0,0.022295013070106506
10.0,0.021601639688014984
11.0,0.020918210968375206
12.0,0.020282261073589325
13.0,0.019688066095113754
14.0,0.019121116027235985
15.0,0.018582532182335854
16.0,0.018077073618769646
18.0,0.017164044082164764
20.0,0.016370471566915512
22.0,0.01562531664967537
24.0,0.01492285542190075
26.0,0.014323154464364052
28.0,0.013779166154563427
30.0,0.013302125968039036
32.0,0.012861702591180801
36.0,0.012033435516059399
40.0,0.01133780274540186
44.0,0.010774861089885235
48.0,0.010136203840374947
52.0,0.009706982411444187
56.0,0.009417173452675343
60.0,0.009178846143186092
64.0,0.008929625153541565
72.0,0.00853149313479662
80.0,0.008201204240322113
88.0,0.007980752736330032
96.0,0.00780619727447629
104.0,0.007240538019686937
112.0,0.006245172582566738
120.0,0.005038546863943338
128.0,0.004498649388551712
144.0,0.003959864843636751
160.0,0.003715832019224763
176.0,0.0038830102421343327
192.0,0.004122960846871138
208.0,0.0033987604547291994
224.0,0.0030934775713831186
240.0,0.003203687025234103
256.0,0.003358619986101985
288.0,0.003988445270806551
320.0,0.0035004625096917152
352.0,0.0027865597512573004
384.0,0.002138679614290595
416.0,0.0002944519801530987
448.0,-0.0007274059462361038
480.0,-0.0011500967666506767
512.0,-0.0018903798190876842
576.0,-0.002834934275597334
640.0,-0.0020527837332338095
704.0,-0.001248544896952808
768.0,-0.001270498731173575
832.0,-0.0022735430393368006
896.0,-0.0021959200967103243
960.0,-0.0021817886736243963
1024.0,-0.0010859115282073617
1152.0,0.0011208930518478155
1280.0,0.0002728899125941098
1408.0,0.00065936817554757
1536.0,0.0003543153579812497
1664.0,-0.00013202115951571614
1792.0,-0.00023751550179440528
1920.0,0.0009679237846285105
2048.0,0.0002200892922701314
2304.0,-0.00024870241759344935
2560.0,-0.0012247178237885237
2816.0,-0.0007976026390679181
3072.0,-0.0014918058877810836
3328.0,-4.957259989168961e-06
3584.0,-0.0006457740091718733
3840.0,-0.0031773303635418415
4096.0,-0.0028850454837083817
4608.0,0.00010575696069281548
5120.0,0.0006881353328935802
5632.0,-0.001058548572473228
6144.0,0.0009267687564715743
6656.0,0.0007216171361505985
7168.0,-0.00018226525571662933
7680.0,0.0014235131675377488
8192.0,0.002087978646159172
end
