version,3.0
numOfCh,1
type,point
parent_name,0cd20_0dot4-0dot1
ch_type,1_1
kcount,1
numberNandB,1
brightnessNandB,1
carpet pos,0
pc,0
Time (ms),CH1 Auto-Correlation
1.0,0.0304246973246336
2.0,0.029205357655882835
3.0,0.02800147980451584
4.0,0.0270528607070446
5.0,0.0261690616607666
6.0,0.025365658104419708
7.0,0.024613268673419952
8.0,0.023928098380565643
9.0,0.02331254817545414
10.0,0.022734416648745537
11.0,0.022183924913406372
12.0,0.02161942608654499
13.0,0.021078353747725487
14.0,0.020553434267640114
15.0,0.02008829638361931
16.0,0.019634876400232315
18.0,0.01880084164440632
20.0,0.018048670142889023
22.0,0.017362726852297783
24.0,0.016736913472414017
26.0,0.016237352043390274
28.0,0.01573226787149906
30.0,0.015236458741128445
32.0,0.01478216890245676
36.0,0.014040244743227959
40.0,0.013432230800390244
44.0,0.012989022769033909
48.0,0.012347549200057983
52.0,0.011651135049760342
56.0,0.011039075441658497
60.0,0.01056839432567358
64.0,0.01012799795717001
72.0,0.009383049793541431
80.0,0.008412669412791729
88.0,0.007849877700209618
96.0,0.00747007317841053
104.0,0.006975493393838406
112.0,0.006267900113016367
120.0,0.005498896818608046
128.0,0.004655048716813326
144.0,0.003940123599022627
160.0,0.003974321763962507
176.0,0.00440926244482398
192.0,0.004016411025077105
208.0,0.003656234359368682
224.0,0.0033710466232150793
240.0,0.0033585962373763323
256.0,0.0032773702405393124
288.0,0.002882732078433037
320.0,0.0022001080214977264
352.0,0.0006710385787300766
384.0,-0.0008206262718886137
416.0,-0.0013000890612602234
448.0,-0.0004103207029402256
480.0,0.0011281042825430632
512.0,0.0018341963877901435
576.0,0.0012029254576191306
640.0,-4.954101677867584e-05
704.0,-0.0001474828168284148
768.0,0.0018240198260173202
832.0,0.0014034881023690104
896.0,-0.0005853166221641004
960.0,-0.0017283795168623328
1024.0,-0.0016062709037214518
1152.0,-0.00201377272605896
1280.0,-0.0031076627783477306
1408.0,-0.002893432741984725
1536.0,-0.00242562685161829
1664.0,-0.003281089710071683
1792.0,-0.0021920588333159685
1920.0,-0.001653648680076003
2048.0,-0.003438537707552314
2304.0,-0.0018260212382301688
2560.0,-0.0013067593099549413
2816.0,0.0019948033150285482
3072.0,0.0025698367971926928
3328.0,0.002139078686013818
3584.0,-0.00045628537191078067
3840.0,0.0016140040243044496
4096.0,0.0002549865748733282
4608.0,-0.0010109307477250695
5120.0,-0.002289765514433384
5632.0,0.0005617316928692162
6144.0,0.000660697347484529
6656.0,0.001015450689010322
7168.0,-0.0016010861145332456
7680.0,-0.00019436769071035087
8192.0,0.00019607943249866366
end
