version,3.0
numOfCh,1
type,point
parent_name,0cd20_0dot4-0dot1
ch_type,1_1
kcount,1
numberNandB,1
brightnessNandB,1
carpet pos,0
pc,0
Time (ms),CH1 Auto-Correlation
1.0,0.03232647106051445
2.0,0.031136024743318558
3.0,0.0300529096275568
4.0,0.028999747708439827
5.0,0.02799728885293007
6.0,0.027083327993750572
7.0,0.026189636439085007
8.0,0.02535129152238369
9.0,0.024561936035752296
10.0,0.023812538012862206
11.0,0.023103417828679085
12.0,0.022444460541009903
13.0,0.02186712622642517
14.0,0.02132180705666542
15.0,0.020788054913282394
16.0,0.020245440304279327
18.0,0.019195212051272392
20.0,0.018168944865465164
22.0,0.017270168289542198
24.0,0.016441091895103455
26.0,0.015709180384874344
28.0,0.015045042149722576
30.0,0.014423426240682602
32.0,0.01387084275484085
36.0,0.013016059063374996
40.0,0.012270639650523663
44.0,0.01146890688687563
48.0,0.01082589291036129
52.0,0.010347092524170876
56.0,0.009969891980290413
60.0,0.009568663313984871
64.0,0.009296942502260208
72.0,0.008780833333730698
80.0,0.007919251918792725
88.0,0.007234594319015741
96.0,0.0066719199530780315
104.0,0.006176133640110493
112.0,0.005863145459443331
120.0,0.005583209916949272
128.0,0.0051217880100011826
144.0,0.004850923083722591
160.0,0.005061387550085783
176.0,0.005132670048624277
192.0,0.00455004908144474
208.0,0.0037866109050810337
224.0,0.0031693875789642334
240.0,0.0022426533978432417
256.0,0.0009501013555563986
288.0,-0.0008422051905654371
320.0,-0.0021460007410496473
352.0,-0.0034896614961326122
384.0,-0.002158400136977434
416.0,-0.0025885612703859806
448.0,-0.002136192750185728
480.0,-0.002342535648494959
512.0,-0.0034196029882878065
576.0,-0.0016242028214037418
640.0,0.0018973136320710182
704.0,0.002561308676376939
768.0,0.003256650408729911
832.0,0.001732138218358159
896.0,0.002002072287723422
960.0,0.0019104494713246822
1024.0,0.0020344583317637444
1152.0,0.0006633780431002378
1280.0,-0.0014556727837771177
1408.0,-0.0004567906726151705
1536.0,-0.0010097778867930174
1664.0,-0.002341160550713539
1792.0,-0.0010978629579767585
1920.0,-0.0004577675717882812
2048.0,-0.0006945350323803723
2304.0,3.5263550671515986e-05
2560.0,-0.00029874767642468214
2816.0,-0.0006595751619897783
3072.0,-0.0005254275747574866
3328.0,-0.00012645692913793027
3584.0,-0.0003899415605701506
3840.0,0.0008296690066345036
4096.0,-0.0014862094540148973
4608.0,0.0011569758644327521
5120.0,-0.0008456218056380749
5632.0,0.00019287015311419964
6144.0,-0.0017209927318617702
6656.0,-0.0019189888844266534
7168.0,-0.00019166831043548882
7680.0,-0.0030324854888021946
8192.0,0.0005593462265096605
end
