version,3.0
numOfCh,1
type,point
parent_name,0cd20_0dot4-0dot1
ch_type,1_1
kcount,1
numberNandB,1
brightnessNandB,1
carpet pos,0
pc,0
Time (ms),CH1 Auto-Correlation
1.0,0.03533012792468071
2.0,0.03416573628783226
3.0,0.033042844384908676
4.0,0.03195428103208542
5.0,0.030922304838895798
6.0,0.029943829402327538
7.0,0.02902803383767605
8.0,0.028159141540527344
9.0,0.02732264995574951
10.0,0.026554664596915245
11.0,0.02586301416158676
12.0,0.025163117796182632
13.0,0.02450036071240902
14.0,0.023876376450061798
15.0,0.02328304573893547
16.0,0.022705236449837685
18.0,0.0216065626591444
20.0,0.020528871566057205
22.0,0.019575221464037895
24.0,0.018728557974100113
26.0,0.017900625243782997
28.0,0.017100119963288307
30.0,0.016366848722100258
32.0,0.01573631726205349
36.0,0.014681166037917137
40.0,0.013640408404171467
44.0,0.012691225856542587
48.0,0.011815431527793407
52.0,0.011116666719317436
56.0,0.010394593700766563
60.0,0.009850405156612396
64.0,0.009462649933993816
72.0,0.008717675693333149
80.0,0.007829051464796066
88.0,0.007125639822334051
96.0,0.0065040891058743
104.0,0.00594964949414134
112.0,0.005440275650471449
120.0,0.00506327161565423
128.0,0.00506228394806385
144.0,0.005641640163958073
160.0,0.005616465117782354
176.0,0.005122371483594179
192.0,0.0051648481748998165
208.0,0.004977733828127384
224.0,0.005661926697939634
240.0,0.006181397475302219
256.0,0.006166623905301094
288.0,0.003942761104553938
320.0,0.0025367573834955692
352.0,0.0006011066725477576
384.0,0.0009946476202458143
416.0,0.0024754086043685675
448.0,0.0017862868262454867
480.0,0.0007594647468067706
512.0,0.00020929865422658622
576.0,-0.0014106064336374402
640.0,-0.0012626934330910444
704.0,0.0007807207875885069
768.0,-0.0013359118020161986
832.0,2.1097397620906122e-05
896.0,0.001746002584695816
960.0,0.0006064278422854841
1024.0,-0.00027194365975447
1152.0,-8.987390901893377e-05
1280.0,-0.0020819881465286016
1408.0,-0.0021551125682890415
1536.0,0.0002058554528048262
1664.0,-0.0026562027633190155
1792.0,-0.00019911130948457867
1920.0,0.0007681853021495044
2048.0,0.001391003024764359
2304.0,0.0005611852975562215
2560.0,-0.00028768350603058934
2816.0,0.0008684015483595431
3072.0,0.0016966660041362047
3328.0,0.0014756412710994482
3584.0,0.00015440212155226618
3840.0,7.592716428916901e-05
4096.0,-0.0014489926397800446
4608.0,0.00022859736054670066
5120.0,0.0010700533166527748
5632.0,-0.0015994051937013865
6144.0,-0.003255185205489397
6656.0,-0.001895665773190558
7168.0,-0.0018025151221081614
7680.0,-0.003297459101304412
8192.0,-0.001481036189943552
end
