version,3.0
numOfCh,1
type,point
parent_name,0cd20_0dot4-0dot1
ch_type,1_1
kcount,1
numberNandB,1
brightnessNandB,1
carpet pos,0
pc,0
Time (ms),CH1 Auto-Correlation
1.0,0.029753249138593674
2.0,0.028702983632683754
3.0,0.027768420055508614
4.0,0.026915429159998894
5.0,0.026100195944309235
6.0,0.02532743103802204
7.0,0.024635322391986847
8.0,0.023991847410798073
9.0,0.023326953873038292
10.0,0.022695748135447502
11.0,0.022090062499046326
12.0,0.021517090499401093
13.0,0.020952893421053886
14.0,0.020413454622030258
15.0,0.019881755113601685
16.0,0.019402939826250076
18.0,0.018543975427746773
20.0,0.017695069313049316
22.0,0.01690075173974037
24.0,0.016161320731043816
26.0,0.015479467809200287
28.0,0.014851322397589684
30.0,0.014262101612985134
32.0,0.013768943026661873
36.0,0.012770691886544228
40.0,0.011862131766974926
44.0,0.011065813712775707
48.0,0.01037259679287672
52.0,0.009940728545188904
56.0,0.009513067081570625
60.0,0.009120688773691654
64.0,0.008775581605732441
72.0,0.008271400816738605
80.0,0.007516928017139435
88.0,0.0066660623997449875
96.0,0.005979446228593588
104.0,0.005373602733016014
112.0,0.004982731305062771
120.0,0.004860226064920425
128.0,0.004767680540680885
144.0,0.004918609745800495
160.0,0.00480628153309226
176.0,0.004693976603448391
192.0,0.004465295933187008
208.0,0.004276794847100973
224.0,0.004303797613829374
240.0,0.003429082687944174
256.0,0.002537069609388709
288.0,0.0029812122229486704
320.0,0.0024492712691426277
352.0,0.0009891543304547668
384.0,0.0008742541540414095
416.0,-0.00029874269966967404
448.0,-0.00024116711574606597
480.0,0.0004141733224969357
512.0,0.0005799751379527152
576.0,0.0005783570231869817
640.0,0.0022923131473362446
704.0,0.0025735439267009497
768.0,0.0016617440851405263
832.0,0.002032131887972355
896.0,0.0016724870074540377
960.0,0.0016401821048930287
1024.0,-0.0002131031360477209
1152.0,0.000869350042194128
1280.0,0.0011075802613049746
1408.0,0.0006719818338751793
1536.0,0.0009909706423059106
1664.0,0.0016081260982900858
1792.0,0.0014526413287967443
1920.0,0.002297178842127323
2048.0,0.002336572390049696
2304.0,0.0033635098952800035
2560.0,0.0010699264239519835
2816.0,-0.0006010046927258372
3072.0,0.0011450820602476597
3328.0,0.0020031521562486887
3584.0,0.0014540038537234068
3840.0,-8.735020674066618e-05
4096.0,0.0008536637178622186
4608.0,0.0017128429608419538
5120.0,-0.0014207157073542476
5632.0,-0.0011747367680072784
6144.0,-0.003191137220710516
6656.0,-0.0009035607799887657
7168.0,-0.001814028131775558
7680.0,-0.002667862456291914
8192.0,-0.004060260020196438
end
