version,3.0
numOfCh,1
type,point
parent_name,0cd20_0dot4-0dot1
ch_type,1_1
kcount,1
numberNandB,1
brightnessNandB,1
carpet pos,0
pc,0
Time (ms),CH1 Auto-Correlation
1.0,0.03202519938349724
2.0,0.030877506360411644
3.0,0.029810810461640358
4.0,0.02877802960574627
5.0,0.027834346517920494
6.0,0.0269475057721138
7.0,0.026092469692230225
8.0,0.025287434458732605
9.0,0.024529075250029564
10.0,0.02382585033774376
11.0,0.023196635767817497
12.0,0.022617753595113754
13.0,0.0220929142087698
14.0,0.021602943539619446
15.0,0.02113533765077591
16.0,0.020707331597805023
18.0,0.019844945520162582
20.0,0.01908068358898163
22.0,0.018391095101833344
24.0,0.017682669684290886
26.0,0.01699056476354599
28.0,0.016331881284713745
30.0,0.01562050823122263
32.0,0.014921699650585651
36.0,0.013691884465515614
40.0,0.012692407704889774
44.0,0.01182186882942915
48.0,0.010963800363242626
52.0,0.010297826491296291
56.0,0.009693004190921783
60.0,0.009138072840869427
64.0,0.008614028804004192
72.0,0.007902577519416809
80.0,0.007409254554659128
88.0,0.006877511274069548
96.0,0.0065976777113974094
104.0,0.006524078082293272
112.0,0.00616880040615797
120.0,0.005643297452479601
128.0,0.004784118849784136
144.0,0.0035041982773691416
160.0,0.0029379429761320353
176.0,0.002929853741079569
192.0,0.0034740373957902193
208.0,0.0035774637944996357
224.0,0.003961425274610519
240.0,0.0032167257741093636
256.0,0.0025761600118130445
288.0,0.0004115692572668195
320.0,-8.286932279588655e-05
352.0,-0.0005460485117509961
384.0,0.00010270455095451325
416.0,-0.00023658674035687
448.0,0.0003286990395281464
480.0,0.000763154705055058
512.0,0.0004258348199073225
576.0,0.0012075684498995543
640.0,0.0007514961180277169
704.0,0.0006678945501334965
768.0,-9.687537385616452e-05
832.0,0.0009721618262119591
896.0,0.0020954713691025972
960.0,0.003465196816250682
1024.0,0.0015705052064731717
1152.0,0.0018433356890454888
1280.0,0.0022244094870984554
1408.0,0.0016040023183450103
1536.0,0.0004696778778452426
1664.0,-0.00223710504360497
1792.0,-0.0019829540979117155
1920.0,-0.0013455930165946484
2048.0,-0.001678181579336524
2304.0,-0.0023062077816575766
2560.0,-0.0026701425667852163
2816.0,-0.00213032984174788
3072.0,-0.0032226114999502897
3328.0,-0.0015564013738185167
3584.0,-0.0021902115549892187
3840.0,-0.0016141458181664348
4096.0,0.0005195065750740469
4608.0,0.0014543153811246157
5120.0,0.0016052457503974438
5632.0,0.0023116690572351217
6144.0,0.0009588445536792278
6656.0,0.00032176694367080927
7168.0,-0.0006106460350565612
7680.0,-0.0018121007597073913
8192.0,-0.0020312301348894835
end
