version,3.0
numOfCh,1
type,point
parent_name,0cd20_0dot4-0dot1
ch_type,1_1
kcount,1
numberNandB,1
brightnessNandB,1
carpet pos,0
pc,0
Time (ms),CH1 Auto-Correlation
1.0,0.033306874334812164
2.0,0.03214719891548157
3.0,0.03107423335313797
4.0,0.030121468007564545
5.0,0.029248839244246483
6.0,0.028433755040168762
7.0,0.027678966522216797
8.0,0.026895074173808098
9.0,0.026176514104008675
10.0,0.02551923505961895
11.0,0.02492358349263668
12.0,0.024373512715101242
13.0,0.023879047483205795
14.0,0.023375699296593666
15.0,0.022836770862340927
16.0,0.022291800007224083
18.0,0.021375147625803947
20.0,0.020477868616580963
22.0,0.019606372341513634
24.0,0.018879586830735207
26.0,0.0181892067193985
28.0,0.01759740710258484
30.0,0.016942648217082024
32.0,0.016306141391396523
36.0,0.015095110051333904
40.0,0.014093481004238129
44.0,0.013269099406898022
48.0,0.012397972866892815
52.0,0.011538105085492134
56.0,0.010861282236874104
60.0,0.010282514616847038
64.0,0.009635308757424355
72.0,0.008342485874891281
80.0,0.007218970451503992
88.0,0.006491635926067829
96.0,0.0059317247942090034
104.0,0.005202025640755892
112.0,0.00478066923096776
120.0,0.004642809275537729
128.0,0.004356849007308483
144.0,0.0029590209014713764
160.0,0.0014310694532468915
176.0,0.0005199373117648065
192.0,0.00037016431451775134
208.0,0.00022535285097546875
224.0,-0.0002880558022297919
240.0,-0.0009452431695535779
256.0,-0.0015850913478061557
288.0,-0.0010975153418257833
320.0,-0.00021911243675276637
352.0,0.0008470766479149461
384.0,0.0009922628523781896
416.0,0.0012288542930036783
448.0,0.0010615468490868807
480.0,0.0015506332274526358
512.0,0.0016079640481621027
576.0,0.0013097793562337756
640.0,0.0004974243347533047
704.0,0.0006253038300201297
768.0,0.0006866903277114034
832.0,-0.0009061270393431187
896.0,-0.0023516525980085135
960.0,-0.003259055782109499
1024.0,-0.004275621846318245
1152.0,-0.00040004667243920267
1280.0,0.00017460745584685355
1408.0,-0.0010514926398172975
1536.0,-0.0019406590145081282
1664.0,0.0004091101000085473
1792.0,0.0011528785107657313
1920.0,0.0012719508958980441
2048.0,0.0016526097897440195
2304.0,0.00041097498615272343
2560.0,0.00135672593023628
2816.0,-0.0021145502105355263
3072.0,0.00012309079465921968
3328.0,-0.0010273288935422897
3584.0,0.0014300557086244226
3840.0,0.00234839110635221
4096.0,0.002251462545245886
4608.0,0.0009223500965163112
5120.0,-0.0026352573186159134
5632.0,-0.0013903739163652062
6144.0,0.001230443362146616
6656.0,0.0012385627487674356
7168.0,-0.0015547891380265355
7680.0,-0.0016344725154340267
8192.0,0.0005482857814058661
end
