version,3.0
numOfCh,1
type,point
parent_name,0cd20_0dot4-0dot1
ch_type,1_1
kcount,1
numberNandB,1
brightnessNandB,1
carpet pos,0
pc,0
Time (ms),CH1 Auto-Correlation
1.0,0.02935338392853737
2.0,0.028263935819268227
3.0,0.027266453951597214
4.0,0.026312444359064102
5.0,0.025430036708712578
6.0,0.024580560624599457
7.0,0.023767445236444473
8.0,0.023002175614237785
9.0,0.02225000225007534
10.0,0.02153094671666622
11.0,0.020842790603637695
12.0,0.020200878381729126
13.0,0.019538482651114464
14.0,0.018896544352173805
15.0,0.018254807218909264
16.0,0.017694994807243347
18.0,0.0167577862739563
20.0,0.01585560478270054
22.0,0.014967852272093296
24.0,0.014157436788082123
26.0,0.013429185375571251
28.0,0.01272501889616251
30.0,0.01213316060602665
32.0,0.011668873019516468
36.0,0.01093926653265953
40.0,0.010210935957729816
44.0,0.009633991867303848
48.0,0.00919643510133028
52.0,0.008708914741873741
56.0,0.00811278261244297
60.0,0.007513201795518398
64.0,0.006921281106770039
72.0,0.005836194381117821
80.0,0.004961782600730658
88.0,0.004343710839748383
96.0,0.004093059338629246
104.0,0.004174778703600168
112.0,0.004133026581257582
120.0,0.0039221723563969135
128.0,0.003473542630672455
144.0,0.002272296929731965
160.0,0.0013947676634415984
176.0,0.001101302681490779
192.0,0.0012967513175681233
208.0,0.0012261000229045749
224.0,0.0011290531838312745
240.0,0.0011195583501830697
256.0,0.001456183148548007
288.0,0.0006102837505750358
320.0,0.0008651402895338833
352.0,0.0014926957665011287
384.0,0.00219936016947031
416.0,0.0004653159703593701
448.0,-0.0001410726981703192
480.0,-0.0009994845604524016
512.0,-0.00022605773119721562
576.0,0.0006802754942327738
640.0,0.0006514451815746725
704.0,-0.00033405187423340976
768.0,0.000999805866740644
832.0,0.001302601071074605
896.0,-0.0005679017631337047
960.0,0.0003151368582621217
1024.0,-0.0006096809520386159
1152.0,-0.0011126919416710734
1280.0,-0.0008943724678829312
1408.0,-0.0020126113668084145
1536.0,-5.864409467903897e-05
1664.0,-0.0009095132700167596
1792.0,-0.00034397473791614175
1920.0,0.0019561091903597116
2048.0,0.0010869591496884823
2304.0,0.0010678637772798538
2560.0,0.0017432891763746738
2816.0,0.000554595491848886
3072.0,0.0001821970654418692
3328.0,0.0013011493720114231
3584.0,6.738291631336324e-06
3840.0,-0.00034840728039853275
4096.0,-0.00037009568768553436
4608.0,-0.0003324018034618348
5120.0,3.7201922964413825e-07
5632.0,-0.0003072864201385528
6144.0,0.000756281369831413
6656.0,0.0006970212562009692
7168.0,-0.0007702633156441152
7680.0,-0.001372990314848721
8192.0,-0.0025155360344797373
end
