version,3.0
numOfCh,1
type,point
parent_name,0cd20_0dot4-0dot1
ch_type,1_1
kcount,1
numberNandB,1
brightnessNandB,1
carpet pos,0
pc,0
Time (ms),CH1 Auto-Correlation
1.0,0.03473993018269539
2.0,0.0334610678255558
3.0,0.03226366639137268
4.0,0.03112051449716091
5.0,0.03007478266954422
6.0,0.029110591858625412
7.0,0.0282187070697546
8.0,0.02736365608870983
9.0,0.026510830968618393
10.0,0.02572271041572094
11.0,0.024982571601867676
12.0,0.024313975125551224
13.0,0.023661311715841293
14.0,0.023042989894747734
15.0,0.02239266224205494
16.0,0.02176724746823311
18.0,0.02054470218718052
20.0,0.019408093765378
22.0,0.01847088895738125
24.0,0.017686238512396812
26.0,0.01697719469666481
28.0,0.016283202916383743
30.0,0.015529434196650982
32.0,0.014844382181763649
36.0,0.013612736947834492
40.0,0.012612896040081978
44.0,0.012080501765012741
48.0,0.0117659205570817
52.0,0.011432087980210781
56.0,0.011135744862258434
60.0,0.01092576514929533
64.0,0.01056169904768467
72.0,0.010190910659730434
80.0,0.010385224595665932
88.0,0.010075817815959454
96.0,0.00977014284580946
104.0,0.009654448367655277
112.0,0.008744627237319946
120.0,0.007900535129010677
128.0,0.007101130671799183
144.0,0.0056295134127140045
160.0,0.004436152055859566
176.0,0.0036684242077171803
192.0,0.003989341668784618
208.0,0.004779663868248463
224.0,0.004396800883114338
240.0,0.0031336001120507717
256.0,0.0028991864528506994
288.0,0.0024109738878905773
320.0,0.001906503108330071
352.0,0.00107480026781559
384.0,0.0016163868131116033
416.0,0.001889312407001853
448.0,0.0018592082196846604
480.0,0.002935396507382393
512.0,0.002960831392556429
576.0,0.0018658688059076667
640.0,-0.0005874100024811924
704.0,-0.0020350171253085136
768.0,-0.0017518192762508988
832.0,-0.0006394402007572353
896.0,0.0008191454107873142
960.0,0.0006069764494895935
1024.0,0.00026466374401934445
1152.0,-0.0008736583986319602
1280.0,-0.0007138306391425431
1408.0,0.0017503760755062103
1536.0,0.0008444447885267437
1664.0,-0.0009683092357590795
1792.0,0.000863852328620851
1920.0,0.0018325771670788527
2048.0,0.00039477532845921814
2304.0,-0.0007806813227944076
2560.0,-0.0015905096661299467
2816.0,-0.0004037519101984799
3072.0,0.00022407302458304912
3328.0,-0.0012705824337899685
3584.0,-0.0015509200748056173
3840.0,-0.0005953051731921732
4096.0,-0.0014987185131758451
4608.0,-0.0012218463234603405
5120.0,0.0007038446492515504
5632.0,0.0008564735180698335
6144.0,-0.0006090029492042959
6656.0,0.00035197375109419227
7168.0,-0.0013522774679586291
7680.0,-0.0019189019221812487
8192.0,0.0014133357908576727
end
