version,3.0
numOfCh,1
type,point
parent_name,0cd20_0dot4-0dot1
ch_type,1_1
kcount,1
numberNandB,1
brightnessNandB,1
carpet pos,0
pc,0
Time (ms),CH1 Auto-Correlation
1.0,0.02986018918454647
2.0,0.02876361273229122
3.0,0.027746519073843956
4.0,0.026818091049790382
5.0,0.025937363505363464
6.0,0.02506028488278389
7.0,0.024250036105513573
8.0,0.02351677045226097
9.0,0.02279483899474144
10.0,0.022115997970104218
11.0,0.021472351625561714
12.0,0.020886607468128204
13.0,0.020325317978858948
14.0,0.019808413460850716
15.0,0.019300486892461777
16.0,0.018822800368070602
18.0,0.017943641170859337
20.0,0.017186179757118225
22.0,0.01648104004561901
24.0,0.0158041100949049
26.0,0.015125982463359833
28.0,0.01452759001404047
30.0,0.014026997610926628
32.0,0.013561895117163658
36.0,0.01287710852921009
40.0,0.012242850847542286
44.0,0.011639650911092758
48.0,0.010954239405691624
52.0,0.010174300521612167
56.0,0.009393968619406223
60.0,0.00865247379988432
64.0,0.00798363983631134
72.0,0.006773225963115692
80.0,0.005438420455902815
88.0,0.0041182078421115875
96.0,0.003093285718932748
104.0,0.002456421498209238
112.0,0.002120089950039983
120.0,0.0018289758590981364
128.0,0.0016556652262806892
144.0,0.0015435732202604413
160.0,0.001215550466440618
176.0,0.0012872007209807634
192.0,0.001981874695047736
208.0,0.002460390329360962
224.0,0.0021402903366833925
240.0,0.0016903472132980824
256.0,0.0010544501710683107
288.0,0.0007769131334498525
320.0,0.0003238230128772557
352.0,0.0010620721150189638
384.0,0.0005887378938496113
416.0,0.0002901553816627711
448.0,5.194116511120228e-06
480.0,8.287500531878322e-05
512.0,0.0003718901425600052
576.0,0.0006811274797655642
640.0,0.0001423950889147818
704.0,-0.00028085417579859495
768.0,-0.00031265197321772575
832.0,0.0009872486116364598
896.0,4.5922828576294705e-05
960.0,-0.0009448333876207471
1024.0,-0.00020124902948737144
1152.0,-0.0015972346300259233
1280.0,-0.00016411719843745232
1408.0,-0.0013780300505459309
1536.0,-0.0027995640411973
1664.0,-0.0008618133724667132
1792.0,-0.0021743089891970158
1920.0,-0.003977822605520487
2048.0,-0.004239183384925127
2304.0,-0.000929786532651633
2560.0,0.0020111382473260164
2816.0,0.0016212220070883632
3072.0,0.0007334881811402738
3328.0,0.0008191274246200919
3584.0,0.00206545228138566
3840.0,0.000711890053935349
4096.0,0.00019691331544891
4608.0,-0.0021266613621264696
5120.0,-0.00028486776864156127
5632.0,-0.0011579631827771664
6144.0,0.00019258107931818813
6656.0,0.0021662923973053694
7168.0,-0.0004073624440934509
7680.0,0.00016211930778808892
8192.0,-0.0027115987613797188
end
