version,3.0
numOfCh,1
type,point
parent_name,0cd20_0dot4-0dot1
ch_type,1_1
kcount,1
numberNandB,1
brightnessNandB,1
carpet pos,0
pc,0
Time (ms),CH1 Auto-Correlation
1.0,0.03771853819489479
2.0,0.036515235900878906
3.0,0.03541192784905434
4.0,0.03440014645457268
5.0,0.03339343145489693
6.0,0.03239502012729645
7.0,0.031483691185712814
8.0,0.030637281015515327
9.0,0.029849611222743988
10.0,0.029104817658662796
11.0,0.02839539386332035
12.0,0.02774912491440773
13.0,0.027114881202578545
14.0,0.02641105093061924
15.0,0.025746900588274002
16.0,0.025064576417207718
18.0,0.023717932403087616
20.0,0.022500554099678993
22.0,0.021399231627583504
24.0,0.020328190177679062
26.0,0.019327258691191673
28.0,0.01826370321214199
30.0,0.017278950661420822
32.0,0.01635078713297844
36.0,0.014834078028798103
40.0,0.013616405427455902
44.0,0.012682132422924042
48.0,0.011949190869927406
52.0,0.011237063445150852
56.0,0.010473567061126232
60.0,0.009759349748492241
64.0,0.00917650293558836
72.0,0.008008533157408237
80.0,0.0069939387030899525
88.0,0.0062631950713694096
96.0,0.005992366932332516
104.0,0.006170955952256918
112.0,0.006615013349801302
120.0,0.007088873069733381
128.0,0.007199693005532026
144.0,0.006606036797165871
160.0,0.005437977146357298
176.0,0.004428723827004433
192.0,0.003544022561982274
208.0,0.0027591947000473738
224.0,0.002001964719966054
240.0,0.001757279154844582
256.0,0.002301434986293316
288.0,0.0029826154932379723
320.0,0.0019542158115655184
352.0,0.0012831968488171697
384.0,0.0022267138119786978
416.0,0.0023882295936346054
448.0,0.0017923437990248203
480.0,0.0027191326953470707
512.0,0.003154236823320389
576.0,0.004143126308917999
640.0,0.0031677994411438704
704.0,0.0014445459237322211
768.0,0.0012954603880643845
832.0,-0.0008157856063917279
896.0,-0.0013067538384348154
960.0,0.00020578186376951635
1024.0,0.0005620181327685714
1152.0,4.899685336567927e-06
1280.0,-1.2017253538942896e-05
1408.0,-0.002859370782971382
1536.0,0.0003062186005990952
1664.0,0.0013443953357636929
1792.0,0.002258016262203455
1920.0,-0.0007305601611733437
2048.0,-0.0010188419837504625
2304.0,0.00024174772261176258
2560.0,-0.0008989569032564759
2816.0,0.0016156198689714074
3072.0,-2.1482341253431514e-05
3328.0,-0.00024260648933704942
3584.0,-0.002194542670622468
3840.0,-0.0043878573924303055
4096.0,-0.0029107844457030296
4608.0,-0.0014048428274691105
5120.0,0.0003672231105156243
5632.0,0.0001951402664417401
6144.0,0.0006048402283340693
6656.0,-0.0012745872372761369
7168.0,-0.0004600495158229023
7680.0,0.00280132913030684
8192.0,0.0016875474248081446
end
