version,3.0
numOfCh,1
type,point
parent_name,0cd20_0dot4-0dot1
ch_type,1_1
kcount,1
numberNandB,1
brightnessNandB,1
carpet pos,0
pc,0
Time (ms),CH1 Auto-Correlation
1.0,0.033228278160095215
2.0,0.032116442918777466
3.0,0.031068917363882065
4.0,0.030104240402579308
5.0,0.029204528778791428
6.0,0.028326403349637985
7.0,0.02749793604016304
8.0,0.02673560008406639
9.0,0.026035558432340622
10.0,0.025360044091939926
11.0,0.024715755134820938
12.0,0.024116968736052513
13.0,0.023548470810055733
14.0,0.023019010201096535
15.0,0.022496262565255165
16.0,0.022006483748555183
18.0,0.021086594089865685
20.0,0.020167861133813858
22.0,0.019287945702672005
24.0,0.01849919743835926
26.0,0.017736347392201424
28.0,0.017019115388393402
30.0,0.01624937355518341
32.0,0.015491883270442486
36.0,0.014340251684188843
40.0,0.013436071574687958
44.0,0.012621678411960602
48.0,0.011853568255901337
52.0,0.01144571416079998
56.0,0.011249838396906853
60.0,0.011084502562880516
64.0,0.01091926358640194
72.0,0.010837881825864315
80.0,0.01064731553196907
88.0,0.010261859744787216
96.0,0.009664572775363922
104.0,0.008686722256243229
112.0,0.007260279729962349
120.0,0.00574525585398078
128.0,0.00491716992110014
144.0,0.0039976551197469234
160.0,0.004121504258364439
176.0,0.003743119304999709
192.0,0.0025485344231128693
208.0,0.0017596592660993338
224.0,0.0021075033582746983
240.0,0.0030663523357361555
256.0,0.003098476678133011
288.0,0.002253919607028365
320.0,0.0019745163153856993
352.0,0.0016155877383425832
384.0,0.0004330865340307355
416.0,0.0003415265236981213
448.0,0.0009431331418454647
480.0,0.0005624585319310427
512.0,0.0007649024482816458
576.0,0.0005784193053841591
640.0,0.001028832164593041
704.0,1.6470470654894598e-05
768.0,-0.0005780771607533097
832.0,-0.002407940337434411
896.0,-0.002147350227460265
960.0,-0.002028533723205328
1024.0,-0.001858421484939754
1152.0,-0.0010530749568715692
1280.0,-0.0010575000196695328
1408.0,-0.0022439758758991957
1536.0,-0.0015022329753264785
1664.0,0.0004085675172973424
1792.0,0.0018233789596706629
1920.0,0.003572136862203479
2048.0,0.0020285153295844793
2304.0,0.0022949795238673687
2560.0,0.0035953642800450325
2816.0,0.0006714144838042557
3072.0,-0.001489659771323204
3328.0,-0.0019327565096318722
3584.0,-0.0040016476996243
3840.0,-0.0018409217009320855
4096.0,-0.0011360096978023648
4608.0,0.003146063769236207
5120.0,0.0006923588807694614
5632.0,-0.003066983772441745
6144.0,-0.0013799009611830115
6656.0,-0.0010829855455085635
7168.0,-0.00017815142928157002
7680.0,-0.0014255797723308206
8192.0,-0.003716395003721118
end
