version,3.0
numOfCh,1
type,point
parent_name,0cd20_0dot4-0dot1
ch_type,1_1
kcount,1
numberNandB,1
brightnessNandB,1
carpet pos,0
pc,0
Time (ms),CH1 Auto-Correlation
1.0,0.027425618842244148
2.0,0.02633046545088291
3.0,0.025298265740275383
4.0,0.02433151565492153
5.0,0.023416798561811447
6.0,0.02252839505672455
7.0,0.021715998649597168
8.0,0.020993754267692566
9.0,0.02031729184091091
10.0,0.01969948597252369
11.0,0.019103584811091423
12.0,0.018528612330555916
13.0,0.017993604764342308
14.0,0.017450764775276184
15.0,0.01691620983183384
16.0,0.01642025262117386
18.0,0.015497174113988876
20.0,0.014606932178139687
22.0,0.013762036338448524
24.0,0.013001053594052792
26.0,0.01234438456594944
28.0,0.011784537695348263
30.0,0.011277914047241211
32.0,0.010834693908691406
36.0,0.010217146016657352
40.0,0.009608627296984196
44.0,0.008983527310192585
48.0,0.008442205376923084
52.0,0.008019575849175453
56.0,0.0077283442951738834
60.0,0.00733480928465724
64.0,0.006905156187713146
72.0,0.006089913193136454
80.0,0.005299010779708624
88.0,0.0046210698783397675
96.0,0.004332390613853931
104.0,0.004149129614233971
112.0,0.004079199396073818
120.0,0.003950067795813084
128.0,0.0037347357720136642
144.0,0.002946637338027358
160.0,0.002684669801965356
176.0,0.002569927368313074
192.0,0.002255385974422097
208.0,0.001530551933683455
224.0,0.0012468231143429875
240.0,0.0014453585026785731
256.0,0.0020120395347476006
288.0,0.001884174533188343
320.0,0.0019971078727394342
352.0,0.00207710568793118
384.0,0.001424537505954504
416.0,0.0009250629227608442
448.0,0.0016031109262257814
480.0,0.000725788006093353
512.0,0.00035802379716187716
576.0,-0.0005577597767114639
640.0,0.0001317041605943814
704.0,-0.00010643110726960003
768.0,-0.0008716814918443561
832.0,-0.0005099252448417246
896.0,-0.0022168252617120743
960.0,-0.002353739459067583
1024.0,-0.002669801702722907
1152.0,-0.0012718274956569076
1280.0,0.0006312761106528342
1408.0,0.0008458254742436111
1536.0,7.016128802206367e-05
1664.0,-0.0006992390844970942
1792.0,-0.001064287731423974
1920.0,0.00040313764475286007
2048.0,0.0010615458013489842
2304.0,-0.0014582013245671988
2560.0,0.0014052552869543433
2816.0,0.00026837605400942266
3072.0,-0.000735462352167815
3328.0,-0.0007925273384898901
3584.0,-0.0018837533425539732
3840.0,-0.0013475283049046993
4096.0,6.84416081639938e-05
4608.0,0.0007401796756312251
5120.0,-0.0008217735448852181
5632.0,0.002550517674535513
6144.0,-0.0007042223587632179
6656.0,-0.00026262193568982184
7168.0,0.0012399004772305489
7680.0,-0.0010675505036488175
8192.0,-0.00041370579856447875
end
