version,3.0
numOfCh,1
type,point
parent_name,0cd20_0dot4-0dot1
ch_type,1_1
kcount,1
numberNandB,1
brightnessNandB,1
carpet pos,0
pc,0
Time (ms),CH1 Auto-Correlation
1.0,0.028264423832297325
2.0,0.027175502851605415
3.0,0.026125749573111534
4.0,0.025103317573666573
5.0,0.024157151579856873
6.0,0.023304680362343788
7.0,0.02250155806541443
8.0,0.021729087457060814
9.0,0.020998604595661163
10.0,0.020320972427725792
11.0,0.019661976024508476
12.0,0.01903262548148632
13.0,0.018436329439282417
14.0,0.017844773828983307
15.0,0.017293257638812065
16.0,0.016736604273319244
18.0,0.015674181282520294
20.0,0.014663256704807281
22.0,0.01378559973090887
24.0,0.013000075705349445
26.0,0.012301359325647354
28.0,0.011728505603969097
30.0,0.011242572218179703
32.0,0.01071320753544569
36.0,0.009742369875311852
40.0,0.008876470848917961
44.0,0.00810195505619049
48.0,0.007333920802921057
52.0,0.006796480622142553
56.0,0.006540826987475157
60.0,0.006404840853065252
64.0,0.006328795570880175
72.0,0.005970339756458998
80.0,0.005473222583532333
88.0,0.00481173861771822
96.0,0.004045379348099232
104.0,0.00343603384681046
112.0,0.0031053037382662296
120.0,0.002952178241685033
128.0,0.0026015606708824635
144.0,0.002776944078505039
160.0,0.002938375808298588
176.0,0.0030250251293182373
192.0,0.003209873102605343
208.0,0.0027629919350147247
224.0,0.002277304884046316
240.0,0.0013118700589984655
256.0,0.0008223120239563286
288.0,-4.8564783355686814e-05
320.0,0.0002213911066064611
352.0,0.0002056471275864169
384.0,0.0003202277875971049
416.0,0.00031280433177016675
448.0,-0.0003053561085835099
480.0,-0.001425752299837768
512.0,-0.00017506441508885473
576.0,0.0008588249911554158
640.0,0.00035863506491295993
704.0,0.0013568832073360682
768.0,0.001140713575296104
832.0,0.0005645110504701734
896.0,-0.000649895693641156
960.0,-0.001202319748699665
1024.0,-0.0013457613531500101
1152.0,-0.001533780014142394
1280.0,-0.00235518766567111
1408.0,-0.0021941361483186483
1536.0,-0.00130727409850806
1664.0,-0.002723163925111294
1792.0,-0.001372874015942216
1920.0,-0.0016007099766284227
2048.0,-0.0021187057718634605
2304.0,0.001014441135339439
2560.0,0.0005256676231510937
2816.0,0.001714887097477913
3072.0,0.0031863597687333822
3328.0,0.0015349842142313719
3584.0,0.00020090512407477945
3840.0,0.0002363192179473117
4096.0,-0.001353773637674749
4608.0,-0.0013313090894371271
5120.0,-0.0004498577327467501
5632.0,-0.0014111860655248165
6144.0,-0.0009076508576981723
6656.0,0.0022247955203056335
7168.0,-0.00012813819921575487
7680.0,0.0007917425245977938
8192.0,-0.0014913786435499787
end
