version,3.0
numOfCh,1
type,point
parent_name,0cd20_0dot4-0dot1
ch_type,1_1
kcount,1
numberNandB,1
brightnessNandB,1
carpet pos,0
pc,0
Time (ms),CH1 Auto-Correlation
1.0,0.033087629824876785
2.0,0.03201461210846901
3.0,0.030981644988059998
4.0,0.03000207617878914
5.0,0.02906290628015995
6.0,0.028180742636322975
7.0,0.027375465258955956
8.0,0.026606759056448936
9.0,0.02586616389453411
10.0,0.02515587769448757
11.0,0.02448531612753868
12.0,0.02386738732457161
13.0,0.023262394592165947
14.0,0.022675681859254837
15.0,0.022121421992778778
16.0,0.021617364138364792
18.0,0.020677141845226288
20.0,0.01988745667040348
22.0,0.019212422892451286
24.0,0.01859927363693714
26.0,0.018066048622131348
28.0,0.017520302906632423
30.0,0.016992677003145218
32.0,0.016469681635499
36.0,0.015582245774567127
40.0,0.014631131663918495
44.0,0.013686156831681728
48.0,0.012814627960324287
52.0,0.012079168111085892
56.0,0.011582182720303535
60.0,0.011038771830499172
64.0,0.010579526424407959
72.0,0.009763534180819988
80.0,0.008979723788797855
88.0,0.008445566520094872
96.0,0.008075762540102005
104.0,0.0076668658293783665
112.0,0.007297055330127478
120.0,0.007183845154941082
128.0,0.007004956249147654
144.0,0.006373679731041193
160.0,0.0054085748270154
176.0,0.004096020013093948
192.0,0.0032014090102165937
208.0,0.002874813275411725
224.0,0.00324640772305429
240.0,0.0027486751787364483
256.0,0.0021279703360050917
288.0,0.0020068201702088118
320.0,0.00100332114379853
352.0,-0.0008751708664931357
384.0,-0.001382726593874395
416.0,-0.00046638105413876474
448.0,-9.337126539321616e-05
480.0,-7.714518142165616e-05
512.0,-0.0003444985195528716
576.0,-0.0005139251588843763
640.0,-0.0014869481092318892
704.0,-0.0016324740136042237
768.0,-0.002116603311151266
832.0,-0.0016746442997828126
896.0,-0.0021577291190624237
960.0,-0.002912913216277957
1024.0,-0.002930512884631753
1152.0,-0.002687835367396474
1280.0,-0.004202035255730152
1408.0,-0.003353654872626066
1536.0,-0.0009918484138324857
1664.0,0.00040880177402868867
1792.0,0.0007476969622075558
1920.0,-0.000481737864902243
2048.0,0.0011342472862452269
2304.0,0.0013217718806117773
2560.0,0.0012122499756515026
2816.0,0.00017879805818665773
3072.0,-0.001503326348029077
3328.0,-0.0022736522369086742
3584.0,-0.0016419808380305767
3840.0,0.0013091578148305416
4096.0,0.0006203771336004138
4608.0,-0.00012816739035770297
5120.0,-0.0014290683902800083
5632.0,0.0006506660720333457
6144.0,0.0006555244908668101
6656.0,0.0004210258775856346
7168.0,0.00033352558966726065
7680.0,-0.0023706506472080946
8192.0,-0.0014176355907693505
end
