version,3.0
numOfCh,1
type,point
parent_name,0cd20_0dot4-0dot1
ch_type,1_1
kcount,1
numberNandB,1
brightnessNandB,1
carpet pos,0
pc,0
Time (ms),CH1 Auto-Correlation
1.0,0.029938019812107086
2.0,0.028908440843224525
3.0,0.02797064743936062
4.0,0.027139337733387947
5.0,0.026360856369137764
6.0,0.025647588074207306
7.0,0.02495252527296543
8.0,0.024328328669071198
9.0,0.023727817460894585
10.0,0.02314962074160576
11.0,0.022572295740246773
12.0,0.022044865414500237
13.0,0.021547691896557808
14.0,0.021059751510620117
15.0,0.020602921023964882
16.0,0.020158443599939346
18.0,0.019332636147737503
20.0,0.01853788085281849
22.0,0.017797794193029404
24.0,0.017084510996937752
26.0,0.016407150775194168
28.0,0.015775393694639206
30.0,0.01522771641612053
32.0,0.014731837436556816
36.0,0.013884066604077816
40.0,0.013155163265764713
44.0,0.01245830487459898
48.0,0.011685406789183617
52.0,0.0109734321013093
56.0,0.010350328870117664
60.0,0.009897446259856224
64.0,0.009507851675152779
72.0,0.00874505378305912
80.0,0.007931189611554146
88.0,0.007030183915048838
96.0,0.006377705838531256
104.0,0.006066105328500271
112.0,0.005915773566812277
120.0,0.005724579095840454
128.0,0.0056078676134347916
144.0,0.005562066100537777
160.0,0.0054857064969837666
176.0,0.0058797807432711124
192.0,0.005799090024083853
208.0,0.005036948248744011
224.0,0.004375392105430365
240.0,0.0037053143605589867
256.0,0.0030513571109622717
288.0,0.002432789420709014
320.0,0.002698472933843732
352.0,0.0034650005400180817
384.0,0.0026220898143947124
416.0,0.0024571132380515337
448.0,0.0022042030468583107
480.0,0.001128548989072442
512.0,0.0006645967368967831
576.0,0.0003854559035971761
640.0,0.000972297799307853
704.0,0.000846032053232193
768.0,0.002280127489939332
832.0,0.0028219621162861586
896.0,0.001203749910928309
960.0,-1.072861959983129e-05
1024.0,0.0010361707536503673
1152.0,0.0006390001508407295
1280.0,-6.221157673280686e-05
1408.0,-0.0028676914516836405
1536.0,-0.0035636534448713064
1664.0,-0.0004676839744206518
1792.0,-0.0014671526150777936
1920.0,0.002142853569239378
2048.0,0.001987484050914645
2304.0,0.00016905914526432753
2560.0,-0.0007848239620216191
2816.0,-0.0013316937256604433
3072.0,-0.0005643909680657089
3328.0,-0.0006530772661790252
3584.0,-0.002523569157347083
3840.0,-0.0011017046635970473
4096.0,-0.0005801088409498334
4608.0,-0.00012261465599294752
5120.0,0.0002975052339024842
5632.0,0.0003933696134481579
6144.0,0.0009727078140713274
6656.0,-0.0031491287518292665
7168.0,-0.0035711259115487337
7680.0,-0.004087070003151894
8192.0,0.001158552011474967
end
