version,3.0
numOfCh,1
type,point
parent_name,0cd20_0dot4-0dot1
ch_type,1_1
kcount,1
numberNandB,1
brightnessNandB,1
carpet pos,0
pc,0
Time (ms),CH1 Auto-Correlation
1.0,0.032417964190244675
2.0,0.031322088092565536
3.0,0.030285649001598358
4.0,0.02929743006825447
5.0,0.0283728688955307
6.0,0.027479713782668114
7.0,0.026616575196385384
8.0,0.025790134444832802
9.0,0.025023968890309334
10.0,0.02427411451935768
11.0,0.02358177863061428
12.0,0.0229329951107502
13.0,0.022290606051683426
14.0,0.021679382771253586
15.0,0.02110912650823593
16.0,0.020561156794428825
18.0,0.01955900341272354
20.0,0.018675338476896286
22.0,0.017925111576914787
24.0,0.01724351942539215
26.0,0.016568999737501144
28.0,0.015950258821249008
30.0,0.015383698046207428
32.0,0.01486357394605875
36.0,0.013937852345407009
40.0,0.013214515522122383
44.0,0.012421071529388428
48.0,0.011771385557949543
52.0,0.011296221055090427
56.0,0.010910917073488235
60.0,0.010697134770452976
64.0,0.010422107763588428
72.0,0.00973113626241684
80.0,0.009240485727787018
88.0,0.00866701640188694
96.0,0.007937099784612656
104.0,0.007404959760606289
112.0,0.00716782221570611
120.0,0.006757877301424742
128.0,0.006415792275220156
144.0,0.006610334850847721
160.0,0.006488556507974863
176.0,0.0063292705453932285
192.0,0.005494117271155119
208.0,0.004044228699058294
224.0,0.0030541836749762297
240.0,0.0020272713154554367
256.0,0.0018176313024014235
288.0,0.0017763959476724267
320.0,0.0012219668133184314
352.0,0.0008268767851404846
384.0,0.0004993449547328055
416.0,0.0002570955257397145
448.0,-0.0006698069046251476
480.0,-0.0008490557665936649
512.0,0.0004252068174537271
576.0,-0.0010909349657595158
640.0,-0.0015527342911809683
704.0,-0.0002644695050548762
768.0,-0.001050963532179594
832.0,0.0006293318583630025
896.0,0.0005158646963536739
960.0,-0.0018687281990423799
1024.0,-0.0008586796466261148
1152.0,-0.0027802344411611557
1280.0,-0.001319398870691657
1408.0,-0.000495833985041827
1536.0,0.0012563859345391393
1664.0,0.0027112571988254786
1792.0,0.0029341040644794703
1920.0,0.002320501022040844
2048.0,0.0020784030202776194
2304.0,0.0005677298177033663
2560.0,0.00021515095431823283
2816.0,0.0005462506087496877
3072.0,-0.0026915757916867733
3328.0,0.0002296225429745391
3584.0,-0.00036235584411770105
3840.0,-0.0017088002059608698
4096.0,-0.004614531062543392
4608.0,0.0004494734457693994
5120.0,0.0004380668397061527
5632.0,-0.0013855153229087591
6144.0,-0.0028658658266067505
6656.0,-0.0009875441901385784
7168.0,0.0007853179704397917
7680.0,-7.978023495525122e-05
8192.0,-0.0016975478501990438
end
