version,3.0
numOfCh,1
type,point
parent_name,0cd20_0dot4-0dot1
ch_type,1_1
kcount,1
numberNandB,1
brightnessNandB,1
carpet pos,0
pc,0
Time (ms),CH1 Auto-Correlation
1.0,0.033227015286684036
2.0,0.03213007003068924
3.0,0.031129783019423485
4.0,0.030215250328183174
5.0,0.029334329068660736
6.0,0.028477422893047333
7.0,0.02765960805118084
8.0,0.026889633387327194
9.0,0.026163287460803986
10.0,0.025480501353740692
11.0,0.024857928976416588
12.0,0.024268606677651405
13.0,0.023714305832982063
14.0,0.0232166089117527
15.0,0.022734299302101135
16.0,0.022238856181502342
18.0,0.021292174234986305
20.0,0.020395727828145027
22.0,0.01965860277414322
24.0,0.0190567784011364
26.0,0.01854798011481762
28.0,0.01810523495078087
30.0,0.01763126626610756
32.0,0.017122894525527954
36.0,0.01608913578093052
40.0,0.015114079229533672
44.0,0.014233577996492386
48.0,0.013462141156196594
52.0,0.01281451340764761
56.0,0.012313061393797398
60.0,0.011973904445767403
64.0,0.011677664704620838
72.0,0.011093593202531338
80.0,0.010346665047109127
88.0,0.009762611240148544
96.0,0.009123433381319046
104.0,0.008596719242632389
112.0,0.008230538107454777
120.0,0.00793986115604639
128.0,0.007667893078178167
144.0,0.007169640623033047
160.0,0.0065037282183766365
176.0,0.005417074076831341
192.0,0.0037712720222771168
208.0,0.002732089953497052
224.0,0.0022542416118085384
240.0,0.003020363859832287
256.0,0.0027100539300590754
288.0,0.0019845678471028805
320.0,0.0020769010297954082
352.0,0.0014130183262750506
384.0,0.0012628461699932814
416.0,0.0018715335754677653
448.0,0.0011699391761794686
480.0,0.0001923342642839998
512.0,0.00031003233743831515
576.0,0.0012113142292946577
640.0,0.00018304096010979265
704.0,0.00013130833394825459
768.0,0.000302549364278093
832.0,0.000260337779764086
896.0,-0.0009218731429427862
960.0,-0.0009511903044767678
1024.0,-0.0007060951902531087
1152.0,-0.003082446986809373
1280.0,-0.0029273047111928463
1408.0,-0.002681126119568944
1536.0,0.00013957808550912887
1664.0,3.774204014916904e-05
1792.0,-0.001310676452703774
1920.0,-7.187902519945055e-05
2048.0,7.50966282794252e-05
2304.0,-0.0007260270649567246
2560.0,-0.002857368206605315
2816.0,-0.003663145238533616
3072.0,-0.0037504849024116993
3328.0,-0.0011796568287536502
3584.0,0.0022288786713033915
3840.0,0.002103284699842334
4096.0,0.0027655900921672583
4608.0,0.0010490244021639228
5120.0,0.00015654251910746098
5632.0,0.0010130141163244843
6144.0,0.0005934523069299757
6656.0,-0.0030679809860885143
7168.0,-0.0014514796203002334
7680.0,0.0008587994961999357
8192.0,-0.0012711214367300272
end
