version,3.0
numOfCh,1
type,point
parent_name,0cd20_0dot4-0dot1
ch_type,1_1
kcount,1
numberNandB,1
brightnessNandB,1
carpet pos,0
pc,0
Time (ms),CH1 Auto-Correlation
1.0,0.03147360682487488
2.0,0.03028310090303421
3.0,0.029140351340174675
4.0,0.028084753081202507
5.0,0.02706650085747242
6.0,0.026135383173823357
7.0,0.025249896571040154
8.0,0.02445494569838047
9.0,0.02370341494679451
10.0,0.022967325523495674
11.0,0.022273726761341095
12.0,0.02157778851687908
13.0,0.020912524312734604
14.0,0.020307235419750214
15.0,0.019696863368153572
16.0,0.019157757982611656
18.0,0.018190203234553337
20.0,0.017244676128029823
22.0,0.016381761059165
24.0,0.015557154081761837
26.0,0.014756920747458935
28.0,0.013944492675364017
30.0,0.013194132596254349
32.0,0.012529279105365276
36.0,0.0112783033400774
40.0,0.010371909476816654
44.0,0.009729452431201935
48.0,0.009021725505590439
52.0,0.008346100337803364
56.0,0.007963575422763824
60.0,0.007890199311077595
64.0,0.007865210995078087
72.0,0.007782394532114267
80.0,0.007603959180414677
88.0,0.00745055079460144
96.0,0.007436831947416067
104.0,0.0073241181671619415
112.0,0.007178300525993109
120.0,0.007303367368876934
128.0,0.006966824643313885
144.0,0.005777047947049141
160.0,0.004765625577419996
176.0,0.003919885493814945
192.0,0.0029830974526703358
208.0,0.0025782426819205284
224.0,0.0023290624376386404
240.0,0.0014329819241538644
256.0,0.0014339183690026402
288.0,0.0021010413765907288
320.0,0.00023464865807909518
352.0,-0.0010970740113407373
384.0,-0.0018653225852176547
416.0,-0.0016887977253645658
448.0,-0.0007779013831168413
480.0,-0.0017870551673695445
512.0,-0.002429267391562462
576.0,-0.0015007025795057416
640.0,-0.00017112093337345868
704.0,0.00048206408973783255
768.0,-5.40262735739816e-05
832.0,-2.947924076579511e-05
896.0,-0.0018184544751420617
960.0,0.00039291728171519935
1024.0,-0.0003645128454081714
1152.0,0.0008780414937064052
1280.0,-0.00043146469397470355
1408.0,9.971231338568032e-05
1536.0,-0.00047730369260534644
1664.0,0.00013588977162726223
1792.0,-0.0007390790269710124
1920.0,-0.0008811341249383986
2048.0,-0.0013894319999963045
2304.0,0.0008229504455812275
2560.0,-0.0009627209510654211
2816.0,-0.0007104106480255723
3072.0,-0.0010733985109254718
3328.0,7.432339543811395e-07
3584.0,0.00016859090828802437
3840.0,0.0008717311429791152
4096.0,-0.0013151541352272034
4608.0,-0.0012079846346750855
5120.0,0.0010938765481114388
5632.0,-0.00016217581287492067
6144.0,0.0017555879894644022
6656.0,-0.002234773011878133
7168.0,0.0010818312875926495
7680.0,-0.0002889561001211405
8192.0,-0.00210838345810771
end
