version,3.0
numOfCh,1
type,point
parent_name,0cd20_0dot4-0dot1
ch_type,1_1
kcount,1
numberNandB,1
brightnessNandB,1
carpet pos,0
pc,0
Time (ms),CH1 Auto-Correlation
1.0,0.03884434700012207
2.0,0.03763088956475258
3.0,0.03652115538716316
4.0,0.03548558056354523
5.0,0.034475069493055344
6.0,0.03353611379861832
7.0,0.03268654644489288
8.0,0.031828027218580246
9.0,0.031069952994585037
10.0,0.030386678874492645
11.0,0.029810292646288872
12.0,0.029079154133796692
13.0,0.028396528214216232
14.0,0.02773095853626728
15.0,0.02702942304313183
16.0,0.02633346989750862
18.0,0.025108812376856804
20.0,0.02389655075967312
22.0,0.022998163476586342
24.0,0.02208971232175827
26.0,0.02116941474378109
28.0,0.020184967666864395
30.0,0.01922791451215744
32.0,0.018266815692186356
36.0,0.01670657843351364
40.0,0.015573210082948208
44.0,0.01459865178912878
48.0,0.013743193820118904
52.0,0.013272527605295181
56.0,0.013087759725749493
60.0,0.01292277779430151
64.0,0.012826877646148205
72.0,0.012445553205907345
80.0,0.011991442181169987
88.0,0.011482562869787216
96.0,0.010990670882165432
104.0,0.01030916441231966
112.0,0.009619427844882011
120.0,0.008897875435650349
128.0,0.008030194789171219
144.0,0.0070027238689363
160.0,0.007448149379342794
176.0,0.007329360116273165
192.0,0.006336335092782974
208.0,0.005619611591100693
224.0,0.004899054765701294
240.0,0.004380911588668823
256.0,0.004797957371920347
288.0,0.004009013529866934
320.0,0.0023119605612009764
352.0,0.0024381009861826897
384.0,0.0024020702112466097
416.0,0.00421791011467576
448.0,0.004517220426350832
480.0,0.003203676315024495
512.0,0.002270641503855586
576.0,0.0016592510510236025
640.0,0.0013289271155372262
704.0,0.0010085999965667725
768.0,-0.0008557740948162973
832.0,-0.00024448809563182294
896.0,0.0012543374905362725
960.0,0.0012611441779881716
1024.0,0.0019236250082030892
1152.0,-0.0002931652998086065
1280.0,-0.0035190884955227375
1408.0,-0.0025091455318033695
1536.0,0.001041562994942069
1664.0,0.0005835223710164428
1792.0,0.000927624583709985
1920.0,0.0019285508897155523
2048.0,0.0019569392316043377
2304.0,-0.0015973257832229137
2560.0,0.0009256969206035137
2816.0,-0.0002854835183825344
3072.0,-0.0023868854623287916
3328.0,-0.0011715872678905725
3584.0,-0.0001335862762061879
3840.0,-0.00010390633542556316
4096.0,-0.002191286999732256
4608.0,-0.002731790766119957
5120.0,-0.00652141310274601
5632.0,-0.0018156982259824872
6144.0,-0.0010834429413080215
6656.0,-0.004029682371765375
7168.0,-0.0014659245498478413
7680.0,0.0010237011592835188
8192.0,0.002616917248815298
end
