version,3.0
numOfCh,1
type,point
parent_name,0cd20_0dot4-0dot1
ch_type,1_1
kcount,1
numberNandB,1
brightnessNandB,1
carpet pos,0
pc,0
Time (ms),CH1 Auto-Correlation
1.0,0.03333470970392227
2.0,0.032193176448345184
3.0,0.03116878680884838
4.0,0.030233684927225113
5.0,0.029391882941126823
6.0,0.028603289276361465
7.0,0.0278487466275692
8.0,0.027117494493722916
9.0,0.026418011635541916
10.0,0.02570069022476673
11.0,0.025025565177202225
12.0,0.02440267615020275
13.0,0.023810172453522682
14.0,0.023258483037352562
15.0,0.022711431607604027
16.0,0.02219552919268608
18.0,0.02130216546356678
20.0,0.020479664206504822
22.0,0.01963360421359539
24.0,0.018834035843610764
26.0,0.018122205510735512
28.0,0.017496375367045403
30.0,0.016906267032027245
32.0,0.016337163746356964
36.0,0.01520369853824377
40.0,0.014244050718843937
44.0,0.013216092251241207
48.0,0.012177916243672371
52.0,0.011230405420064926
56.0,0.010467775166034698
60.0,0.009896413423120975
64.0,0.009283392690122128
72.0,0.008164011873304844
80.0,0.007167680189013481
88.0,0.006713463459163904
96.0,0.006644029635936022
104.0,0.006537831854075193
112.0,0.0064114900305867195
120.0,0.006218379829078913
128.0,0.006504576653242111
144.0,0.006286067422479391
160.0,0.005664630327373743
176.0,0.00549409119412303
192.0,0.004698164761066437
208.0,0.004256009124219418
224.0,0.00394474295899272
240.0,0.0034234041813760996
256.0,0.0030414704233407974
288.0,0.002038773149251938
320.0,0.0021514385007321835
352.0,0.0025991902220994234
384.0,0.0028132484294474125
416.0,0.0018800020916387439
448.0,0.0016841273754835129
480.0,0.0022698508109897375
512.0,0.0031081419438123703
576.0,0.0014117574319243431
640.0,0.0006324163405224681
704.0,0.000776121742092073
768.0,0.00043178958003409207
832.0,0.001786973443813622
896.0,0.001699922257103026
960.0,0.0013421912444755435
1024.0,0.0025636327918618917
1152.0,0.0025558050256222486
1280.0,0.0017200671136379242
1408.0,0.003388721263036132
1536.0,0.003101148409768939
1664.0,0.0022560148499906063
1792.0,-0.0004487331898417324
1920.0,-0.0021948853973299265
2048.0,-0.005949709098786116
2304.0,-0.003432496450841427
2560.0,-0.0016272981883957982
2816.0,-0.000610592367593199
3072.0,-0.0040708985179662704
3328.0,-0.002752111293375492
3584.0,-0.006209585350006819
3840.0,-0.0031395070254802704
4096.0,-0.0009811795316636562
4608.0,-0.0022365632466971874
5120.0,-0.0014311192790046334
5632.0,0.0036749220453202724
6144.0,0.00010299777932232246
6656.0,0.0026473829057067633
7168.0,0.0027150604873895645
7680.0,-0.0017830654978752136
8192.0,0.0006825500167906284
end
