version,3.0
numOfCh,1
type,point
parent_name,dirty_0dot08-0dot01
ch_type,1_1
kcount,1
numberNandB,1
brightnessNandB,1
carpet pos,0
pc,0
Time (ms),CH1 Auto-Correlation
1.0,0.053296782076358795
2.0,0.0529746450483799
3.0,0.05264260247349739
4.0,0.05232515186071396
5.0,0.05201413109898567
6.0,0.051706623286008835
7.0,0.05140157788991928
8.0,0.051095474511384964
9.0,0.05079146847128868
10.0,0.05048510804772377
11.0,0.050192005932331085
12.0,0.04991358891129494
13.0,0.04965738207101822
14.0,0.04939555376768112
15.0,0.0491446852684021
16.0,0.04889218881726265
18.0,0.04837901145219803
20.0,0.04786721244454384
22.0,0.0473562628030777
24.0,0.046865031123161316
26.0,0.046394653618335724
28.0,0.0459403321146965
30.0,0.04550442472100258
32.0,0.04508529230952263
36.0,0.04430221766233444
40.0,0.043538663536310196
44.0,0.04277195781469345
48.0,0.04200763255357742
52.0,0.0412902869284153
56.0,0.04057060554623604
60.0,0.03986426070332527
64.0,0.03914622217416763
72.0,0.03791277855634689
80.0,0.036830708384513855
88.0,0.035665228962898254
96.0,0.034551311284303665
104.0,0.03355517238378525
112.0,0.032616838812828064
120.0,0.031809478998184204
128.0,0.030999982729554176
144.0,0.02925848588347435
160.0,0.027683008462190628
176.0,0.02611411362886429
192.0,0.024847304448485374
208.0,0.023976312950253487
224.0,0.023324549198150635
240.0,0.022612737491726875
256.0,0.021931421011686325
288.0,0.020677607506513596
320.0,0.018959520384669304
352.0,0.01736740954220295
384.0,0.016316518187522888
416.0,0.0155074717476964
448.0,0.014742651954293251
480.0,0.01369163766503334
512.0,0.013374250382184982
576.0,0.012808270752429962
640.0,0.013077877461910248
704.0,0.014818675816059113
768.0,0.0145183140411973
832.0,0.012999823316931725
896.0,0.0100126713514328
960.0,0.008243060670793056
1024.0,0.00795295462012291
1152.0,0.009596171788871288
1280.0,0.00881937239319086
1408.0,0.007284369319677353
1536.0,0.0054198140278458595
1664.0,0.002529998542740941
1792.0,-0.0010051566641777754
1920.0,-0.002182903466746211
2048.0,-0.0018367527518421412
2304.0,-0.0071414499543607235
2560.0,-0.006185220554471016
2816.0,-0.004150643479079008
3072.0,-0.0030092548113316298
3328.0,-0.005523980595171452
3584.0,-0.006052706856280565
3840.0,-0.0031338923145085573
4096.0,-0.003985541872680187
4608.0,-0.005229934584349394
5120.0,-0.005913540255278349
5632.0,-0.007405909243971109
6144.0,-0.006931521464139223
6656.0,-0.0063849398866295815
7168.0,-0.004560662899166346
7680.0,-0.00870661623775959
8192.0,0.004353625699877739
9216.0,0.0055130161345005035
10240.0,-0.0012232980225235224
11264.0,-0.00961518008261919
12288.0,-0.0006172140128910542
13312.0,0.02079785242676735
14336.0,-0.01463238149881363
end
