version,3.0
numOfCh,1
type,point
parent_name,dirty_0dot08-0dot01
ch_type,1_1
kcount,1
numberNandB,1
brightnessNandB,1
carpet pos,0
pc,0
Time (ms),CH1 Auto-Correlation
1.0,0.05600857734680176
2.0,0.055678535252809525
3.0,0.05535389482975006
4.0,0.05503862723708153
5.0,0.05473410338163376
6.0,0.05443592742085457
7.0,0.0541570782661438
8.0,0.05387095361948013
9.0,0.05359356850385666
10.0,0.053321510553359985
11.0,0.05305830016732216
12.0,0.052781760692596436
13.0,0.0525091178715229
14.0,0.052245624363422394
15.0,0.05198640003800392
16.0,0.05174270272254944
18.0,0.05125826969742775
20.0,0.05076155439019203
22.0,0.050278592854738235
24.0,0.04980942979454994
26.0,0.04936379939317703
28.0,0.048973891884088516
30.0,0.0485733300447464
32.0,0.04816959798336029
36.0,0.04746171832084656
40.0,0.04679886996746063
44.0,0.046111300587654114
48.0,0.04537615925073624
52.0,0.044634342193603516
56.0,0.04386720061302185
60.0,0.04313293844461441
64.0,0.04243200272321701
72.0,0.04109402000904083
80.0,0.03968819975852966
88.0,0.0383201539516449
96.0,0.03697175532579422
104.0,0.03571869805455208
112.0,0.03452104330062866
120.0,0.03336325287818909
128.0,0.03227189928293228
144.0,0.030542423948645592
160.0,0.028791654855012894
176.0,0.026711534708738327
192.0,0.02506663277745247
208.0,0.023533107712864876
224.0,0.021449921652674675
240.0,0.019704902544617653
256.0,0.01767887733876705
288.0,0.012841235846281052
320.0,0.008580624125897884
352.0,0.0050070262514054775
384.0,0.0022451176773756742
416.0,0.0004825844953302294
448.0,-0.0012445503380149603
480.0,-0.0026563359424471855
512.0,-0.004155706148594618
576.0,-0.0063048494048416615
640.0,-0.006312226876616478
704.0,-0.004989297594875097
768.0,-0.003967859782278538
832.0,-0.0016550737200304866
896.0,0.0009459118009544909
960.0,0.0025769718922674656
1024.0,0.0033214371651411057
1152.0,0.0015124906785786152
1280.0,-0.0013418233720585704
1408.0,-0.006461698096245527
1536.0,-0.008807712234556675
1664.0,-0.011084545403718948
1792.0,-0.011007806286215782
1920.0,-0.004751196596771479
2048.0,0.002254304476082325
2304.0,0.004481232725083828
2560.0,-0.002483522752299905
2816.0,-0.0009108330123126507
3072.0,0.004329613409936428
3328.0,0.009284241124987602
3584.0,0.002789294347167015
3840.0,-0.004081810358911753
4096.0,-0.0013769400538876653
4608.0,-0.0020958492532372475
5120.0,0.00441021891310811
5632.0,-0.003153270110487938
6144.0,-0.009241421706974506
6656.0,-0.005077860783785582
7168.0,-0.008950779214501381
7680.0,0.0026516346260905266
8192.0,-0.005790806375443935
9216.0,-0.0029037888161838055
10240.0,0.003646439639851451
11264.0,-0.0001266166364075616
12288.0,-0.004348978400230408
13312.0,0.007239334750920534
14336.0,0.01137897465378046
end
