version,3.0
numOfCh,1
type,point
parent_name,dirty_0dot08-0dot01
ch_type,1_1
kcount,1
numberNandB,1
brightnessNandB,1
carpet pos,0
pc,0
Time (ms),CH1 Auto-Correlation
1.0,0.05923347920179367
2.0,0.05896462872624397
3.0,0.05869569256901741
4.0,0.05842364579439163
5.0,0.05816475301980972
6.0,0.05790398642420769
7.0,0.05764749273657799
8.0,0.05739185959100723
9.0,0.05714065209031105
10.0,0.05689423531293869
11.0,0.05665936693549156
12.0,0.05642484873533249
13.0,0.05619076266884804
14.0,0.05596766620874405
15.0,0.055737704038619995
16.0,0.05550924316048622
18.0,0.05509885400533676
20.0,0.054721392691135406
22.0,0.054376497864723206
24.0,0.05404709279537201
26.0,0.053709354251623154
28.0,0.053381841629743576
30.0,0.05305804684758186
32.0,0.052746646106243134
36.0,0.05213392525911331
40.0,0.05152634158730507
44.0,0.05096369609236717
48.0,0.050469446927309036
52.0,0.050004683434963226
56.0,0.04952312260866165
60.0,0.04905739054083824
64.0,0.048615604639053345
72.0,0.04778383672237396
80.0,0.04698137938976288
88.0,0.04603717476129532
96.0,0.04512796550989151
104.0,0.044280264526605606
112.0,0.0433962345123291
120.0,0.04251602664589882
128.0,0.041733935475349426
144.0,0.04010182246565819
160.0,0.03826500102877617
176.0,0.036641594022512436
192.0,0.03533611446619034
208.0,0.03403453901410103
224.0,0.03285147622227669
240.0,0.031498439610004425
256.0,0.030056778341531754
288.0,0.027812885120511055
320.0,0.025701085105538368
352.0,0.023515090346336365
384.0,0.021870341151952744
416.0,0.020102858543395996
448.0,0.018554849550127983
480.0,0.017086835578083992
512.0,0.01560655515640974
576.0,0.013222230598330498
640.0,0.011630363762378693
704.0,0.010621494613587856
768.0,0.009722727350890636
832.0,0.007822571322321892
896.0,0.006138599012047052
960.0,0.006027937401086092
1024.0,0.005876927636563778
1152.0,0.005058250389993191
1280.0,0.0027784197591245174
1408.0,-0.000802582420874387
1536.0,-0.0028633582405745983
1664.0,-0.004121910315006971
1792.0,-0.0018997222650796175
1920.0,0.002988586202263832
2048.0,0.006873207166790962
2304.0,0.01001915242522955
2560.0,0.00977329071611166
2816.0,0.00638264836743474
3072.0,0.004266367293894291
3328.0,0.0010840820614248514
3584.0,-0.0016994149191305041
3840.0,-0.003998288419097662
4096.0,-0.006331863813102245
4608.0,-0.005177445709705353
5120.0,-0.009512310847640038
5632.0,-0.011194361373782158
6144.0,-0.017807096242904663
6656.0,-0.014694429002702236
7168.0,-0.00919573474675417
7680.0,-0.00447054160758853
8192.0,-0.015799827873706818
9216.0,-0.01621232181787491
10240.0,0.0015600916231051087
11264.0,0.007581193931400776
12288.0,0.022811930626630783
13312.0,0.019341735169291496
14336.0,-0.0038486781995743513
end
