version,3.0
numOfCh,1
type,point
parent_name,dirty_0dot08-0dot01
ch_type,1_1
kcount,1
numberNandB,1
brightnessNandB,1
carpet pos,0
pc,0
Time (ms),CH1 Auto-Correlation
1.0,0.08798296004533768
2.0,0.08761920779943466
3.0,0.0872502401471138
4.0,0.08689213544130325
5.0,0.08653157949447632
6.0,0.08618269115686417
7.0,0.08581851422786713
8.0,0.08545954525470734
9.0,0.08510272949934006
10.0,0.08476264774799347
11.0,0.08443420380353928
12.0,0.0841134786605835
13.0,0.08379235863685608
14.0,0.08348163962364197
15.0,0.08314917236566544
16.0,0.08284035325050354
18.0,0.08220312744379044
20.0,0.08157935738563538
22.0,0.08099456876516342
24.0,0.08043419569730759
26.0,0.07991661131381989
28.0,0.07939913123846054
30.0,0.07887502014636993
32.0,0.07838179171085358
36.0,0.07737844437360764
40.0,0.07629049569368362
44.0,0.07514320313930511
48.0,0.07401637732982635
52.0,0.07291273772716522
56.0,0.07180760055780411
60.0,0.07072239369153976
64.0,0.06971427798271179
72.0,0.06784683465957642
80.0,0.06616096198558807
88.0,0.06460117548704147
96.0,0.06314190477132797
104.0,0.06187796592712402
112.0,0.06047888100147247
120.0,0.05877402797341347
128.0,0.05688454583287239
144.0,0.053275350481271744
160.0,0.04966570436954498
176.0,0.046121396124362946
192.0,0.04302659258246422
208.0,0.04045526310801506
224.0,0.03804155811667442
240.0,0.03567918762564659
256.0,0.03321309760212898
288.0,0.028738651424646378
320.0,0.02536330744624138
352.0,0.022508669644594193
384.0,0.02011546865105629
416.0,0.01828741282224655
448.0,0.016832131892442703
480.0,0.015257740393280983
512.0,0.014193047769367695
576.0,0.011851736344397068
640.0,0.010667462833225727
704.0,0.010034710168838501
768.0,0.009347524493932724
832.0,0.009498712606728077
896.0,0.010999904945492744
960.0,0.015221592038869858
1024.0,0.020335251465439796
1152.0,0.02702622301876545
1280.0,0.023703766986727715
1408.0,0.021623743698000908
1536.0,0.0185758825391531
1664.0,0.011770550161600113
1792.0,0.00501846382394433
1920.0,0.009099156595766544
2048.0,0.013561062514781952
2304.0,0.012083491310477257
2560.0,0.005750526208430529
2816.0,0.004678018856793642
3072.0,0.004879014566540718
3328.0,0.007923477329313755
3584.0,0.009050954133272171
3840.0,0.0023739864118397236
4096.0,-0.003808059496805072
4608.0,-0.008079245686531067
5120.0,-0.010524801909923553
5632.0,-0.021872997283935547
6144.0,-0.022512828931212425
6656.0,-0.018353702500462532
7168.0,-0.010114944539964199
7680.0,-0.007636855822056532
8192.0,-0.014413201250135899
9216.0,-0.018568970263004303
10240.0,-0.008397165685892105
11264.0,-0.0012785757426172495
12288.0,-0.00824571494013071
13312.0,-0.021813932806253433
14336.0,-0.00010387118527432904
end
