version,3.0
numOfCh,1
type,point
parent_name,dirty_0dot08-0dot01
ch_type,1_1
kcount,1
numberNandB,1
brightnessNandB,1
carpet pos,0
pc,0
Time (ms),CH1 Auto-Correlation
1.0,0.5337904095649719
2.0,0.5330514311790466
3.0,0.5322723388671875
4.0,0.5315141081809998
5.0,0.530730664730072
6.0,0.5299572348594666
7.0,0.5292168855667114
8.0,0.5284666419029236
9.0,0.527703046798706
10.0,0.5269678235054016
11.0,0.5262160897254944
12.0,0.5254788994789124
13.0,0.5247349739074707
14.0,0.5239737033843994
15.0,0.5231958031654358
16.0,0.5223909020423889
18.0,0.5208092331886292
20.0,0.5192375183105469
22.0,0.5176503658294678
24.0,0.5161111354827881
26.0,0.5146362781524658
28.0,0.5131211280822754
30.0,0.5115750432014465
32.0,0.5100453495979309
36.0,0.5067756175994873
40.0,0.5035706758499146
44.0,0.5003626346588135
48.0,0.4973143935203552
52.0,0.49454566836357117
56.0,0.4914712905883789
60.0,0.4879609942436218
64.0,0.48421919345855713
72.0,0.4767753481864929
80.0,0.4698866605758667
88.0,0.4634404182434082
96.0,0.45693913102149963
104.0,0.44985538721084595
112.0,0.44262200593948364
120.0,0.4346069395542145
128.0,0.42593055963516235
144.0,0.4080643057823181
160.0,0.39027881622314453
176.0,0.37190985679626465
192.0,0.35420548915863037
208.0,0.33850738406181335
224.0,0.3237488865852356
240.0,0.30878958106040955
256.0,0.29424849152565
288.0,0.26487022638320923
320.0,0.23694069683551788
352.0,0.21441550552845
384.0,0.19699575006961823
416.0,0.18124376237392426
448.0,0.1704227328300476
480.0,0.15923994779586792
512.0,0.14678312838077545
576.0,0.12036468833684921
640.0,0.0911400318145752
704.0,0.06453283876180649
768.0,0.04382416978478432
832.0,0.028491497039794922
896.0,0.018586864694952965
960.0,0.014865891076624393
1024.0,0.018099283799529076
1152.0,0.03134497255086899
1280.0,0.056155748665332794
1408.0,0.11821120232343674
1536.0,0.15564985573291779
1664.0,0.13975371420383453
1792.0,0.09323528409004211
1920.0,0.08864104747772217
2048.0,0.10174403339624405
2304.0,0.06792182475328445
2560.0,0.02534533478319645
2816.0,-0.007128251250833273
3072.0,-0.012754091992974281
3328.0,-0.024902893230319023
3584.0,-0.006303141359239817
3840.0,-0.013651454821228981
4096.0,-0.019800545647740364
4608.0,-0.061797935515642166
5120.0,-0.12319078296422958
5632.0,-0.10233206301927567
6144.0,-0.07969731837511063
6656.0,-0.08629317581653595
7168.0,-0.07244326174259186
7680.0,-0.08131235837936401
8192.0,-0.09482342004776001
9216.0,-0.07016443461179733
10240.0,-0.09533161669969559
11264.0,0.003600733121857047
12288.0,-0.005831432994455099
13312.0,0.039429180324077606
14336.0,0.023629488423466682
end
