version,3.0
numOfCh,1
type,point
parent_name,dirty_0dot08-0dot01
ch_type,1_1
kcount,1
numberNandB,1
brightnessNandB,1
carpet pos,0
pc,0
Time (ms),CH1 Auto-Correlation
1.0,1.0034468173980713
2.0,1.0030138492584229
3.0,1.0025780200958252
4.0,1.0021398067474365
5.0,1.0016944408416748
6.0,1.0012487173080444
7.0,1.000800371170044
8.0,1.0003633499145508
9.0,0.999930739402771
10.0,0.999477207660675
11.0,0.9990326762199402
12.0,0.9986128807067871
13.0,0.9982017874717712
14.0,0.9977988600730896
15.0,0.997368574142456
16.0,0.9969324469566345
18.0,0.9960722327232361
20.0,0.9951567053794861
22.0,0.9942487478256226
24.0,0.9933498501777649
26.0,0.9924828410148621
28.0,0.991622269153595
30.0,0.9907681345939636
32.0,0.9899232387542725
36.0,0.9883130192756653
40.0,0.9867769479751587
44.0,0.9852465391159058
48.0,0.9837883114814758
52.0,0.9823587536811829
56.0,0.9808734655380249
60.0,0.979343593120575
64.0,0.9779044985771179
72.0,0.9752861857414246
80.0,0.9727116823196411
88.0,0.9700943827629089
96.0,0.9676536321640015
104.0,0.9656575322151184
112.0,0.9633401036262512
120.0,0.9605666399002075
128.0,0.9576753973960876
144.0,0.9522140026092529
160.0,0.9466775059700012
176.0,0.9414988160133362
192.0,0.9367011189460754
208.0,0.9313734769821167
224.0,0.9256113767623901
240.0,0.918884813785553
256.0,0.9125786423683167
288.0,0.9016129970550537
320.0,0.8913562893867493
352.0,0.880866289138794
384.0,0.871543824672699
416.0,0.8628842830657959
448.0,0.8519756197929382
480.0,0.840973973274231
512.0,0.8309823274612427
576.0,0.813833475112915
640.0,0.7981054186820984
704.0,0.780547022819519
768.0,0.762661337852478
832.0,0.7498909831047058
896.0,0.7394281625747681
960.0,0.7276166677474976
1024.0,0.7164897918701172
1152.0,0.6992560029029846
1280.0,0.675815761089325
1408.0,0.6478890180587769
1536.0,0.61712247133255
1664.0,0.5837962031364441
1792.0,0.5518900156021118
1920.0,0.5118555426597595
2048.0,0.46822389960289
2304.0,0.38325878977775574
2560.0,0.30508002638816833
2816.0,0.23852431774139404
3072.0,0.16416484117507935
3328.0,0.10766295343637466
3584.0,0.07153987139463425
3840.0,0.024740101769566536
4096.0,-0.01828070543706417
4608.0,-0.08152756094932556
5120.0,-0.11721961945295334
5632.0,-0.1463141292333603
6144.0,-0.17967186868190765
6656.0,-0.22614850103855133
7168.0,-0.26429060101509094
7680.0,-0.3007858991622925
8192.0,-0.3465209901332855
9216.0,-0.4350241720676422
10240.0,-0.5489503145217896
11264.0,-0.7511975765228271
12288.0,-0.9036979079246521
13312.0,-0.9473366737365723
14336.0,-0.6601965427398682
end
