version,3.0
numOfCh,1
type,point
parent_name,dirty_0dot08-0dot01
ch_type,1_1
kcount,1
numberNandB,1
brightnessNandB,1
carpet pos,0
pc,0
Time (ms),CH1 Auto-Correlation
1.0,0.16369976103305817
2.0,0.16336128115653992
3.0,0.16302406787872314
4.0,0.16270534694194794
5.0,0.16236121952533722
6.0,0.16202329099178314
7.0,0.16168312728405
8.0,0.16135302186012268
9.0,0.16102881729602814
10.0,0.16071127355098724
11.0,0.16039639711380005
12.0,0.1600721776485443
13.0,0.15977466106414795
14.0,0.15948082506656647
15.0,0.159183070063591
16.0,0.1588807851076126
18.0,0.15827064216136932
20.0,0.1576399803161621
22.0,0.15700699388980865
24.0,0.15638351440429688
26.0,0.155747190117836
28.0,0.15513911843299866
30.0,0.15456357598304749
32.0,0.15403711795806885
36.0,0.1530403345823288
40.0,0.15205012261867523
44.0,0.15094932913780212
48.0,0.14971545338630676
52.0,0.14840690791606903
56.0,0.14708420634269714
60.0,0.14582277834415436
64.0,0.14460688829421997
72.0,0.1420566290616989
80.0,0.13954563438892365
88.0,0.13707858324050903
96.0,0.1343175619840622
104.0,0.13154524564743042
112.0,0.12893708050251007
120.0,0.12632235884666443
128.0,0.12384659796953201
144.0,0.1192808672785759
160.0,0.11509314924478531
176.0,0.11070544272661209
192.0,0.10617582499980927
208.0,0.10237466543912888
224.0,0.0990680456161499
240.0,0.09525176882743835
256.0,0.09087254852056503
288.0,0.08170757442712784
320.0,0.0713610053062439
352.0,0.06066030636429787
384.0,0.050789862871170044
416.0,0.042811695486307144
448.0,0.03715219721198082
480.0,0.0334833562374115
512.0,0.029451649636030197
576.0,0.019268682226538658
640.0,0.010376888327300549
704.0,0.0061818561516702175
768.0,0.006867439951747656
832.0,0.008400079794228077
896.0,0.010669393464922905
960.0,0.014342058449983597
1024.0,0.019583245739340782
1152.0,0.02675963006913662
1280.0,0.029014617204666138
1408.0,0.023660968989133835
1536.0,0.006483661476522684
1664.0,-0.012935306876897812
1792.0,-0.0251156035810709
1920.0,-0.023651251569390297
2048.0,-0.014745213091373444
2304.0,-0.00217218860052526
2560.0,0.004646580666303635
2816.0,0.00435363594442606
3072.0,0.0004958747886121273
3328.0,0.0005278351600281894
3584.0,0.0010133086470887065
3840.0,-0.003657861379906535
4096.0,-0.007655331864953041
4608.0,-0.011965987272560596
5120.0,-0.012941263616085052
5632.0,-0.004507425241172314
6144.0,0.0022867063526064157
6656.0,0.004659989383071661
7168.0,0.004600196611136198
7680.0,-0.001849132589995861
8192.0,0.001939741661772132
9216.0,0.0070999558083713055
10240.0,0.012407097965478897
11264.0,-0.019962947815656662
12288.0,-0.044091980904340744
13312.0,-0.0725088119506836
14336.0,-0.14807818830013275
end
