version,3.0
numOfCh,1
type,point
parent_name,dirty_0dot08-0dot01
ch_type,1_1
kcount,1
numberNandB,1
brightnessNandB,1
carpet pos,0
pc,0
Time (ms),CH1 Auto-Correlation
1.0,0.040690816938877106
2.0,0.04042819142341614
3.0,0.04016951471567154
4.0,0.03991692513227463
5.0,0.03967367112636566
6.0,0.03943004086613655
7.0,0.03918841481208801
8.0,0.03895112872123718
9.0,0.038711294531822205
10.0,0.03847844526171684
11.0,0.0382499061524868
12.0,0.038024064153432846
13.0,0.0378008671104908
14.0,0.037581369280815125
15.0,0.03735574334859848
16.0,0.037135522812604904
18.0,0.0367065966129303
20.0,0.03629355877637863
22.0,0.03587706759572029
24.0,0.035464633256196976
26.0,0.0350528210401535
28.0,0.034645091742277145
30.0,0.0342303104698658
32.0,0.03382057696580887
36.0,0.033045444637537
40.0,0.03231349587440491
44.0,0.031616196036338806
48.0,0.030932120978832245
52.0,0.030288169160485268
56.0,0.029681727290153503
60.0,0.029102886095643044
64.0,0.028569461777806282
72.0,0.027592701837420464
80.0,0.02668161131441593
88.0,0.02585650607943535
96.0,0.025149274617433548
104.0,0.02445809729397297
112.0,0.023789148777723312
120.0,0.023150239139795303
128.0,0.02249988168478012
144.0,0.021232621744275093
160.0,0.020069986581802368
176.0,0.01895141415297985
192.0,0.017564672976732254
208.0,0.016245348379015923
224.0,0.015231181867420673
240.0,0.014379188418388367
256.0,0.01358021330088377
288.0,0.011367456056177616
320.0,0.00899347010999918
352.0,0.006580168381333351
384.0,0.004828860517591238
416.0,0.004349230322986841
448.0,0.0040695760399103165
480.0,0.003323610406368971
512.0,0.002744814148172736
576.0,0.001149045187048614
640.0,0.00021887870389036834
704.0,0.00010390123497927561
768.0,0.001003468525595963
832.0,0.0011659112060442567
896.0,0.0006408682675100863
960.0,-0.00044672342482954264
1024.0,-0.001081932568922639
1152.0,-0.0030368941370397806
1280.0,-0.003059188835322857
1408.0,-0.003656483720988035
1536.0,-0.0012320822570472956
1664.0,-0.00013823046174366027
1792.0,0.0009346224251203239
1920.0,0.001506621832959354
2048.0,-0.00018926916527561843
2304.0,-0.007331827189773321
2560.0,-0.009535473771393299
2816.0,-0.0039172302931547165
3072.0,-0.003955760505050421
3328.0,-0.006408166140317917
3584.0,-0.0076863267458975315
3840.0,-0.008659491315484047
4096.0,-0.0063725970685482025
4608.0,-0.0007900738273747265
5120.0,0.008038979955017567
5632.0,0.0029849596321582794
6144.0,0.006471301428973675
6656.0,0.009991259314119816
7168.0,0.0055588651448488235
7680.0,-0.0033167225774377584
8192.0,-0.0040852949023246765
9216.0,-0.00527311023324728
10240.0,-0.001524608233012259
11264.0,0.003032827051356435
12288.0,0.004970697220414877
13312.0,0.0003034847031813115
14336.0,-0.008359336294233799
end
