version,3.0
numOfCh,1
type,point
parent_name,dirty_0dot08-0dot01
ch_type,1_1
kcount,1
numberNandB,1
brightnessNandB,1
carpet pos,0
pc,0
Time (ms),CH1 Auto-Correlation
1.0,0.03976442292332649
2.0,0.039442334324121475
3.0,0.03911494463682175
4.0,0.038803599774837494
5.0,0.03849209100008011
6.0,0.03819393366575241
7.0,0.03790859878063202
8.0,0.03762897849082947
9.0,0.03735930472612381
10.0,0.03707979619503021
11.0,0.03680419921875
12.0,0.03651909902691841
13.0,0.0362425222992897
14.0,0.03596770018339157
15.0,0.03569984436035156
16.0,0.03542676568031311
18.0,0.03490114212036133
20.0,0.034361831843853
22.0,0.033833473920822144
24.0,0.033317070454359055
26.0,0.03281499072909355
28.0,0.03233996406197548
30.0,0.03186472877860069
32.0,0.03139792010188103
36.0,0.03053097613155842
40.0,0.029704473912715912
44.0,0.02893882989883423
48.0,0.028213156387209892
52.0,0.02750886231660843
56.0,0.026768233627080917
60.0,0.026005612686276436
64.0,0.025261875241994858
72.0,0.023878712207078934
80.0,0.02257479727268219
88.0,0.02144540101289749
96.0,0.020291129127144814
104.0,0.019186237826943398
112.0,0.01811685599386692
120.0,0.017115022987127304
128.0,0.0162963829934597
144.0,0.014680969528853893
160.0,0.013130588456988335
176.0,0.011933512054383755
192.0,0.010843786410987377
208.0,0.009864304214715958
224.0,0.009265659376978874
240.0,0.008728918619453907
256.0,0.008220035582780838
288.0,0.008003789000213146
320.0,0.007632884196937084
352.0,0.006544102448970079
384.0,0.004915881901979446
416.0,0.0040098074823617935
448.0,0.004106590989977121
480.0,0.004467760678380728
512.0,0.004767131991684437
576.0,0.004333833232522011
640.0,0.0018834799993783236
704.0,0.00040243021794594824
768.0,-0.0004099188663531095
832.0,-0.0013170348247513175
896.0,-0.0021629605907946825
960.0,-0.0016178443329408765
1024.0,-0.00043904100311920047
1152.0,0.004573910031467676
1280.0,0.004011976066976786
1408.0,-0.00032858914346434176
1536.0,-0.0005940211121924222
1664.0,-0.002131708897650242
1792.0,-0.0028240233659744263
1920.0,-0.0018285367405042052
2048.0,0.0004598150262609124
2304.0,-0.0014509514439851046
2560.0,-0.0009237921331077814
2816.0,-0.0029166447930037975
3072.0,-0.0005297637544572353
3328.0,0.00395092973485589
3584.0,0.004897419363260269
3840.0,0.0052974591962993145
4096.0,3.43902938766405e-05
4608.0,-0.00034500702167861164
5120.0,-0.0005080082919448614
5632.0,-0.003917739726603031
6144.0,-0.004623548127710819
6656.0,-0.0020666271448135376
7168.0,0.0022294186055660248
7680.0,-0.005299882963299751
8192.0,-0.0014728163368999958
9216.0,-0.004595012404024601
10240.0,-0.004549283534288406
11264.0,0.0004094275354873389
12288.0,0.004267511423677206
13312.0,-0.005879872478544712
14336.0,-0.0064676194451749325
end
