version,3.0
numOfCh,1
type,point
parent_name,dirty_0dot08-0dot01
ch_type,1_1
kcount,1
numberNandB,1
brightnessNandB,1
carpet pos,0
pc,0
Time (ms),CH1 Auto-Correlation
1.0,0.07397275418043137
2.0,0.0736003965139389
3.0,0.07323545217514038
4.0,0.07288195937871933
5.0,0.07253105938434601
6.0,0.0721837654709816
7.0,0.07181007415056229
8.0,0.07144024223089218
9.0,0.07106951624155045
10.0,0.07068992406129837
11.0,0.07031643390655518
12.0,0.0699404701590538
13.0,0.06957826763391495
14.0,0.06922883540391922
15.0,0.06887118518352509
16.0,0.06850744783878326
18.0,0.06778004765510559
20.0,0.06705781072378159
22.0,0.06634483486413956
24.0,0.06564450263977051
26.0,0.0649455338716507
28.0,0.0642523318529129
30.0,0.06353317946195602
32.0,0.06284096091985703
36.0,0.061563193798065186
40.0,0.06034272536635399
44.0,0.059203825891017914
48.0,0.05820253863930702
52.0,0.057258035987615585
56.0,0.05628416687250137
60.0,0.05537744611501694
64.0,0.054502569139003754
72.0,0.05275924503803253
80.0,0.050865866243839264
88.0,0.048828400671482086
96.0,0.04673758149147034
104.0,0.04486190900206566
112.0,0.04327799379825592
120.0,0.04207540675997734
128.0,0.04097607359290123
144.0,0.0385873056948185
160.0,0.035880811512470245
176.0,0.033470217138528824
192.0,0.03209253400564194
208.0,0.03156343474984169
224.0,0.03086649626493454
240.0,0.02960173226892948
256.0,0.027990397065877914
288.0,0.02461748942732811
320.0,0.021686717867851257
352.0,0.01904800347983837
384.0,0.015120629221200943
416.0,0.011675872839987278
448.0,0.010050897486507893
480.0,0.009448159486055374
512.0,0.009372267872095108
576.0,0.010681884363293648
640.0,0.01221364364027977
704.0,0.01413937471807003
768.0,0.01634146459400654
832.0,0.015248221345245838
896.0,0.013198169879615307
960.0,0.010193291120231152
1024.0,0.008933048695325851
1152.0,0.0042223394848406315
1280.0,-0.0032185385935008526
1408.0,-0.006762402597814798
1536.0,-0.010705091990530491
1664.0,-0.010426013730466366
1792.0,-0.008904235437512398
1920.0,-0.009210116229951382
2048.0,-0.010458060540258884
2304.0,-0.01057654619216919
2560.0,-0.013964518904685974
2816.0,-0.012493454851210117
3072.0,-0.0116448188200593
3328.0,-0.005496454890817404
3584.0,-0.0008306197123602033
3840.0,-0.00223712925799191
4096.0,-0.004218129441142082
4608.0,-0.0022973595187067986
5120.0,-0.017024695873260498
5632.0,0.0001896340399980545
6144.0,-0.0011708949459716678
6656.0,0.0006945289787836373
7168.0,-0.0013476174790412188
7680.0,0.008912907913327217
8192.0,0.008874296210706234
9216.0,0.006341572850942612
10240.0,0.003916967660188675
11264.0,0.0013395579298958182
12288.0,-0.00036055390955880284
13312.0,-0.002099757781252265
14336.0,-0.014344929717481136
end
