version,3.0
numOfCh,1
type,point
parent_name,dirty_0dot08-0dot01
ch_type,1_1
kcount,1
numberNandB,1
brightnessNandB,1
carpet pos,0
pc,0
Time (ms),CH1 Auto-Correlation
1.0,0.0371563658118248
2.0,0.036886777728796005
3.0,0.03661496937274933
4.0,0.036348167806863785
5.0,0.03608016297221184
6.0,0.035814616829156876
7.0,0.03555075079202652
8.0,0.03528379648923874
9.0,0.03502567484974861
10.0,0.034774959087371826
11.0,0.03452538326382637
12.0,0.03427651524543762
13.0,0.034027136862277985
14.0,0.033782556653022766
15.0,0.033534929156303406
16.0,0.03328661620616913
18.0,0.03278689831495285
20.0,0.0322839580476284
22.0,0.03179444372653961
24.0,0.031337205320596695
26.0,0.0309018362313509
28.0,0.030478687956929207
30.0,0.030053960159420967
32.0,0.0296491552144289
36.0,0.028928661718964577
40.0,0.028245005756616592
44.0,0.027583763003349304
48.0,0.026966946199536324
52.0,0.026372184976935387
56.0,0.02580839954316616
60.0,0.025266418233513832
64.0,0.024737900123000145
72.0,0.023706167936325073
80.0,0.02274409867823124
88.0,0.021880874410271645
96.0,0.02110162563621998
104.0,0.020357968285679817
112.0,0.019625717774033546
120.0,0.018829043954610825
128.0,0.018027793616056442
144.0,0.01702263019979
160.0,0.016271576285362244
176.0,0.015417738817632198
192.0,0.014300361275672913
208.0,0.013246225193142891
224.0,0.012309386394917965
240.0,0.011427339166402817
256.0,0.010494980029761791
288.0,0.00939169991761446
320.0,0.00866758730262518
352.0,0.0077880388125777245
384.0,0.0061608268879354
416.0,0.00468899542465806
448.0,0.0032488403376191854
480.0,0.0019945362582802773
512.0,0.0011978134280070662
576.0,0.0006569381803274155
640.0,-0.00031473938724957407
704.0,-0.0009583035716786981
768.0,-0.0018777955556288362
832.0,-0.002347582019865513
896.0,-0.0035901719238609076
960.0,-0.003620679723098874
1024.0,-0.0036661268677562475
1152.0,-0.004591038916260004
1280.0,-0.00599249079823494
1408.0,-0.004441153723746538
1536.0,-0.003737809369340539
1664.0,-0.0026888535358011723
1792.0,-0.0005975142703391612
1920.0,0.0007244148291647434
2048.0,0.000514248211402446
2304.0,-0.0010714083909988403
2560.0,-0.0020674096886068583
2816.0,-0.001982369925826788
3072.0,-0.0016958268824964762
3328.0,-0.004891209304332733
3584.0,-0.004318510182201862
3840.0,-0.0016034606378525496
4096.0,-0.00444452278316021
4608.0,-4.118529977858998e-05
5120.0,0.0023192886728793383
5632.0,0.003458603285253048
6144.0,-0.0004073037125635892
6656.0,0.005508157424628735
7168.0,0.001503696315921843
7680.0,-0.002040714491158724
8192.0,-0.0022708806209266186
9216.0,0.0035528356675058603
10240.0,-0.008328419178724289
11264.0,0.0016011449042707682
12288.0,0.0005790198338218033
13312.0,-0.0036740065552294254
14336.0,0.005057683680206537
end
