version,3.0
numOfCh,1
type,point
parent_name,dirty_0dot08-0dot01
ch_type,1_1
kcount,1
numberNandB,1
brightnessNandB,1
carpet pos,0
pc,0
Time (ms),CH1 Auto-Correlation
1.0,0.1934586614370346
2.0,0.1928877979516983
3.0,0.1923450380563736
4.0,0.19177263975143433
5.0,0.19121727347373962
6.0,0.1906648427248001
7.0,0.1901213824748993
8.0,0.18955397605895996
9.0,0.1889694482088089
10.0,0.18838506937026978
11.0,0.18782395124435425
12.0,0.18727533519268036
13.0,0.18672940135002136
14.0,0.18622979521751404
15.0,0.18573720753192902
16.0,0.18520699441432953
18.0,0.18411093950271606
20.0,0.18303990364074707
22.0,0.18196409940719604
24.0,0.18087787926197052
26.0,0.17976659536361694
28.0,0.17865093052387238
30.0,0.17756234109401703
32.0,0.1765265315771103
36.0,0.17456525564193726
40.0,0.1726704239845276
44.0,0.17072749137878418
48.0,0.1687951534986496
52.0,0.16688117384910583
56.0,0.1650361269712448
60.0,0.1632397323846817
64.0,0.16152149438858032
72.0,0.1580602526664734
80.0,0.1542735993862152
88.0,0.15070870518684387
96.0,0.14715765416622162
104.0,0.14349384605884552
112.0,0.13987334072589874
120.0,0.13619130849838257
128.0,0.13242626190185547
144.0,0.1258009523153305
160.0,0.11936566978693008
176.0,0.11360794305801392
192.0,0.10861112177371979
208.0,0.10338043421506882
224.0,0.09837552905082703
240.0,0.09302373230457306
256.0,0.08814459294080734
288.0,0.08239615708589554
320.0,0.0793783888220787
352.0,0.07662186026573181
384.0,0.07438310235738754
416.0,0.0736030638217926
448.0,0.07119449973106384
480.0,0.0679791271686554
512.0,0.06575018912553787
576.0,0.06113959476351738
640.0,0.06046512722969055
704.0,0.06025630608201027
768.0,0.06259657442569733
832.0,0.06456560641527176
896.0,0.06403103470802307
960.0,0.05949606001377106
1024.0,0.0580127015709877
1152.0,0.05418368801474571
1280.0,0.045369915664196014
1408.0,0.045304179191589355
1536.0,0.05705685913562775
1664.0,0.06669869273900986
1792.0,0.05865149945020676
1920.0,0.038635872304439545
2048.0,0.01880643144249916
2304.0,0.0005680967005901039
2560.0,0.00019399504526518285
2816.0,-0.011294332332909107
3072.0,-0.03742622956633568
3328.0,-0.03432725369930267
3584.0,-0.036019179970026016
3840.0,-0.0379418320953846
4096.0,-0.03845125436782837
4608.0,-0.03949689865112305
5120.0,-0.0620422326028347
5632.0,-0.05396869406104088
6144.0,-0.04313889518380165
6656.0,-0.038544733077287674
7168.0,-0.0516178160905838
7680.0,-0.03324976935982704
8192.0,-0.02312900684773922
9216.0,-0.010833117179572582
10240.0,0.0022069113329052925
11264.0,0.02316099777817726
12288.0,0.03660754859447479
13312.0,0.04755161330103874
14336.0,0.045091137290000916
end
