version,3.0
numOfCh,1
type,point
parent_name,dirty_0dot08-0dot01
ch_type,1_1
kcount,1
numberNandB,1
brightnessNandB,1
carpet pos,0
pc,0
Time (ms),CH1 Auto-Correlation
1.0,0.6946500539779663
2.0,0.6934388279914856
3.0,0.6922633051872253
4.0,0.6910465955734253
5.0,0.6898526549339294
6.0,0.6886273622512817
7.0,0.687373161315918
8.0,0.6860988140106201
9.0,0.6848514676094055
10.0,0.6836233735084534
11.0,0.6823862791061401
12.0,0.6810933351516724
13.0,0.679786741733551
14.0,0.6785340309143066
15.0,0.6773084402084351
16.0,0.6761258244514465
18.0,0.6738404035568237
20.0,0.6716644167900085
22.0,0.6695076823234558
24.0,0.667372465133667
26.0,0.6651864051818848
28.0,0.6630547642707825
30.0,0.660889744758606
32.0,0.6586929559707642
36.0,0.6544705629348755
40.0,0.6502833366394043
44.0,0.6461842656135559
48.0,0.6423038840293884
52.0,0.638672411441803
56.0,0.6349732279777527
60.0,0.6312636137008667
64.0,0.6271989941596985
72.0,0.6191988587379456
80.0,0.6110200881958008
88.0,0.6021327972412109
96.0,0.5935124158859253
104.0,0.5859314203262329
112.0,0.5779566764831543
120.0,0.5696576833724976
128.0,0.561940610408783
144.0,0.5475261211395264
160.0,0.5342841744422913
176.0,0.5181440114974976
192.0,0.5024961233139038
208.0,0.48661917448043823
224.0,0.4723358750343323
240.0,0.45658889412879944
256.0,0.44152048230171204
288.0,0.4188876152038574
320.0,0.3952643871307373
352.0,0.370015025138855
384.0,0.34706610441207886
416.0,0.32445985078811646
448.0,0.3021492660045624
480.0,0.2792491614818573
512.0,0.2527112066745758
576.0,0.19265569746494293
640.0,0.1518130749464035
704.0,0.1251032054424286
768.0,0.1136898398399353
832.0,0.10795607417821884
896.0,0.09094740450382233
960.0,0.07946493476629257
1024.0,0.07532622665166855
1152.0,0.06471074372529984
1280.0,0.04206135496497154
1408.0,0.004484119825065136
1536.0,-0.010137259028851986
1664.0,-0.01268107071518898
1792.0,-0.01840909942984581
1920.0,-0.03430812060832977
2048.0,-0.03215966746211052
2304.0,-0.0254919845610857
2560.0,0.007172766607254744
2816.0,0.03920053318142891
3072.0,0.03896846994757652
3328.0,0.07277219742536545
3584.0,0.14470137655735016
3840.0,0.18565918505191803
4096.0,0.09042941778898239
4608.0,-0.01841205358505249
5120.0,-0.04184389114379883
5632.0,-0.01775224506855011
6144.0,0.01917274482548237
6656.0,0.10345564782619476
7168.0,0.006914329715073109
7680.0,-0.10304906219244003
8192.0,-0.10125073045492172
9216.0,-0.12384636700153351
10240.0,-0.160752072930336
11264.0,-0.2098485380411148
12288.0,-0.08972124755382538
13312.0,-0.22801630198955536
14336.0,-0.3564588129520416
end
