version,3.0
numOfCh,1
type,point
parent_name,dirty_0dot08-0dot01
ch_type,1_1
kcount,1
numberNandB,1
brightnessNandB,1
carpet pos,0
pc,0
Time (ms),CH1 Auto-Correlation
1.0,0.31309470534324646
2.0,0.3122932016849518
3.0,0.31148412823677063
4.0,0.310648113489151
5.0,0.3098158538341522
6.0,0.3089706003665924
7.0,0.308062881231308
8.0,0.307081937789917
9.0,0.3060622811317444
10.0,0.30504196882247925
11.0,0.3040211498737335
12.0,0.3029835522174835
13.0,0.30199915170669556
14.0,0.30103039741516113
15.0,0.3000510334968567
16.0,0.2990448772907257
18.0,0.2969878613948822
20.0,0.2949005961418152
22.0,0.2928526699542999
24.0,0.29089245200157166
26.0,0.2889958918094635
28.0,0.2870714068412781
30.0,0.28510624170303345
32.0,0.283272385597229
36.0,0.27977409958839417
40.0,0.2764138877391815
44.0,0.2734135091304779
48.0,0.270438015460968
52.0,0.2674156427383423
56.0,0.26412126421928406
60.0,0.2607593238353729
64.0,0.25727832317352295
72.0,0.2503538429737091
80.0,0.24431902170181274
88.0,0.23928751051425934
96.0,0.23415210843086243
104.0,0.2283570021390915
112.0,0.2218848168849945
120.0,0.2157144695520401
128.0,0.21000809967517853
144.0,0.20110903680324554
160.0,0.19290482997894287
176.0,0.18433919548988342
192.0,0.17699827253818512
208.0,0.1721193641424179
224.0,0.16692563891410828
240.0,0.16080164909362793
256.0,0.1512477844953537
288.0,0.1302000731229782
320.0,0.11310930550098419
352.0,0.0985284224152565
384.0,0.08723507821559906
416.0,0.08524825423955917
448.0,0.08438503742218018
480.0,0.08189791440963745
512.0,0.07667730748653412
576.0,0.06334598362445831
640.0,0.05438806116580963
704.0,0.047312431037425995
768.0,0.043915439397096634
832.0,0.046860914677381516
896.0,0.05059720575809479
960.0,0.05062295123934746
1024.0,0.04977283254265785
1152.0,0.04089679196476936
1280.0,0.023306889459490776
1408.0,0.012833695858716965
1536.0,0.008702403865754604
1664.0,0.010599549859762192
1792.0,0.008115014992654324
1920.0,0.001679990324191749
2048.0,-0.0025405294727534056
2304.0,-0.013255978003144264
2560.0,-0.023106932640075684
2816.0,-0.03235645592212677
3072.0,-0.04790344461798668
3328.0,-0.049056462943553925
3584.0,-0.03731255978345871
3840.0,-0.020098024979233742
4096.0,-0.005713662598282099
4608.0,0.010684531182050705
5120.0,0.06843474507331848
5632.0,0.004376637749373913
6144.0,0.0061126635409891605
6656.0,-0.010572231374680996
7168.0,-0.0222002100199461
7680.0,-0.03674253821372986
8192.0,-0.05016147717833519
9216.0,-0.06531896442174911
10240.0,-0.05272544547915459
11264.0,0.002086045453324914
12288.0,0.003147260518744588
13312.0,-0.007572837173938751
14336.0,-0.0650460496544838
end
