version,3.0
numOfCh,1
type,point
parent_name,dirty_0dot08-0dot01
ch_type,1_1
kcount,1
numberNandB,1
brightnessNandB,1
carpet pos,0
pc,0
Time (ms),CH1 Auto-Correlation
1.0,0.3070787787437439
2.0,0.3064993619918823
3.0,0.30591660737991333
4.0,0.30530691146850586
5.0,0.30473414063453674
6.0,0.30414125323295593
7.0,0.3035620450973511
8.0,0.3029775321483612
9.0,0.30240726470947266
10.0,0.3018171787261963
11.0,0.30123618245124817
12.0,0.30066853761672974
13.0,0.30006980895996094
14.0,0.29950711131095886
15.0,0.2989225387573242
16.0,0.29834112524986267
18.0,0.2971256673336029
20.0,0.2958891689777374
22.0,0.2946098744869232
24.0,0.2933376431465149
26.0,0.29211315512657166
28.0,0.29087769985198975
30.0,0.2896210253238678
32.0,0.28835469484329224
36.0,0.28585031628608704
40.0,0.28336799144744873
44.0,0.2806832492351532
48.0,0.2779932916164398
52.0,0.27549484372138977
56.0,0.2731538712978363
60.0,0.2710414230823517
64.0,0.26912540197372437
72.0,0.26496365666389465
80.0,0.26080965995788574
88.0,0.25660473108291626
96.0,0.25227218866348267
104.0,0.2478410303592682
112.0,0.24386946856975555
120.0,0.2397836446762085
128.0,0.23545114696025848
144.0,0.22690865397453308
160.0,0.21990638971328735
176.0,0.21468010544776917
192.0,0.21112531423568726
208.0,0.20848746597766876
224.0,0.20623499155044556
240.0,0.20375803112983704
256.0,0.20213811099529266
288.0,0.20133496820926666
320.0,0.20046186447143555
352.0,0.19708126783370972
384.0,0.19066791236400604
416.0,0.18378162384033203
448.0,0.1744472086429596
480.0,0.16365866363048553
512.0,0.15574446320533752
576.0,0.14958058297634125
640.0,0.1434784084558487
704.0,0.13128776848316193
768.0,0.11835289001464844
832.0,0.10068532824516296
896.0,0.07929335534572601
960.0,0.05935221537947655
1024.0,0.04129340872168541
1152.0,0.014826225116848946
1280.0,-0.0012455584947019815
1408.0,-0.012642297893762589
1536.0,-0.02384299784898758
1664.0,-0.041551899164915085
1792.0,-0.04445582255721092
1920.0,-0.046502526849508286
2048.0,-0.046753861010074615
2304.0,-0.0432315319776535
2560.0,-0.03882720693945885
2816.0,-0.031080294400453568
3072.0,-0.0287943035364151
3328.0,-0.03222265467047691
3584.0,-0.028258388862013817
3840.0,-0.041695691645145416
4096.0,-0.05397761985659599
4608.0,-0.02354380488395691
5120.0,0.025274643674492836
5632.0,0.05135519057512283
6144.0,0.03325195237994194
6656.0,-0.018030215054750443
7168.0,-0.056156568229198456
7680.0,-0.06208396703004837
8192.0,-0.06096741929650307
9216.0,-0.06728041917085648
10240.0,-0.04374958947300911
11264.0,0.029122330248355865
12288.0,0.024049459025263786
13312.0,-1.5986876178430975e-06
14336.0,-0.00493804132565856
end
