version,3.0
numOfCh,1
type,point
parent_name,0cd20_1dot0-0dot1
ch_type,1_1
kcount,1
numberNandB,1
brightnessNandB,1
carpet pos,0
pc,0
Time (ms),CH1 Auto-Correlation
1.0,0.16866353154182434
2.0,0.16019436717033386
3.0,0.15288260579109192
4.0,0.14601783454418182
5.0,0.1393120288848877
6.0,0.13344454765319824
7.0,0.12824244797229767
8.0,0.12396155297756195
9.0,0.11989529430866241
10.0,0.11553192138671875
11.0,0.11223750561475754
12.0,0.10934384167194366
13.0,0.10609515011310577
14.0,0.10262689739465714
15.0,0.09916041046380997
16.0,0.0957992747426033
18.0,0.08875923603773117
20.0,0.08235198259353638
22.0,0.07676514983177185
24.0,0.07191059738397598
26.0,0.06730455905199051
28.0,0.06352947652339935
30.0,0.059992700815200806
32.0,0.05637471005320549
36.0,0.05092347040772438
40.0,0.046183571219444275
44.0,0.04190670698881149
48.0,0.039362162351608276
52.0,0.039379194378852844
56.0,0.04028354212641716
60.0,0.03960992768406868
64.0,0.03818027675151825
72.0,0.03590741008520126
80.0,0.03609287366271019
88.0,0.03503820300102234
96.0,0.03330659866333008
104.0,0.033677730709314346
112.0,0.03697741776704788
120.0,0.04458007588982582
128.0,0.04863325506448746
144.0,0.04662444069981575
160.0,0.03850492835044861
176.0,0.031186841428279877
192.0,0.027786439284682274
208.0,0.024219391867518425
224.0,0.018485141918063164
240.0,0.01665942743420601
256.0,0.018556896597146988
288.0,0.013615073636174202
320.0,0.010816404595971107
352.0,0.008138051256537437
384.0,0.007895924150943756
416.0,0.009226161986589432
448.0,-0.0008204804616980255
480.0,-0.0007193656056188047
512.0,0.0037276556249707937
576.0,0.0006377322715707123
640.0,-0.004195083864033222
704.0,0.006281357258558273
768.0,-4.35308538726531e-05
832.0,0.0033253554720431566
896.0,0.0012833619257435203
960.0,-0.004205191042274237
1024.0,-0.007261594291776419
1152.0,-0.0056809172965586185
1280.0,-0.001943698967806995
1408.0,-0.0009440991561859846
1536.0,-0.004159755073487759
1664.0,-0.0032777285668998957
1792.0,-0.006719387602061033
1920.0,-0.007159564644098282
2048.0,-0.002754354616627097
2304.0,-0.00449869642034173
2560.0,-0.010362296365201473
2816.0,-0.008489847183227539
3072.0,-0.006842823699116707
3328.0,-0.0011850569862872362
3584.0,0.011951434426009655
3840.0,0.0050796871073544025
4096.0,-0.00959621649235487
4608.0,0.0015231873840093613
5120.0,-0.0010421082843095064
5632.0,0.002437208080664277
6144.0,0.004536874126642942
6656.0,0.007900127209722996
7168.0,-0.0017384840175509453
7680.0,-0.012386400252580643
8192.0,-0.008799736388027668
end
