version,3.0
numOfCh,1
type,point
parent_name,0cd20_1dot0-0dot1
ch_type,1_1
kcount,1
numberNandB,1
brightnessNandB,1
carpet pos,0
pc,0
Time (ms),CH1 Auto-Correlation
1.0,0.08251926302909851
2.0,0.07577555626630783
3.0,0.06988867372274399
4.0,0.06495819985866547
5.0,0.06070064753293991
6.0,0.056908439844846725
7.0,0.05356393754482269
8.0,0.05038990452885628
9.0,0.0476476326584816
10.0,0.04511919245123863
11.0,0.04287530109286308
12.0,0.04086771607398987
13.0,0.03895343095064163
14.0,0.0370541550219059
15.0,0.03538220375776291
16.0,0.03404764458537102
18.0,0.031620532274246216
20.0,0.02980390004813671
22.0,0.02774656191468239
24.0,0.025966592133045197
26.0,0.024337265640497208
28.0,0.022760767489671707
30.0,0.02125995047390461
32.0,0.019739404320716858
36.0,0.01673908345401287
40.0,0.013930754736065865
44.0,0.011999846436083317
48.0,0.011237211525440216
52.0,0.01111688558012247
56.0,0.010523948818445206
60.0,0.009763780981302261
64.0,0.009264553897082806
72.0,0.009785130620002747
80.0,0.009673010557889938
88.0,0.008758578449487686
96.0,0.0069358195178210735
104.0,0.006366444285959005
112.0,0.00594131788238883
120.0,0.0061454311944544315
128.0,0.0063208965584635735
144.0,0.004387272521853447
160.0,0.006192775908857584
176.0,0.009149457328021526
192.0,0.007196351420134306
208.0,0.00396589795127511
224.0,0.0030302642844617367
240.0,0.005334281362593174
256.0,0.006737826857715845
288.0,0.005505600944161415
320.0,0.006166593171656132
352.0,0.003225322812795639
384.0,0.003221421269699931
416.0,0.0017017674399539828
448.0,0.00018830706540029496
480.0,0.001196315512061119
512.0,-0.00045049452455714345
576.0,0.0003865131002385169
640.0,0.0002884191635530442
704.0,-0.00014373553858604282
768.0,-0.0015562656335532665
832.0,-0.004290866199880838
896.0,-0.003302196739241481
960.0,-0.00014102421118877828
1024.0,0.0001504527172073722
1152.0,-0.0006925550987944007
1280.0,-0.0010012403363361955
1408.0,-0.0002026362926699221
1536.0,0.0008625073824077845
1664.0,0.0018675370374694467
1792.0,0.002231640974059701
1920.0,0.0009705705451779068
2048.0,-0.0002791943261399865
2304.0,0.001785845379345119
2560.0,0.000789720332249999
2816.0,0.0022461304906755686
3072.0,-0.003019574796780944
3328.0,-0.0026129905600100756
3584.0,0.0009709617006592453
3840.0,-0.0015800577821210027
4096.0,-0.0037788189947605133
4608.0,-0.0018372094491496682
5120.0,0.001192387193441391
5632.0,-0.002713990630581975
6144.0,-0.0015543390763923526
6656.0,0.0012791365152224898
7168.0,-0.0009409775957465172
7680.0,0.0027697794139385223
8192.0,0.001432125805877149
end
