version,3.0
numOfCh,1
type,point
parent_name,0cd20_1dot0-0dot1
ch_type,1_1
kcount,1
numberNandB,1
brightnessNandB,1
carpet pos,0
pc,0
Time (ms),CH1 Auto-Correlation
1.0,0.08656735718250275
2.0,0.07958155870437622
3.0,0.07376622408628464
4.0,0.06864265352487564
5.0,0.06417238712310791
6.0,0.06037149578332901
7.0,0.05700487643480301
8.0,0.05411171913146973
9.0,0.0514664351940155
10.0,0.049140673130750656
11.0,0.04717017710208893
12.0,0.04564554989337921
13.0,0.04408508539199829
14.0,0.04251299798488617
15.0,0.040799424052238464
16.0,0.03923052176833153
18.0,0.0363604910671711
20.0,0.034027788788080215
22.0,0.03211299702525139
24.0,0.030512742698192596
26.0,0.02913786843419075
28.0,0.028122728690505028
30.0,0.026964295655488968
32.0,0.02584369294345379
36.0,0.02328304387629032
40.0,0.02132342755794525
44.0,0.019170312210917473
48.0,0.01811119168996811
52.0,0.016800297424197197
56.0,0.014325300231575966
60.0,0.01225275732576847
64.0,0.010964376851916313
72.0,0.008515900932252407
80.0,0.006940697785466909
88.0,0.007442460395395756
96.0,0.008019356057047844
104.0,0.0073792277835309505
112.0,0.005636340938508511
120.0,0.00513441301882267
128.0,0.005043357610702515
144.0,0.001795765943825245
160.0,0.0011470746248960495
176.0,0.00044644801528193057
192.0,0.0005949484184384346
208.0,0.0007578046643175185
224.0,0.002314705401659012
240.0,0.003194439224898815
256.0,0.0018915279069915414
288.0,0.004994891118258238
320.0,0.006332940887659788
352.0,0.006099696271121502
384.0,0.004066810943186283
416.0,0.005267315078526735
448.0,0.0016086316900327802
480.0,0.0006052877870388329
512.0,0.006114632822573185
576.0,0.007519152015447617
640.0,0.0025363920722156763
704.0,0.0014574014348909259
768.0,-0.0016157606150954962
832.0,0.004347685258835554
896.0,0.004202528856694698
960.0,0.0007233257056213915
1024.0,-0.005478633567690849
1152.0,0.0015283676330000162
1280.0,0.0008741605561226606
1408.0,0.007025385275483131
1536.0,0.0009473664686083794
1664.0,-0.0015721131348982453
1792.0,0.0008766934624873102
1920.0,0.003021228825673461
2048.0,0.001990393502637744
2304.0,-0.002532981103286147
2560.0,-0.0029825170058757067
2816.0,-0.0016490790294483304
3072.0,-0.005474721547216177
3328.0,-0.005478876642882824
3584.0,-0.00720588956028223
3840.0,-0.008511610329151154
4096.0,-0.003475054632872343
4608.0,-0.0022533894516527653
5120.0,-0.0031370248179882765
5632.0,-0.002053685486316681
6144.0,0.0024358737282454967
6656.0,0.0029143961146473885
7168.0,0.003409820841625333
7680.0,0.003256330732256174
8192.0,-0.0005683195195160806
end
