version,3.0
numOfCh,1
type,point
parent_name,0cd20_1dot0-0dot1
ch_type,1_1
kcount,1
numberNandB,1
brightnessNandB,1
carpet pos,0
pc,0
Time (ms),CH1 Auto-Correlation
1.0,0.08216890692710876
2.0,0.07515447586774826
3.0,0.06922981888055801
4.0,0.0642223060131073
5.0,0.05973627790808678
6.0,0.055818233639001846
7.0,0.052278369665145874
8.0,0.0488126166164875
9.0,0.04586848244071007
10.0,0.04333018511533737
11.0,0.041279543191194534
12.0,0.03917999565601349
13.0,0.03735079988837242
14.0,0.035711437463760376
15.0,0.03425640985369682
16.0,0.03296056017279625
18.0,0.030787169933319092
20.0,0.029102150350809097
22.0,0.02799256704747677
24.0,0.02697349525988102
26.0,0.02591327764093876
28.0,0.024667441844940186
30.0,0.023499008268117905
32.0,0.022315479815006256
36.0,0.020692411810159683
40.0,0.01920311152935028
44.0,0.017013687640428543
48.0,0.015596630051732063
52.0,0.014280997216701508
56.0,0.013549781404435635
60.0,0.013229495845735073
64.0,0.012797878123819828
72.0,0.011467205360531807
80.0,0.01024725753813982
88.0,0.008131971582770348
96.0,0.008717948570847511
104.0,0.009267265908420086
112.0,0.009464732371270657
120.0,0.008607004769146442
128.0,0.008295634761452675
144.0,0.009982394985854626
160.0,0.010388991795480251
176.0,0.009343401528894901
192.0,0.006619610358029604
208.0,0.0055645485408604145
224.0,0.0048980419524014
240.0,0.0032378488685935736
256.0,0.005030560307204723
288.0,0.004799878224730492
320.0,0.006367980036884546
352.0,0.0049599045887589455
384.0,0.004768169950693846
416.0,0.0004508172860369086
448.0,0.0032556788064539433
480.0,0.0043616099283099174
512.0,0.0019519251072779298
576.0,-0.00043900005402974784
640.0,0.00037981648347340524
704.0,-0.0011401381343603134
768.0,-0.0006385312881320715
832.0,0.002829683944582939
896.0,0.003463968401774764
960.0,0.004862215369939804
1024.0,0.0013153208419680595
1152.0,0.0019485634984448552
1280.0,0.0021265558898448944
1408.0,0.0012985345674678683
1536.0,0.0021831488702446222
1664.0,0.0004952524905093014
1792.0,0.002009538235142827
1920.0,0.00025519588962197304
2048.0,-0.002529775956645608
2304.0,-0.0025426095817238092
2560.0,0.0008095774101093411
2816.0,0.001819412223994732
3072.0,-0.0005724438233301044
3328.0,1.8091866877512075e-05
3584.0,0.002248830161988735
3840.0,0.0005795517354272306
4096.0,-0.0006121016922406852
4608.0,0.0002873954945243895
5120.0,-0.0024588319938629866
5632.0,-0.005504351109266281
6144.0,-0.004443402402102947
6656.0,-0.0021742621902376413
7168.0,-0.003190753748640418
7680.0,-0.0004758425347972661
8192.0,-0.003123432630673051
end
