version,3.0
numOfCh,1
type,point
parent_name,0cd20_1dot0-0dot1
ch_type,1_1
kcount,1
numberNandB,1
brightnessNandB,1
carpet pos,0
pc,0
Time (ms),CH1 Auto-Correlation
1.0,0.10396664589643478
2.0,0.09687094390392303
3.0,0.09074236452579498
4.0,0.08539517968893051
5.0,0.080623559653759
6.0,0.0765485167503357
7.0,0.07276896387338638
8.0,0.06942497938871384
9.0,0.06623649597167969
10.0,0.063450887799263
11.0,0.06076080724596977
12.0,0.05824064090847969
13.0,0.05569537729024887
14.0,0.05323556065559387
15.0,0.05108509585261345
16.0,0.04924184828996658
18.0,0.04629828408360481
20.0,0.0428340882062912
22.0,0.03934948891401291
24.0,0.036872319877147675
26.0,0.034117937088012695
28.0,0.03177952021360397
30.0,0.03035571239888668
32.0,0.02944595366716385
36.0,0.02833326905965805
40.0,0.027863850817084312
44.0,0.02663472294807434
48.0,0.025039903819561005
52.0,0.023484526202082634
56.0,0.021172689273953438
60.0,0.01975160837173462
64.0,0.018532905727624893
72.0,0.016118178144097328
80.0,0.01558171957731247
88.0,0.015240139327943325
96.0,0.013815212063491344
104.0,0.011122276075184345
112.0,0.00762177724391222
120.0,0.005667765624821186
128.0,0.004677601158618927
144.0,0.0017120223492383957
160.0,-0.0010959017090499401
176.0,0.0008513176580891013
192.0,0.005449629854410887
208.0,0.007978730835020542
224.0,0.010922381654381752
240.0,0.010533814318478107
256.0,0.011177758686244488
288.0,0.009159253910183907
320.0,0.009672108106315136
352.0,0.007907538674771786
384.0,0.008665382862091064
416.0,0.010160580277442932
448.0,0.0036812967155128717
480.0,-0.00013272090291138738
512.0,-0.002287516836076975
576.0,-0.0001491779403295368
640.0,0.0006054806290194392
704.0,0.00040650111623108387
768.0,-0.004206972662359476
832.0,-0.007982145063579082
896.0,-0.006573254708200693
960.0,-0.006167154759168625
1024.0,-0.0022276125382632017
1152.0,-0.004602543544024229
1280.0,-0.005140361841768026
1408.0,-0.00022989521676208824
1536.0,-0.0005551574868150055
1664.0,-0.004803495015949011
1792.0,-0.0026106976438313723
1920.0,-0.003686540760099888
2048.0,-0.0029086798895150423
2304.0,-0.004606544505804777
2560.0,-0.00188356579747051
2816.0,-0.0027129834052175283
3072.0,-0.0004186492005828768
3328.0,0.002457520691677928
3584.0,0.001117059146054089
3840.0,-0.0033167661167681217
4096.0,-0.0037441402673721313
4608.0,0.004325049463659525
5120.0,0.010352308861911297
5632.0,-0.0013250160263851285
6144.0,-0.006732941139489412
6656.0,-0.0036410344764590263
7168.0,0.0005431232275441289
7680.0,-0.0014265059726312757
8192.0,0.005089275073260069
end
