version,3.0
numOfCh,1
type,point
parent_name,0cd20_1dot0-0dot1
ch_type,1_1
kcount,1
numberNandB,1
brightnessNandB,1
carpet pos,0
pc,0
Time (ms),CH1 Auto-Correlation
1.0,0.09271720796823502
2.0,0.08579313009977341
3.0,0.07985211163759232
4.0,0.07463645935058594
5.0,0.07001446187496185
6.0,0.06607021391391754
7.0,0.06217427924275398
8.0,0.05863705277442932
9.0,0.05537734925746918
10.0,0.05279418081045151
11.0,0.05029365047812462
12.0,0.048007380217313766
13.0,0.0459117516875267
14.0,0.04391355440020561
15.0,0.04200279340147972
16.0,0.04005556181073189
18.0,0.03688880056142807
20.0,0.03402147442102432
22.0,0.031246725469827652
24.0,0.02892785146832466
26.0,0.027014438062906265
28.0,0.025303037837147713
30.0,0.023696130141615868
32.0,0.022064147517085075
36.0,0.01986449398100376
40.0,0.017725521698594093
44.0,0.01523909717798233
48.0,0.014183077961206436
52.0,0.014188863337039948
56.0,0.013649714179337025
60.0,0.013291195034980774
64.0,0.012996490113437176
72.0,0.01217056717723608
80.0,0.010079529136419296
88.0,0.007587962783873081
96.0,0.005858953110873699
104.0,0.006255087908357382
112.0,0.005492771044373512
120.0,0.00398066733032465
128.0,0.003255013609305024
144.0,0.002639536978676915
160.0,0.0028289719484746456
176.0,0.0002997606061398983
192.0,-0.000757706118747592
208.0,-0.0022264872677624226
224.0,-0.004906166344881058
240.0,-0.00449723843485117
256.0,-0.0036340521182864904
288.0,-0.0005310643464326859
320.0,0.0005321513745002449
352.0,-0.0016871674451977015
384.0,0.002018966479226947
416.0,0.002814504085108638
448.0,0.005728245247155428
480.0,0.007607320789247751
512.0,0.006930227857083082
576.0,0.005810721777379513
640.0,0.0006927307113073766
704.0,0.000517892767675221
768.0,0.0013908710097894073
832.0,-0.0020386178512126207
896.0,-0.0031179762445390224
960.0,-0.002164810197427869
1024.0,0.003776154015213251
1152.0,0.0014876869972795248
1280.0,-0.00034220589441247284
1408.0,-0.0026572400238364935
1536.0,-0.002986435079947114
1664.0,-0.0010075317695736885
1792.0,0.0009758931118994951
1920.0,-0.0016028444515541196
2048.0,-0.006127537693828344
2304.0,-0.0029217523988336325
2560.0,-0.0002194418921135366
2816.0,0.0016344878822565079
3072.0,0.0020867064595222473
3328.0,-7.923254452180117e-05
3584.0,0.0013559232465922832
3840.0,-0.003636737586930394
4096.0,0.0012942827306687832
4608.0,0.00029223927413113415
5120.0,-0.0011286420049145818
5632.0,-0.0016901043709367514
6144.0,-0.0029820005875080824
6656.0,-0.0025154815521091223
7168.0,-0.0012798322131857276
7680.0,0.001988128060474992
8192.0,0.0005184438778087497
end
