version,3.0
numOfCh,1
type,point
parent_name,0cd20_1dot0-0dot1
ch_type,1_1
kcount,1
numberNandB,1
brightnessNandB,1
carpet pos,0
pc,0
Time (ms),CH1 Auto-Correlation
1.0,0.09432672709226608
2.0,0.0876045897603035
3.0,0.08164773881435394
4.0,0.07659373432397842
5.0,0.07243040204048157
6.0,0.06916940212249756
7.0,0.06627235561609268
8.0,0.06361423432826996
9.0,0.06099057197570801
10.0,0.05874986574053764
11.0,0.05669010430574417
12.0,0.054745275527238846
13.0,0.05312928184866905
14.0,0.05133853852748871
15.0,0.0497439019382
16.0,0.048329245299100876
18.0,0.04571375250816345
20.0,0.04372439906001091
22.0,0.041706301271915436
24.0,0.04014440253376961
26.0,0.03840985521674156
28.0,0.03627103939652443
30.0,0.0345061831176281
32.0,0.03303883597254753
36.0,0.02902100794017315
40.0,0.02566949650645256
44.0,0.022743703797459602
48.0,0.02037777006626129
52.0,0.018193719908595085
56.0,0.016115538775920868
60.0,0.014315634034574032
64.0,0.012165365740656853
72.0,0.010828753001987934
80.0,0.009300309233367443
88.0,0.009589552879333496
96.0,0.009847881272435188
104.0,0.009065663442015648
112.0,0.007273655850440264
120.0,0.006444110069423914
128.0,0.005243717227131128
144.0,0.0015964559279382229
160.0,0.0014513643691316247
176.0,0.0026573576033115387
192.0,0.005692129489034414
208.0,0.004595620092004538
224.0,0.003993858117610216
240.0,0.00424467958509922
256.0,0.005747718270868063
288.0,0.005043630953878164
320.0,-0.000512214086484164
352.0,-0.0021834822837263346
384.0,-0.0018972547259181738
416.0,0.00043027353240177035
448.0,-0.000945559237152338
480.0,-0.000707548635546118
512.0,0.0013641937403008342
576.0,0.005415336228907108
640.0,0.0020663810428231955
704.0,0.00013437680900096893
768.0,-0.001467046677134931
832.0,-4.477344191400334e-05
896.0,-9.846811735769734e-05
960.0,9.591136040398851e-05
1024.0,-0.003253067145124078
1152.0,-0.005897270515561104
1280.0,0.0014230817323550582
1408.0,0.0031208100263029337
1536.0,0.006707117427140474
1664.0,0.0008279521134682
1792.0,-0.005074175540357828
1920.0,-0.006363734137266874
2048.0,-0.0045121777802705765
2304.0,0.003456289181485772
2560.0,0.00010830409155460075
2816.0,0.0011989206541329622
3072.0,-0.0005333567387424409
3328.0,-0.005881527438759804
3584.0,-0.0009786193259060383
3840.0,0.0015543793560937047
4096.0,-0.0025423087645322084
4608.0,-0.00559018412604928
5120.0,-0.0038182877469807863
5632.0,-0.0016463027568534017
6144.0,0.0001937816123245284
6656.0,0.0039469217881560326
7168.0,-0.0031529185362160206
7680.0,-0.0016801611054688692
8192.0,0.0022275487426668406
end
