version,3.0
numOfCh,1
type,point
parent_name,0cd20_1dot0-0dot1
ch_type,1_1
kcount,1
numberNandB,1
brightnessNandB,1
carpet pos,0
pc,0
Time (ms),CH1 Auto-Correlation
1.0,0.10572481900453568
2.0,0.09765449166297913
3.0,0.09097792208194733
4.0,0.0846298485994339
5.0,0.07860634475946426
6.0,0.07391082495450974
7.0,0.06995110213756561
8.0,0.06558536738157272
9.0,0.06130525842308998
10.0,0.05827908217906952
11.0,0.055973559617996216
12.0,0.053699761629104614
13.0,0.05173828825354576
14.0,0.050013743340969086
15.0,0.04866509884595871
16.0,0.047145869582891464
18.0,0.04466435685753822
20.0,0.042219553142786026
22.0,0.03956400975584984
24.0,0.03705766424536705
26.0,0.034640613943338394
28.0,0.03208980709314346
30.0,0.029685257002711296
32.0,0.027666812762618065
36.0,0.02666349522769451
40.0,0.026459550485014915
44.0,0.025274623185396194
48.0,0.02397124283015728
52.0,0.022401129826903343
56.0,0.02223147638142109
60.0,0.020615149289369583
64.0,0.018207455053925514
72.0,0.014727112837135792
80.0,0.01104424986988306
88.0,0.008892645128071308
96.0,0.009101119823753834
104.0,0.006475112400949001
112.0,0.004161258228123188
120.0,0.002339096972718835
128.0,0.002868048846721649
144.0,-0.00025705265579745173
160.0,0.000517672102432698
176.0,0.0007284983294084668
192.0,0.0022717444226145744
208.0,0.004447073210030794
224.0,0.0034088632091879845
240.0,0.006965868640691042
256.0,0.004893039353191853
288.0,0.002610302995890379
320.0,0.0016927241813391447
352.0,0.002768282312899828
384.0,0.0036254876758903265
416.0,0.00030403307755477726
448.0,-0.0008131805807352066
480.0,-0.0012304981937631965
512.0,0.0013707210309803486
576.0,0.00740777887403965
640.0,0.006245588418096304
704.0,0.0007982715615071356
768.0,0.00039330433355644345
832.0,0.0019941767677664757
896.0,-0.0009056264534592628
960.0,-0.0032768824603408575
1024.0,-0.007973668165504932
1152.0,0.0013451778795570135
1280.0,0.0012731276219710708
1408.0,-0.0004324039036873728
1536.0,0.0025605186820030212
1664.0,-0.008968006819486618
1792.0,-0.0016542583471164107
1920.0,-0.00807820912450552
2048.0,-0.0004198764218017459
2304.0,-0.002205043099820614
2560.0,-0.001436324673704803
2816.0,-0.0019017133163288236
3072.0,-0.002992745256051421
3328.0,-0.003007100895047188
3584.0,-0.000340568512910977
3840.0,0.0031629351433366537
4096.0,0.0026949173770844936
4608.0,1.3845651665178593e-05
5120.0,0.0036568748764693737
5632.0,0.00027555375709198415
6144.0,0.002438195049762726
6656.0,0.00036543849273584783
7168.0,-0.0011895730858668685
7680.0,-0.003350502112880349
8192.0,-0.002873215591534972
end
