version,3.0
numOfCh,1
type,point
parent_name,0cd20_1dot0-0dot1
ch_type,1_1
kcount,1
numberNandB,1
brightnessNandB,1
carpet pos,0
pc,0
Time (ms),CH1 Auto-Correlation
1.0,0.08523199707269669
2.0,0.07857462018728256
3.0,0.07289599627256393
4.0,0.06801706552505493
5.0,0.06376240402460098
6.0,0.06006886437535286
7.0,0.05692882835865021
8.0,0.05389722064137459
9.0,0.05127633735537529
10.0,0.04887384921312332
11.0,0.0466826893389225
12.0,0.044740431010723114
13.0,0.04272102192044258
14.0,0.040894731879234314
15.0,0.03912665322422981
16.0,0.03750425949692726
18.0,0.03459694981575012
20.0,0.03235278278589249
22.0,0.030746236443519592
24.0,0.029511237516999245
26.0,0.027832230553030968
28.0,0.025736896321177483
30.0,0.024161189794540405
32.0,0.023358125239610672
36.0,0.02230377495288849
40.0,0.020445752888917923
44.0,0.018529361113905907
48.0,0.01718931645154953
52.0,0.016619184985756874
56.0,0.01545980665832758
60.0,0.015325203537940979
64.0,0.014827355742454529
72.0,0.011787651106715202
80.0,0.00989937037229538
88.0,0.009274547919631004
96.0,0.008999480865895748
104.0,0.008681777864694595
112.0,0.008239963091909885
120.0,0.007575437892228365
128.0,0.006819489412009716
144.0,0.003936643246561289
160.0,0.001136746839620173
176.0,0.0014256921131163836
192.0,0.002012059325352311
208.0,0.0013013251591473818
224.0,0.0001468267582822591
240.0,8.56602764542913e-06
256.0,0.0003771972842514515
288.0,0.001982658402994275
320.0,0.0020174114033579826
352.0,0.001876825001090765
384.0,0.0031773580703884363
416.0,0.0009221566142514348
448.0,0.0011034063063561916
480.0,0.001012828084640205
512.0,0.0012524911435320973
576.0,-0.0023065877612680197
640.0,-0.003211247269064188
704.0,-0.00013511769066099077
768.0,0.0028068001847714186
832.0,0.0049475980922579765
896.0,-7.472795550711453e-05
960.0,-0.0026147349271923304
1024.0,0.0005982723087072372
1152.0,0.0004829591780435294
1280.0,0.0002736756869126111
1408.0,-0.0017999758711084723
1536.0,-0.0038648671470582485
1664.0,-0.000319320970447734
1792.0,-0.002985656261444092
1920.0,0.001593832392245531
2048.0,-0.004934416152536869
2304.0,0.002590735210105777
2560.0,0.00118220504373312
2816.0,9.409340236743446e-06
3072.0,0.00173557223752141
3328.0,-0.004356655292212963
3584.0,0.0006434167735278606
3840.0,-0.0058197141624987125
4096.0,-0.0015655356692150235
4608.0,-0.0034874598495662212
5120.0,0.0007859733304940164
5632.0,-0.0008842138922773302
6144.0,-0.0003042346506845206
6656.0,-0.0009241072693839669
7168.0,0.0008872218313626945
7680.0,0.004349103197455406
8192.0,0.00423096027225256
end
