version,3.0
numOfCh,1
type,point
parent_name,0cd20_1dot0-0dot1
ch_type,1_1
kcount,1
numberNandB,1
brightnessNandB,1
carpet pos,0
pc,0
Time (ms),CH1 Auto-Correlation
1.0,0.1251818984746933
2.0,0.11735589802265167
3.0,0.11047110706567764
4.0,0.10441689938306808
5.0,0.0991741493344307
6.0,0.09453622251749039
7.0,0.09040471911430359
8.0,0.08678928017616272
9.0,0.0835370346903801
10.0,0.08026546984910965
11.0,0.07722742855548859
12.0,0.07445798814296722
13.0,0.07206510007381439
14.0,0.0696907714009285
15.0,0.06741473078727722
16.0,0.06546955555677414
18.0,0.06136523559689522
20.0,0.05796409025788307
22.0,0.05539323017001152
24.0,0.05280124396085739
26.0,0.050623517483472824
28.0,0.04867091774940491
30.0,0.047003474086523056
32.0,0.04495362564921379
36.0,0.041942790150642395
40.0,0.039864249527454376
44.0,0.03668840974569321
48.0,0.03433331847190857
52.0,0.03322552144527435
56.0,0.032194674015045166
60.0,0.03073233738541603
64.0,0.02921561524271965
72.0,0.02454165555536747
80.0,0.020776590332388878
88.0,0.018009910359978676
96.0,0.016483809798955917
104.0,0.015106244944036007
112.0,0.013673845678567886
120.0,0.012357448227703571
128.0,0.01069810800254345
144.0,0.00822104886174202
160.0,0.008169814012944698
176.0,0.0058266883715987206
192.0,0.0053895930759608746
208.0,0.004098689649254084
224.0,0.00724369753152132
240.0,0.009175124578177929
256.0,0.011866691522300243
288.0,0.00991054531186819
320.0,0.008828801102936268
352.0,-0.00043804189772345126
384.0,-0.0013138091890141368
416.0,-0.001497003366239369
448.0,-0.0052814846858382225
480.0,-0.010482301004230976
512.0,-0.012480076402425766
576.0,-0.006307041272521019
640.0,-0.0005276294541545212
704.0,0.0039682332426309586
768.0,0.0004908780101686716
832.0,-0.001769309164956212
896.0,-0.007444898132234812
960.0,-0.004378612153232098
1024.0,-0.0023417570628225803
1152.0,0.0015533140394836664
1280.0,0.008093643933534622
1408.0,0.010077609680593014
1536.0,0.011999796144664288
1664.0,0.001634803251363337
1792.0,-0.007591928355395794
1920.0,-0.005437134765088558
2048.0,-0.009289545938372612
2304.0,-0.002381093567237258
2560.0,7.474132144125178e-05
2816.0,0.002955567790195346
3072.0,0.0007041121716611087
3328.0,-0.008287535980343819
3584.0,-0.007400587201118469
3840.0,0.005489003378897905
4096.0,0.005510283634066582
4608.0,-0.005923290271311998
5120.0,-0.0060281045734882355
5632.0,0.010945736430585384
6144.0,-0.002169789979234338
6656.0,-0.0009548841044306755
7168.0,0.00564892403781414
7680.0,-0.0027289241552352905
8192.0,-0.005652655381709337
end
