version,3.0
numOfCh,1
type,point
parent_name,0cd20_1dot0-0dot1
ch_type,1_1
kcount,1
numberNandB,1
brightnessNandB,1
carpet pos,0
pc,0
Time (ms),CH1 Auto-Correlation
1.0,0.09894360601902008
2.0,0.09178721904754639
3.0,0.08581802248954773
4.0,0.08039312064647675
5.0,0.07549528032541275
6.0,0.07130955159664154
7.0,0.06777402758598328
8.0,0.06437962502241135
9.0,0.061280250549316406
10.0,0.05861994996666908
11.0,0.05603668466210365
12.0,0.053606417030096054
13.0,0.05152062699198723
14.0,0.04940719157457352
15.0,0.04748932272195816
16.0,0.04545564949512482
18.0,0.04178135469555855
20.0,0.03877709433436394
22.0,0.03586483374238014
24.0,0.033357493579387665
26.0,0.031008519232273102
28.0,0.02935468591749668
30.0,0.02809988521039486
32.0,0.02666965313255787
36.0,0.023015202954411507
40.0,0.020422769710421562
44.0,0.018002454191446304
48.0,0.015370560809969902
52.0,0.013546003960072994
56.0,0.013308312743902206
60.0,0.013860680162906647
64.0,0.01517199445515871
72.0,0.0149121955037117
80.0,0.013786369003355503
88.0,0.01276263128966093
96.0,0.012016591615974903
104.0,0.011545857414603233
112.0,0.012194022536277771
120.0,0.011870511807501316
128.0,0.011896788142621517
144.0,0.008027607575058937
160.0,0.003137094434350729
176.0,0.002089747926220298
192.0,0.004361245781183243
208.0,0.005725381895899773
224.0,0.008552205748856068
240.0,0.01004919782280922
256.0,0.010365358553826809
288.0,0.008574042469263077
320.0,0.005448880605399609
352.0,0.003993184305727482
384.0,0.0033139330334961414
416.0,0.003965931013226509
448.0,0.004288162104785442
480.0,-0.0001463164808228612
512.0,-0.0011058625532314181
576.0,0.0003670091391541064
640.0,-0.001418052357621491
704.0,0.0018205278320237994
768.0,-0.00011706111399689689
832.0,0.004908900707960129
896.0,0.005711505189538002
960.0,0.005441333632916212
1024.0,0.004893321543931961
1152.0,0.008997412398457527
1280.0,0.004173177294433117
1408.0,0.0035234736278653145
1536.0,0.003288507228717208
1664.0,0.0012085514608770609
1792.0,0.0030427947640419006
1920.0,-0.0022579538635909557
2048.0,0.0036229670513421297
2304.0,0.0012711434392258525
2560.0,-0.0007411600090563297
2816.0,-0.002715488662943244
3072.0,-0.0015490184305235744
3328.0,0.004619748331606388
3584.0,0.0031194232869893312
3840.0,-0.0035078544169664383
4096.0,-0.004485364072024822
4608.0,-0.003784807398915291
5120.0,-0.00521593913435936
5632.0,0.000394881353713572
6144.0,-0.007062739692628384
6656.0,-0.0015991736436262727
7168.0,-0.0019589297007769346
7680.0,-0.00024318366195075214
8192.0,-0.0077589405700564384
end
