version,3.0
numOfCh,1
type,point
parent_name,0cd20_1dot0-0dot1
ch_type,1_1
kcount,1
numberNandB,1
brightnessNandB,1
carpet pos,0
pc,0
Time (ms),CH1 Auto-Correlation
1.0,0.08531259745359421
2.0,0.07860612869262695
3.0,0.07306715846061707
4.0,0.06842821836471558
5.0,0.064292773604393
6.0,0.06055063754320145
7.0,0.05735406279563904
8.0,0.05459023267030716
9.0,0.05227012559771538
10.0,0.05033492296934128
11.0,0.04823607578873634
12.0,0.046412136405706406
13.0,0.044706862419843674
14.0,0.04319675639271736
15.0,0.04152737557888031
16.0,0.03986864537000656
18.0,0.03691034018993378
20.0,0.034118395298719406
22.0,0.03156064450740814
24.0,0.029513871297240257
26.0,0.027833616361021996
28.0,0.026582852005958557
30.0,0.025318441912531853
32.0,0.02422613464295864
36.0,0.021557563915848732
40.0,0.01899835653603077
44.0,0.01602788455784321
48.0,0.01452704705297947
52.0,0.01310734637081623
56.0,0.012272873893380165
60.0,0.0112477857619524
64.0,0.009981682524085045
72.0,0.007418788969516754
80.0,0.004356715362519026
88.0,0.003265257691964507
96.0,0.0031418590806424618
104.0,0.0025895806029438972
112.0,0.0025657902006059885
120.0,0.003825188148766756
128.0,0.003843822283670306
144.0,0.0030896635726094246
160.0,0.0015101227909326553
176.0,0.0008636258426122367
192.0,0.0026282311882823706
208.0,0.002550310455262661
224.0,0.0014372674049809575
240.0,-0.000379686476662755
256.0,-0.00044719281140714884
288.0,0.001131210708990693
320.0,0.003966095857322216
352.0,0.004417612217366695
384.0,0.004888271912932396
416.0,0.0028086986858397722
448.0,0.00043614726746454835
480.0,-0.0026099770329892635
512.0,-0.0006216295878402889
576.0,0.00032214721431955695
640.0,0.0016002824995666742
704.0,0.0017925945576280355
768.0,0.0009113049600273371
832.0,-0.0018671874422580004
896.0,0.0005107630277052522
960.0,-0.0018298219656571746
1024.0,-0.0026783288922160864
1152.0,0.00041839940240606666
1280.0,-0.00029376347083598375
1408.0,-0.002045518020167947
1536.0,0.005352080799639225
1664.0,0.0005317717441357672
1792.0,-0.0011602559825405478
1920.0,0.004877116065472364
2048.0,0.00160015479195863
2304.0,0.0022637969814240932
2560.0,-0.0016446512890979648
2816.0,0.0005416212952695787
3072.0,-0.0028083003126084805
3328.0,-0.0014693825505673885
3584.0,-0.0016894412692636251
3840.0,0.0017470184247940779
4096.0,-0.0005681021139025688
4608.0,0.0005807215347886086
5120.0,-0.004094510339200497
5632.0,0.0012265925761312246
6144.0,0.004269490949809551
6656.0,0.0016958772903308272
7168.0,-0.003423914313316345
7680.0,0.0012833011569455266
8192.0,-0.0012642423389479518
end
