version,3.0
numOfCh,1
type,point
parent_name,0cd20_1dot0-0dot1
ch_type,1_1
kcount,1
numberNandB,1
brightnessNandB,1
carpet pos,0
pc,0
Time (ms),CH1 Auto-Correlation
1.0,0.1021319106221199
2.0,0.09475473314523697
3.0,0.08844983577728271
4.0,0.08316711336374283
5.0,0.07852540910243988
6.0,0.07446599751710892
7.0,0.07103468477725983
8.0,0.06801822781562805
9.0,0.06551198661327362
10.0,0.0634339228272438
11.0,0.06110505387187004
12.0,0.0589098259806633
13.0,0.05706391483545303
14.0,0.05526849627494812
15.0,0.05360361188650131
16.0,0.0521627776324749
18.0,0.04955676570534706
20.0,0.047305237501859665
22.0,0.04547726735472679
24.0,0.04376320540904999
26.0,0.04240354523062706
28.0,0.040191665291786194
30.0,0.03825771063566208
32.0,0.0366099551320076
36.0,0.035333722829818726
40.0,0.033852025866508484
44.0,0.03199384734034538
48.0,0.030274007469415665
52.0,0.028626589104533195
56.0,0.0272922795265913
60.0,0.026474468410015106
64.0,0.026913706213235855
72.0,0.02945517562329769
80.0,0.029178068041801453
88.0,0.028091350570321083
96.0,0.02653067745268345
104.0,0.024282488971948624
112.0,0.02241995744407177
120.0,0.0202034842222929
128.0,0.018272198736667633
144.0,0.016105664893984795
160.0,0.01241002045571804
176.0,0.011231666430830956
192.0,0.013926776126027107
208.0,0.014230938628315926
224.0,0.014608972705900669
240.0,0.01248359214514494
256.0,0.011556330136954784
288.0,0.008779028430581093
320.0,0.008531895466148853
352.0,0.012649362906813622
384.0,0.012201465666294098
416.0,0.007491297088563442
448.0,0.010518770664930344
480.0,0.010142752900719643
512.0,0.005456946790218353
576.0,0.005293533205986023
640.0,0.008030995726585388
704.0,0.006407922133803368
768.0,0.003108005505055189
832.0,0.0014542464632540941
896.0,-0.0020037207286804914
960.0,-0.0032699627336114645
1024.0,-0.005141363944858313
1152.0,-0.003255631309002638
1280.0,-0.0012428099289536476
1408.0,-0.0010364385088905692
1536.0,-0.002606669208034873
1664.0,-0.0045195817947387695
1792.0,-0.0060058170929551125
1920.0,-0.005135581828653812
2048.0,-0.004558520391583443
2304.0,-0.0010126164415851235
2560.0,-0.002781301038339734
2816.0,-0.0023392324801534414
3072.0,0.0026112354826182127
3328.0,0.0028490221593528986
3584.0,0.005022725090384483
3840.0,0.002233089879155159
4096.0,-0.0002495834487490356
4608.0,-0.0041762664914131165
5120.0,-0.0017978015821427107
5632.0,-0.0008439832599833608
6144.0,0.0001621618721401319
6656.0,0.004208339843899012
7168.0,-0.011043170467019081
7680.0,-0.007202013861387968
8192.0,0.006614362355321646
end
