version,3.0
numOfCh,1
type,point
parent_name,0cd20_1dot0-0dot1
ch_type,1_1
kcount,1
numberNandB,1
brightnessNandB,1
carpet pos,0
pc,0
Time (ms),CH1 Auto-Correlation
1.0,0.08719045668840408
2.0,0.08015984296798706
3.0,0.07445977628231049
4.0,0.06929849833250046
5.0,0.06501512974500656
6.0,0.061048224568367004
7.0,0.05741056054830551
8.0,0.05432475358247757
9.0,0.051927972584962845
10.0,0.049718357622623444
11.0,0.04793595150113106
12.0,0.0461704395711422
13.0,0.04439443722367287
14.0,0.042924292385578156
15.0,0.041495922952890396
16.0,0.040215518325567245
18.0,0.037695541977882385
20.0,0.03531987965106964
22.0,0.03309967368841171
24.0,0.031166475266218185
26.0,0.029343130066990852
28.0,0.028056640177965164
30.0,0.026866663247346878
32.0,0.025914117693901062
36.0,0.024567315354943275
40.0,0.02251872420310974
44.0,0.02037390135228634
48.0,0.01839086040854454
52.0,0.016619428992271423
56.0,0.015464268624782562
60.0,0.013719397597014904
64.0,0.01292117778211832
72.0,0.010961126536130905
80.0,0.009788461960852146
88.0,0.007772163953632116
96.0,0.006382747087627649
104.0,0.005196945741772652
112.0,0.005789834074676037
120.0,0.005233460571616888
128.0,0.0017259101150557399
144.0,0.0010683400323614478
160.0,0.0016827089712023735
176.0,0.0005368611891753972
192.0,0.0012377171078696847
208.0,0.0027492481749504805
224.0,0.003289248561486602
240.0,0.004210375249385834
256.0,0.004289825446903706
288.0,0.005799498409032822
320.0,0.002931340364739299
352.0,0.0025893792044371367
384.0,0.0031680818647146225
416.0,0.0010962109081447124
448.0,0.0009648408158682287
480.0,0.0013627690495923162
512.0,-0.0023288107477128506
576.0,-0.0017682639881968498
640.0,0.0046411193907260895
704.0,0.00279413815587759
768.0,0.0009207637631334364
832.0,-0.005929900333285332
896.0,-0.003876887494698167
960.0,-0.0008604350732639432
1024.0,-0.0010636940132826567
1152.0,-0.0018673795275390148
1280.0,0.0021330006420612335
1408.0,0.001925082178786397
1536.0,0.0016760217258706689
1664.0,0.0033457474783062935
1792.0,0.0016350894002243876
1920.0,-0.000555523787625134
2048.0,0.0003765615983866155
2304.0,-0.005064422730356455
2560.0,-0.00628517335280776
2816.0,-1.7911879695020616e-05
3072.0,-0.005725171882659197
3328.0,0.00016275487723760307
3584.0,-0.0011548841139301658
3840.0,-0.002797449240460992
4096.0,-0.0036550804506987333
4608.0,-8.370129944523796e-05
5120.0,0.0025408174842596054
5632.0,0.0010818812297657132
6144.0,0.0010255075758323073
6656.0,0.005169641226530075
7168.0,0.0004907139227725565
7680.0,0.0017921815160661936
8192.0,0.001716870116069913
end
