version,3.0
numOfCh,1
type,point
parent_name,0cd20_1dot0-0dot1
ch_type,1_1
kcount,1
numberNandB,1
brightnessNandB,1
carpet pos,0
pc,0
Time (ms),CH1 Auto-Correlation
1.0,0.1068577766418457
2.0,0.09844642877578735
3.0,0.09178446233272552
4.0,0.08547993749380112
5.0,0.07921073585748672
6.0,0.07377786934375763
7.0,0.06883976608514786
8.0,0.06423766911029816
9.0,0.06055379658937454
10.0,0.057639602571725845
11.0,0.05478290095925331
12.0,0.051987357437610626
13.0,0.05004129186272621
14.0,0.04825283959507942
15.0,0.04639792814850807
16.0,0.04433019831776619
18.0,0.04087718948721886
20.0,0.0377671979367733
22.0,0.0351901613175869
24.0,0.033193595707416534
26.0,0.031739603728055954
28.0,0.03060133568942547
30.0,0.029648473486304283
32.0,0.028554527088999748
36.0,0.02593761868774891
40.0,0.02347532846033573
44.0,0.020765844732522964
48.0,0.018223842605948448
52.0,0.01555145625025034
56.0,0.013451558537781239
60.0,0.012458089739084244
64.0,0.01181040983647108
72.0,0.00946602039039135
80.0,0.0075107840821146965
88.0,0.005381075199693441
96.0,0.005629830993711948
104.0,0.00457283528521657
112.0,0.002546191681176424
120.0,0.0012838635593652725
128.0,0.00016748718917369843
144.0,0.0015974061097949743
160.0,0.002397712552919984
176.0,0.0026033497415483
192.0,0.0013395868008956313
208.0,0.001738995430059731
224.0,0.0015065961051732302
240.0,0.0004672998911701143
256.0,0.0015130172250792384
288.0,-0.0024209413677453995
320.0,-0.004166333936154842
352.0,-0.005632000043988228
384.0,-0.003294274676591158
416.0,-0.001431950251571834
448.0,0.0002885981521103531
480.0,-2.5487856873951387e-06
512.0,-0.0022670046892017126
576.0,-0.0036957873962819576
640.0,-0.004208902828395367
704.0,-0.0055123851634562016
768.0,-0.0031287330202758312
832.0,-0.0023008151911199093
896.0,-0.004125708248466253
960.0,-0.004325656685978174
1024.0,-0.0006610405980609357
1152.0,-0.00265870220027864
1280.0,-0.003076676744967699
1408.0,-0.0008074110373854637
1536.0,0.004938852973282337
1664.0,0.006956287194043398
1792.0,0.002686112653464079
1920.0,0.005791461560875177
2048.0,-1.5185751180979423e-05
2304.0,-0.005054102744907141
2560.0,-0.0022987332195043564
2816.0,-0.004083390813320875
3072.0,0.0030574642587453127
3328.0,0.0034067218657583
3584.0,0.004204510245472193
3840.0,-0.002825320465490222
4096.0,-0.004428877495229244
4608.0,0.0009964605560526252
5120.0,0.0018423203146085143
5632.0,-0.004152748268097639
6144.0,0.0020989172626286745
6656.0,0.003807204542681575
7168.0,-0.004645104054361582
7680.0,-0.0039030960761010647
8192.0,0.0064001199789345264
end
