version,3.0
numOfCh,1
type,point
parent_name,0cd20_1dot0-0dot1
ch_type,1_1
kcount,1
numberNandB,1
brightnessNandB,1
carpet pos,0
pc,0
Time (ms),CH1 Auto-Correlation
1.0,0.08847419172525406
2.0,0.08155975490808487
3.0,0.07563610374927521
4.0,0.07063674181699753
5.0,0.06639670580625534
6.0,0.06276869773864746
7.0,0.05962035432457924
8.0,0.056643325835466385
9.0,0.05393873527646065
10.0,0.05147108435630798
11.0,0.049090318381786346
12.0,0.0465952567756176
13.0,0.04438065364956856
14.0,0.04229694977402687
15.0,0.04042455926537514
16.0,0.03864484280347824
18.0,0.03570195659995079
20.0,0.03336159884929657
22.0,0.030932605266571045
24.0,0.028892841190099716
26.0,0.027075722813606262
28.0,0.025598937645554543
30.0,0.02444547787308693
32.0,0.023474358022212982
36.0,0.022742273285984993
40.0,0.021919282153248787
44.0,0.021523743867874146
48.0,0.020306924358010292
52.0,0.01939806155860424
56.0,0.01804308407008648
60.0,0.017257174476981163
64.0,0.016639772802591324
72.0,0.012643887661397457
80.0,0.011320101097226143
88.0,0.010558174923062325
96.0,0.009560520760715008
104.0,0.009743998758494854
112.0,0.009866115637123585
120.0,0.00841707643121481
128.0,0.006166219711303711
144.0,0.006969352252781391
160.0,0.007202355191111565
176.0,0.0058536105789244175
192.0,0.005111261270940304
208.0,0.004362501669675112
224.0,0.0045626224018633366
240.0,0.005749796982854605
256.0,0.005652574356645346
288.0,0.007974616251885891
320.0,0.005802837200462818
352.0,0.0031262377742677927
384.0,0.0005998104461468756
416.0,0.00021427894535008818
448.0,0.0009428878547623754
480.0,-0.0003089422534685582
512.0,0.0011565862223505974
576.0,-0.0022703378926962614
640.0,-0.006119539961218834
704.0,-0.008515235967934132
768.0,-0.006070791743695736
832.0,-0.004337274003773928
896.0,-0.0038148981984704733
960.0,-0.0023894975893199444
1024.0,-0.003199499798938632
1152.0,-0.00020624797616619617
1280.0,-0.0027407421730458736
1408.0,-0.001892891596071422
1536.0,0.0002928931498900056
1664.0,0.002961450954899192
1792.0,0.0015149596147239208
1920.0,0.0025175416376441717
2048.0,0.0014070566976442933
2304.0,0.0007797452271915972
2560.0,0.003270952496677637
2816.0,0.0032281051389873028
3072.0,-0.003321489319205284
3328.0,-0.009196952916681767
3584.0,-0.008516942150890827
3840.0,-0.005608821287751198
4096.0,0.000541010987944901
4608.0,0.002367952838540077
5120.0,-0.0035096053034067154
5632.0,-0.00278907036408782
6144.0,-0.00277280923910439
6656.0,0.004376432858407497
7168.0,0.004081786144524813
7680.0,-0.002855621511116624
8192.0,0.0016389129450544715
end
