version,3.0
numOfCh,1
type,point
parent_name,0cd20_1dot0-0dot1
ch_type,1_1
kcount,1
numberNandB,1
brightnessNandB,1
carpet pos,0
pc,0
Time (ms),CH1 Auto-Correlation
1.0,0.08823277801275253
2.0,0.08141510933637619
3.0,0.075803242623806
4.0,0.07084935158491135
5.0,0.06647084653377533
6.0,0.06256623566150665
7.0,0.059089504182338715
8.0,0.05570244416594505
9.0,0.05280275270342827
10.0,0.050095152109861374
11.0,0.047683507204055786
12.0,0.04546535760164261
13.0,0.04325741156935692
14.0,0.041376106441020966
15.0,0.03979332372546196
16.0,0.038378674536943436
18.0,0.03551344573497772
20.0,0.03311578929424286
22.0,0.03085162490606308
24.0,0.028997119516134262
26.0,0.0275656096637249
28.0,0.026520008221268654
30.0,0.02553430199623108
32.0,0.024824043735861778
36.0,0.023161401972174644
40.0,0.021686363965272903
44.0,0.02070215903222561
48.0,0.019292928278446198
52.0,0.01795627735555172
56.0,0.016706597059965134
60.0,0.015113565139472485
64.0,0.012673044577240944
72.0,0.010290347971022129
80.0,0.010521662421524525
88.0,0.010724738240242004
96.0,0.009555505588650703
104.0,0.007542390841990709
112.0,0.007112119346857071
120.0,0.006603395566344261
128.0,0.005024257581681013
144.0,0.004281606525182724
160.0,0.0031647130381315947
176.0,0.0022900274489074945
192.0,0.0037382319569587708
208.0,0.005423684138804674
224.0,0.005931494757533073
240.0,0.004606013186275959
256.0,0.0018613808788359165
288.0,0.0021559903398156166
320.0,0.0009999967878684402
352.0,-0.0024431964848190546
384.0,-0.0016440674662590027
416.0,0.00036612129770219326
448.0,0.0014864194672554731
480.0,0.0002265340881422162
512.0,0.00032481184462085366
576.0,-4.223116775392555e-06
640.0,-0.002255077473819256
704.0,-0.0023320859763771296
768.0,-0.0027025078888982534
832.0,-0.00043741537956520915
896.0,0.003241222817450762
960.0,0.007341723423451185
1024.0,0.004574734251946211
1152.0,0.004970052279531956
1280.0,0.002010875614359975
1408.0,-0.002757541835308075
1536.0,-0.00017633431707508862
1664.0,0.002434690250083804
1792.0,0.004536247346550226
1920.0,0.0018745705019682646
2048.0,-0.000580181775148958
2304.0,0.0011488980380818248
2560.0,-0.003908657468855381
2816.0,-0.00021484389435499907
3072.0,-0.0029826464597135782
3328.0,-0.00052144646178931
3584.0,-0.0012437297264114022
3840.0,-0.0006302479887381196
4096.0,0.0006859332788735628
4608.0,-0.003979851957410574
5120.0,0.0023878561332821846
5632.0,-0.006164133548736572
6144.0,-0.00368075305595994
6656.0,-0.0034785806201398373
7168.0,-0.0022849561646580696
7680.0,-0.004613932687789202
8192.0,-0.0011500425171107054
end
