version,3.0
numOfCh,1
type,point
parent_name,0cd20_1dot0-0dot1
ch_type,1_1
kcount,1
numberNandB,1
brightnessNandB,1
carpet pos,0
pc,0
Time (ms),CH1 Auto-Correlation
1.0,0.10630936175584793
2.0,0.09972964972257614
3.0,0.09397852420806885
4.0,0.08880389481782913
5.0,0.08430449664592743
6.0,0.08033696562051773
7.0,0.07671704143285751
8.0,0.0733276754617691
9.0,0.07045476883649826
10.0,0.06771764159202576
11.0,0.06509967148303986
12.0,0.062455374747514725
13.0,0.05992399528622627
14.0,0.057698335498571396
15.0,0.05579894408583641
16.0,0.054252319037914276
18.0,0.051165204495191574
20.0,0.048423610627651215
22.0,0.045865222811698914
24.0,0.043979961425065994
26.0,0.041818782687187195
28.0,0.039437294006347656
30.0,0.03770280256867409
32.0,0.03628244251012802
36.0,0.033838607370853424
40.0,0.03165541589260101
44.0,0.02958665043115616
48.0,0.027839547023177147
52.0,0.028118260204792023
56.0,0.02713949978351593
60.0,0.02647458016872406
64.0,0.026326963678002357
72.0,0.025508714839816093
80.0,0.02460467629134655
88.0,0.023742247372865677
96.0,0.0223359577357769
104.0,0.02164536528289318
112.0,0.018713533878326416
120.0,0.013990789651870728
128.0,0.011208875104784966
144.0,0.011332383379340172
160.0,0.013089427724480629
176.0,0.012632470577955246
192.0,0.007956591434776783
208.0,0.004521248862147331
224.0,0.0017607148038223386
240.0,-0.0005484572611749172
256.0,-0.0004567895084619522
288.0,0.0025361257139593363
320.0,0.0029440419748425484
352.0,0.002456473419442773
384.0,0.0056052012369036674
416.0,0.008033514954149723
448.0,0.006820572540163994
480.0,0.012676495127379894
512.0,0.009230239316821098
576.0,0.011211280710995197
640.0,0.011216484010219574
704.0,0.009995915926992893
768.0,0.0100197559222579
832.0,0.005397978238761425
896.0,0.005308440420776606
960.0,0.005169642623513937
1024.0,0.006546963006258011
1152.0,0.009171981364488602
1280.0,0.0037971925921738148
1408.0,0.0051642293110489845
1536.0,0.007596407551318407
1664.0,0.00849919393658638
1792.0,0.005849754437804222
1920.0,0.00837809219956398
2048.0,0.004650062881410122
2304.0,0.0025043566711246967
2560.0,0.004320971202105284
2816.0,0.00183653284329921
3072.0,-0.002332660835236311
3328.0,-0.0022663907147943974
3584.0,-0.0025271207559853792
3840.0,-0.0035758684389293194
4096.0,-0.006262603681534529
4608.0,-0.005960863083600998
5120.0,-0.005569629371166229
5632.0,-0.009284944273531437
6144.0,-0.01156248152256012
6656.0,-0.008173511363565922
7168.0,-0.006962853483855724
7680.0,-0.0037541650235652924
8192.0,-0.010380665771663189
end
