version,3.0
numOfCh,1
type,point
parent_name,0cd20_1dot0-0dot1
ch_type,1_1
kcount,1
numberNandB,1
brightnessNandB,1
carpet pos,0
pc,0
Time (ms),CH1 Auto-Correlation
1.0,0.14101383090019226
2.0,0.1329958736896515
3.0,0.12660065293312073
4.0,0.12124975770711899
5.0,0.1162642240524292
6.0,0.11152997612953186
7.0,0.10742102563381195
8.0,0.10387100279331207
9.0,0.10045238584280014
10.0,0.0973551943898201
11.0,0.09425954520702362
12.0,0.09133242070674896
13.0,0.08813706040382385
14.0,0.0856408104300499
15.0,0.0839330404996872
16.0,0.08183981478214264
18.0,0.07884903252124786
20.0,0.07616345584392548
22.0,0.0730157345533371
24.0,0.06971146166324615
26.0,0.06597499549388885
28.0,0.06244783103466034
30.0,0.059237197041511536
32.0,0.055879853665828705
36.0,0.05124115198850632
40.0,0.04759277403354645
44.0,0.04425187408924103
48.0,0.04117731377482414
52.0,0.038011033087968826
56.0,0.03475883975625038
60.0,0.03175237774848938
64.0,0.02998456545174122
72.0,0.027223605662584305
80.0,0.024982022121548653
88.0,0.020839592441916466
96.0,0.017694370821118355
104.0,0.014092152938246727
112.0,0.009731224738061428
120.0,0.007619352545589209
128.0,0.009631115943193436
144.0,0.015041828155517578
160.0,0.015220562927424908
176.0,0.016264043748378754
192.0,0.018205972388386726
208.0,0.01716013252735138
224.0,0.01888885535299778
240.0,0.020088227465748787
256.0,0.020455682650208473
288.0,0.02072441391646862
320.0,0.013864067383110523
352.0,0.008373205550014973
384.0,0.006740489974617958
416.0,0.0034891257528215647
448.0,0.008324043825268745
480.0,0.009508642368018627
512.0,0.007284082006663084
576.0,0.0014437460340559483
640.0,0.006213789340108633
704.0,0.008761541917920113
768.0,0.011090048588812351
832.0,0.010495994240045547
896.0,0.009870264679193497
960.0,-0.00909317284822464
1024.0,-0.008159707300364971
1152.0,-0.01264332514256239
1280.0,-0.007464403752237558
1408.0,-0.008351101540029049
1536.0,0.0017481442773714662
1664.0,0.003425049362704158
1792.0,0.002508945530280471
1920.0,-0.0004006034869235009
2048.0,0.005215588491410017
2304.0,0.006020061206072569
2560.0,0.004438089206814766
2816.0,0.0013241010019555688
3072.0,0.001346535631455481
3328.0,0.00021706509869545698
3584.0,-0.0038813408464193344
3840.0,-0.014075977727770805
4096.0,-0.00606030598282814
4608.0,-0.010799314826726913
5120.0,-0.005238817539066076
5632.0,-0.007808392401784658
6144.0,-0.0076965889893472195
6656.0,-0.004097319208085537
7168.0,-0.021341081708669662
7680.0,-0.012810932472348213
8192.0,-0.007457835134118795
end
