version,3.0
numOfCh,1
type,point
parent_name,0cd20_1dot0-0dot1
ch_type,1_1
kcount,1
numberNandB,1
brightnessNandB,1
carpet pos,0
pc,0
Time (ms),CH1 Auto-Correlation
1.0,0.08206570893526077
2.0,0.07542183995246887
3.0,0.06981820613145828
4.0,0.06505467742681503
5.0,0.06099846959114075
6.0,0.05736071616411209
7.0,0.05409245938062668
8.0,0.05108790099620819
9.0,0.048411644995212555
10.0,0.04592552036046982
11.0,0.043778106570243835
12.0,0.04179162159562111
13.0,0.040019430220127106
14.0,0.03832311928272247
15.0,0.036678019911050797
16.0,0.035094596445560455
18.0,0.03236139193177223
20.0,0.030259324237704277
22.0,0.028521819040179253
24.0,0.027040593326091766
26.0,0.025495199486613274
28.0,0.024263031780719757
30.0,0.023035310208797455
32.0,0.021698761731386185
36.0,0.01897740736603737
40.0,0.017968326807022095
44.0,0.01760709658265114
48.0,0.016662882640957832
52.0,0.015640294179320335
56.0,0.014466862194240093
60.0,0.013673001900315285
64.0,0.012949708849191666
72.0,0.011814643628895283
80.0,0.011712664738297462
88.0,0.01124059222638607
96.0,0.008173138834536076
104.0,0.006317879073321819
112.0,0.005651750601828098
120.0,0.0063124471344053745
128.0,0.00786247756332159
144.0,0.005982963368296623
160.0,0.00591533537954092
176.0,0.005346461199223995
192.0,0.003712766570970416
208.0,0.0013752320082858205
224.0,-0.00031436464632861316
240.0,-0.0013750982470810413
256.0,-0.0008034422644414008
288.0,-0.004954897332936525
320.0,-0.006181653589010239
352.0,-0.0023548887111246586
384.0,-0.0038299800362437963
416.0,-0.003131099045276642
448.0,-0.003066594712436199
480.0,-0.0020556217059493065
512.0,-0.0025651310570538044
576.0,-0.002114854520186782
640.0,-0.0008595500839874148
704.0,7.483538502128795e-05
768.0,-0.0026314202696084976
832.0,0.0008363584638573229
896.0,0.0038262507878243923
960.0,0.000816123269032687
1024.0,-0.002337238984182477
1152.0,-0.002279436681419611
1280.0,-0.00029514505877159536
1408.0,0.003012721659615636
1536.0,0.0003334508219268173
1664.0,-0.0004085311375092715
1792.0,-0.00020459607185330242
1920.0,0.0015102537581697106
2048.0,0.0021792177576571703
2304.0,0.00407770462334156
2560.0,-0.004862041678279638
2816.0,-0.003188539994880557
3072.0,-0.00040053686825558543
3328.0,0.0021091015078127384
3584.0,-0.003066705074161291
3840.0,-0.0011594754178076982
4096.0,0.0033673522993922234
4608.0,-0.000319077109452337
5120.0,-0.0013076483737677336
5632.0,-0.0015002067666500807
6144.0,0.003456864506006241
6656.0,-0.0031070455443114042
7168.0,-0.0009447109187021852
7680.0,-0.005037341266870499
8192.0,0.0006573132122866809
end
