version,3.0
numOfCh,1
type,point
parent_name,0cd20_1dot0-0dot1
ch_type,1_1
kcount,1
numberNandB,1
brightnessNandB,1
carpet pos,0
pc,0
Time (ms),CH1 Auto-Correlation
1.0,0.131334125995636
2.0,0.12300606071949005
3.0,0.11562562733888626
4.0,0.10883115231990814
5.0,0.10300703346729279
6.0,0.09766414016485214
7.0,0.09301994740962982
8.0,0.08898776024580002
9.0,0.08483576029539108
10.0,0.08107785135507584
11.0,0.07798244059085846
12.0,0.07534371316432953
13.0,0.07267862558364868
14.0,0.0700182393193245
15.0,0.06802278012037277
16.0,0.06574676185846329
18.0,0.061299994587898254
20.0,0.05705748870968819
22.0,0.05363405868411064
24.0,0.050588492304086685
26.0,0.04778765141963959
28.0,0.04480664059519768
30.0,0.04167478531599045
32.0,0.03814493119716644
36.0,0.03093302808701992
40.0,0.024174347519874573
44.0,0.020388128235936165
48.0,0.01920914091169834
52.0,0.01922399178147316
56.0,0.018471473827958107
60.0,0.017977777868509293
64.0,0.018753286451101303
72.0,0.021679697558283806
80.0,0.024244576692581177
88.0,0.02516762539744377
96.0,0.024948028847575188
104.0,0.025215869769454002
112.0,0.02188739739358425
120.0,0.01884756051003933
128.0,0.015542103908956051
144.0,0.01448231004178524
160.0,0.015159489586949348
176.0,0.012468486092984676
192.0,0.01224227249622345
208.0,0.012835323810577393
224.0,0.009773977100849152
240.0,0.007535620592534542
256.0,0.0017392701702192426
288.0,-0.004031951539218426
320.0,-0.0012985384091734886
352.0,0.0026765065267682076
384.0,0.009444102644920349
416.0,0.00895272009074688
448.0,0.005490847397595644
480.0,0.008500620722770691
512.0,0.007946734316647053
576.0,0.006908466573804617
640.0,0.006358280312269926
704.0,0.00847545824944973
768.0,0.004306693561375141
832.0,0.004397249314934015
896.0,-0.0018806701991707087
960.0,-0.0028906934894621372
1024.0,0.0003965275827795267
1152.0,0.0013548063579946756
1280.0,0.00736635597422719
1408.0,0.006736606825143099
1536.0,0.0037354121450334787
1664.0,0.0068877884186804295
1792.0,0.009294940158724785
1920.0,0.012380656786262989
2048.0,0.011256109923124313
2304.0,0.0047694044187664986
2560.0,-0.006229643244296312
2816.0,0.0013395915739238262
3072.0,-0.006244196556508541
3328.0,0.0006380398408509791
3584.0,-0.0007853464339859784
3840.0,-0.005072468891739845
4096.0,0.00016909126134123653
4608.0,-0.004330775234848261
5120.0,-0.0047245449386537075
5632.0,-0.008394785225391388
6144.0,-0.006683381740003824
6656.0,-0.0032450954895466566
7168.0,-0.007966170087456703
7680.0,-0.008381710387766361
8192.0,0.005393440369516611
end
