version,3.0
numOfCh,1
type,point
parent_name,0cd20_1dot0-0dot1
ch_type,1_1
kcount,1
numberNandB,1
brightnessNandB,1
carpet pos,0
pc,0
Time (ms),CH1 Auto-Correlation
1.0,0.09248875826597214
2.0,0.0856417641043663
3.0,0.07971654832363129
4.0,0.07444268465042114
5.0,0.06995057314634323
6.0,0.06587866693735123
7.0,0.062179628759622574
8.0,0.05891966074705124
9.0,0.05603707581758499
10.0,0.05342792719602585
11.0,0.051200661808252335
12.0,0.04907625541090965
13.0,0.04710065945982933
14.0,0.04539020359516144
15.0,0.043727438896894455
16.0,0.04226481169462204
18.0,0.03983820974826813
20.0,0.03731044381856918
22.0,0.03474222496151924
24.0,0.03264094516634941
26.0,0.030761193484067917
28.0,0.02911672368645668
30.0,0.02762853167951107
32.0,0.0261053666472435
36.0,0.023339465260505676
40.0,0.020753733813762665
44.0,0.018596874549984932
48.0,0.01684522069990635
52.0,0.014560321345925331
56.0,0.012894879095256329
60.0,0.011641369201242924
64.0,0.009385553188621998
72.0,0.00577832106500864
80.0,0.002899001818150282
88.0,3.7823319871677086e-05
96.0,-0.0012171620037406683
104.0,-0.0030805172864347696
112.0,-0.0038836735766381025
120.0,-0.0031310466583818197
128.0,-0.0030291166622191668
144.0,-0.0016117054037749767
160.0,0.001659958972595632
176.0,0.0024952159728854895
192.0,0.0022816588170826435
208.0,0.0020162214059382677
224.0,0.002935197437182069
240.0,0.0020969079341739416
256.0,0.0019230946199968457
288.0,-0.0005699071916751564
320.0,8.555746171623468e-05
352.0,0.001053506857715547
384.0,0.0034857976716011763
416.0,0.0015978479059413075
448.0,0.0020825935062021017
480.0,0.002504245610907674
512.0,0.0020185343455523252
576.0,0.0016750835347920656
640.0,0.004196664784103632
704.0,0.0034126918762922287
768.0,0.00021691540314350277
832.0,-0.004265325143933296
896.0,-0.0026217661798000336
960.0,0.00041366132791154087
1024.0,-0.0025835547130554914
1152.0,-0.0002051704504992813
1280.0,-0.0020647691562771797
1408.0,-0.0001153337798314169
1536.0,0.0010374363046139479
1664.0,-0.003459335770457983
1792.0,-0.001345881843008101
1920.0,0.0021138377487659454
2048.0,0.0022956940811127424
2304.0,0.0041229575872421265
2560.0,0.0020503040868788958
2816.0,0.00035980541724711657
3072.0,-9.726147982291877e-05
3328.0,-0.0016295273089781404
3584.0,0.0004878983017988503
3840.0,-0.0004468511906452477
4096.0,-0.001371812424622476
4608.0,-0.0018636772874742746
5120.0,-0.0027817394584417343
5632.0,-0.0006472565000876784
6144.0,0.002365379361435771
6656.0,-0.002309260191395879
7168.0,-0.002958848373964429
7680.0,0.00029272353276610374
8192.0,-0.0015753902262076735
end
