version,3.0
numOfCh,1
type,point
parent_name,0cd20_1dot0-0dot1
ch_type,1_1
kcount,1
numberNandB,1
brightnessNandB,1
carpet pos,0
pc,0
Time (ms),CH1 Auto-Correlation
1.0,0.13498832285404205
2.0,0.12659551203250885
3.0,0.11974827945232391
4.0,0.11348424106836319
5.0,0.10837844759225845
6.0,0.10401405394077301
7.0,0.10002512484788895
8.0,0.09634967148303986
9.0,0.09321317076683044
10.0,0.09005824476480484
11.0,0.08683066815137863
12.0,0.08417534083127975
13.0,0.08184447884559631
14.0,0.08005677163600922
15.0,0.07797003537416458
16.0,0.07622060179710388
18.0,0.07152604311704636
20.0,0.06802918016910553
22.0,0.06514706462621689
24.0,0.06189672276377678
26.0,0.05980187654495239
28.0,0.05825430154800415
30.0,0.056950218975543976
32.0,0.05547092482447624
36.0,0.051671553403139114
40.0,0.048331644386053085
44.0,0.04527553170919418
48.0,0.04119798541069031
52.0,0.03870399296283722
56.0,0.036447733640670776
60.0,0.03470982238650322
64.0,0.0340602807700634
72.0,0.03245338425040245
80.0,0.03320558741688728
88.0,0.03343137353658676
96.0,0.030996955931186676
104.0,0.02675514668226242
112.0,0.023099195212125778
120.0,0.01937389001250267
128.0,0.017720913514494896
144.0,0.012269114144146442
160.0,0.0065977126359939575
176.0,0.004691451787948608
192.0,0.004794454202055931
208.0,0.004765099845826626
224.0,0.0037724876310676336
240.0,0.0031290899496525526
256.0,0.001845981110818684
288.0,0.00706515833735466
320.0,0.009551117196679115
352.0,0.009223924949765205
384.0,0.006201908458024263
416.0,0.004097005818039179
448.0,0.004072944633662701
480.0,0.004327853210270405
512.0,0.004892969038337469
576.0,0.004409588407725096
640.0,0.004284726455807686
704.0,-0.00014193527749739587
768.0,-0.0001076824264600873
832.0,0.007734396029263735
896.0,0.008577322587370872
960.0,0.00656201271340251
1024.0,0.005492896772921085
1152.0,0.0020169876515865326
1280.0,-0.0007331952801905572
1408.0,0.004504413343966007
1536.0,0.000906422093976289
1664.0,0.0012703270185738802
1792.0,0.004353349097073078
1920.0,-0.0042306361719965935
2048.0,0.0016623447882011533
2304.0,0.00018079805886372924
2560.0,-0.006610668729990721
2816.0,-0.0001260685530724004
3072.0,-0.004235066007822752
3328.0,-0.002611123025417328
3584.0,-0.0012132046977058053
3840.0,-0.0019896032754331827
4096.0,-0.0008431955357082188
4608.0,0.0003795755037572235
5120.0,0.003635296830907464
5632.0,0.005693401675671339
6144.0,0.006937684956938028
6656.0,-0.004930650815367699
7168.0,-0.002397231524810195
7680.0,-0.010561872273683548
8192.0,-0.0008549385820515454
end
