version,3.0
numOfCh,1
type,point
parent_name,0cd20_1dot0-0dot1
ch_type,1_1
kcount,1
numberNandB,1
brightnessNandB,1
carpet pos,0
pc,0
Time (ms),CH1 Auto-Correlation
1.0,0.09041059017181396
2.0,0.08344537019729614
3.0,0.07758015394210815
4.0,0.07278253138065338
5.0,0.06823217123746872
6.0,0.06441120058298111
7.0,0.06066960096359253
8.0,0.05749879032373428
9.0,0.05465400591492653
10.0,0.05220409110188484
11.0,0.04995008185505867
12.0,0.047962166368961334
13.0,0.04607444256544113
14.0,0.04430465027689934
15.0,0.04252141714096069
16.0,0.040819406509399414
18.0,0.0381845161318779
20.0,0.03600344806909561
22.0,0.0340748056769371
24.0,0.032230835407972336
26.0,0.03049488179385662
28.0,0.02847270853817463
30.0,0.02630031853914261
32.0,0.024716651067137718
36.0,0.022369740530848503
40.0,0.02127716690301895
44.0,0.020484531298279762
48.0,0.01995980180799961
52.0,0.019346503540873528
56.0,0.01903020404279232
60.0,0.018590042367577553
64.0,0.01784738153219223
72.0,0.01603967323899269
80.0,0.013431135565042496
88.0,0.010830890387296677
96.0,0.008762056939303875
104.0,0.007738929241895676
112.0,0.007122491952031851
120.0,0.006950167007744312
128.0,0.0072168512269854546
144.0,0.007484798785299063
160.0,0.006673978641629219
176.0,0.005520387552678585
192.0,0.004940577782690525
208.0,0.006416244897991419
224.0,0.008047593757510185
240.0,0.007581263780593872
256.0,0.004002646077424288
288.0,0.003525342559441924
320.0,0.0011066761799156666
352.0,-0.0007132287719286978
384.0,-0.0005194458062760532
416.0,-3.0050458121877455e-07
448.0,0.0014748596586287022
480.0,0.0035939475055783987
512.0,0.003726375987753272
576.0,0.006356340367347002
640.0,0.001847808831371367
704.0,-0.0008023658883757889
768.0,4.987173815607093e-05
832.0,-0.0014296409208327532
896.0,-0.003570346627384424
960.0,-0.002852056873962283
1024.0,-0.0016508394619449973
1152.0,0.003330905456095934
1280.0,0.0035659957211464643
1408.0,0.0024066234473139048
1536.0,-0.00022960343630984426
1664.0,-0.0008220686577260494
1792.0,0.00011335100862197578
1920.0,-0.0005741874920204282
2048.0,-0.001627945457585156
2304.0,0.0006467936909757555
2560.0,0.00031372407102026045
2816.0,-0.00024387532903347164
3072.0,-0.001140854088589549
3328.0,-0.0036785867996513844
3584.0,-0.0018134037964046001
3840.0,-0.002707474399358034
4096.0,-0.0019403399201110005
4608.0,-0.005082054529339075
5120.0,-0.003703292226418853
5632.0,0.00032485902193002403
6144.0,-0.004957473836839199
6656.0,-0.004148439038544893
7168.0,0.0008914992213249207
7680.0,0.0006118639721535146
8192.0,-0.0023207361809909344
end
