version,3.0
numOfCh,1
type,point
parent_name,0cd20_1dot0-0dot1
ch_type,1_1
kcount,1
numberNandB,1
brightnessNandB,1
carpet pos,0
pc,0
Time (ms),CH1 Auto-Correlation
1.0,0.08760736137628555
2.0,0.08060924708843231
3.0,0.07452312856912613
4.0,0.06929409503936768
5.0,0.06468135863542557
6.0,0.06061246618628502
7.0,0.05692971125245094
8.0,0.05350971221923828
9.0,0.05044425651431084
10.0,0.04766765981912613
11.0,0.04485980421304703
12.0,0.042463891208171844
13.0,0.040252216160297394
14.0,0.03861475735902786
15.0,0.036843832582235336
16.0,0.03479202836751938
18.0,0.03046749345958233
20.0,0.027387814596295357
22.0,0.025056278333067894
24.0,0.023184634745121002
26.0,0.021847976371645927
28.0,0.02067982219159603
30.0,0.019865132868289948
32.0,0.019253963604569435
36.0,0.01748599484562874
40.0,0.016746312379837036
44.0,0.015383049845695496
48.0,0.013241751119494438
52.0,0.011386940255761147
56.0,0.00919867679476738
60.0,0.006822917610406876
64.0,0.005093428771942854
72.0,0.0030509154312312603
80.0,0.000687361927703023
88.0,0.00014788421685807407
96.0,-0.0006625745445489883
104.0,-0.0005800306098535657
112.0,-0.0015791194746270776
120.0,-0.0016294001834467053
128.0,-0.0002675387659110129
144.0,-0.0028530131094157696
160.0,-0.004414029885083437
176.0,-0.0017637147102504969
192.0,-0.0009745638235472143
208.0,-0.0027521976735442877
224.0,-0.001234018593095243
240.0,-0.0019441490294411778
256.0,-0.003234803443774581
288.0,-0.002946955617517233
320.0,-0.0016622248804196715
352.0,-0.0017821569927036762
384.0,0.0001470826828153804
416.0,0.0007384303607977927
448.0,3.909480437869206e-05
480.0,-0.005187463015317917
512.0,-0.006085802335292101
576.0,-0.004522441420704126
640.0,-0.0005250067333690822
704.0,0.0010290484642609954
768.0,0.006523240823298693
832.0,0.0011503453133627772
896.0,0.0003779059916269034
960.0,0.00017567821487318724
1024.0,0.004850925412029028
1152.0,0.002965491032227874
1280.0,-0.0013148293364793062
1408.0,-0.000753776403144002
1536.0,-0.0011112814536318183
1664.0,0.0027844333089888096
1792.0,-0.002697105286642909
1920.0,0.0005377134657464921
2048.0,0.005522069055587053
2304.0,0.0003476870188023895
2560.0,-0.0012086504139006138
2816.0,0.0009332933695986867
3072.0,8.302582864416763e-05
3328.0,-0.0009556397562846541
3584.0,0.0012063081376254559
3840.0,0.0005933450884185731
4096.0,7.395561260636896e-05
4608.0,0.0023875662591308355
5120.0,-0.002106660045683384
5632.0,0.00029032526072114706
6144.0,-0.0012442421866580844
6656.0,-0.0023220146540552378
7168.0,-0.0006716953939758241
7680.0,-0.00149578379932791
8192.0,0.0003641299845185131
end
