version,3.0
numOfCh,1
type,point
parent_name,714af_0dot4-0dot01
ch_type,1_1
kcount,1
numberNandB,1
brightnessNandB,1
carpet pos,0
pc,0
Time (ms),CH1 Auto-Correlation
1.0,0.053900346159935
2.0,0.05256734415888786
3.0,0.05133359134197235
4.0,0.05015851929783821
5.0,0.04902344197034836
6.0,0.04791445657610893
7.0,0.046794310212135315
8.0,0.0456986203789711
9.0,0.04463857412338257
10.0,0.043588463217020035
11.0,0.04255237802863121
12.0,0.041516829282045364
13.0,0.04053673520684242
14.0,0.03953946754336357
15.0,0.03855797275900841
16.0,0.037650156766176224
18.0,0.03586543723940849
20.0,0.03406776860356331
22.0,0.0322490893304348
24.0,0.030586156994104385
26.0,0.029068809002637863
28.0,0.027661269530653954
30.0,0.026311084628105164
32.0,0.02500142529606819
36.0,0.022458387538790703
40.0,0.020257262513041496
44.0,0.018242718651890755
48.0,0.01648317463696003
52.0,0.014871207065880299
56.0,0.013554750010371208
60.0,0.013129470869898796
64.0,0.012770520523190498
72.0,0.011935515329241753
80.0,0.011076218448579311
88.0,0.010018615052103996
96.0,0.008745038881897926
104.0,0.007673103827983141
112.0,0.007278141565620899
120.0,0.006601389497518539
128.0,0.006085879635065794
144.0,0.005876664537936449
160.0,0.004951637703925371
176.0,0.003844119608402252
192.0,0.003584667108952999
208.0,0.00405003922060132
224.0,0.004826429765671492
240.0,0.004339729435741901
256.0,0.0034108732361346483
288.0,0.0025740633718669415
320.0,0.0021312835160642862
352.0,0.0033539694268256426
384.0,0.003782819490879774
416.0,0.005337653681635857
448.0,0.005975934676826
480.0,0.006641419138759375
512.0,0.004452054388821125
576.0,0.003609998617321253
640.0,0.0032319254241883755
704.0,0.0022302023135125637
768.0,0.0017811706056818366
832.0,0.002506101503968239
896.0,0.002642200328409672
960.0,0.0028236478101462126
1024.0,0.003757550148293376
1152.0,0.003686424344778061
1280.0,0.003021580632776022
1408.0,0.0014418255304917693
1536.0,-0.0002604597539175302
1664.0,-0.0017384514212608337
1792.0,-0.003820087993517518
1920.0,-0.001574046560563147
2048.0,0.0001312239037360996
2304.0,-0.0024974506814032793
2560.0,-0.0005733004654757679
2816.0,-0.0027235685847699642
3072.0,-0.003449321025982499
3328.0,-0.005014644004404545
3584.0,-0.0032358248718082905
3840.0,-0.0021479050628840923
4096.0,-0.003421182744204998
4608.0,-0.003504642518237233
5120.0,-0.00210168375633657
5632.0,-0.004390934947878122
6144.0,-0.0009361420525237918
6656.0,0.0019062967039644718
7168.0,0.003064189339056611
7680.0,0.005379794631153345
8192.0,0.004874178674072027
end
