version,3.0
numOfCh,1
type,point
parent_name,714af_0dot4-0dot01
ch_type,1_1
kcount,1
numberNandB,1
brightnessNandB,1
carpet pos,0
pc,0
Time (ms),CH1 Auto-Correlation
1.0,0.03266038000583649
2.0,0.031520090997219086
3.0,0.030429182574152946
4.0,0.029409514740109444
5.0,0.02844623103737831
6.0,0.027512332424521446
7.0,0.026619814336299896
8.0,0.02579224854707718
9.0,0.025033431127667427
10.0,0.024287858977913857
11.0,0.023596592247486115
12.0,0.022939981892704964
13.0,0.022323770448565483
14.0,0.021746862679719925
15.0,0.021177610382437706
16.0,0.020634055137634277
18.0,0.01958811841905117
20.0,0.018657615408301353
22.0,0.01775728166103363
24.0,0.016912875697016716
26.0,0.01620153896510601
28.0,0.015553229488432407
30.0,0.014922183007001877
32.0,0.01432905625551939
36.0,0.013188108801841736
40.0,0.012134990654885769
44.0,0.011244740337133408
48.0,0.01036035269498825
52.0,0.009598947130143642
56.0,0.009006389416754246
60.0,0.00855912733823061
64.0,0.008106334134936333
72.0,0.007301964797079563
80.0,0.006522560957819223
88.0,0.005847001913934946
96.0,0.005937395617365837
104.0,0.006286559160798788
112.0,0.006081806495785713
120.0,0.005927681922912598
128.0,0.005795524455606937
144.0,0.005048519466072321
160.0,0.004873760510236025
176.0,0.0041007292456924915
192.0,0.003543409053236246
208.0,0.0031244573183357716
224.0,0.0029884083196520805
240.0,0.002663468010723591
256.0,0.0015514257829636335
288.0,0.001616926398128271
320.0,0.0026414731983095407
352.0,0.0034702650737017393
384.0,0.0032755029387772083
416.0,0.0017390020657330751
448.0,0.001068593468517065
480.0,0.0015830699121579528
512.0,0.0014457331271842122
576.0,0.0004401312326081097
640.0,0.0004716175317298621
704.0,0.00096557178767398
768.0,-6.172701978357509e-05
832.0,0.0013504764065146446
896.0,0.0002621491439640522
960.0,-0.0008331254357472062
1024.0,-0.0006477923598140478
1152.0,-0.00043686042772606015
1280.0,-0.0006746636936441064
1408.0,-0.0005961066344752908
1536.0,0.0004404522478580475
1664.0,0.0023400033824145794
1792.0,0.002852344186976552
1920.0,-0.000566251517739147
2048.0,-0.0015827137976884842
2304.0,-0.0007262628641910851
2560.0,-0.001346491277217865
2816.0,-0.0021414076909422874
3072.0,-7.146067218855023e-05
3328.0,2.1702800950151868e-05
3584.0,-0.000968902837485075
3840.0,0.0005104455049149692
4096.0,-0.0019401907920837402
4608.0,0.0006812663632445037
5120.0,0.00044264961616136134
5632.0,-0.00015888703637756407
6144.0,0.0015219191554933786
6656.0,-0.0003077123546972871
7168.0,-0.00327878980897367
7680.0,8.022342080948874e-05
8192.0,-0.0013456566957756877
end
