version,3.0
numOfCh,1
type,point
parent_name,714af_0dot4-0dot01
ch_type,1_1
kcount,1
numberNandB,1
brightnessNandB,1
carpet pos,0
pc,0
Time (ms),CH1 Auto-Correlation
1.0,0.03369191661477089
2.0,0.03250650689005852
3.0,0.03137801215052605
4.0,0.03036164678633213
5.0,0.02940811775624752
6.0,0.028518764302134514
7.0,0.027652859687805176
8.0,0.026822632178664207
9.0,0.026057064533233643
10.0,0.025367343798279762
11.0,0.024721316993236542
12.0,0.024114079773426056
13.0,0.02352733723819256
14.0,0.022954648360610008
15.0,0.0224111657589674
16.0,0.021872352808713913
18.0,0.020846350118517876
20.0,0.019906358793377876
22.0,0.019056005403399467
24.0,0.01825627125799656
26.0,0.0175327118486166
28.0,0.016896110028028488
30.0,0.016286736354231834
32.0,0.015690583735704422
36.0,0.014575719833374023
40.0,0.01371668092906475
44.0,0.012919322587549686
48.0,0.012241672724485397
52.0,0.011632481589913368
56.0,0.011109638959169388
60.0,0.010502252727746964
64.0,0.009853523224592209
72.0,0.008744962513446808
80.0,0.00824853777885437
88.0,0.007950284518301487
96.0,0.007266849745064974
104.0,0.006605565547943115
112.0,0.006098686717450619
120.0,0.005770695395767689
128.0,0.005567498039454222
144.0,0.005248400382697582
160.0,0.004553196486085653
176.0,0.00414439057931304
192.0,0.003124889452010393
208.0,0.0020751007832586765
224.0,0.0026070112362504005
240.0,0.0026273124385625124
256.0,0.002237203996628523
288.0,0.0016937346663326025
320.0,0.0021380670368671417
352.0,0.002224045107141137
384.0,0.0025919759646058083
416.0,0.001892773318104446
448.0,0.0012783785350620747
480.0,0.0008798014605417848
512.0,0.0006233254098333418
576.0,0.00017928444140125066
640.0,3.2839692721609026e-05
704.0,0.0005158678977750242
768.0,-0.00024518309510312974
832.0,-0.0003495862183626741
896.0,-0.00037571025313809514
960.0,0.00021564385679084808
1024.0,-0.0006942098843865097
1152.0,-0.0019312561489641666
1280.0,-0.0009646039106883109
1408.0,0.00048151190276257694
1536.0,-0.0013257490936666727
1664.0,-0.0018922550370916724
1792.0,-0.003050983650609851
1920.0,-0.004157521296292543
2048.0,-0.0038102134130895138
2304.0,-0.0009249337599612772
2560.0,-0.00025659165112301707
2816.0,0.0014454261399805546
3072.0,0.0017021570820361376
3328.0,0.0009293484035879374
3584.0,-0.0005738376057706773
3840.0,0.002046318259090185
4096.0,0.0007661981508135796
4608.0,-0.00203437521122396
5120.0,-0.0008658385486342013
5632.0,-0.0009190456476062536
6144.0,0.0004820203175768256
6656.0,0.0005223111947998405
7168.0,0.0009739270899444818
7680.0,-0.0015973401023074985
8192.0,0.0006495480774901807
end
