version,3.0
numOfCh,1
type,point
parent_name,714af_0dot4-0dot01
ch_type,1_1
kcount,1
numberNandB,1
brightnessNandB,1
carpet pos,0
pc,0
Time (ms),CH1 Auto-Correlation
1.0,0.03346293419599533
2.0,0.03230908885598183
3.0,0.03124246932566166
4.0,0.030230961740016937
5.0,0.02926565892994404
6.0,0.028346851468086243
7.0,0.02748601883649826
8.0,0.026655204594135284
9.0,0.025857260450720787
10.0,0.02512054145336151
11.0,0.024421008303761482
12.0,0.0237830001860857
13.0,0.02316177263855934
14.0,0.022539114579558372
15.0,0.021939082071185112
16.0,0.021382976323366165
18.0,0.02038518153131008
20.0,0.01944861188530922
22.0,0.01852675899863243
24.0,0.017681654542684555
26.0,0.016962287947535515
28.0,0.016365347430109978
30.0,0.015783393755555153
32.0,0.015345875173807144
36.0,0.01451113075017929
40.0,0.013755838386714458
44.0,0.012963538058102131
48.0,0.012196004390716553
52.0,0.01142498292028904
56.0,0.010761569254100323
60.0,0.01022681500762701
64.0,0.009679483249783516
72.0,0.00830801296979189
80.0,0.007158275693655014
88.0,0.005650762468576431
96.0,0.004175989422947168
104.0,0.0031048483215272427
112.0,0.002442291472107172
120.0,0.0018978390144184232
128.0,0.0011333945440128446
144.0,0.0001309125655097887
160.0,-5.0630907935556024e-05
176.0,-0.00039021429256536067
192.0,-0.00024895460228435695
208.0,-0.00033249586704187095
224.0,-5.113714360049926e-05
240.0,0.0004510947910603136
256.0,0.000995420035906136
288.0,0.0012835528468713164
320.0,0.0016789324581623077
352.0,0.002618245780467987
384.0,0.0026170900091528893
416.0,0.0020715936552733183
448.0,0.0012743329862132668
480.0,-5.369448263081722e-05
512.0,-0.00011484358401503414
576.0,0.0008825588738545775
640.0,0.0007208796450868249
704.0,-0.0011424623662605882
768.0,-0.002989688888192177
832.0,-0.0030776786152273417
896.0,-0.0015189776895567775
960.0,-0.000585672096349299
1024.0,-0.0016968997661024332
1152.0,-0.0021775991190224886
1280.0,-0.00042012345511466265
1408.0,-0.001068762969225645
1536.0,-0.0020381135400384665
1664.0,-0.0016645676223561168
1792.0,-4.264177550794557e-05
1920.0,0.001324355835095048
2048.0,-0.00012462763697840273
2304.0,0.0019232014892622828
2560.0,0.0015825279988348484
2816.0,-0.0008558907429687679
3072.0,-0.0015776787186041474
3328.0,-0.0014914806233718991
3584.0,-0.0035992362536489964
3840.0,-0.0012278605718165636
4096.0,-0.0018017652910202742
4608.0,0.0038373894058167934
5120.0,-0.00017326214583590627
5632.0,0.0004555377527140081
6144.0,-0.0017367283580824733
6656.0,0.0007759941508993506
7168.0,0.0011416941415518522
7680.0,0.00017165407189168036
8192.0,-0.0034625481348484755
end
