version,3.0
numOfCh,1
type,point
parent_name,714af_0dot4-0dot01
ch_type,1_1
kcount,1
numberNandB,1
brightnessNandB,1
carpet pos,0
pc,0
Time (ms),CH1 Auto-Correlation
1.0,0.03030988946557045
2.0,0.02916858159005642
3.0,0.028096649795770645
4.0,0.027054158970713615
5.0,0.026100894436240196
6.0,0.025212259963154793
7.0,0.024379966780543327
8.0,0.023581746965646744
9.0,0.022803544998168945
10.0,0.02208167500793934
11.0,0.021342933177947998
12.0,0.020654067397117615
13.0,0.02000616490840912
14.0,0.019399132579565048
15.0,0.018803119659423828
16.0,0.018247585743665695
18.0,0.017215102910995483
20.0,0.016268178820610046
22.0,0.01547488197684288
24.0,0.01475420594215393
26.0,0.014048732817173004
28.0,0.013472383841872215
30.0,0.013004743494093418
32.0,0.012612470425665379
36.0,0.011752025224268436
40.0,0.010764063335955143
44.0,0.0098662618547678
48.0,0.008977822959423065
52.0,0.008055268786847591
56.0,0.007270609028637409
60.0,0.006676096934825182
64.0,0.006131122354418039
72.0,0.005443942733108997
80.0,0.005034160800278187
88.0,0.004257491789758205
96.0,0.003628161735832691
104.0,0.0031453059054911137
112.0,0.003056445624679327
120.0,0.0028334937524050474
128.0,0.0025557978078722954
144.0,0.0018358761444687843
160.0,0.0018063209718093276
176.0,0.0026360058691352606
192.0,0.0026928740553557873
208.0,0.002264417940750718
224.0,0.0017272897530347109
240.0,0.0019789726939052343
256.0,0.0023166858591139317
288.0,0.0018058690475299954
320.0,0.00013982437667436898
352.0,-0.00035587011370807886
384.0,-0.00040218085632659495
416.0,-0.0003523195337038487
448.0,-0.0005233702249825001
480.0,-0.0004272138176020235
512.0,-4.1011393477674574e-05
576.0,7.219518738565966e-05
640.0,0.0014558265684172511
704.0,0.0017236616695299745
768.0,0.0015005851164460182
832.0,0.002517486922442913
896.0,0.0010657758684828877
960.0,-0.0008920668042264879
1024.0,-0.002062121406197548
1152.0,-3.9594756344740745e-06
1280.0,-0.0013817615108564496
1408.0,-0.0007573300390504301
1536.0,-0.0006060977466404438
1664.0,-0.0006223631789907813
1792.0,-0.0003355380904395133
1920.0,-0.000576083199121058
2048.0,0.000701824261341244
2304.0,-0.0008966422756202519
2560.0,-0.0007751839002594352
2816.0,0.00019848663941957057
3072.0,-0.0017541961278766394
3328.0,3.129228934994899e-05
3584.0,1.8112054021912627e-05
3840.0,0.001307393191382289
4096.0,0.0006399332778528333
4608.0,0.0008236691355705261
5120.0,0.0018315151100978255
5632.0,0.0008867450524121523
6144.0,-1.7169966668006964e-05
6656.0,-0.0018538557924330235
7168.0,-0.0034315246157348156
7680.0,-0.0014180158032104373
8192.0,-0.0010794433765113354
end
