version,3.0
numOfCh,1
type,point
parent_name,714af_0dot4-0dot01
ch_type,1_1
kcount,1
numberNandB,1
brightnessNandB,1
carpet pos,0
pc,0
Time (ms),CH1 Auto-Correlation
1.0,0.04548240080475807
2.0,0.04436079040169716
3.0,0.04330974072217941
4.0,0.04230678454041481
5.0,0.041392020881175995
6.0,0.04053863510489464
7.0,0.03974511846899986
8.0,0.03896406292915344
9.0,0.038236431777477264
10.0,0.037543077021837234
11.0,0.03691030666232109
12.0,0.03626633808016777
13.0,0.035645991563797
14.0,0.0350467823445797
15.0,0.034508004784584045
16.0,0.03403086215257645
18.0,0.033109743148088455
20.0,0.03223589435219765
22.0,0.03138844668865204
24.0,0.030589953064918518
26.0,0.029862195253372192
28.0,0.029208650812506676
30.0,0.028628161177039146
32.0,0.028069155290722847
36.0,0.02720329724252224
40.0,0.02652532421052456
44.0,0.025841619819402695
48.0,0.025023724883794785
52.0,0.024168584495782852
56.0,0.023400409147143364
60.0,0.0225678738206625
64.0,0.0218325387686491
72.0,0.020718911662697792
80.0,0.019957181066274643
88.0,0.01942557282745838
96.0,0.019185421988368034
104.0,0.018865637481212616
112.0,0.018648484721779823
120.0,0.0181623212993145
128.0,0.01744724065065384
144.0,0.016827141866087914
160.0,0.016145838424563408
176.0,0.015463819727301598
192.0,0.0144668472930789
208.0,0.013587415218353271
224.0,0.012721777893602848
240.0,0.011629941873252392
256.0,0.010500599630177021
288.0,0.009740953333675861
320.0,0.008313752710819244
352.0,0.00790126621723175
384.0,0.007974852807819843
416.0,0.006954515352845192
448.0,0.005348471459001303
480.0,0.0037296663504093885
512.0,0.0021175513975322247
576.0,0.0023573117796331644
640.0,0.000951471331063658
704.0,0.00010049797128885984
768.0,-0.0008797404007054865
832.0,-0.0011443214025348425
896.0,0.00038691156078130007
960.0,-0.00015645782696083188
1024.0,0.000680000870488584
1152.0,0.0013618814991787076
1280.0,0.005173021461814642
1408.0,0.007704052608460188
1536.0,0.005526550114154816
1664.0,0.006225073244422674
1792.0,0.005775240249931812
1920.0,0.0038266282062977552
2048.0,0.004715930204838514
2304.0,0.002890458796173334
2560.0,0.004752788692712784
2816.0,0.0027320459485054016
3072.0,-0.00010277406545355916
3328.0,-0.0018187044188380241
3584.0,-0.001592119806446135
3840.0,-0.00139046146068722
4096.0,-0.004600926302373409
4608.0,-0.0051250276155769825
5120.0,0.0031443045008927584
5632.0,-0.008343872614204884
6144.0,-0.007531862240284681
6656.0,0.00241050124168396
7168.0,-0.007955066859722137
7680.0,-0.004745769314467907
8192.0,-0.001809873734600842
end
