version,3.0
numOfCh,1
type,point
parent_name,714af_0dot4-0dot01
ch_type,1_1
kcount,1
numberNandB,1
brightnessNandB,1
carpet pos,0
pc,0
Time (ms),CH1 Auto-Correlation
1.0,0.03168712556362152
2.0,0.030559970065951347
3.0,0.02950923889875412
4.0,0.028544440865516663
5.0,0.027605583891272545
6.0,0.026719745248556137
7.0,0.025895029306411743
8.0,0.02512280084192753
9.0,0.024366091936826706
10.0,0.02362418919801712
11.0,0.02288581244647503
12.0,0.022157099097967148
13.0,0.02147284336388111
14.0,0.020792219787836075
15.0,0.0201259758323431
16.0,0.01950589194893837
18.0,0.018382064998149872
20.0,0.01737857423722744
22.0,0.016459830105304718
24.0,0.015656450763344765
26.0,0.014879447408020496
28.0,0.014163339510560036
30.0,0.013533019460737705
32.0,0.012975617311894894
36.0,0.012046470306813717
40.0,0.01127321645617485
44.0,0.01062611024826765
48.0,0.010055005550384521
52.0,0.009437864646315575
56.0,0.008884894661605358
60.0,0.008407949469983578
64.0,0.007958811707794666
72.0,0.007165790069848299
80.0,0.006368465255945921
88.0,0.005422594025731087
96.0,0.004761200863867998
104.0,0.004354649689048529
112.0,0.0040771993808448315
120.0,0.003653912339359522
128.0,0.0032480235677212477
144.0,0.0024351486936211586
160.0,0.0015446796314790845
176.0,0.0013983333483338356
192.0,0.0019174651242792606
208.0,0.0017925145803019404
224.0,0.0016335508553311229
240.0,0.0011836804915219545
256.0,0.0010163197293877602
288.0,-0.00010462439968250692
320.0,-0.0006605291273444891
352.0,-0.0005925663281232119
384.0,-0.00043719742097891867
416.0,-1.559092379466165e-05
448.0,0.0002959422708954662
480.0,0.00034792826045304537
512.0,-0.00038562374538742006
576.0,-0.00016478728502988815
640.0,0.00036940042627975345
704.0,0.0006578843458555639
768.0,0.0012827980099245906
832.0,0.0012340458342805505
896.0,0.00030710597638972104
960.0,-0.0004649098846130073
1024.0,-0.00024653569562360644
1152.0,0.0003798456455115229
1280.0,0.0004984398256056011
1408.0,0.001976168481633067
1536.0,0.001226342166773975
1664.0,0.0010859648464247584
1792.0,-0.00032420424395240843
1920.0,-0.0011115429224446416
2048.0,-0.0013415380381047726
2304.0,-0.0026511435862630606
2560.0,-0.001324965967796743
2816.0,0.0001776471472112462
3072.0,-0.0023556628730148077
3328.0,6.287561518547591e-06
3584.0,0.00030522598535753787
3840.0,-0.00036418598028831184
4096.0,0.0002580619475338608
4608.0,0.0015244417591020465
5120.0,0.0003393248189240694
5632.0,0.000739031471312046
6144.0,0.0006136783049441874
6656.0,-3.095356441917829e-05
7168.0,-0.0009388693142682314
7680.0,-0.0012546879006549716
8192.0,-0.0007219594554044306
end
