version,3.0
numOfCh,1
type,point
parent_name,714af_0dot4-0dot01
ch_type,1_1
kcount,1
numberNandB,1
brightnessNandB,1
carpet pos,0
pc,0
Time (ms),CH1 Auto-Correlation
1.0,0.0365326814353466
2.0,0.03540152683854103
3.0,0.03435647487640381
4.0,0.03336814045906067
5.0,0.032410893589258194
6.0,0.03149466589093208
7.0,0.030619585886597633
8.0,0.029780752956867218
9.0,0.02900540828704834
10.0,0.028250649571418762
11.0,0.027545489370822906
12.0,0.026864131912589073
13.0,0.02621283195912838
14.0,0.025553572922945023
15.0,0.02492683194577694
16.0,0.02432548627257347
18.0,0.023263871669769287
20.0,0.02229669876396656
22.0,0.02134736254811287
24.0,0.020524194464087486
26.0,0.019828928634524345
28.0,0.01916041225194931
30.0,0.018512019887566566
32.0,0.017927957698702812
36.0,0.016765961423516273
40.0,0.015728790313005447
44.0,0.014814628288149834
48.0,0.014082582667469978
52.0,0.013637331314384937
56.0,0.013276549056172371
60.0,0.012863252311944962
64.0,0.012385714799165726
72.0,0.011510079726576805
80.0,0.010448966175317764
88.0,0.009290837682783604
96.0,0.008555351756513119
104.0,0.00819790456444025
112.0,0.007885124534368515
120.0,0.00745217502117157
128.0,0.0071718208491802216
144.0,0.006549245212227106
160.0,0.00631628418341279
176.0,0.006647734437137842
192.0,0.007275805342942476
208.0,0.007486457005143166
224.0,0.007331363391131163
240.0,0.00719723105430603
256.0,0.007596942130476236
288.0,0.007144623901695013
320.0,0.006166617386043072
352.0,0.005852861329913139
384.0,0.006996441632509232
416.0,0.006399465724825859
448.0,0.004926434252411127
480.0,0.003082446288317442
512.0,0.0014506082516163588
576.0,0.0013719949638471007
640.0,0.002844641450792551
704.0,0.001053009182214737
768.0,-0.00017919030506163836
832.0,0.000357610872015357
896.0,0.0009511797688901424
960.0,0.00034505536314100027
1024.0,0.0019644636195153
1152.0,-0.001629307633265853
1280.0,-0.0019755526445806026
1408.0,-0.0018240247154608369
1536.0,-0.002128871390596032
1664.0,-3.135300357826054e-05
1792.0,-0.000978888594545424
1920.0,-0.0015813506906852126
2048.0,-0.0007702879374846816
2304.0,-0.0021295957267284393
2560.0,-0.0019183807307854295
2816.0,-0.0018868048209697008
3072.0,-0.0033533729147166014
3328.0,-0.001967881340533495
3584.0,0.0009231550502590835
3840.0,0.0033572714310139418
4096.0,0.0022066200617700815
4608.0,-0.0009143109200522304
5120.0,-0.00036311455187387764
5632.0,0.0013883394422009587
6144.0,0.0009142441558651626
6656.0,-0.0018348267767578363
7168.0,-0.0028993759769946337
7680.0,-0.002322561340406537
8192.0,-0.0019530755234882236
end
