version,3.0
numOfCh,1
type,point
parent_name,714af_0dot4-0dot01
ch_type,1_1
kcount,1
numberNandB,1
brightnessNandB,1
carpet pos,0
pc,0
Time (ms),CH1 Auto-Correlation
1.0,0.035870712250471115
2.0,0.0347883477807045
3.0,0.033737003803253174
4.0,0.03274349123239517
5.0,0.03184356540441513
6.0,0.03095654398202896
7.0,0.030120324343442917
8.0,0.029347890987992287
9.0,0.028657685965299606
10.0,0.028037970885634422
11.0,0.02749725989997387
12.0,0.026949409395456314
13.0,0.026430277153849602
14.0,0.025958793237805367
15.0,0.025498179718852043
16.0,0.02502451092004776
18.0,0.024155650287866592
20.0,0.023343829438090324
22.0,0.02255796268582344
24.0,0.021869784221053123
26.0,0.021235158666968346
28.0,0.02057059295475483
30.0,0.01995333470404148
32.0,0.019348880276083946
36.0,0.01829713210463524
40.0,0.017328491434454918
44.0,0.016513781622052193
48.0,0.015683738514780998
52.0,0.014917353168129921
56.0,0.014167658053338528
60.0,0.013493062928318977
64.0,0.012924144975841045
72.0,0.011920562013983727
80.0,0.011022376827895641
88.0,0.010226107202470303
96.0,0.009912560693919659
104.0,0.009541605599224567
112.0,0.00873371958732605
120.0,0.007954588159918785
128.0,0.007290327455848455
144.0,0.006974599789828062
160.0,0.007233012467622757
176.0,0.006576893385499716
192.0,0.005824116058647633
208.0,0.004954437259584665
224.0,0.0032694051042199135
240.0,0.0015145577490329742
256.0,0.0011255773715674877
288.0,0.001293401001021266
320.0,0.0019970890134572983
352.0,0.0017500512767583132
384.0,0.0027027048636227846
416.0,0.0022939599584788084
448.0,0.0024295293260365725
480.0,0.004140227101743221
512.0,0.004050652962177992
576.0,0.003218266414478421
640.0,0.0020053270272910595
704.0,0.001043100142851472
768.0,-0.00025737041141837835
832.0,-0.0006405804888345301
896.0,0.0012747367145493627
960.0,0.0027269450947642326
1024.0,0.004956381861120462
1152.0,0.005138380918651819
1280.0,0.0015758315566927195
1408.0,-0.0007291896617971361
1536.0,-0.0008168994099833071
1664.0,0.0002740868949331343
1792.0,-0.00163738161791116
1920.0,-0.0016295185778290033
2048.0,-0.0002458690432831645
2304.0,-0.0034216956701129675
2560.0,-0.0027759394142776728
2816.0,-0.0015881842700764537
3072.0,-0.00022508094843942672
3328.0,0.0010762099409475923
3584.0,-0.00015804941358510405
3840.0,-0.0013729516649618745
4096.0,-0.0009546354413032532
4608.0,-4.230035483487882e-05
5120.0,-0.003154350910335779
5632.0,-0.004382519982755184
6144.0,0.00036829867167398334
6656.0,0.0005800439394079149
7168.0,-0.0006506252102553844
7680.0,0.0033083977177739143
8192.0,0.0004181559197604656
end
