version,3.0
numOfCh,1
type,point
parent_name,714af_0dot4-0dot01
ch_type,1_1
kcount,1
numberNandB,1
brightnessNandB,1
carpet pos,0
pc,0
Time (ms),CH1 Auto-Correlation
1.0,0.04347429424524307
2.0,0.042348504066467285
3.0,0.041264962404966354
4.0,0.04022815078496933
5.0,0.039281025528907776
6.0,0.0383913554251194
7.0,0.03757743909955025
8.0,0.036797698587179184
9.0,0.03606659546494484
10.0,0.0353829488158226
11.0,0.03471602872014046
12.0,0.034129075706005096
13.0,0.033595211803913116
14.0,0.03305400162935257
15.0,0.03254111111164093
16.0,0.032078444957733154
18.0,0.031146833673119545
20.0,0.030297400429844856
22.0,0.02954917959868908
24.0,0.02883322536945343
26.0,0.02816462144255638
28.0,0.027568841353058815
30.0,0.027008570730686188
32.0,0.026459554210305214
36.0,0.02539370208978653
40.0,0.02438686043024063
44.0,0.023278366774320602
48.0,0.022273840382695198
52.0,0.021466566249728203
56.0,0.020815012976527214
60.0,0.020232638344168663
64.0,0.019686508923768997
72.0,0.01843738555908203
80.0,0.017696911469101906
88.0,0.0174567848443985
96.0,0.0169950220733881
104.0,0.016246255487203598
112.0,0.015736505389213562
120.0,0.015432787127792835
128.0,0.015016145072877407
144.0,0.014756587333977222
160.0,0.01521850936114788
176.0,0.01579039730131626
192.0,0.015313933603465557
208.0,0.014798643998801708
224.0,0.014374619349837303
240.0,0.014138534665107727
256.0,0.01357288472354412
288.0,0.012370523996651173
320.0,0.01053259614855051
352.0,0.009440641850233078
384.0,0.009713427163660526
416.0,0.011653694324195385
448.0,0.011886319145560265
480.0,0.012014889158308506
512.0,0.011729969643056393
576.0,0.01063622161746025
640.0,0.009100843220949173
704.0,0.008475227281451225
768.0,0.00879258755594492
832.0,0.007142736576497555
896.0,0.007573367096483707
960.0,0.008015566505491734
1024.0,0.007731487043201923
1152.0,0.008677693083882332
1280.0,0.007383732590824366
1408.0,0.006671719253063202
1536.0,0.005694970488548279
1664.0,0.006069419905543327
1792.0,0.007409773766994476
1920.0,0.007882095873355865
2048.0,0.006052189506590366
2304.0,0.004949358757585287
2560.0,0.004252525046467781
2816.0,0.0042860060930252075
3072.0,0.0018786900909617543
3328.0,0.0013129517901688814
3584.0,-0.002885960042476654
3840.0,-0.0016682329587638378
4096.0,-0.0012173712020739913
4608.0,0.002328938338905573
5120.0,-0.002631980227306485
5632.0,0.000842915556859225
6144.0,-0.002635485725477338
6656.0,-0.001988757634535432
7168.0,-0.001746955094859004
7680.0,-0.00032316037686541677
8192.0,-0.006640586536377668
end
