version,3.0
numOfCh,1
type,point
parent_name,714af_0dot4-0dot01
ch_type,1_1
kcount,1
numberNandB,1
brightnessNandB,1
carpet pos,0
pc,0
Time (ms),CH1 Auto-Correlation
1.0,0.033236198127269745
2.0,0.03204701468348503
3.0,0.03096187673509121
4.0,0.029936641454696655
5.0,0.028995122760534286
6.0,0.0281379297375679
7.0,0.027298398315906525
8.0,0.026533642783761024
9.0,0.025792663916945457
10.0,0.025105716660618782
11.0,0.024465180933475494
12.0,0.023838823661208153
13.0,0.02322966232895851
14.0,0.02266814559698105
15.0,0.022112544625997543
16.0,0.02159217745065689
18.0,0.02071438357234001
20.0,0.01992599479854107
22.0,0.01918523572385311
24.0,0.018453361466526985
26.0,0.017710134387016296
28.0,0.01702837459743023
30.0,0.016343943774700165
32.0,0.015670623630285263
36.0,0.014530917629599571
40.0,0.013453672640025616
44.0,0.01256047748029232
48.0,0.011894304305315018
52.0,0.01131447684019804
56.0,0.01067257858812809
60.0,0.009984512813389301
64.0,0.009364023804664612
72.0,0.0085716862231493
80.0,0.00801682099699974
88.0,0.007657111622393131
96.0,0.007205941714346409
104.0,0.006900957319885492
112.0,0.006658516358584166
120.0,0.006183348596096039
128.0,0.005403425078839064
144.0,0.004933731630444527
160.0,0.00443981634452939
176.0,0.0036470824852585793
192.0,0.002883280860260129
208.0,0.0027182770427316427
224.0,0.002615121891722083
240.0,0.002810228383168578
256.0,0.003443731227889657
288.0,0.003931079525500536
320.0,0.004534025210887194
352.0,0.004748100880533457
384.0,0.004819826222956181
416.0,0.00480317696928978
448.0,0.005265167448669672
480.0,0.004636434372514486
512.0,0.00422490993514657
576.0,0.004242934286594391
640.0,0.0033540904987603426
704.0,0.0022010919637978077
768.0,0.0030234006699174643
832.0,0.0026447074487805367
896.0,0.0011092787608504295
960.0,0.0003970449324697256
1024.0,0.0018186158267781138
1152.0,0.003413029480725527
1280.0,0.002398087875917554
1408.0,0.002685785759240389
1536.0,0.0013898862525820732
1664.0,0.0006195844616740942
1792.0,0.0019347380148246884
1920.0,0.001057532848790288
2048.0,0.0020512279588729143
2304.0,0.0006892667151987553
2560.0,0.0010888290125876665
2816.0,0.0001961258822120726
3072.0,-0.0028369224164634943
3328.0,-0.0011262699263170362
3584.0,-0.0011595761170610785
3840.0,-0.002086569322273135
4096.0,-0.0010251293424516916
4608.0,-0.0008022122201509774
5120.0,-0.0007486417889595032
5632.0,-0.0005676335422322154
6144.0,0.0018608742393553257
6656.0,0.0014388186391443014
7168.0,0.0008287449018098414
7680.0,0.0006866590701974928
8192.0,0.001765752793289721
9216.0,-0.002138343872502446
10240.0,-0.0026361672207713127
11264.0,-0.005601974204182625
12288.0,-0.005518926773220301
13312.0,-0.0038405372761189938
14336.0,-0.00647563673555851
end
