version,3.0
numOfCh,1
type,point
parent_name,714af_0dot4-0dot01
ch_type,1_1
kcount,1
numberNandB,1
brightnessNandB,1
carpet pos,0
pc,0
Time (ms),CH1 Auto-Correlation
1.0,0.034198153764009476
2.0,0.03309805318713188
3.0,0.03208666294813156
4.0,0.031143225729465485
5.0,0.03022901341319084
6.0,0.029389390721917152
7.0,0.028584590181708336
8.0,0.027832819148898125
9.0,0.027110647410154343
10.0,0.026431282982230186
11.0,0.02582971379160881
12.0,0.025284668430685997
13.0,0.024732748046517372
14.0,0.02420201525092125
15.0,0.023688774555921555
16.0,0.02318427711725235
18.0,0.022216830402612686
20.0,0.021287143230438232
22.0,0.020410653203725815
24.0,0.019592473283410072
26.0,0.018826104700565338
28.0,0.018122397363185883
30.0,0.0174250490963459
32.0,0.016794642433524132
36.0,0.015747996047139168
40.0,0.014966926537454128
44.0,0.014349441975355148
48.0,0.013813497498631477
52.0,0.013413463719189167
56.0,0.01296817697584629
60.0,0.012512396089732647
64.0,0.011994355358183384
72.0,0.010737046599388123
80.0,0.009415307082235813
88.0,0.008396648801863194
96.0,0.007238280028104782
104.0,0.006542163901031017
112.0,0.006083435844630003
120.0,0.005758678540587425
128.0,0.005373844876885414
144.0,0.004570086020976305
160.0,0.0038485296536237
176.0,0.004398814868181944
192.0,0.003882423508912325
208.0,0.002769256243482232
224.0,0.002561274217441678
240.0,0.0025129560381174088
256.0,0.0018464885652065277
288.0,0.00121084984857589
320.0,0.001243454753421247
352.0,0.002696701092645526
384.0,0.0033378389198333025
416.0,0.0024221211206167936
448.0,0.0029395301826298237
480.0,0.003995109349489212
512.0,0.0036915582604706287
576.0,0.0027377766091376543
640.0,0.002327157650142908
704.0,0.0003745454887393862
768.0,-0.0008253641426563263
832.0,0.0006345175788737833
896.0,0.0021532282698899508
960.0,0.0013200364774093032
1024.0,0.00046692590694874525
1152.0,-0.0022789218928664923
1280.0,-0.0038941369857639074
1408.0,-0.002501487033441663
1536.0,-0.0009223364759236574
1664.0,-0.002573557198047638
1792.0,-0.004676390439271927
1920.0,-0.001286442275159061
2048.0,-0.0022963136434555054
2304.0,-0.001465638168156147
2560.0,0.0007768204668536782
2816.0,-0.0017201913287863135
3072.0,0.0003485413908492774
3328.0,0.001372210681438446
3584.0,0.0010907293763011694
3840.0,-6.85050108586438e-05
4096.0,0.00022993268794380128
4608.0,0.002109053311869502
5120.0,-0.0012833875371143222
5632.0,-0.0033396920189261436
6144.0,-0.0043022907339036465
6656.0,-0.002793370047584176
7168.0,0.0028852038085460663
7680.0,0.0005310362903401256
8192.0,0.0029636453837156296
end
