version,3.0
numOfCh,1
type,point
parent_name,714af_0dot4-0dot01
ch_type,1_1
kcount,1
numberNandB,1
brightnessNandB,1
carpet pos,0
pc,0
Time (ms),CH1 Auto-Correlation
1.0,0.024940436705946922
2.0,0.02379094995558262
3.0,0.022682292386889458
4.0,0.021687554195523262
5.0,0.020835116505622864
6.0,0.020062090829014778
7.0,0.019340939819812775
8.0,0.018664073199033737
9.0,0.018047766759991646
10.0,0.01739201694726944
11.0,0.016737021505832672
12.0,0.016137871891260147
13.0,0.01557272020727396
14.0,0.015035855583846569
15.0,0.014530695043504238
16.0,0.014061465859413147
18.0,0.013134798035025597
20.0,0.012298562563955784
22.0,0.011507676914334297
24.0,0.010740697383880615
26.0,0.010083245113492012
28.0,0.009452061727643013
30.0,0.00887391809374094
32.0,0.008303746581077576
36.0,0.0072553991340100765
40.0,0.0063902996480464935
44.0,0.005713093560189009
48.0,0.005367403384298086
52.0,0.004909386858344078
56.0,0.004241461865603924
60.0,0.0038395642768591642
64.0,0.0033851717598736286
72.0,0.0026013951282948256
80.0,0.0021526487544178963
88.0,0.0016602813266217709
96.0,0.0014448047149926424
104.0,0.0012797911185771227
112.0,0.0012905207695439458
120.0,0.0015147229423746467
128.0,0.0014052586629986763
144.0,-0.0002891017938964069
160.0,-0.0021628220565617085
176.0,-0.002497171750292182
192.0,-0.002114372095093131
208.0,-0.001978863263502717
224.0,-0.0007912392029538751
240.0,-0.000369929795851931
256.0,-0.0011864100815728307
288.0,-0.001392593258060515
320.0,-0.002695634262636304
352.0,-0.0021524240728467703
384.0,-0.0008255066932179034
416.0,7.525113323936239e-05
448.0,-0.00012324098497629166
480.0,-6.329227471724153e-05
512.0,0.0010706780012696981
576.0,-0.0003589490952435881
640.0,0.0010863578645512462
704.0,0.0017148444894701242
768.0,0.0015332309994846582
832.0,-0.002028687624260783
896.0,-0.0022868660744279623
960.0,-0.003005679463967681
1024.0,-0.001331144361756742
1152.0,-0.0018967081559821963
1280.0,0.00033652796992100775
1408.0,0.000886604655534029
1536.0,-0.0003863648453261703
1664.0,0.0006266433047130704
1792.0,0.0007224337314255536
1920.0,0.0019822614267468452
2048.0,0.0005213606636971235
2304.0,0.00018469896167516708
2560.0,-0.0008354322635568678
2816.0,-0.0005514470976777375
3072.0,-0.0020484530832618475
3328.0,-0.0008514649234712124
3584.0,0.00221450487151742
3840.0,0.00023096194490790367
4096.0,0.0006963048945181072
end
