version,3.0
numOfCh,1
type,point
parent_name,714af_0dot4-0dot01
ch_type,1_1
kcount,1
numberNandB,1
brightnessNandB,1
carpet pos,0
pc,0
Time (ms),CH1 Auto-Correlation
1.0,0.03830595314502716
2.0,0.037159550935029984
3.0,0.03608207032084465
4.0,0.03504454344511032
5.0,0.034022849053144455
6.0,0.033051084727048874
7.0,0.032179977744817734
8.0,0.03136488050222397
9.0,0.0306103378534317
10.0,0.02986476756632328
11.0,0.029142536222934723
12.0,0.028444573283195496
13.0,0.02779741957783699
14.0,0.027132878080010414
15.0,0.026493890210986137
16.0,0.025853238999843597
18.0,0.02468353509902954
20.0,0.023569276556372643
22.0,0.02244212105870247
24.0,0.021395158022642136
26.0,0.020453503355383873
28.0,0.019595831632614136
30.0,0.018738465383648872
32.0,0.017954515293240547
36.0,0.01660693995654583
40.0,0.01546400785446167
44.0,0.014464921317994595
48.0,0.013428987003862858
52.0,0.012437093071639538
56.0,0.011703749187290668
60.0,0.01111704483628273
64.0,0.010736411437392235
72.0,0.01017354428768158
80.0,0.009340828284621239
88.0,0.008316125720739365
96.0,0.007230306044220924
104.0,0.006438287906348705
112.0,0.005698299501091242
120.0,0.005017811898142099
128.0,0.004944295156747103
144.0,0.004660224542021751
160.0,0.004339633509516716
176.0,0.004405465442687273
192.0,0.004489364102482796
208.0,0.005151729565113783
224.0,0.005264284089207649
240.0,0.0055116633884608746
256.0,0.005194505210965872
288.0,0.0028437969740480185
320.0,-0.00020301765471231192
352.0,-0.0003087526129093021
384.0,-0.0003206668479833752
416.0,0.000675972958561033
448.0,0.00048140191938728094
480.0,-0.0006120117614045739
512.0,4.710748908109963e-05
576.0,-0.0013443753123283386
640.0,-0.0005380138172768056
704.0,0.0009983559139072895
768.0,0.000644598389044404
832.0,0.00013753380335401744
896.0,0.0008271666592918336
960.0,0.003075280459597707
1024.0,-0.000892141368240118
1152.0,-0.002352595329284668
1280.0,-0.003615129040554166
1408.0,-0.0026549091562628746
1536.0,1.781407445378136e-05
1664.0,-0.0002336550533073023
1792.0,-0.0038130786269903183
1920.0,-0.006068202201277018
2048.0,-0.0048199063166975975
2304.0,-0.0030216057784855366
2560.0,-0.0008958801627159119
2816.0,0.000669959292281419
3072.0,0.0016285381279885769
3328.0,0.0028113636653870344
3584.0,0.0026214641984552145
3840.0,0.0032954837661236525
4096.0,0.0015181801281869411
4608.0,0.0010462740901857615
5120.0,-0.00174708419945091
5632.0,-0.00344804092310369
6144.0,-0.0016653896309435368
6656.0,-0.0015432304935529828
7168.0,0.0013096497859805822
7680.0,-0.00468091806396842
8192.0,0.00310970819555223
end
