version,3.0
numOfCh,1
type,point
parent_name,714af_0dot4-0dot01
ch_type,1_1
kcount,1
numberNandB,1
brightnessNandB,1
carpet pos,0
pc,0
Time (ms),CH1 Auto-Correlation
1.0,0.03826404735445976
2.0,0.03704535961151123
3.0,0.03590170294046402
4.0,0.03480212017893791
5.0,0.0337543785572052
6.0,0.03276272118091583
7.0,0.03179583325982094
8.0,0.03088577464222908
9.0,0.030065450817346573
10.0,0.02931026555597782
11.0,0.028619876131415367
12.0,0.02795032411813736
13.0,0.027302134782075882
14.0,0.026694966480135918
15.0,0.026127485558390617
16.0,0.02560667134821415
18.0,0.024600638076663017
20.0,0.023716893047094345
22.0,0.022908153012394905
24.0,0.022160764783620834
26.0,0.021450314670801163
28.0,0.020733539015054703
30.0,0.020070500671863556
32.0,0.019440477713942528
36.0,0.018388276919722557
40.0,0.017589567229151726
44.0,0.017005417495965958
48.0,0.01647668145596981
52.0,0.01569405384361744
56.0,0.014758178032934666
60.0,0.01386045478284359
64.0,0.013002349063754082
72.0,0.011507046408951283
80.0,0.010393869131803513
88.0,0.009580995887517929
96.0,0.008603781461715698
104.0,0.007800755091011524
112.0,0.006902302615344524
120.0,0.006112233269959688
128.0,0.005965810734778643
144.0,0.005972405895590782
160.0,0.0057391757145524025
176.0,0.005845037288963795
192.0,0.0060362922959029675
208.0,0.005414757877588272
224.0,0.004513066727668047
240.0,0.003809225745499134
256.0,0.004328099545091391
288.0,0.004574571270495653
320.0,0.004393721930682659
352.0,0.003085141535848379
384.0,0.0034953183494508266
416.0,0.004583345726132393
448.0,0.004877219907939434
480.0,0.004626421723514795
512.0,0.005302405450493097
576.0,0.005534038413316011
640.0,0.004953432362526655
704.0,0.00393003411591053
768.0,0.0006923691253177822
832.0,-0.0012925888877362013
896.0,0.0004580984532367438
960.0,0.0020077875815331936
1024.0,0.002321291482076049
1152.0,0.0024597318843007088
1280.0,-0.00037947786040604115
1408.0,0.0002243215130874887
1536.0,-0.0005807760753668845
1664.0,0.0006307188305072486
1792.0,0.0013882368803024292
1920.0,0.00031911098631098866
2048.0,0.0009190476266667247
2304.0,-0.0012997625162824988
2560.0,-0.0021208343096077442
2816.0,-0.0028874953277409077
3072.0,-0.0040533156134188175
3328.0,-0.0033205880317837
3584.0,-0.0028256226796656847
3840.0,-7.341282616835088e-05
4096.0,-0.0008947131573222578
4608.0,-0.003455629339441657
5120.0,-0.004290322307497263
5632.0,-0.0024248375557363033
6144.0,-0.0006145376828499138
6656.0,-0.0012876098044216633
7168.0,-0.0009800274856388569
7680.0,0.0025175283662974834
8192.0,0.006844497751444578
end
