version,3.0
numOfCh,1
type,point
parent_name,714af_0dot4-0dot01
ch_type,1_1
kcount,1
numberNandB,1
brightnessNandB,1
carpet pos,0
pc,0
Time (ms),CH1 Auto-Correlation
1.0,0.030796850100159645
2.0,0.029727878049016
3.0,0.028719067573547363
4.0,0.02775345742702484
5.0,0.026815488934516907
6.0,0.025937091559171677
7.0,0.025097401812672615
8.0,0.02428860031068325
9.0,0.02352691814303398
10.0,0.02282041870057583
11.0,0.022155223414301872
12.0,0.02147829718887806
13.0,0.020833203569054604
14.0,0.020220821723341942
15.0,0.019579386338591576
16.0,0.018988411873579025
18.0,0.017948564141988754
20.0,0.016962436959147453
22.0,0.016043370589613914
24.0,0.015201186761260033
26.0,0.014397328719496727
28.0,0.013741571456193924
30.0,0.013154803775250912
32.0,0.012560076080262661
36.0,0.011462865397334099
40.0,0.010503580793738365
44.0,0.009617186151444912
48.0,0.008788335137069225
52.0,0.008115378208458424
56.0,0.007905131205916405
60.0,0.007974416017532349
64.0,0.007954591885209084
72.0,0.007616674527525902
80.0,0.007146814838051796
88.0,0.00668554799631238
96.0,0.0065408130176365376
104.0,0.005845115520060062
112.0,0.004706182051450014
120.0,0.0033287147525697947
128.0,0.0024142793845385313
144.0,0.0016321665607392788
160.0,0.00173368479590863
176.0,0.002148429397493601
192.0,0.0026112226769328117
208.0,0.002330849412828684
224.0,0.002149556064978242
240.0,0.002442670753225684
256.0,0.002687806962057948
288.0,0.0024844252038747072
320.0,0.0007584710838273168
352.0,0.0003308739687781781
384.0,-0.0010461286874487996
416.0,-0.0012024890165776014
448.0,-0.0009593096910975873
480.0,-0.00011321032070554793
512.0,0.0012441138969734311
576.0,-0.00038528844015672803
640.0,3.594770532799885e-05
704.0,-0.001019919291138649
768.0,-8.834940672386438e-05
832.0,-0.0014238620642572641
896.0,-0.000988983316347003
960.0,-0.0012603206560015678
1024.0,-0.0012188197579234838
1152.0,-0.0022886234801262617
1280.0,-0.0016204017447307706
1408.0,-0.001913773245178163
1536.0,0.0009081857278943062
1664.0,-0.0020634860266000032
1792.0,-0.002163829980418086
1920.0,-0.0019420265452936292
2048.0,-0.000672613678034395
2304.0,0.00034256765502505004
2560.0,-0.0002002386754611507
2816.0,-0.002458892995491624
3072.0,-0.0010623865528032184
3328.0,-5.08091579831671e-06
3584.0,0.0005428490694612265
3840.0,0.00108910643029958
4096.0,-0.0007273865048773587
4608.0,0.0015057463897392154
5120.0,0.0009625804959796369
5632.0,0.0023851627483963966
6144.0,-0.0005225635832175612
6656.0,-0.0022509389091283083
7168.0,-0.000611833413131535
7680.0,-0.0010948235867545009
8192.0,-0.00038644656888209283
end
