version,3.0
numOfCh,1
type,point
parent_name,714af_0dot4-0dot01
ch_type,1_1
kcount,1
numberNandB,1
brightnessNandB,1
carpet pos,0
pc,0
Time (ms),CH1 Auto-Correlation
1.0,0.03288061544299126
2.0,0.03169936686754227
3.0,0.030623910948634148
4.0,0.029601367190480232
5.0,0.028612060472369194
6.0,0.0277020875364542
7.0,0.02683759108185768
8.0,0.02601330727338791
9.0,0.025226853787899017
10.0,0.02447490766644478
11.0,0.02378496713936329
12.0,0.023177292197942734
13.0,0.02261199988424778
14.0,0.02207488752901554
15.0,0.021568313241004944
16.0,0.021065134555101395
18.0,0.020146764814853668
20.0,0.01930638588964939
22.0,0.01853986829519272
24.0,0.017798492684960365
26.0,0.017140621319413185
28.0,0.016569646075367928
30.0,0.01600728929042816
32.0,0.015526128001511097
36.0,0.014742882922291756
40.0,0.014030846767127514
44.0,0.013558929786086082
48.0,0.013034705072641373
52.0,0.012438731268048286
56.0,0.011864320375025272
60.0,0.011389450170099735
64.0,0.011060908436775208
72.0,0.010284687392413616
80.0,0.009565460495650768
88.0,0.008832107298076153
96.0,0.00823226012289524
104.0,0.007694864645600319
112.0,0.00733710452914238
120.0,0.0071962745860219
128.0,0.007096623070538044
144.0,0.007083726581186056
160.0,0.006668010260909796
176.0,0.005604882258921862
192.0,0.004484250675886869
208.0,0.004116779658943415
224.0,0.0036797355860471725
240.0,0.003940003924071789
256.0,0.003817582270130515
288.0,0.003882384393364191
320.0,0.0039299908094108105
352.0,0.004018276929855347
384.0,0.003287171246483922
416.0,0.003216874087229371
448.0,0.0034767561592161655
480.0,0.003995269071310759
512.0,0.0027591953985393047
576.0,0.0032002911902964115
640.0,0.0027574379928410053
704.0,0.00010326880874345079
768.0,-0.00047271623043343425
832.0,-8.849959704093635e-05
896.0,0.0004924905952066183
960.0,0.0009151449776254594
1024.0,0.002290943870320916
1152.0,0.0010580788366496563
1280.0,0.0007562523242086172
1408.0,0.002477409318089485
1536.0,0.00238921120762825
1664.0,0.0019222922855988145
1792.0,0.004304325673729181
1920.0,0.002808713587000966
2048.0,0.0042276461608707905
2304.0,0.0015054020332172513
2560.0,-0.0010075800819322467
2816.0,-0.0020102523267269135
3072.0,-0.001445589354261756
3328.0,0.0010277885012328625
3584.0,0.0019059047335758805
3840.0,0.0013418585294857621
4096.0,0.0003224929387215525
4608.0,-0.00230324175208807
5120.0,-0.00046106550144031644
5632.0,0.003814177354797721
6144.0,-0.0043800827115774155
6656.0,-0.004013913217931986
7168.0,-0.0004507248231675476
7680.0,0.0005080616683699191
8192.0,-0.007539916783571243
end
