version,3.0
numOfCh,1
type,point
parent_name,714af_0dot4-0dot01
ch_type,1_1
kcount,1
numberNandB,1
brightnessNandB,1
carpet pos,0
pc,0
Time (ms),CH1 Auto-Correlation
1.0,0.029967907816171646
2.0,0.028858672827482224
3.0,0.027813047170639038
4.0,0.026825275272130966
5.0,0.025912046432495117
6.0,0.025082971900701523
7.0,0.024305639788508415
8.0,0.023589614778757095
9.0,0.022937819361686707
10.0,0.02235667034983635
11.0,0.021817846223711967
12.0,0.0213021170347929
13.0,0.020796338096261024
14.0,0.020320428535342216
15.0,0.019831646233797073
16.0,0.01933322474360466
18.0,0.018469449132680893
20.0,0.017701420933008194
22.0,0.016949079930782318
24.0,0.01620773784816265
26.0,0.015492286533117294
28.0,0.014835244044661522
30.0,0.01425312552601099
32.0,0.013717222027480602
36.0,0.012832965701818466
40.0,0.012047935277223587
44.0,0.011371739208698273
48.0,0.010850540362298489
52.0,0.010381052270531654
56.0,0.00998444203287363
60.0,0.009758060798048973
64.0,0.00960368849337101
72.0,0.009371994994580746
80.0,0.008943556807935238
88.0,0.008466917090117931
96.0,0.00762533163651824
104.0,0.006593823432922363
112.0,0.005492447409778833
120.0,0.004598814062774181
128.0,0.0039999219588935375
144.0,0.003513973206281662
160.0,0.0031728020403534174
176.0,0.0017096234951168299
192.0,0.000584626744966954
208.0,0.0005855686031281948
224.0,0.0017646084306761622
240.0,0.001940723741427064
256.0,0.0018025554018095136
288.0,0.002410821383818984
320.0,0.003105868585407734
352.0,0.0038398343604058027
384.0,0.0035559451207518578
416.0,0.0032852953299880028
448.0,0.0029956186190247536
480.0,0.002786436351016164
512.0,0.0035749359522014856
576.0,0.0010963391978293657
640.0,0.002948266454041004
704.0,0.00452085118740797
768.0,0.0031856244895607233
832.0,0.002431426430121064
896.0,0.0023297530133277178
960.0,0.003447918454185128
1024.0,0.003999208100140095
1152.0,0.00331201683729887
1280.0,0.0014503411948680878
1408.0,0.00043771916534751654
1536.0,0.00015017259283922613
1664.0,0.001991178374737501
1792.0,0.0018795137293636799
1920.0,0.0011755786836147308
2048.0,-0.0009062918252311647
2304.0,0.0011886024149134755
2560.0,-0.0007100751390680671
2816.0,-0.0004524582182057202
3072.0,-0.0033570416271686554
3328.0,-0.0019352607196196914
3584.0,-0.0040237572975456715
3840.0,-0.004272716119885445
4096.0,-0.0045774588361382484
4608.0,-0.003897446906194091
5120.0,-0.0030376631766557693
5632.0,-0.0017932791961356997
6144.0,-0.0025138251949101686
6656.0,0.0005170854274183512
7168.0,0.0007178055820986629
7680.0,0.0026589268818497658
8192.0,0.002721805591136217
end
