version,3.0
numOfCh,1
type,point
parent_name,714af_0dot4-0dot01
ch_type,1_1
kcount,1
numberNandB,1
brightnessNandB,1
carpet pos,0
pc,0
Time (ms),CH1 Auto-Correlation
1.0,0.05353335291147232
2.0,0.05238017812371254
3.0,0.05126158148050308
4.0,0.050228968262672424
5.0,0.04928801581263542
6.0,0.048406925052404404
7.0,0.04755647853016853
8.0,0.046728506684303284
9.0,0.04595041647553444
10.0,0.04514799267053604
11.0,0.04441016539931297
12.0,0.04369410127401352
13.0,0.0430305190384388
14.0,0.042336706072092056
15.0,0.04166490212082863
16.0,0.04098032787442207
18.0,0.03971026465296745
20.0,0.03855687379837036
22.0,0.03751320764422417
24.0,0.03658859431743622
26.0,0.03567393124103546
28.0,0.034712858498096466
30.0,0.03380441293120384
32.0,0.03303689882159233
36.0,0.031864702701568604
40.0,0.031110750511288643
44.0,0.030485576018691063
48.0,0.029989290982484818
52.0,0.029473604634404182
56.0,0.02878444828093052
60.0,0.028133418411016464
64.0,0.027472615242004395
72.0,0.0262188408523798
80.0,0.02514221891760826
88.0,0.024152182042598724
96.0,0.023498263210058212
104.0,0.023403961211442947
112.0,0.023208139464259148
120.0,0.02298661135137081
128.0,0.022466355934739113
144.0,0.02118844911456108
160.0,0.020087717100977898
176.0,0.019995927810668945
192.0,0.019081374630331993
208.0,0.017545856535434723
224.0,0.01651456207036972
240.0,0.015947353094816208
256.0,0.01528861466795206
288.0,0.01380924042314291
320.0,0.01332458108663559
352.0,0.013116599060595036
384.0,0.01288221962749958
416.0,0.011697044596076012
448.0,0.009435063228011131
480.0,0.005867175292223692
512.0,0.004872595891356468
576.0,0.0037482110783457756
640.0,0.0021114142145961523
704.0,-0.001261592493392527
768.0,-0.001140333479270339
832.0,0.00034891406539827585
896.0,0.00234518526121974
960.0,0.004697945434600115
1024.0,0.005455276928842068
1152.0,0.0038073083851486444
1280.0,0.001511676236987114
1408.0,-0.0030082114972174168
1536.0,-0.0041110520251095295
1664.0,-0.009181701578199863
1792.0,-0.006264128722250462
1920.0,-0.003515472635626793
2048.0,-0.0008987223263829947
2304.0,0.0033993886318057775
2560.0,0.00037145279929973185
2816.0,-0.002553698141127825
3072.0,0.001195484772324562
3328.0,0.0032801618799567223
3584.0,-0.004596068058162928
3840.0,-0.011165525764226913
4096.0,-0.010112843476235867
4608.0,-0.005867463070899248
5120.0,-0.001792408642359078
5632.0,-0.0007627237355336547
6144.0,-0.012666262686252594
6656.0,-0.0020301949698477983
7168.0,-0.01245078258216381
end
