version,3.0
numOfCh,1
type,point
parent_name,714af_0dot4-0dot01
ch_type,1_1
kcount,1
numberNandB,1
brightnessNandB,1
carpet pos,0
pc,0
Time (ms),CH1 Auto-Correlation
1.0,0.036498453468084335
2.0,0.035330578684806824
3.0,0.034242093563079834
4.0,0.03322475031018257
5.0,0.03229117393493652
6.0,0.03146149218082428
7.0,0.03067607246339321
8.0,0.029922110959887505
9.0,0.02916828915476799
10.0,0.028415994718670845
11.0,0.02769842930138111
12.0,0.02705005183815956
13.0,0.026438424363732338
14.0,0.02587207406759262
15.0,0.025346659123897552
16.0,0.024822544306516647
18.0,0.023792976513504982
20.0,0.022893529385328293
22.0,0.02208489179611206
24.0,0.02140294946730137
26.0,0.020708320662379265
28.0,0.01999637298285961
30.0,0.019289135932922363
32.0,0.018603799864649773
36.0,0.017168279737234116
40.0,0.01587696187198162
44.0,0.014917354099452496
48.0,0.014185815118253231
52.0,0.013581449165940285
56.0,0.012980660423636436
60.0,0.01241604145616293
64.0,0.011914046481251717
72.0,0.011042059399187565
80.0,0.010227017104625702
88.0,0.009555693715810776
96.0,0.009043705649673939
104.0,0.00836658850312233
112.0,0.007911905646324158
120.0,0.007763661444187164
128.0,0.007633683271706104
144.0,0.007188511546701193
160.0,0.006531811784952879
176.0,0.005456754006445408
192.0,0.004543518181890249
208.0,0.003303455887362361
224.0,0.0033899692352861166
240.0,0.003783775493502617
256.0,0.004767450038343668
288.0,0.005577037576586008
320.0,0.005816694814711809
352.0,0.003337753238156438
384.0,0.0012314611813053489
416.0,0.0005480841500684619
448.0,-0.00015439724666066468
480.0,-0.001024866127409041
512.0,-0.0019076191820204258
576.0,2.2980217181611806e-05
640.0,0.0005358767230063677
704.0,-0.0012786482693627477
768.0,-0.0012378357350826263
832.0,-0.001992520410567522
896.0,-0.0028745965100824833
960.0,-0.0020464458502829075
1024.0,-0.0005350385326892138
1152.0,-0.0011286773951724172
1280.0,-0.0003991468984168023
1408.0,0.0010785628110170364
1536.0,-0.0007322870660573244
1664.0,-0.0004378561570774764
1792.0,-0.0022471044212579727
1920.0,-0.00514648575335741
2048.0,-0.005612108390778303
2304.0,-0.0022784715984016657
2560.0,-0.0013953628949820995
2816.0,0.00046935706632211804
3072.0,-0.0018868158804252744
3328.0,-0.003641702001914382
3584.0,-0.0045616584829986095
3840.0,-0.0018084404291585088
4096.0,0.0016370080411434174
4608.0,0.00367907527834177
5120.0,0.003279115306213498
5632.0,0.0030489787459373474
6144.0,-0.0009169321274384856
6656.0,-0.00347774475812912
7168.0,0.000478235975606367
7680.0,-0.0016564878169447184
8192.0,-0.003388018812984228
end
