version,3.0
numOfCh,1
type,point
parent_name,714af_0dot4-0dot01
ch_type,1_1
kcount,1
numberNandB,1
brightnessNandB,1
carpet pos,0
pc,0
Time (ms),CH1 Auto-Correlation
1.0,0.03600384667515755
2.0,0.034818071871995926
3.0,0.033722151070833206
4.0,0.03272203728556633
5.0,0.03179815411567688
6.0,0.030942685902118683
7.0,0.03016221709549427
8.0,0.0294424369931221
9.0,0.028784185647964478
10.0,0.02816176414489746
11.0,0.02755841054022312
12.0,0.026990879327058792
13.0,0.02644873969256878
14.0,0.025903046131134033
15.0,0.02536819875240326
16.0,0.024905158206820488
18.0,0.02393074333667755
20.0,0.023059789091348648
22.0,0.022273637354373932
24.0,0.02152354083955288
26.0,0.02085142768919468
28.0,0.02025567926466465
30.0,0.019720906391739845
32.0,0.019242098554968834
36.0,0.018244752660393715
40.0,0.01733299531042576
44.0,0.016499314457178116
48.0,0.01576661691069603
52.0,0.015039457008242607
56.0,0.014455991797149181
60.0,0.013880481943488121
64.0,0.01338257547467947
72.0,0.012662138789892197
80.0,0.012029333040118217
88.0,0.011642328463494778
96.0,0.01124762836843729
104.0,0.010684577748179436
112.0,0.010001913644373417
120.0,0.00959786120802164
128.0,0.009601680561900139
144.0,0.009587409906089306
160.0,0.009039417840540409
176.0,0.008152713067829609
192.0,0.007672030013054609
208.0,0.007036934606730938
224.0,0.0064267623238265514
240.0,0.00566471042111516
256.0,0.004805912729352713
288.0,0.003991811070591211
320.0,0.002739374991506338
352.0,0.0017054147319868207
384.0,0.002144074533134699
416.0,0.003572966670617461
448.0,0.003756662830710411
480.0,0.005737056490033865
512.0,0.005806672852486372
576.0,0.005329105071723461
640.0,0.005259278230369091
704.0,0.00606423057615757
768.0,0.005113670136779547
832.0,0.003331719897687435
896.0,0.0023946582805365324
960.0,0.0025729055050760508
1024.0,0.001161285093985498
1152.0,-0.0007814725977368653
1280.0,-0.001925577176734805
1408.0,-0.0007377061992883682
1536.0,-0.00016049026453401893
1664.0,-0.0002450979663990438
1792.0,-0.0002964146842714399
1920.0,-0.002777751535177231
2048.0,-0.0035083701368421316
2304.0,-0.001793061150237918
2560.0,-0.0005914427456445992
2816.0,-0.004006350412964821
3072.0,-0.0029381755739450455
3328.0,-0.0007170279277488589
3584.0,3.924404882127419e-05
3840.0,-0.002736332593485713
4096.0,0.001778238220140338
4608.0,0.002603507600724697
5120.0,0.0021376286167651415
5632.0,0.0013777617132291198
6144.0,-0.0009196091559715569
6656.0,-0.0047500645741820335
7168.0,-0.005304751452058554
7680.0,-0.00589680066332221
8192.0,-0.002549871802330017
end
