version,3.0
numOfCh,1
type,point
parent_name,714af_0dot4-0dot01
ch_type,1_1
kcount,1
numberNandB,1
brightnessNandB,1
carpet pos,0
pc,0
Time (ms),CH1 Auto-Correlation
1.0,0.04476194456219673
2.0,0.04365991801023483
3.0,0.04264767840504646
4.0,0.041689738631248474
5.0,0.04078332707285881
6.0,0.03991081565618515
7.0,0.039097245782613754
8.0,0.03831104189157486
9.0,0.037568818777799606
10.0,0.036878231912851334
11.0,0.036243733018636703
12.0,0.03562115505337715
13.0,0.03502819687128067
14.0,0.03446587175130844
15.0,0.03396444767713547
16.0,0.03346440568566322
18.0,0.032507359981536865
20.0,0.03171692043542862
22.0,0.03094925731420517
24.0,0.030249303206801414
26.0,0.02953532338142395
28.0,0.028846438974142075
30.0,0.02824307419359684
32.0,0.027704065665602684
36.0,0.026810061186552048
40.0,0.02608320116996765
44.0,0.025386733934283257
48.0,0.02469640225172043
52.0,0.024070100858807564
56.0,0.02365529164671898
60.0,0.023352205753326416
64.0,0.02308667078614235
72.0,0.022356390953063965
80.0,0.021810002624988556
88.0,0.02129797451198101
96.0,0.020757483318448067
104.0,0.01983809471130371
112.0,0.018932651728391647
120.0,0.018413295969367027
128.0,0.01811375841498375
144.0,0.017027931287884712
160.0,0.015721289440989494
176.0,0.014432329684495926
192.0,0.014035130850970745
208.0,0.01417401060461998
224.0,0.014004284515976906
240.0,0.013949650339782238
256.0,0.013445370830595493
288.0,0.012050408869981766
320.0,0.010851300321519375
352.0,0.01064376812428236
384.0,0.010445162653923035
416.0,0.00976202916353941
448.0,0.009150343015789986
480.0,0.009152283892035484
512.0,0.008635138161480427
576.0,0.006991229951381683
640.0,0.004336620215326548
704.0,0.005403704941272736
768.0,0.0062898267060518265
832.0,0.0056159840896725655
896.0,0.003661387600004673
960.0,0.005831543356180191
1024.0,0.00607562018558383
1152.0,0.001837486051954329
1280.0,0.0006955874850973487
1408.0,0.0011041912948712707
1536.0,0.0021573123522102833
1664.0,-0.0004818138258997351
1792.0,0.0010857906891033053
1920.0,0.001196310855448246
2048.0,0.004294625949114561
2304.0,0.004213481675833464
2560.0,0.0041169896721839905
2816.0,0.003588300896808505
3072.0,0.0008891897741705179
3328.0,0.0009308090666308999
3584.0,-0.000657757103908807
3840.0,0.0007617039955221117
4096.0,0.002319199498742819
4608.0,0.008169947192072868
5120.0,0.0019640063401311636
5632.0,-0.005230695474892855
6144.0,-0.004984938073903322
6656.0,-0.0014606388285756111
7168.0,-0.0016324997413903475
7680.0,-0.006947727873921394
8192.0,-0.010028013959527016
end
