version,3.0
numOfCh,1
type,point
parent_name,714af_0dot4-0dot01
ch_type,1_1
kcount,1
numberNandB,1
brightnessNandB,1
carpet pos,0
pc,0
Time (ms),CH1 Auto-Correlation
1.0,0.033017657697200775
2.0,0.031812191009521484
3.0,0.030680658295750618
4.0,0.029629960656166077
5.0,0.028647297993302345
6.0,0.027739666402339935
7.0,0.026887135580182076
8.0,0.02606678567826748
9.0,0.025283541530370712
10.0,0.024563917890191078
11.0,0.023864030838012695
12.0,0.023190291598439217
13.0,0.02255924604833126
14.0,0.02194705419242382
15.0,0.02135584130883217
16.0,0.020764537155628204
18.0,0.01971115730702877
20.0,0.0187534112483263
22.0,0.017943276092410088
24.0,0.01713535189628601
26.0,0.01637439802289009
28.0,0.015705592930316925
30.0,0.015141269192099571
32.0,0.01463929284363985
36.0,0.013797076418995857
40.0,0.013011963106691837
44.0,0.012305841781198978
48.0,0.011754085309803486
52.0,0.011194705031812191
56.0,0.010510675609111786
60.0,0.00987574364989996
64.0,0.009244391694664955
72.0,0.008567001670598984
80.0,0.008197702467441559
88.0,0.007713571656495333
96.0,0.007181582041084766
104.0,0.006639513187110424
112.0,0.006157681345939636
120.0,0.005790818016976118
128.0,0.005165389273315668
144.0,0.0039873309433460236
160.0,0.0030269089620560408
176.0,0.0027609968092292547
192.0,0.00256254686973989
208.0,0.0019867036025971174
224.0,0.0014481177786365151
240.0,0.0007951989537104964
256.0,-0.0002183816977776587
288.0,-0.00042764784302562475
320.0,-0.0004361590545158833
352.0,-0.0018660248024389148
384.0,-0.0025752983056008816
416.0,-0.0020423191599547863
448.0,-0.0009933223482221365
480.0,-0.0014828745042905211
512.0,-0.0016597294015809894
576.0,-0.002752155065536499
640.0,-0.0015574295539408922
704.0,-0.003197865793481469
768.0,-0.0018745927372947335
832.0,0.0003041251329705119
896.0,0.0009612131980247796
960.0,0.00318202399648726
1024.0,0.0030885692685842514
1152.0,0.001594044268131256
1280.0,0.001104236114770174
1408.0,0.00025138011551462114
1536.0,0.0012600409099832177
1664.0,0.0011011563474312425
1792.0,0.002175024477764964
1920.0,0.0033290372230112553
2048.0,0.0023001981899142265
2304.0,-0.0006911414675414562
2560.0,-0.0015038426499813795
2816.0,0.0007485442911274731
3072.0,0.0004461453063413501
3328.0,-0.00020640392904169858
3584.0,0.00014844768156763166
3840.0,0.0011590400245040655
4096.0,-0.0011635306291282177
4608.0,-0.00010173406917601824
5120.0,0.0001401877379976213
5632.0,-0.001563207944855094
6144.0,0.001959238899871707
6656.0,-0.000851397926453501
7168.0,-0.0015669692074880004
7680.0,0.0014668330550193787
8192.0,-0.0001629095058888197
end
