version,3.0
numOfCh,1
type,point
parent_name,c1204_0dot4-0dot01
ch_type,1_1
kcount,1
numberNandB,1
brightnessNandB,1
carpet pos,0
pc,0
Time (ms),CH1 Auto-Correlation
1.0,0.031900350004434586
2.0,0.030784502625465393
3.0,0.029742233455181122
4.0,0.028781211003661156
5.0,0.02785174921154976
6.0,0.026967179030179977
7.0,0.026139182969927788
8.0,0.025367816910147667
9.0,0.02461467683315277
10.0,0.023875126615166664
11.0,0.023138433694839478
12.0,0.022410966455936432
13.0,0.021729737520217896
14.0,0.021051505580544472
15.0,0.020381474867463112
16.0,0.01975606195628643
18.0,0.018611956387758255
20.0,0.017579704523086548
22.0,0.016625553369522095
24.0,0.015787716954946518
26.0,0.014972998760640621
28.0,0.014222802594304085
30.0,0.013577339239418507
32.0,0.01300840638577938
36.0,0.012065336108207703
40.0,0.011296718381345272
44.0,0.010688062757253647
48.0,0.010166830383241177
52.0,0.009602393954992294
56.0,0.009080437012016773
60.0,0.008665083907544613
64.0,0.00828678347170353
72.0,0.007605908904224634
80.0,0.0068884617649018764
88.0,0.005926080979406834
96.0,0.0052408804185688496
104.0,0.004679257981479168
112.0,0.004244641866534948
120.0,0.0036905535962432623
128.0,0.0032551696058362722
144.0,0.002511793514713645
160.0,0.001510875765234232
176.0,0.0008627948118373752
192.0,0.0011441624956205487
208.0,0.001176755758933723
224.0,0.0014262365875765681
240.0,0.0009417718974873424
256.0,0.0005939036491326988
288.0,9.41069156397134e-05
320.0,-0.0005220191669650376
352.0,-0.0005183012690395117
384.0,9.57447846303694e-05
416.0,0.00024122869945131242
448.0,0.0009408991900272667
480.0,0.0008429166628047824
512.0,-0.00026730471290647984
576.0,-1.58071761688916e-05
640.0,0.00035630082129500806
704.0,0.00121423474047333
768.0,0.002023867331445217
832.0,0.0010318888816982508
896.0,-0.00013599531666841358
960.0,-0.0008990432252176106
1024.0,-0.0006081484025344253
1152.0,0.001456750906072557
1280.0,0.0007429640390910208
1408.0,0.0019001960754394531
1536.0,0.001403928268700838
1664.0,0.0011616444680839777
1792.0,-0.0006228387355804443
1920.0,3.1987066904548556e-05
2048.0,-0.0016240680124610662
2304.0,-0.002403776627033949
2560.0,-0.0016239837277680635
2816.0,0.000533378915861249
3072.0,-0.002200028859078884
3328.0,-0.0002936110249720514
3584.0,0.000238255292060785
3840.0,3.8467172998934984e-05
4096.0,0.00044410311966203153
4608.0,0.001402348862029612
5120.0,0.00026566258748061955
5632.0,0.0007452262216247618
6144.0,0.00017521093832328916
6656.0,0.0005351511063054204
7168.0,-0.0009886276675388217
7680.0,-0.0014207479543983936
8192.0,-0.00034609183785505593
end
