version,3.0
numOfCh,1
type,point
parent_name,c1204_0dot4-0dot01
ch_type,1_1
kcount,1
numberNandB,1
brightnessNandB,1
carpet pos,0
pc,0
Time (ms),CH1 Auto-Correlation
1.0,0.024896396324038506
2.0,0.023719187825918198
3.0,0.0225736815482378
4.0,0.021547820419073105
5.0,0.020669424906373024
6.0,0.019849112257361412
7.0,0.01910438761115074
8.0,0.01838582754135132
9.0,0.017722222954034805
10.0,0.017022833228111267
11.0,0.016339778900146484
12.0,0.015709733590483665
13.0,0.015104636549949646
14.0,0.014554775319993496
15.0,0.014064203947782516
16.0,0.013582831248641014
18.0,0.012624174356460571
20.0,0.011766647920012474
22.0,0.011014929972589016
24.0,0.01022767648100853
26.0,0.009519613347947598
28.0,0.008862190879881382
30.0,0.008286629803478718
32.0,0.007788241840898991
36.0,0.006954880431294441
40.0,0.006284480914473534
44.0,0.00569454999640584
48.0,0.005149540491402149
52.0,0.004473251756280661
56.0,0.0035988695453852415
60.0,0.0030584929045289755
64.0,0.002535815816372633
72.0,0.001551436958834529
80.0,0.0010124787222594023
88.0,0.0005580892902798951
96.0,0.00047486613038927317
104.0,0.00010948457202175632
112.0,8.594620885560289e-05
120.0,0.0002532910439185798
128.0,0.00025656967773102224
144.0,-0.0007806530338712037
160.0,-0.0025204208213835955
176.0,-0.002877946477383375
192.0,-0.0022436585277318954
208.0,-0.0022095029707998037
224.0,-0.0010197667870670557
240.0,-0.00043111672857776284
256.0,-0.0009348008316010237
288.0,-0.0010534627363085747
320.0,-0.001525674480944872
352.0,-0.0012518945150077343
384.0,-0.00045765817048959434
416.0,-9.687781130196527e-05
448.0,-0.0006218628259375691
480.0,-0.00030069745844230056
512.0,0.0011398247443139553
576.0,0.0007860288023948669
640.0,-0.000563000503461808
704.0,0.0008001841488294303
768.0,0.0011279978789389133
832.0,-0.0011176050174981356
896.0,-0.0010993832256644964
960.0,-0.0013059834018349648
1024.0,-0.0019049624679610133
1152.0,-0.0014292325358837843
1280.0,-0.0013103913515806198
1408.0,-0.0001028875558404252
1536.0,0.0011260559549555182
1664.0,-0.0005069569451734424
1792.0,0.0015127211809158325
1920.0,0.0008266058866865933
2048.0,0.0009333224734291434
2304.0,0.0003380513226147741
2560.0,0.000249311065999791
2816.0,-0.0016229543834924698
3072.0,-0.0005919900140725076
3328.0,-0.0010488524567335844
3584.0,0.0007834163261577487
3840.0,0.0002891477197408676
4096.0,0.0013349317014217377
end
