version,3.0
numOfCh,1
type,point
parent_name,c1204_0dot4-0dot01
ch_type,1_1
kcount,1
numberNandB,1
brightnessNandB,1
carpet pos,0
pc,0
Time (ms),CH1 Auto-Correlation
1.0,0.04024650901556015
2.0,0.038796745240688324
3.0,0.03747055307030678
4.0,0.03621132671833038
5.0,0.03501390293240547
6.0,0.0338284894824028
7.0,0.03265220671892166
8.0,0.03151411563158035
9.0,0.030402611941099167
10.0,0.02935170941054821
11.0,0.028308821842074394
12.0,0.027297349646687508
13.0,0.02633434720337391
14.0,0.025367839261889458
15.0,0.024457192048430443
16.0,0.023614773526787758
18.0,0.021671103313565254
20.0,0.020129119977355003
22.0,0.018617330119013786
24.0,0.017255738377571106
26.0,0.015922725200653076
28.0,0.015293564647436142
30.0,0.014681261964142323
32.0,0.014132201671600342
36.0,0.013077137060463428
40.0,0.012176348827779293
44.0,0.011371960863471031
48.0,0.010670313611626625
52.0,0.010050198063254356
56.0,0.009612822905182838
60.0,0.009235627017915249
64.0,0.00897285994142294
72.0,0.008488593623042107
80.0,0.0077505470253527164
88.0,0.0067022438161075115
96.0,0.005382727365940809
104.0,0.0045642857439816
112.0,0.004071996547281742
120.0,0.003580793272703886
128.0,0.003497146535664797
144.0,0.0035221336875110865
160.0,0.002794774016365409
176.0,0.002209367463365197
192.0,0.001238974859006703
208.0,0.0009135703439824283
224.0,0.0015156774315983057
240.0,0.001246449537575245
256.0,0.00028142236988060176
288.0,-0.000521696696523577
320.0,-0.0008378772181458771
352.0,-0.0004745453188661486
384.0,0.0008305821684189141
416.0,0.001539584482088685
448.0,0.0028126277029514313
480.0,0.002552374266088009
512.0,0.001200397964566946
576.0,0.0013342815218493342
640.0,0.0017344770021736622
704.0,-0.00025380399893037975
768.0,-0.0005708919488824904
832.0,0.000945370236877352
896.0,0.0003720689855981618
960.0,0.0022001659963279963
1024.0,0.0029564162250608206
1152.0,0.002618274884298444
1280.0,0.0012082644971087575
1408.0,0.0011665050406008959
1536.0,0.0010700564598664641
1664.0,-0.002532472601160407
1792.0,-0.002359736943617463
1920.0,-0.00035131582990288734
2048.0,0.0004708059423137456
2304.0,-0.001352699939161539
2560.0,-0.0003321446420159191
2816.0,-0.0012030131183564663
3072.0,-0.0035463112872093916
3328.0,-0.0016946885734796524
3584.0,-0.0018602274358272552
3840.0,-0.00047909506247378886
4096.0,-0.0009027188643813133
4608.0,-0.00142814707942307
5120.0,-0.0010272619547322392
5632.0,-0.0011884926352649927
6144.0,0.0018678554333746433
6656.0,0.002110972534865141
7168.0,0.0029691264498978853
7680.0,0.003615021239966154
8192.0,0.001701928791590035
end
