version,3.0
numOfCh,1
type,point
parent_name,c1204_0dot4-0dot01
ch_type,1_1
kcount,1
numberNandB,1
brightnessNandB,1
carpet pos,0
pc,0
Time (ms),CH1 Auto-Correlation
1.0,0.03789412975311279
2.0,0.03671719506382942
3.0,0.03561443090438843
4.0,0.03456590697169304
5.0,0.033604491502046585
6.0,0.03269446641206741
7.0,0.03184257820248604
8.0,0.031048929318785667
9.0,0.030303262174129486
10.0,0.02960711345076561
11.0,0.02897379919886589
12.0,0.028362074866890907
13.0,0.02775176800787449
14.0,0.027183212339878082
15.0,0.026652133092284203
16.0,0.026151495054364204
18.0,0.025204310193657875
20.0,0.024346334859728813
22.0,0.02356771007180214
24.0,0.02274879440665245
26.0,0.021923910826444626
28.0,0.02112427167594433
30.0,0.020396584644913673
32.0,0.01976662129163742
36.0,0.018703298643231392
40.0,0.01776876114308834
44.0,0.016861001029610634
48.0,0.015934757888317108
52.0,0.015018118545413017
56.0,0.014178527519106865
60.0,0.013471315614879131
64.0,0.012825858779251575
72.0,0.01183156669139862
80.0,0.010791553184390068
88.0,0.009432964026927948
96.0,0.00857356283813715
104.0,0.007958631031215191
112.0,0.007393405307084322
120.0,0.007144652772694826
128.0,0.0068604727275669575
144.0,0.005657845642417669
160.0,0.004542894195765257
176.0,0.003168560564517975
192.0,0.0023250123485922813
208.0,0.002055350923910737
224.0,0.002201913855969906
240.0,0.0022936377208679914
256.0,0.0025192503817379475
288.0,0.002731895539909601
320.0,0.00426782201975584
352.0,0.0035167899914085865
384.0,0.0027503534220159054
416.0,0.0019593238830566406
448.0,0.002503091935068369
480.0,0.001777260797098279
512.0,0.00017655157716944814
576.0,-0.0003166779351886362
640.0,-0.001156867598183453
704.0,-0.001461596111766994
768.0,0.0008117201505228877
832.0,0.0020249297376722097
896.0,0.0018056131666526198
960.0,-0.00034998153569176793
1024.0,-0.0033693492878228426
1152.0,-0.003971143160015345
1280.0,-0.004794267937541008
1408.0,-0.0051899803802371025
1536.0,-0.004111930727958679
1664.0,-0.0016947777476161718
1792.0,-0.0002650280366651714
1920.0,-0.0014965020818635821
2048.0,-0.00022974431340117007
2304.0,-0.0012984349159523845
2560.0,0.0027249474078416824
2816.0,-4.985087434761226e-05
3072.0,0.0007776010315865278
3328.0,-2.6450652512721717e-05
3584.0,0.0008152795489877462
3840.0,0.00016725214663892984
4096.0,0.00031048269011080265
4608.0,0.0009776573861017823
5120.0,-0.0019472937565296888
5632.0,0.00022739122505299747
6144.0,-0.0003573406720533967
6656.0,-0.002346023451536894
7168.0,-0.002047298476099968
7680.0,0.0002422882243990898
8192.0,0.005361671559512615
end
