version,3.0
numOfCh,1
type,point
parent_name,c1204_0dot4-0dot01
ch_type,1_1
kcount,1
numberNandB,1
brightnessNandB,1
carpet pos,0
pc,0
Time (ms),CH1 Auto-Correlation
1.0,0.03752864897251129
2.0,0.03634921833872795
3.0,0.035227157175540924
4.0,0.03415030986070633
5.0,0.03313853591680527
6.0,0.032181400805711746
7.0,0.03125346079468727
8.0,0.03035987913608551
9.0,0.02950560674071312
10.0,0.02870776876807213
11.0,0.027939947322010994
12.0,0.02724624052643776
13.0,0.026641281321644783
14.0,0.02603835053741932
15.0,0.025458915159106255
16.0,0.024898264557123184
18.0,0.023776894435286522
20.0,0.022761855274438858
22.0,0.02185683324933052
24.0,0.021022705361247063
26.0,0.02025240659713745
28.0,0.019553780555725098
30.0,0.01885644719004631
32.0,0.018205298110842705
36.0,0.017012596130371094
40.0,0.0158686600625515
44.0,0.014830229803919792
48.0,0.013888513669371605
52.0,0.013072573579847813
56.0,0.012438402511179447
60.0,0.01204676367342472
64.0,0.011695090681314468
72.0,0.010737781412899494
80.0,0.00958369392901659
88.0,0.00883230846375227
96.0,0.00838250108063221
104.0,0.007712038699537516
112.0,0.006711993832141161
120.0,0.006257717963308096
128.0,0.006112950854003429
144.0,0.006032244302332401
160.0,0.00586042832583189
176.0,0.005084581673145294
192.0,0.004030622076243162
208.0,0.002452756278216839
224.0,0.0005350323626771569
240.0,0.00017696018039714545
256.0,0.0004959572688676417
288.0,0.0005405491101555526
320.0,0.0014244714984670281
352.0,0.0024721152149140835
384.0,0.001612845459021628
416.0,0.0010765274055302143
448.0,0.0021860520355403423
480.0,0.002032715594395995
512.0,0.002193718682974577
576.0,-0.000605618639383465
640.0,-9.716417116578668e-05
704.0,0.0006921759922988713
768.0,-0.0011771036079153419
832.0,-0.0011521709384396672
896.0,-0.0017164142336696386
960.0,-0.003049529856070876
1024.0,-0.0027017085812985897
1152.0,-0.0034430192317813635
1280.0,-0.0029703450854867697
1408.0,-0.002248347969725728
1536.0,-0.001984234433621168
1664.0,-0.0019401381723582745
1792.0,-0.0012737262295559049
1920.0,-0.000868902774527669
2048.0,0.000691570749040693
2304.0,0.0015375142684206367
2560.0,0.0002334725286345929
2816.0,8.03941220510751e-05
3072.0,-0.0015046974876895547
3328.0,-0.0020324301440268755
3584.0,0.0007657550740987062
3840.0,0.0018086214549839497
4096.0,0.002343406667932868
4608.0,-0.0016306755132973194
5120.0,-0.003084443276748061
5632.0,0.001296079601161182
6144.0,0.003618071787059307
6656.0,0.000261879205936566
7168.0,-0.004706408362835646
7680.0,-0.00340535887517035
8192.0,0.001856911345385015
end
