version,3.0
numOfCh,1
type,point
parent_name,c1204_0dot4-0dot01
ch_type,1_1
kcount,1
numberNandB,1
brightnessNandB,1
carpet pos,0
pc,0
Time (ms),CH1 Auto-Correlation
1.0,0.036838091909885406
2.0,0.03571833670139313
3.0,0.03466029465198517
4.0,0.03365180641412735
5.0,0.03271177038550377
6.0,0.03183773159980774
7.0,0.03102748841047287
8.0,0.0302742887288332
9.0,0.029561039060354233
10.0,0.028866007924079895
11.0,0.02817739173769951
12.0,0.027539126574993134
13.0,0.02690873108804226
14.0,0.0262879841029644
15.0,0.025684034451842308
16.0,0.0250801183283329
18.0,0.023926598951220512
20.0,0.02286299504339695
22.0,0.021924439817667007
24.0,0.021069077774882317
26.0,0.02028360590338707
28.0,0.019541069865226746
30.0,0.018816135823726654
32.0,0.018172580748796463
36.0,0.016856539994478226
40.0,0.01587422378361225
44.0,0.015072111040353775
48.0,0.014365825802087784
52.0,0.013708080165088177
56.0,0.012953910045325756
60.0,0.012054471299052238
64.0,0.011215229518711567
72.0,0.009789413772523403
80.0,0.008342891931533813
88.0,0.007401278708130121
96.0,0.007120828609913588
104.0,0.006755654700100422
112.0,0.0063344938680529594
120.0,0.006188023369759321
128.0,0.005813820753246546
144.0,0.004990356974303722
160.0,0.003944389056414366
176.0,0.003435793099924922
192.0,0.0039983647875487804
208.0,0.004223408177495003
224.0,0.004146258812397718
240.0,0.004305585287511349
256.0,0.0033508886117488146
288.0,0.0017647722270339727
320.0,0.0017537792446091771
352.0,0.0014695775462314487
384.0,0.0017393905436620116
416.0,0.0011302947532385588
448.0,0.0016270671039819717
480.0,0.0020921931136399508
512.0,0.001183243584819138
576.0,0.00126065278891474
640.0,0.002168439794331789
704.0,0.0021258548367768526
768.0,-0.0005086135934107006
832.0,-0.00354799279011786
896.0,-0.0028469807002693415
960.0,-0.004137871786952019
1024.0,-0.003263715421780944
1152.0,-0.0040398589335381985
1280.0,-0.004787403624504805
1408.0,-0.0028754083905369043
1536.0,-0.0006356280646286905
1664.0,-0.000840446911752224
1792.0,0.0002630447852425277
1920.0,0.0009907359490171075
2048.0,0.002300853608176112
2304.0,0.002584157045930624
2560.0,0.002205873839557171
2816.0,0.000965793093200773
3072.0,-0.0008837784989736974
3328.0,-0.0033376391511410475
3584.0,-0.0007580590317957103
3840.0,-0.0023599956184625626
4096.0,0.0007043145014904439
4608.0,0.0018792368937283754
5120.0,0.0007062165532261133
5632.0,-0.0010991711169481277
6144.0,-7.332880340982229e-05
6656.0,0.0024407266173511744
7168.0,-0.0008274663123302162
7680.0,-0.003965168260037899
8192.0,-0.0023305853828787804
end
