version,3.0
numOfCh,1
type,point
parent_name,c1204_0dot4-0dot01
ch_type,1_1
kcount,1
numberNandB,1
brightnessNandB,1
carpet pos,0
pc,0
Time (ms),CH1 Auto-Correlation
1.0,0.033726613968610764
2.0,0.032617561519145966
3.0,0.0315539576113224
4.0,0.03054213523864746
5.0,0.02955351211130619
6.0,0.02858780324459076
7.0,0.027681391686201096
8.0,0.026819340884685516
9.0,0.026014745235443115
10.0,0.02525070123374462
11.0,0.024559171870350838
12.0,0.023907184600830078
13.0,0.023314327001571655
14.0,0.022735092788934708
15.0,0.022210733965039253
16.0,0.021729489788413048
18.0,0.02080378867685795
20.0,0.01990443840622902
22.0,0.019063489511609077
24.0,0.0183259267359972
26.0,0.01761004328727722
28.0,0.016949931159615517
30.0,0.01635696552693844
32.0,0.015795111656188965
36.0,0.014857986010611057
40.0,0.014019918628036976
44.0,0.013205789029598236
48.0,0.012574112974107265
52.0,0.011942642740905285
56.0,0.011361691169440746
60.0,0.010904715396463871
64.0,0.010512314736843109
72.0,0.009712982922792435
80.0,0.009021797217428684
88.0,0.008461758494377136
96.0,0.008130359463393688
104.0,0.007838440127670765
112.0,0.0073256418108940125
120.0,0.0068696304224431515
128.0,0.006489391904324293
144.0,0.006311879493296146
160.0,0.006539556663483381
176.0,0.006001269444823265
192.0,0.004700342193245888
208.0,0.004406412597745657
224.0,0.004556234460324049
240.0,0.005055423825979233
256.0,0.005269298329949379
288.0,0.005517350509762764
320.0,0.004988375119864941
352.0,0.00469817453995347
384.0,0.0044736070558428764
416.0,0.0046643586829304695
448.0,0.002243884839117527
480.0,0.001251953886821866
512.0,0.0014187722699716687
576.0,0.0036210324615240097
640.0,0.001863238518126309
704.0,5.767188122263178e-05
768.0,-0.0014162076404318213
832.0,-0.002420932985842228
896.0,-0.0023280743043869734
960.0,-0.003143586218357086
1024.0,-0.0036577486898750067
1152.0,-0.004193009342998266
1280.0,-0.004547236952930689
1408.0,-0.004914850927889347
1536.0,-0.005091759841889143
1664.0,-0.004886333364993334
1792.0,-0.0034904631320387125
1920.0,0.0005767495022155344
2048.0,0.0016304039163514972
2304.0,0.0016620532842352986
2560.0,0.003885664977133274
2816.0,0.005259010475128889
3072.0,0.0032085576094686985
3328.0,0.0004313006647862494
3584.0,-0.0028387114871293306
3840.0,-0.005063199438154697
4096.0,-0.0054656220600008965
4608.0,-0.0014513437636196613
5120.0,0.0026684121694415808
5632.0,0.0024577626027166843
6144.0,0.0017333048162981868
6656.0,-0.005002335645258427
7168.0,-0.006482627708464861
7680.0,0.0009652984444983304
8192.0,0.005827955435961485
end
