version,3.0
numOfCh,1
type,point
parent_name,c1204_0dot4-0dot01
ch_type,1_1
kcount,1
numberNandB,1
brightnessNandB,1
carpet pos,0
pc,0
Time (ms),CH1 Auto-Correlation
1.0,0.02865121141076088
2.0,0.027505764737725258
3.0,0.026445062831044197
4.0,0.025459881871938705
5.0,0.024542391300201416
6.0,0.023683147504925728
7.0,0.022877290844917297
8.0,0.02209733985364437
9.0,0.02134818211197853
10.0,0.020624233409762383
11.0,0.019943639636039734
12.0,0.01928861252963543
13.0,0.018651606515049934
14.0,0.018002863973379135
15.0,0.017401888966560364
16.0,0.01681257225573063
18.0,0.015792934224009514
20.0,0.014929569326341152
22.0,0.014102554880082607
24.0,0.013370531611144543
26.0,0.0127109345048666
28.0,0.012115338817238808
30.0,0.011629088781774044
32.0,0.011194407939910889
36.0,0.010125605389475822
40.0,0.009093455038964748
44.0,0.008241886273026466
48.0,0.007555807009339333
52.0,0.007014051079750061
56.0,0.00655494024977088
60.0,0.006050579249858856
64.0,0.0056552160531282425
72.0,0.0055693406611680984
80.0,0.005314423702657223
88.0,0.005025035701692104
96.0,0.004890928044915199
104.0,0.004762162454426289
112.0,0.004645480774343014
120.0,0.004452922381460667
128.0,0.0041271778754889965
144.0,0.00393119640648365
160.0,0.00430627167224884
176.0,0.004260353744029999
192.0,0.004329249728471041
208.0,0.004088521469384432
224.0,0.003794291755184531
240.0,0.003356401575729251
256.0,0.0026165631134063005
288.0,0.0021900152787566185
320.0,0.0015506625641137362
352.0,0.0008160846191458404
384.0,0.00035933926119469106
416.0,-0.00119662971701473
448.0,-0.002259428845718503
480.0,-0.001446320442482829
512.0,-4.8701542255003005e-05
576.0,-0.0004581111716106534
640.0,-0.0008715067524462938
704.0,-0.000546117196790874
768.0,0.0005896346992813051
832.0,0.0010149634908884764
896.0,0.0014067520387470722
960.0,0.0025373329408466816
1024.0,0.0020106949377804995
1152.0,0.0003070123784709722
1280.0,-0.0008959218394011259
1408.0,-0.0009311987087130547
1536.0,-4.1520783270243555e-05
1664.0,0.00017165447934530675
1792.0,-0.0008768498082645237
1920.0,-0.0006813445361331105
2048.0,-0.001877769362181425
2304.0,-0.002660705242305994
2560.0,-0.0008949968032538891
2816.0,0.0016044564545154572
3072.0,0.002008659765124321
3328.0,0.001056028762832284
3584.0,0.00018395669758319855
3840.0,-0.001338411122560501
4096.0,-0.0020350937265902758
4608.0,-0.00012999803584534675
5120.0,-0.003379597794264555
5632.0,-0.0020312450360506773
6144.0,0.0027652985882014036
6656.0,-0.0009536235011182725
7168.0,0.0011377590708434582
7680.0,0.0011731069535017014
8192.0,-0.0014875524211674929
end
