version,3.0
numOfCh,1
type,point
parent_name,c1204_0dot4-0dot01
ch_type,1_1
kcount,1
numberNandB,1
brightnessNandB,1
carpet pos,0
pc,0
Time (ms),CH1 Auto-Correlation
1.0,0.03578397259116173
2.0,0.0346231609582901
3.0,0.03353354334831238
4.0,0.03251515328884125
5.0,0.03157268092036247
6.0,0.03073778562247753
7.0,0.02995547279715538
8.0,0.029206542298197746
9.0,0.028457053005695343
10.0,0.027716737240552902
11.0,0.027004072442650795
12.0,0.026356931775808334
13.0,0.025750087574124336
14.0,0.025179294869303703
15.0,0.024652328342199326
16.0,0.02413293905556202
18.0,0.023110918700695038
20.0,0.022207923233509064
22.0,0.02140689454972744
24.0,0.020717771723866463
26.0,0.020019540563225746
28.0,0.019291063770651817
30.0,0.018623478710651398
32.0,0.017979657277464867
36.0,0.01660243794322014
40.0,0.015413426794111729
44.0,0.014521433040499687
48.0,0.013844137080013752
52.0,0.013267534784972668
56.0,0.012751900590956211
60.0,0.012301094830036163
64.0,0.011911081150174141
72.0,0.011143500916659832
80.0,0.010434660129249096
88.0,0.009781358763575554
96.0,0.009059750474989414
104.0,0.008472579531371593
112.0,0.008286493830382824
120.0,0.008286570198833942
128.0,0.008278932422399521
144.0,0.007971695624291897
160.0,0.0069854240864515305
176.0,0.006001695990562439
192.0,0.0046676937490701675
208.0,0.003025949699804187
224.0,0.0024420139379799366
240.0,0.00275389919988811
256.0,0.002992674708366394
288.0,0.0030106150079518557
320.0,0.002562063978984952
352.0,0.0006237727357074618
384.0,-0.0009590996196493506
416.0,-0.0004066225665155798
448.0,-0.00017808562552090734
480.0,-0.0002433121408103034
512.0,-0.0013916630996391177
576.0,-0.00038978562224656343
640.0,-0.00012972384865861386
704.0,-0.0005535603268072009
768.0,-0.00035251720692031085
832.0,-0.0012028616620227695
896.0,-0.0005166468326933682
960.0,-0.0005281828925944865
1024.0,0.0010812351247295737
1152.0,-0.0010799160227179527
1280.0,-0.0012166955275461078
1408.0,0.0007286476320587099
1536.0,-0.0003170384152326733
1664.0,4.33572095062118e-05
1792.0,-0.0022071036510169506
1920.0,-0.007083576172590256
2048.0,-0.005751230288296938
2304.0,-0.001958582317456603
2560.0,0.0004678361874539405
2816.0,0.0011827772250398993
3072.0,-0.0011336493771523237
3328.0,-0.002739373594522476
3584.0,-0.0037699283566325903
3840.0,-0.0006928995717316866
4096.0,0.0025810380466282368
4608.0,-0.001454017125070095
5120.0,-0.0014147792244330049
5632.0,0.0021275037433952093
6144.0,-0.002605504123494029
6656.0,0.0009018953423947096
7168.0,0.003322676755487919
7680.0,-0.0038394173607230186
8192.0,0.0018097501015290618
end
