version,3.0
numOfCh,1
type,point
parent_name,c1204_0dot4-0dot01
ch_type,1_1
kcount,1
numberNandB,1
brightnessNandB,1
carpet pos,0
pc,0
Time (ms),CH1 Auto-Correlation
1.0,0.03641320765018463
2.0,0.035338710993528366
3.0,0.034349408000707626
4.0,0.033420998603105545
5.0,0.03255337476730347
6.0,0.031720224767923355
7.0,0.030925391241908073
8.0,0.03017486073076725
9.0,0.029472842812538147
10.0,0.028804561123251915
11.0,0.028174808248877525
12.0,0.027576876804232597
13.0,0.026995891705155373
14.0,0.026416989043354988
15.0,0.025869952514767647
16.0,0.025348814204335213
18.0,0.024392863735556602
20.0,0.023484811186790466
22.0,0.022575294598937035
24.0,0.021663956344127655
26.0,0.02082996256649494
28.0,0.02008557878434658
30.0,0.01942935213446617
32.0,0.01880943961441517
36.0,0.01766548864543438
40.0,0.016618603840470314
44.0,0.015762614086270332
48.0,0.015054181218147278
52.0,0.01439718808978796
56.0,0.013989925384521484
60.0,0.013719894923269749
64.0,0.013429567217826843
72.0,0.012665980495512486
80.0,0.011978494003415108
88.0,0.011031688190996647
96.0,0.010360050946474075
104.0,0.009892784059047699
112.0,0.009697094559669495
120.0,0.009677163325250149
128.0,0.009592180140316486
144.0,0.008914420381188393
160.0,0.008737999014556408
176.0,0.00867870170623064
192.0,0.00888914242386818
208.0,0.00885532796382904
224.0,0.008176123723387718
240.0,0.007497727405279875
256.0,0.0074622067622840405
288.0,0.006580909248441458
320.0,0.005163449328392744
352.0,0.005796282552182674
384.0,0.007032219786196947
416.0,0.006254810839891434
448.0,0.006333400495350361
480.0,0.00622151605784893
512.0,0.005478645209223032
576.0,0.005284820683300495
640.0,0.004288994241505861
704.0,0.003907117061316967
768.0,0.0021324295084923506
832.0,0.0021784049458801746
896.0,0.001839043339714408
960.0,0.0006826600292697549
1024.0,0.0002471245243214071
1152.0,0.0029041930101811886
1280.0,0.0030096506234258413
1408.0,0.0002902041596826166
1536.0,0.00011328978143865243
1664.0,0.0017950973706319928
1792.0,0.0027754798065871
1920.0,0.00133663066662848
2048.0,0.0018119667656719685
2304.0,0.0010665940353646874
2560.0,-0.0009301165118813515
2816.0,-0.0002718561445362866
3072.0,0.0015204010996967554
3328.0,0.002289719646796584
3584.0,0.0024492060765624046
3840.0,0.0026245617773383856
4096.0,0.0015604104846715927
4608.0,-0.0037306235171854496
5120.0,-0.005437491461634636
5632.0,-0.003719783155247569
6144.0,-0.0012226445833221078
6656.0,-0.002559202490374446
7168.0,-0.0027808318845927715
7680.0,-0.0036496329121291637
8192.0,-0.006807408761233091
end
