version,3.0
numOfCh,1
type,point
parent_name,c1204_0dot4-0dot01
ch_type,1_1
kcount,1
numberNandB,1
brightnessNandB,1
carpet pos,0
pc,0
Time (ms),CH1 Auto-Correlation
1.0,0.02771754004061222
2.0,0.02659531496465206
3.0,0.025543637573719025
4.0,0.024556126445531845
5.0,0.023646334186196327
6.0,0.022835485637187958
7.0,0.02208046242594719
8.0,0.021377362310886383
9.0,0.0207460168749094
10.0,0.020177192986011505
11.0,0.019653959199786186
12.0,0.019152501598000526
13.0,0.018644673749804497
14.0,0.018160080537199974
15.0,0.017663512378931046
16.0,0.017153745517134666
18.0,0.016294825822114944
20.0,0.01553418766707182
22.0,0.014790688641369343
24.0,0.014011811465024948
26.0,0.013263532891869545
28.0,0.012585709802806377
30.0,0.012016444467008114
32.0,0.011559689417481422
36.0,0.010838404297828674
40.0,0.010154458694159985
44.0,0.009587081149220467
48.0,0.009117553010582924
52.0,0.008662653155624866
56.0,0.008261065930128098
60.0,0.00792189221829176
64.0,0.0076891956850886345
72.0,0.007274484261870384
80.0,0.0069410488940775394
88.0,0.006483777426183224
96.0,0.0055442736484110355
104.0,0.004265656694769859
112.0,0.0032214028760790825
120.0,0.002320012776181102
128.0,0.001695224898867309
144.0,0.0013736726250499487
160.0,0.001395713072270155
176.0,0.0006060593877919018
192.0,-0.00043060517054982483
208.0,-0.0004526336269918829
224.0,0.00011395784531487152
240.0,-0.00016554153990000486
256.0,-0.00043141949572600424
288.0,-0.00013428165402729064
320.0,0.0008420788217335939
352.0,0.0011690828250721097
384.0,0.0005437544896267354
416.0,0.0003601791395340115
448.0,0.0002706191153265536
480.0,0.0006791780469939113
512.0,0.0012249667197465897
576.0,-0.0011249894741922617
640.0,5.1092578360112384e-05
704.0,0.0019027510425075889
768.0,0.0004825927608180791
832.0,-0.00021217393805272877
896.0,0.0003462486492935568
960.0,0.0010909638367593288
1024.0,0.001781575265340507
1152.0,0.0026472127065062523
1280.0,0.0012769749155268073
1408.0,-0.0015770700993016362
1536.0,-0.0017772943247109652
1664.0,-0.00018552530673332512
1792.0,-0.0006488673388957977
1920.0,0.0013040703488513827
2048.0,-0.0008994303061626852
2304.0,0.001475078403018415
2560.0,-0.0013306824257597327
2816.0,-0.0022786713670939207
3072.0,-0.001548099098727107
3328.0,-0.0005384365795180202
3584.0,-0.0012253404129296541
3840.0,-0.0035340460017323494
4096.0,-0.0013911580899730325
4608.0,-0.0002761086216196418
5120.0,-0.0015211021527647972
5632.0,-0.00011024618288502097
6144.0,-0.000403142417781055
6656.0,0.0015740474918857217
7168.0,0.001766837784089148
7680.0,0.0008170136716216803
8192.0,1.146552494901698e-05
end
