version,3.0
numOfCh,1
type,point
parent_name,c1204_0dot4-0dot01
ch_type,1_1
kcount,1
numberNandB,1
brightnessNandB,1
carpet pos,0
pc,0
Time (ms),CH1 Auto-Correlation
1.0,0.03260795399546623
2.0,0.03146801516413689
3.0,0.030439741909503937
4.0,0.02949811890721321
5.0,0.028600113466382027
6.0,0.02772873267531395
7.0,0.02691352739930153
8.0,0.026134774088859558
9.0,0.025415662676095963
10.0,0.024723973125219345
11.0,0.024064021185040474
12.0,0.023472972214221954
13.0,0.022873856127262115
14.0,0.022277414798736572
15.0,0.021690042689442635
16.0,0.021143348887562752
18.0,0.02020237036049366
20.0,0.019345488399267197
22.0,0.018589047715067863
24.0,0.017964622005820274
26.0,0.01738850586116314
28.0,0.01683156006038189
30.0,0.016251929104328156
32.0,0.01574265956878662
36.0,0.015056997537612915
40.0,0.014531203545629978
44.0,0.013979149051010609
48.0,0.013441713526844978
52.0,0.01297390554100275
56.0,0.01258108764886856
60.0,0.012301274575293064
64.0,0.012117622420191765
72.0,0.011181258596479893
80.0,0.010468683205544949
88.0,0.009956992231309414
96.0,0.009393943473696709
104.0,0.008655067533254623
112.0,0.007855248637497425
120.0,0.007606980390846729
128.0,0.007443548180162907
144.0,0.007056428585201502
160.0,0.006021886598318815
176.0,0.004768468905240297
192.0,0.005112632177770138
208.0,0.00536684412509203
224.0,0.004748055245727301
240.0,0.004090512171387672
256.0,0.0035730055533349514
288.0,0.0017576119862496853
320.0,0.000868527393322438
352.0,0.001010982203297317
384.0,1.7259164451388642e-05
416.0,-0.0002627076755743474
448.0,0.0017723534256219864
480.0,0.001600864459760487
512.0,0.0011541321873664856
576.0,0.0027018364053219557
640.0,0.0033383218105882406
704.0,0.004172464832663536
768.0,0.004250572994351387
832.0,0.0020611302461475134
896.0,0.0005889061721973121
960.0,-0.0020679659210145473
1024.0,-0.0028744512237608433
1152.0,0.00010914830636465922
1280.0,0.002020592335611582
1408.0,0.0030447375029325485
1536.0,0.0023293166887015104
1664.0,0.0010168647859245539
1792.0,-0.0008230917155742645
1920.0,-0.0010174771305173635
2048.0,-0.002617022255435586
2304.0,-0.0009987412486225367
2560.0,-0.00048766378313302994
2816.0,-0.0052595133893191814
3072.0,-0.0036643429193645716
3328.0,-0.003830212401226163
3584.0,-0.0076667433604598045
3840.0,-0.003065591212362051
4096.0,-0.003386610420420766
4608.0,-0.0016729793278500438
5120.0,-0.004414297174662352
5632.0,0.004686027765274048
6144.0,0.001668555778451264
6656.0,-0.003147338517010212
7168.0,0.008761828765273094
end
