version,3.0
numOfCh,1
type,point
parent_name,c1204_0dot4-0dot01
ch_type,1_1
kcount,1
numberNandB,1
brightnessNandB,1
carpet pos,0
pc,0
Time (ms),CH1 Auto-Correlation
1.0,0.040234412997961044
2.0,0.03911658003926277
3.0,0.0380687415599823
4.0,0.037065837532281876
5.0,0.03607838600873947
6.0,0.03512346372008324
7.0,0.034261126071214676
8.0,0.03344086557626724
9.0,0.032662417739629745
10.0,0.03189845383167267
11.0,0.03116130828857422
12.0,0.030458806082606316
13.0,0.029811851680278778
14.0,0.029147867113351822
15.0,0.028511106967926025
16.0,0.027881739661097527
18.0,0.026727668941020966
20.0,0.025613542646169662
22.0,0.024476028978824615
24.0,0.023460030555725098
26.0,0.02253383956849575
28.0,0.02169134095311165
30.0,0.020858528092503548
32.0,0.020080262795090675
36.0,0.01870736852288246
40.0,0.01753261126577854
44.0,0.016469651833176613
48.0,0.015366439707577229
52.0,0.014318224973976612
56.0,0.013510073535144329
60.0,0.012776083312928677
64.0,0.012264427728950977
72.0,0.011517766863107681
80.0,0.010460320860147476
88.0,0.009326421655714512
96.0,0.00822342187166214
104.0,0.007420544978231192
112.0,0.006636141799390316
120.0,0.006069071125239134
128.0,0.006128056440502405
144.0,0.005846069194376469
160.0,0.005156247410923243
176.0,0.004763539880514145
192.0,0.004712473135441542
208.0,0.005786335561424494
224.0,0.006262029055505991
240.0,0.0064891730435192585
256.0,0.005850926041603088
288.0,0.0038112204056233168
320.0,0.0013097457122057676
352.0,0.0004719647404272109
384.0,0.00039087218465283513
416.0,0.0011677778093144298
448.0,-0.00035978888627141714
480.0,-0.0009244284010492265
512.0,-0.0007992323953658342
576.0,0.0012088094372302294
640.0,0.001035197637975216
704.0,0.0015112754190340638
768.0,0.0008365444373339415
832.0,0.0017181145958602428
896.0,0.00031017730361782014
960.0,0.0012901638401672244
1024.0,0.0018873716471716762
1152.0,-0.0017184134339913726
1280.0,-0.003899571718648076
1408.0,-0.002842675196006894
1536.0,0.0005456797080114484
1664.0,0.0021092069800943136
1792.0,-0.0031449010130017996
1920.0,-0.007802590262144804
2048.0,-0.006216833833605051
2304.0,-0.004487634636461735
2560.0,0.0003545676590874791
2816.0,0.0002230057871202007
3072.0,0.0010454466100782156
3328.0,0.004532970953732729
3584.0,0.002052334137260914
3840.0,0.00136983348056674
4096.0,0.0025334754027426243
4608.0,-0.00041239766869693995
5120.0,-0.0010241693817079067
5632.0,-0.004060065373778343
6144.0,-0.0023349609691649675
6656.0,-0.0025162878446280956
7168.0,-0.0009929874213412404
7680.0,-2.664047497091815e-05
8192.0,-0.003467441536486149
end
