version,3.0
numOfCh,1
type,point
parent_name,c1204_0dot4-0dot01
ch_type,1_1
kcount,1
numberNandB,1
brightnessNandB,1
carpet pos,0
pc,0
Time (ms),CH1 Auto-Correlation
1.0,0.5248831510543823
2.0,0.5241184234619141
3.0,0.5233601331710815
4.0,0.5226441621780396
5.0,0.5219820141792297
6.0,0.5213596224784851
7.0,0.5207511186599731
8.0,0.5201130509376526
9.0,0.5194653868675232
10.0,0.5188561677932739
11.0,0.5182845592498779
12.0,0.5177288055419922
13.0,0.517158567905426
14.0,0.5166236758232117
15.0,0.5160741209983826
16.0,0.5155821442604065
18.0,0.5146854519844055
20.0,0.5137592554092407
22.0,0.5128553509712219
24.0,0.5119423270225525
26.0,0.5111062526702881
28.0,0.5103539824485779
30.0,0.5096952319145203
32.0,0.5089967250823975
36.0,0.5077904462814331
40.0,0.5066424608230591
44.0,0.5055227279663086
48.0,0.5044856071472168
52.0,0.5035955309867859
56.0,0.5027020573616028
60.0,0.5019288063049316
64.0,0.5011529922485352
72.0,0.4994364380836487
80.0,0.49755147099494934
88.0,0.49585723876953125
96.0,0.4943079948425293
104.0,0.49284154176712036
112.0,0.4911460280418396
120.0,0.48932066559791565
128.0,0.4873323440551758
144.0,0.4827437400817871
160.0,0.47802528738975525
176.0,0.47432151436805725
192.0,0.47069457173347473
208.0,0.46615278720855713
224.0,0.4614384174346924
240.0,0.45685485005378723
256.0,0.4537599980831146
288.0,0.44327622652053833
320.0,0.43123000860214233
352.0,0.4184702932834625
384.0,0.4055345356464386
416.0,0.3883000910282135
448.0,0.3721041679382324
480.0,0.35517963767051697
512.0,0.34119275212287903
576.0,0.3105049431324005
640.0,0.27728989720344543
704.0,0.2407531589269638
768.0,0.20746859908103943
832.0,0.17423929274082184
896.0,0.1438875049352646
960.0,0.11519693583250046
1024.0,0.08847834169864655
1152.0,0.0435628704726696
1280.0,0.008519160561263561
1408.0,-0.0174427330493927
1536.0,-0.029781309887766838
1664.0,-0.03885217756032944
1792.0,-0.04511555656790733
1920.0,-0.048272810876369476
2048.0,-0.049097850918769836
2304.0,-0.04541289433836937
2560.0,-0.05107089504599571
2816.0,-0.05715771019458771
3072.0,-0.059479400515556335
3328.0,-0.06213527172803879
3584.0,-0.07015814632177353
3840.0,-0.0766044333577156
4096.0,-0.07819961756467819
4608.0,-0.08482448011636734
5120.0,-0.1104876697063446
5632.0,-0.19415973126888275
6144.0,-0.25726714730262756
6656.0,-0.27314671874046326
7168.0,-0.30165591835975647
7680.0,-0.29558801651000977
8192.0,-0.18122117221355438
end
