version,3.0
numOfCh,1
type,point
parent_name,c1204_0dot4-0dot01
ch_type,1_1
kcount,1
numberNandB,1
brightnessNandB,1
carpet pos,0
pc,0
Time (ms),CH1 Auto-Correlation
1.0,0.03387177735567093
2.0,0.03279050067067146
3.0,0.03178885579109192
4.0,0.030857296660542488
5.0,0.029965918511152267
6.0,0.0291292667388916
7.0,0.028337102383375168
8.0,0.027591485530138016
9.0,0.026878127828240395
10.0,0.026215381920337677
11.0,0.025617416948080063
12.0,0.025057006627321243
13.0,0.02450188808143139
14.0,0.02396652102470398
15.0,0.023439563810825348
16.0,0.022932425141334534
18.0,0.021960744634270668
20.0,0.021022070199251175
22.0,0.020162099972367287
24.0,0.019371120259165764
26.0,0.01865808293223381
28.0,0.017980147153139114
30.0,0.01732194423675537
32.0,0.016703540459275246
36.0,0.015659043565392494
40.0,0.014832551591098309
44.0,0.01411086693406105
48.0,0.013557633385062218
52.0,0.013123380951583385
56.0,0.012651371769607067
60.0,0.012218873016536236
64.0,0.011702364310622215
72.0,0.010419970378279686
80.0,0.009027198888361454
88.0,0.007910924032330513
96.0,0.006893790327012539
104.0,0.00596214272081852
112.0,0.005217388272285461
120.0,0.0046297903172671795
128.0,0.004383500199764967
144.0,0.004105256404727697
160.0,0.004104989115148783
176.0,0.004741116426885128
192.0,0.004349681548774242
208.0,0.0034671586472541094
224.0,0.003255325835198164
240.0,0.003219595877453685
256.0,0.0024146833457052708
288.0,0.0021830189507454634
320.0,0.0013881258200854063
352.0,0.0034065668005496264
384.0,0.004110598471015692
416.0,0.0026068019215017557
448.0,0.002831217832863331
480.0,0.0022521051578223705
512.0,0.0015693665482103825
576.0,0.001216089935041964
640.0,0.002240968169644475
704.0,0.0027773254550993443
768.0,0.0003128788957837969
832.0,-0.0007698150002397597
896.0,-0.0020759268663823605
960.0,-0.002759888768196106
1024.0,-0.0027720085345208645
1152.0,-0.0004082936211489141
1280.0,-0.00438023591414094
1408.0,-0.003927588928490877
1536.0,-0.00226421607658267
1664.0,-0.00047171334153972566
1792.0,-0.0008417260833084583
1920.0,-0.0022392715327441692
2048.0,-0.004180885385721922
2304.0,-0.001409956137649715
2560.0,-0.0010242423741146922
2816.0,-0.002464394085109234
3072.0,-0.001244820305146277
3328.0,0.0004816858272533864
3584.0,0.0020593740046024323
3840.0,0.00015399734547827393
4096.0,0.0012295397464185953
4608.0,0.000568406714592129
5120.0,0.0028457557782530785
5632.0,-0.000437397975474596
6144.0,-0.0028358043637126684
6656.0,-0.003339178394526243
7168.0,0.00012765316932927817
7680.0,0.0004164084675721824
8192.0,0.001866132253780961
end
