version,3.0
numOfCh,1
type,point
parent_name,c1204_0dot4-0dot01
ch_type,1_1
kcount,1
numberNandB,1
brightnessNandB,1
carpet pos,0
pc,0
Time (ms),CH1 Auto-Correlation
1.0,0.035362016409635544
2.0,0.034269388765096664
3.0,0.03319311887025833
4.0,0.032184988260269165
5.0,0.031234385445713997
6.0,0.030344048514962196
7.0,0.02951645851135254
8.0,0.02868879772722721
9.0,0.027871331200003624
10.0,0.027105331420898438
11.0,0.02636764571070671
12.0,0.025670763105154037
13.0,0.025049809366464615
14.0,0.02449159137904644
15.0,0.02398892492055893
16.0,0.0235432218760252
18.0,0.022715263068675995
20.0,0.021877603605389595
22.0,0.021051736548542976
24.0,0.02034618705511093
26.0,0.01972506009042263
28.0,0.019164733588695526
30.0,0.0185957420617342
32.0,0.018146224319934845
36.0,0.017379682511091232
40.0,0.01674150675535202
44.0,0.01619574800133705
48.0,0.015633484348654747
52.0,0.01504107378423214
56.0,0.01446662936359644
60.0,0.014005787670612335
64.0,0.013550855219364166
72.0,0.012453270144760609
80.0,0.011515012942254543
88.0,0.010846521705389023
96.0,0.01049159374088049
104.0,0.01047344971448183
112.0,0.010472912341356277
120.0,0.010049308650195599
128.0,0.009498353116214275
144.0,0.00891325157135725
160.0,0.008922015316784382
176.0,0.009299315512180328
192.0,0.009291144087910652
208.0,0.008568565361201763
224.0,0.00796576403081417
240.0,0.007233483716845512
256.0,0.0068972064182162285
288.0,0.005451186094433069
320.0,0.004792019259184599
352.0,0.004060540813952684
384.0,0.0029575852677226067
416.0,0.00198399368673563
448.0,0.0013849000679329038
480.0,-0.0002971967332996428
512.0,-0.0015063172904774547
576.0,-0.0026878947392106056
640.0,-0.003486982546746731
704.0,-0.0024789515882730484
768.0,-0.0011666016653180122
832.0,-0.0024042814038693905
896.0,-0.005161390174180269
960.0,-0.0044673653319478035
1024.0,-0.003359687514603138
1152.0,-0.0026926116552203894
1280.0,-0.0037650077138096094
1408.0,-0.0019012722186744213
1536.0,-0.002293508965522051
1664.0,-0.00261732772924006
1792.0,-0.0031508351676166058
1920.0,-0.005169498734176159
2048.0,-0.0026606442406773567
2304.0,0.0007002006750553846
2560.0,0.0029341927729547024
2816.0,0.004328833427280188
3072.0,0.002519157947972417
3328.0,0.0005235243588685989
3584.0,0.0012641353532671928
3840.0,-0.0007556584314443171
4096.0,-0.007774550002068281
4608.0,-0.0024846417363733053
5120.0,0.0006988462409935892
5632.0,0.00378905120305717
6144.0,0.00488797202706337
6656.0,-0.0005882757832296193
7168.0,-0.004182973876595497
7680.0,-0.0018262722296640277
8192.0,-0.0002101073187077418
9216.0,0.0024344788398593664
10240.0,-0.0036351350136101246
11264.0,0.004004944581538439
12288.0,0.0005844335537403822
13312.0,-0.0026338824536651373
14336.0,0.0002434885682305321
end
