version,3.0
numOfCh,1
type,point
parent_name,c1204_0dot4-0dot01
ch_type,1_1
kcount,1
numberNandB,1
brightnessNandB,1
carpet pos,0
pc,0
Time (ms),CH1 Auto-Correlation
1.0,0.37669819593429565
2.0,0.3753323256969452
3.0,0.3740091919898987
4.0,0.3727355897426605
5.0,0.3715044856071472
6.0,0.3703651428222656
7.0,0.36927929520606995
8.0,0.36817029118537903
9.0,0.3670961558818817
10.0,0.366070032119751
11.0,0.3650822341442108
12.0,0.36410972476005554
13.0,0.36309611797332764
14.0,0.3620513379573822
15.0,0.3610917031764984
16.0,0.36020153760910034
18.0,0.3585473299026489
20.0,0.356880784034729
22.0,0.35515648126602173
24.0,0.353470116853714
26.0,0.3519842326641083
28.0,0.3506014347076416
30.0,0.34926387667655945
32.0,0.3478841781616211
36.0,0.3449573218822479
40.0,0.34191691875457764
44.0,0.3388831615447998
48.0,0.3357752859592438
52.0,0.33254072070121765
56.0,0.329351544380188
60.0,0.3261836767196655
64.0,0.3230513334274292
72.0,0.31697022914886475
80.0,0.31040915846824646
88.0,0.30429568886756897
96.0,0.29887038469314575
104.0,0.2941797077655792
112.0,0.2902264893054962
120.0,0.28613898158073425
128.0,0.2824389636516571
144.0,0.2740074098110199
160.0,0.26743608713150024
176.0,0.2581886351108551
192.0,0.24553968012332916
208.0,0.23048026859760284
224.0,0.21386918425559998
240.0,0.19745278358459473
256.0,0.17915698885917664
288.0,0.14286330342292786
320.0,0.11266326904296875
352.0,0.08640246093273163
384.0,0.06270422786474228
416.0,0.04275834560394287
448.0,0.01975225657224655
480.0,-0.0019351912196725607
512.0,-0.024071356281638145
576.0,-0.04173484072089195
640.0,-0.04667026549577713
704.0,-0.04539529234170914
768.0,-0.04341789707541466
832.0,-0.041535791009664536
896.0,-0.039873167872428894
960.0,-0.036258991807699203
1024.0,-0.03410007059574127
1152.0,-0.029424995183944702
1280.0,-0.031318407505750656
1408.0,-0.04525000602006912
1536.0,-0.06288591027259827
1664.0,-0.06793466210365295
1792.0,-0.058555345982313156
1920.0,-0.0439794696867466
2048.0,-0.029696445912122726
2304.0,-0.019512297585606575
2560.0,-0.03670799359679222
2816.0,-0.040952809154987335
3072.0,-0.042714837938547134
3328.0,-0.05302264168858528
3584.0,-0.05389320105314255
3840.0,-0.06748075783252716
4096.0,-0.06028584763407707
end
