version,3.0
numOfCh,1
type,point
parent_name,c1204_0dot4-0dot01
ch_type,1_1
kcount,1
numberNandB,1
brightnessNandB,1
carpet pos,0
pc,0
Time (ms),CH1 Auto-Correlation
1.0,0.03534849360585213
2.0,0.03420203551650047
3.0,0.033099181950092316
4.0,0.03207038715481758
5.0,0.031096819788217545
6.0,0.03020622581243515
7.0,0.029356572777032852
8.0,0.028525054454803467
9.0,0.027751747518777847
10.0,0.02699993923306465
11.0,0.02627844735980034
12.0,0.02560199424624443
13.0,0.02495594695210457
14.0,0.024325020611286163
15.0,0.023714939132332802
16.0,0.023151353001594543
18.0,0.022145070135593414
20.0,0.02124485932290554
22.0,0.020383184775710106
24.0,0.019596559926867485
26.0,0.01881490647792816
28.0,0.01810925081372261
30.0,0.01740177534520626
32.0,0.016650233417749405
36.0,0.015177476219832897
40.0,0.014040175825357437
44.0,0.012878679670393467
48.0,0.011729853227734566
52.0,0.010649611242115498
56.0,0.009638399817049503
60.0,0.00881724152714014
64.0,0.008104247972369194
72.0,0.006689161062240601
80.0,0.005300273187458515
88.0,0.004110525827854872
96.0,0.003308078972622752
104.0,0.002915625460445881
112.0,0.0026812879368662834
120.0,0.0023079211823642254
128.0,0.0018237277399748564
144.0,0.00156568200327456
160.0,0.0017429551808163524
176.0,0.0025418023578822613
192.0,0.002596608828753233
208.0,0.002289809286594391
224.0,0.001508246874436736
240.0,0.0009389912593178451
256.0,0.001231364207342267
288.0,0.0015628054970875382
320.0,0.0008646673522889614
352.0,-0.0005585522740148008
384.0,-0.0003481596941128373
416.0,0.0010474214795976877
448.0,0.002165940124541521
480.0,0.0018141521140933037
512.0,0.0013579163933172822
576.0,0.0007914362358860672
640.0,-0.00012898976274300367
704.0,0.0007704864838160574
768.0,-0.00017963466234505177
832.0,-0.0012199983466416597
896.0,-0.0010629307944327593
960.0,-0.00024914348614402115
1024.0,0.0008086493471637368
1152.0,-0.0012907192576676607
1280.0,-0.0009398041875101626
1408.0,0.0006188583793118596
1536.0,-0.0010623014532029629
1664.0,2.479075646988349e-06
1792.0,-0.0013052565045654774
1920.0,0.0002944639709312469
2048.0,0.001265923259779811
2304.0,0.0015786131843924522
2560.0,-0.0010901573114097118
2816.0,-0.0031999540515244007
3072.0,-0.0029316472355276346
3328.0,0.0005346563993953168
3584.0,0.0007978103240020573
3840.0,0.0018363276030868292
4096.0,0.0006490935920737684
4608.0,0.0009281322127208114
5120.0,-0.0018250761786475778
5632.0,-0.0019193680491298437
6144.0,-0.001082775415852666
6656.0,-0.001124818343669176
7168.0,-0.0008773696608841419
7680.0,0.000899158010724932
8192.0,0.0018017502734437585
end
