version,3.0
numOfCh,1
type,point
parent_name,c1204_0dot4-0dot01
ch_type,1_1
kcount,1
numberNandB,1
brightnessNandB,1
carpet pos,0
pc,0
Time (ms),CH1 Auto-Correlation
1.0,0.03382101655006409
2.0,0.032715167850255966
3.0,0.031708672642707825
4.0,0.030774157494306564
5.0,0.02992420829832554
6.0,0.029098693281412125
7.0,0.028269747272133827
8.0,0.027474012225866318
9.0,0.026742642745375633
10.0,0.026048272848129272
11.0,0.025387216359376907
12.0,0.02479216456413269
13.0,0.024194788187742233
14.0,0.02360265702009201
15.0,0.02305000275373459
16.0,0.022536130622029305
18.0,0.02152848057448864
20.0,0.02058885060250759
22.0,0.019707046449184418
24.0,0.01891375705599785
26.0,0.018149223178625107
28.0,0.01739705726504326
30.0,0.01675201579928398
32.0,0.01617087610065937
36.0,0.015270113945007324
40.0,0.014543975703418255
44.0,0.013815457932651043
48.0,0.013185485266149044
52.0,0.012617944739758968
56.0,0.01212720014154911
60.0,0.011806114576756954
64.0,0.011420408263802528
72.0,0.010660229250788689
80.0,0.009740525856614113
88.0,0.008886818774044514
96.0,0.008075019344687462
104.0,0.007427845615893602
112.0,0.006864476948976517
120.0,0.006159474141895771
128.0,0.0056070610880851746
144.0,0.004717628937214613
160.0,0.004141353070735931
176.0,0.003538139397278428
192.0,0.0036102035082876682
208.0,0.0036585484631359577
224.0,0.003594939596951008
240.0,0.0036482037976384163
256.0,0.0037452392280101776
288.0,0.0040526059456169605
320.0,0.0029095294885337353
352.0,0.0029343811329454184
384.0,0.0028724309522658587
416.0,0.001906075980514288
448.0,0.002087174914777279
480.0,0.0017867236165329814
512.0,0.00017522412235848606
576.0,-1.8879512936109677e-05
640.0,0.0007276731193996966
704.0,0.0018728789873421192
768.0,0.0031824784819036722
832.0,0.0030422601848840714
896.0,0.001199933118186891
960.0,0.0003757012018468231
1024.0,0.0008339344058185816
1152.0,-0.0019547240808606148
1280.0,-0.0043648649007081985
1408.0,-0.0018186400411650538
1536.0,-0.0012075394624844193
1664.0,-0.0014230365632101893
1792.0,-0.002124097663909197
1920.0,-0.0023636138066649437
2048.0,-0.0029543391428887844
2304.0,-0.002850424265488982
2560.0,-0.002681189915165305
2816.0,-0.0020781871862709522
3072.0,0.0007901786593720317
3328.0,0.0012597913155332208
3584.0,0.002320927334949374
3840.0,0.002216203138232231
4096.0,0.0024583737831562757
4608.0,0.0022236048243939877
5120.0,-0.0001833841815823689
5632.0,-0.0024946178309619427
6144.0,-0.0036323971580713987
6656.0,-0.0033369397278875113
7168.0,-0.000348133995430544
7680.0,0.0011445023119449615
8192.0,0.005390319973230362
end
