version,3.0
numOfCh,1
type,point
parent_name,c1204_0dot4-0dot01
ch_type,1_1
kcount,1
numberNandB,1
brightnessNandB,1
carpet pos,0
pc,0
Time (ms),CH1 Auto-Correlation
1.0,0.03776704519987106
2.0,0.03654363751411438
3.0,0.03539694473147392
4.0,0.03429761156439781
5.0,0.03325469046831131
6.0,0.032270397990942
7.0,0.031313344836235046
8.0,0.030412249267101288
9.0,0.02959570102393627
10.0,0.02884480729699135
11.0,0.02815932221710682
12.0,0.0274946391582489
13.0,0.0268529262393713
14.0,0.0262562558054924
15.0,0.025701308622956276
16.0,0.025192778557538986
18.0,0.02421487867832184
20.0,0.023348350077867508
22.0,0.022547010332345963
24.0,0.02179894596338272
26.0,0.021082518622279167
28.0,0.020356066524982452
30.0,0.01969282701611519
32.0,0.019056286662817
36.0,0.01795303076505661
40.0,0.017088472843170166
44.0,0.01645425148308277
48.0,0.015928305685520172
52.0,0.015118270181119442
56.0,0.014144702814519405
60.0,0.013276242651045322
64.0,0.012485792860388756
72.0,0.011107619851827621
80.0,0.010007345117628574
88.0,0.009136265143752098
96.0,0.00809222087264061
104.0,0.007068967912346125
112.0,0.006222966127097607
120.0,0.005657519213855267
128.0,0.005443132948130369
144.0,0.005316887050867081
160.0,0.005297235678881407
176.0,0.005362251773476601
192.0,0.0054979887790977955
208.0,0.005110074300318956
224.0,0.0043390593491494656
240.0,0.0036158955190330744
256.0,0.004159510601311922
288.0,0.0045790900476276875
320.0,0.00423801364377141
352.0,0.003227811073884368
384.0,0.0033447586465626955
416.0,0.004324109759181738
448.0,0.00468151830136776
480.0,0.004678172990679741
512.0,0.005176224745810032
576.0,0.005137418396770954
640.0,0.004692383576184511
704.0,0.0034395717084407806
768.0,0.0004013578000012785
832.0,-0.0013322526356205344
896.0,0.0008899210370145738
960.0,0.002532552694901824
1024.0,0.002367217093706131
1152.0,0.0024923544842749834
1280.0,-0.0004052358854096383
1408.0,0.00025672747869975865
1536.0,-0.0004627860616892576
1664.0,6.731870962539688e-05
1792.0,0.0019494134467095137
1920.0,0.00140476506203413
2048.0,0.0012135651195421815
2304.0,-0.0005483186105266213
2560.0,-0.0031550030689686537
2816.0,-0.001349718775600195
3072.0,-0.0036440198309719563
3328.0,-0.0019176173955202103
3584.0,-0.0036634921561926603
3840.0,-0.0006518689915537834
4096.0,-0.0018361769616603851
4608.0,-0.0035918804351240396
5120.0,-0.0036660078912973404
5632.0,-0.002621700754389167
6144.0,-0.0010989275760948658
6656.0,-0.0015579024329781532
7168.0,-0.001271617948077619
7680.0,0.004135130438953638
8192.0,0.004787970334291458
end
