version,3.0
numOfCh,1
type,point
parent_name,c1204_0dot4-0dot01
ch_type,1_1
kcount,1
numberNandB,1
brightnessNandB,1
carpet pos,0
pc,0
Time (ms),CH1 Auto-Correlation
1.0,0.05068250745534897
2.0,0.049492672085762024
3.0,0.04837849363684654
4.0,0.04734700918197632
5.0,0.046406347304582596
6.0,0.045489709824323654
7.0,0.04460633546113968
8.0,0.043793532997369766
9.0,0.042964667081832886
10.0,0.04216649383306503
11.0,0.0414084754884243
12.0,0.040666256099939346
13.0,0.03994201496243477
14.0,0.03925951197743416
15.0,0.03857496380805969
16.0,0.03793792799115181
18.0,0.036646343767642975
20.0,0.03541119769215584
22.0,0.03430856391787529
24.0,0.03326214477419853
26.0,0.032326988875865936
28.0,0.03145988658070564
30.0,0.030641060322523117
32.0,0.02983887493610382
36.0,0.028498737141489983
40.0,0.027490392327308655
44.0,0.02637980692088604
48.0,0.025374220684170723
52.0,0.024529162794351578
56.0,0.02378908172249794
60.0,0.023270558565855026
64.0,0.022730790078639984
72.0,0.02148536778986454
80.0,0.02051064744591713
88.0,0.02013274095952511
96.0,0.020053451880812645
104.0,0.019828133285045624
112.0,0.019318167120218277
120.0,0.018321283161640167
128.0,0.01747613213956356
144.0,0.01661083474755287
160.0,0.016214296221733093
176.0,0.01523065846413374
192.0,0.013879213482141495
208.0,0.012621422298252583
224.0,0.012625145725905895
240.0,0.013403531163930893
256.0,0.014224760234355927
288.0,0.011992348358035088
320.0,0.009500444866716862
352.0,0.010018113069236279
384.0,0.01018525380641222
416.0,0.008841617032885551
448.0,0.00672668544575572
480.0,0.00543803907930851
512.0,0.003353079780936241
576.0,0.0003979991015512496
640.0,0.0008659637533128262
704.0,0.0003219728823751211
768.0,-0.001341454335488379
832.0,-0.0032397645991295576
896.0,-0.003926208708435297
960.0,-0.0039574457332491875
1024.0,-0.0017199398716911674
1152.0,0.0011571701616048813
1280.0,0.001870098989456892
1408.0,0.004757019225507975
1536.0,0.003674159524962306
1664.0,0.0043007200583815575
1792.0,0.004569948650896549
1920.0,0.004711627960205078
2048.0,0.007357739843428135
2304.0,0.006868273019790649
2560.0,0.0047148531302809715
2816.0,0.0025856487918645144
3072.0,-0.0006527645164169371
3328.0,-4.652057214116212e-06
3584.0,-0.0012047785567119718
3840.0,-0.002584118628874421
4096.0,-0.0007847181987017393
4608.0,-0.003016467671841383
5120.0,-0.00550319766625762
5632.0,-0.006438339129090309
6144.0,-0.009314115159213543
6656.0,0.0004287518677301705
7168.0,-0.010954034514725208
7680.0,-0.01456093043088913
8192.0,-0.010068635456264019
end
