version,3.0
numOfCh,1
type,point
parent_name,c1204_0dot4-0dot01
ch_type,1_1
kcount,1
numberNandB,1
brightnessNandB,1
carpet pos,0
pc,0
Time (ms),CH1 Auto-Correlation
1.0,0.033143531531095505
2.0,0.03196168690919876
3.0,0.030833259224891663
4.0,0.029759759083390236
5.0,0.028776822611689568
6.0,0.027831701561808586
7.0,0.02691330946981907
8.0,0.026054415851831436
9.0,0.025266112759709358
10.0,0.02452661283314228
11.0,0.02379472926259041
12.0,0.02314721792936325
13.0,0.022534025833010674
14.0,0.021978842094540596
15.0,0.021474279463291168
16.0,0.020988939329981804
18.0,0.020057231187820435
20.0,0.019222253933548927
22.0,0.018501264974474907
24.0,0.017794430255889893
26.0,0.017180049791932106
28.0,0.01660941354930401
30.0,0.01602555811405182
32.0,0.015430137515068054
36.0,0.014313002116978168
40.0,0.013369744643568993
44.0,0.012546402402222157
48.0,0.011877123266458511
52.0,0.011225365102291107
56.0,0.010677922517061234
60.0,0.010389965027570724
64.0,0.010227183811366558
72.0,0.01006852462887764
80.0,0.009903648868203163
88.0,0.009467476978898048
96.0,0.009022481739521027
104.0,0.008730875328183174
112.0,0.008468099869787693
120.0,0.00794826541095972
128.0,0.007723474409431219
144.0,0.0069784498773515224
160.0,0.006179028656333685
176.0,0.005062110722064972
192.0,0.005287586245685816
208.0,0.006206650752574205
224.0,0.006501698400825262
240.0,0.0066453865729272366
256.0,0.006827131845057011
288.0,0.005955154076218605
320.0,0.005572168622165918
352.0,0.004101823549717665
384.0,0.0016193634364753962
416.0,0.001682038651779294
448.0,0.0029095662757754326
480.0,0.002866038354113698
512.0,0.0014395405305549502
576.0,0.0007373950793407857
640.0,-0.0014401169028133154
704.0,0.00014856849156785756
768.0,0.0007276292308233678
832.0,-0.0005929787876084447
896.0,-0.0015399288386106491
960.0,0.00016319697897415608
1024.0,0.0004853279679082334
1152.0,0.0002021088293986395
1280.0,-0.00026823225198313594
1408.0,-0.0013317442499101162
1536.0,-0.0007522311643697321
1664.0,-0.0025702205020934343
1792.0,-0.0030595269054174423
1920.0,-0.004311700351536274
2048.0,-0.002871376695111394
2304.0,-0.0042970613576471806
2560.0,-0.0014706933870911598
2816.0,0.0020896217320114374
3072.0,0.0013671474298462272
3328.0,0.0020453911274671555
3584.0,0.0014082352863624692
3840.0,-0.0008395129116252065
4096.0,-0.00380157632753253
4608.0,0.0004855758452322334
5120.0,-0.0039033768698573112
5632.0,-0.004184582270681858
6144.0,-0.0004108130233362317
6656.0,-0.0009483784670010209
7168.0,0.0014606929617002606
7680.0,0.0060944510623812675
8192.0,0.00339588918723166
end
