version,3.0
numOfCh,1
type,point
parent_name,c1204_0dot4-0dot01
ch_type,1_1
kcount,1
numberNandB,1
brightnessNandB,1
carpet pos,0
pc,0
Time (ms),CH1 Auto-Correlation
1.0,0.042498499155044556
2.0,0.04144285246729851
3.0,0.04046628624200821
4.0,0.03953998163342476
5.0,0.03867081180214882
6.0,0.03785431385040283
7.0,0.037078168243169785
8.0,0.03634610027074814
9.0,0.03564126417040825
10.0,0.034964971244335175
11.0,0.03431416302919388
12.0,0.033701471984386444
13.0,0.03309871256351471
14.0,0.03248691186308861
15.0,0.031886499375104904
16.0,0.03132762387394905
18.0,0.030184661969542503
20.0,0.029089441522955894
22.0,0.028067372739315033
24.0,0.02709651179611683
26.0,0.026141395792365074
28.0,0.025302693247795105
30.0,0.024564597755670547
32.0,0.023884063586592674
36.0,0.022761911153793335
40.0,0.02178002893924713
44.0,0.020847782492637634
48.0,0.020057057961821556
52.0,0.01928524672985077
56.0,0.018533313646912575
60.0,0.01794559508562088
64.0,0.017312059178948402
72.0,0.016077810898423195
80.0,0.015235853381454945
88.0,0.014846878126263618
96.0,0.014603730291128159
104.0,0.013999062590301037
112.0,0.013269053772091866
120.0,0.01280406303703785
128.0,0.012149248272180557
144.0,0.011135230772197247
160.0,0.010750345885753632
176.0,0.010552413761615753
192.0,0.009951453655958176
208.0,0.009240600280463696
224.0,0.009089211001992226
240.0,0.008893093094229698
256.0,0.008830207400023937
288.0,0.007697444874793291
320.0,0.008200476877391338
352.0,0.0064896224066615105
384.0,0.006393457297235727
416.0,0.006279065739363432
448.0,0.0063542393036186695
480.0,0.005087256897240877
512.0,0.003708491800352931
576.0,0.0035834822338074446
640.0,0.0023250689264386892
704.0,7.081791409291327e-05
768.0,0.0003809059562627226
832.0,0.002233346225693822
896.0,0.0024532615207135677
960.0,0.0005608134088106453
1024.0,-0.002067364053800702
1152.0,-0.00221559451892972
1280.0,-0.00460462924093008
1408.0,-0.0033086403273046017
1536.0,-0.00443919375538826
1664.0,-0.00643842713907361
1792.0,-0.002439945237711072
1920.0,-0.003406272968277335
2048.0,-0.004005574621260166
2304.0,-0.0018750234739854932
2560.0,0.0021682039368897676
2816.0,0.0017909123562276363
3072.0,0.00020457165373954922
3328.0,-0.0015132019761949778
3584.0,-0.001297579612582922
3840.0,-0.0007823050837032497
4096.0,0.0017687437357380986
4608.0,0.002079980680719018
5120.0,0.0017771656857803464
5632.0,-0.0012457106495276093
6144.0,-0.002002274850383401
6656.0,-0.006827694829553366
7168.0,-0.008221719413995743
7680.0,-0.005150770302861929
8192.0,0.0014498286182060838
end
