version,3.0
numOfCh,1
type,point
parent_name,c1204_0dot4-0dot01
ch_type,1_1
kcount,1
numberNandB,1
brightnessNandB,1
carpet pos,0
pc,0
Time (ms),CH1 Auto-Correlation
1.0,0.03390475735068321
2.0,0.032716669142246246
3.0,0.031581174582242966
4.0,0.030561482533812523
5.0,0.029605235904455185
6.0,0.02871723100543022
7.0,0.027851147577166557
8.0,0.02702021785080433
9.0,0.026253120973706245
10.0,0.025556882843375206
11.0,0.024905893951654434
12.0,0.024296948686242104
13.0,0.02370821125805378
14.0,0.02313438057899475
15.0,0.022589892148971558
16.0,0.022050505504012108
18.0,0.02102796360850334
20.0,0.02007298171520233
22.0,0.01922469772398472
24.0,0.01843775436282158
26.0,0.017702722921967506
28.0,0.01706564798951149
30.0,0.016453105956315994
32.0,0.015835164114832878
36.0,0.01471413392573595
40.0,0.013829431496560574
44.0,0.013024549931287766
48.0,0.012336213141679764
52.0,0.01174110546708107
56.0,0.011204692535102367
60.0,0.010570050217211246
64.0,0.009856748394668102
72.0,0.008666384033858776
80.0,0.008157629519701004
88.0,0.007758466526865959
96.0,0.0070744170807302
104.0,0.006470191292464733
112.0,0.006027256138622761
120.0,0.005681267939507961
128.0,0.00549607677385211
144.0,0.005042991600930691
160.0,0.0042876903899014
176.0,0.003900241805240512
192.0,0.0030012342613190413
208.0,0.0020676490385085344
224.0,0.0026562188286334276
240.0,0.002728255931288004
256.0,0.0023291627876460552
288.0,0.0017785773379728198
320.0,0.0022512890864163637
352.0,0.0024061203002929688
384.0,0.002858266932889819
416.0,0.001861299853771925
448.0,0.001131076947785914
480.0,0.0006381563725881279
512.0,0.0006994595751166344
576.0,0.0005248278612270951
640.0,6.085543645895086e-05
704.0,0.0008403626270592213
768.0,3.2897285564104095e-05
832.0,0.0002871257602237165
896.0,0.00020685627532657236
960.0,0.000167233549291268
1024.0,-0.0007092689629644156
1152.0,-0.001347924000583589
1280.0,-0.0006784097640775144
1408.0,7.805423229001462e-05
1536.0,-0.0015949330991134048
1664.0,-0.0016327829798683524
1792.0,-0.0021466759499162436
1920.0,-0.004766304511576891
2048.0,-0.003788554109632969
2304.0,-0.0009711254388093948
2560.0,-0.0005262417253106833
2816.0,0.001207805355079472
3072.0,0.002325790235772729
3328.0,0.0008615237893536687
3584.0,-0.0004778910370077938
3840.0,0.001950792851857841
4096.0,0.000681113509926945
4608.0,-0.002058038953691721
5120.0,-0.001233082264661789
5632.0,-0.0012251493753865361
6144.0,4.378525409265421e-05
6656.0,0.0008716877782717347
7168.0,0.0011445200070738792
7680.0,-0.0009589245892129838
8192.0,0.000962794991210103
end
