version,3.0
numOfCh,1
type,point
parent_name,c1204_0dot4-0dot01
ch_type,1_1
kcount,1
numberNandB,1
brightnessNandB,1
carpet pos,0
pc,0
Time (ms),CH1 Auto-Correlation
1.0,0.029108084738254547
2.0,0.027984533458948135
3.0,0.02692444995045662
4.0,0.025985928252339363
5.0,0.02507970668375492
6.0,0.024211833253502846
7.0,0.023372292518615723
8.0,0.022556275129318237
9.0,0.02178764156997204
10.0,0.02104005217552185
11.0,0.020391521975398064
12.0,0.0198055449873209
13.0,0.019249752163887024
14.0,0.018753279000520706
15.0,0.01829427294433117
16.0,0.017869822680950165
18.0,0.017102031037211418
20.0,0.016378944739699364
22.0,0.01570947840809822
24.0,0.015157913789153099
26.0,0.014668594114482403
28.0,0.014197359792888165
30.0,0.013730715960264206
32.0,0.013321840204298496
36.0,0.012519944459199905
40.0,0.01174868829548359
44.0,0.011103814467787743
48.0,0.010500644333660603
52.0,0.009999680332839489
56.0,0.009603772312402725
60.0,0.009191896766424179
64.0,0.008700008504092693
72.0,0.007718388456851244
80.0,0.007086105179041624
88.0,0.006547013763338327
96.0,0.006160670425742865
104.0,0.005759448744356632
112.0,0.005419513210654259
120.0,0.0054229372180998325
128.0,0.005214081145823002
144.0,0.004972334951162338
160.0,0.005118667148053646
176.0,0.0054747979156672955
192.0,0.0051784822717309
208.0,0.004303739406168461
224.0,0.003060573246330023
240.0,0.0022034815046936274
256.0,0.0016345699550583959
288.0,0.0016440420877188444
320.0,0.002747478662058711
352.0,0.002882401691749692
384.0,0.0027721947990357876
416.0,0.002612961456179619
448.0,0.0033573457039892673
480.0,0.003522927640005946
512.0,0.0032765029463917017
576.0,0.0023206863552331924
640.0,0.002209765138104558
704.0,0.0017754272557795048
768.0,0.0003842214646283537
832.0,0.0002927380846813321
896.0,-0.00045692696585319936
960.0,-0.001848893123678863
1024.0,-0.0021105478517711163
1152.0,-0.0012754510389640927
1280.0,-0.0010249584447592497
1408.0,-0.002965077292174101
1536.0,-0.002696081530302763
1664.0,-0.0013160548405721784
1792.0,-0.0020523613784462214
1920.0,-0.0030121782328933477
2048.0,-0.0024253756273537874
2304.0,-0.0014628565404564142
2560.0,-0.0020788589026778936
2816.0,-0.0005309052648954093
3072.0,0.002534621162340045
3328.0,0.002700616605579853
3584.0,0.0022639611270278692
3840.0,0.0023445007391273975
4096.0,0.0015416396781802177
4608.0,0.0016725071473047137
5120.0,-0.0008057254017330706
5632.0,-0.004607825074344873
6144.0,-0.004054570570588112
6656.0,0.0004895671736449003
7168.0,0.0011437616776674986
7680.0,0.0016425871290266514
8192.0,0.0004443941870704293
end
