version,3.0
numOfCh,1
type,point
parent_name,19e3e_0dot069-0dot01
ch_type,1_1
kcount,1
numberNandB,1
brightnessNandB,1
carpet pos,0
pc,0
Time (ms),CH1 Auto-Correlation
1.0,0.030143899843096733
2.0,0.02990748919546604
3.0,0.029674476012587547
4.0,0.02944367565214634
5.0,0.029210353270173073
6.0,0.02897830680012703
7.0,0.028747014701366425
8.0,0.028522687032818794
9.0,0.02830519713461399
10.0,0.028085827827453613
11.0,0.027871517464518547
12.0,0.027655400335788727
13.0,0.02744430862367153
14.0,0.02723921276628971
15.0,0.027040118351578712
16.0,0.02683802880346775
18.0,0.02645072713494301
20.0,0.026057546958327293
22.0,0.02566121704876423
24.0,0.025276832282543182
26.0,0.024915551766753197
28.0,0.024581722915172577
30.0,0.02426484413444996
32.0,0.023945843800902367
36.0,0.02334141731262207
40.0,0.022735394537448883
44.0,0.022155659273266792
48.0,0.02160595916211605
52.0,0.0210260059684515
56.0,0.020428568124771118
60.0,0.019823763519525528
64.0,0.019238103181123734
72.0,0.018235184252262115
80.0,0.017362410202622414
88.0,0.016606541350483894
96.0,0.015932928770780563
104.0,0.01526036486029625
112.0,0.014473618939518929
120.0,0.013695087283849716
128.0,0.013053232803940773
144.0,0.0119361886754632
160.0,0.010967384092509747
176.0,0.010157662443816662
192.0,0.009535699151456356
208.0,0.009219803847372532
224.0,0.008853965438902378
240.0,0.008479975163936615
256.0,0.008127652108669281
288.0,0.006794044282287359
320.0,0.005143774673342705
352.0,0.003944962285459042
384.0,0.0037796187680214643
416.0,0.003915570676326752
448.0,0.003713914891704917
480.0,0.003209124319255352
512.0,0.0024149033706635237
576.0,0.0006460724398493767
640.0,-0.0008016018546186388
704.0,0.0009630881249904633
768.0,0.0024303460959345102
832.0,0.002646383596584201
896.0,0.0010898236650973558
960.0,-0.000573549245018512
1024.0,-0.0023093177005648613
1152.0,-0.00141408562194556
1280.0,0.0002063667052425444
1408.0,-0.0027402678970247507
1536.0,-0.0032395438756793737
1664.0,-0.002084403531625867
1792.0,-0.000705096812453121
1920.0,-0.0008862799732014537
2048.0,0.004270098637789488
2304.0,0.0044442517682909966
2560.0,0.00015105683996807784
2816.0,-0.001486343564465642
3072.0,-0.0013707070611417294
3328.0,-0.004404242616146803
3584.0,-0.006869020871818066
3840.0,-0.003091048914939165
4096.0,0.00036661821650341153
4608.0,-0.00011394925968488678
5120.0,-0.0019959192723035812
5632.0,-0.0053083873353898525
6144.0,-0.0032520866952836514
6656.0,0.003049626247957349
7168.0,-0.0021981745958328247
7680.0,-0.0042621055617928505
8192.0,-0.004406036343425512
end
