version,3.0
numOfCh,1
type,point
parent_name,19e3e_0dot069-0dot01
ch_type,1_1
kcount,1
numberNandB,1
brightnessNandB,1
carpet pos,0
pc,0
Time (ms),CH1 Auto-Correlation
1.0,0.02633562870323658
2.0,0.026140280067920685
3.0,0.02594335377216339
4.0,0.025742467492818832
5.0,0.025545213371515274
6.0,0.025345195084810257
7.0,0.02514723874628544
8.0,0.02495344914495945
9.0,0.02476491965353489
10.0,0.024581236764788628
11.0,0.02439892292022705
12.0,0.024218980222940445
13.0,0.02404273860156536
14.0,0.02386728674173355
15.0,0.02369331568479538
16.0,0.02352297492325306
18.0,0.023197220638394356
20.0,0.02288082242012024
22.0,0.02256852388381958
24.0,0.022266710177063942
26.0,0.021964816376566887
28.0,0.021663542836904526
30.0,0.021367324516177177
32.0,0.021079832687973976
36.0,0.02054799161851406
40.0,0.020072009414434433
44.0,0.019598491489887238
48.0,0.019112326204776764
52.0,0.018648501485586166
56.0,0.018214721232652664
60.0,0.01781071536242962
64.0,0.017420122399926186
72.0,0.016641361638903618
80.0,0.015882723033428192
88.0,0.015136631205677986
96.0,0.014475250616669655
104.0,0.013886387459933758
112.0,0.0133591890335083
120.0,0.012855998240411282
128.0,0.012366292998194695
144.0,0.011370055377483368
160.0,0.010170268826186657
176.0,0.009164361283183098
192.0,0.008522497490048409
208.0,0.008080643601715565
224.0,0.007676297333091497
240.0,0.0073499418795108795
256.0,0.007012652233242989
288.0,0.0060846833512187
320.0,0.00481477240100503
352.0,0.0035088344011455774
384.0,0.0028911763802170753
416.0,0.0025797055568546057
448.0,0.002306208247318864
480.0,0.0023868235293775797
512.0,0.00286081968806684
576.0,0.0031930766999721527
640.0,0.002419503405690193
704.0,0.0024424579460173845
768.0,0.0019489413825795054
832.0,0.0017127820756286383
896.0,0.0010273621883243322
960.0,0.001480171107687056
1024.0,0.0009822964202612638
1152.0,0.0007921342621557415
1280.0,8.563796291127801e-05
1408.0,-0.0019635027274489403
1536.0,-0.002429171232506633
1664.0,-0.0015802611596882343
1792.0,0.0014304588548839092
1920.0,0.0005502488929778337
2048.0,-0.00041848793625831604
2304.0,-0.002249348908662796
2560.0,-0.0014582606963813305
2816.0,-0.001846966566517949
3072.0,-0.0009088918450288475
3328.0,-0.002997535979375243
3584.0,-0.005364847369492054
3840.0,-0.001815591473132372
4096.0,0.000897725170943886
4608.0,0.0019021742045879364
5120.0,-0.002762577263638377
5632.0,-0.0035545334685593843
6144.0,0.00020824158855248243
6656.0,-1.2127531590522267e-05
7168.0,-0.0006751297623850405
7680.0,0.0026868677232414484
8192.0,0.0036875472869724035
end
