version,3.0
numOfCh,1
type,point
parent_name,19e3e_0dot069-0dot01
ch_type,1_1
kcount,1
numberNandB,1
brightnessNandB,1
carpet pos,0
pc,0
Time (ms),CH1 Auto-Correlation
1.0,0.03671007603406906
2.0,0.036497920751571655
3.0,0.03628630191087723
4.0,0.03608265891671181
5.0,0.035884786397218704
6.0,0.03568235784769058
7.0,0.03548043593764305
8.0,0.03528944030404091
9.0,0.035101115703582764
10.0,0.034915946424007416
11.0,0.034731701016426086
12.0,0.034554291516542435
13.0,0.03437492251396179
14.0,0.034197356551885605
15.0,0.03401960805058479
16.0,0.03383825346827507
18.0,0.03346645087003708
20.0,0.033080924302339554
22.0,0.03270691633224487
24.0,0.03235083818435669
26.0,0.03200839087367058
28.0,0.031681373715400696
30.0,0.03138137608766556
32.0,0.031091179698705673
36.0,0.030515387654304504
40.0,0.029958460479974747
44.0,0.029414812102913857
48.0,0.028889819979667664
52.0,0.028360391035676003
56.0,0.02785240113735199
60.0,0.02738030254840851
64.0,0.026912644505500793
72.0,0.026057502254843712
80.0,0.025268370285630226
88.0,0.02445693127810955
96.0,0.02362210303544998
104.0,0.02279348112642765
112.0,0.021942133083939552
120.0,0.021123366430401802
128.0,0.020338021218776703
144.0,0.01899268850684166
160.0,0.017917467281222343
176.0,0.01691455766558647
192.0,0.01612071692943573
208.0,0.015682373195886612
224.0,0.015496788546442986
240.0,0.015423494391143322
256.0,0.01507451944053173
288.0,0.014086161740124226
320.0,0.01310296356678009
352.0,0.011821409687399864
384.0,0.010404451750218868
416.0,0.00920889899134636
448.0,0.007838552817702293
480.0,0.007331319618970156
512.0,0.007304586004465818
576.0,0.006734801456332207
640.0,0.005547386594116688
704.0,0.003755969228222966
768.0,0.0036997306160628796
832.0,0.004865973722189665
896.0,0.005948621779680252
960.0,0.006896062288433313
1024.0,0.007250315509736538
1152.0,0.0066342162899672985
1280.0,0.005248724948614836
1408.0,0.005120940040796995
1536.0,0.004101430997252464
1664.0,0.005362343043088913
1792.0,0.005775444209575653
1920.0,0.007342930883169174
2048.0,0.009636465460062027
2304.0,0.008721393533051014
2560.0,0.006359633523970842
2816.0,0.0032335242722183466
3072.0,-0.00092071492690593
3328.0,0.00018508172070141882
3584.0,-4.9275269702775404e-05
3840.0,0.0017436310881748796
4096.0,-0.0017972170608118176
4608.0,-0.003888976527377963
5120.0,-0.010817876085639
5632.0,-0.00548612279817462
6144.0,-0.0037602046504616737
6656.0,-0.0055413078516721725
7168.0,-0.011368934065103531
7680.0,-0.008409549482166767
8192.0,-0.008012949489057064
end
