version,3.0
numOfCh,1
type,point
parent_name,19e3e_0dot069-0dot01
ch_type,1_1
kcount,1
numberNandB,1
brightnessNandB,1
carpet pos,0
pc,0
Time (ms),CH1 Auto-Correlation
1.0,0.02535739727318287
2.0,0.02517031319439411
3.0,0.02498227171599865
4.0,0.02479439228773117
5.0,0.02461392618715763
6.0,0.02444193698465824
7.0,0.024277079850435257
8.0,0.024114826694130898
9.0,0.02395620383322239
10.0,0.023802053183317184
11.0,0.02365178056061268
12.0,0.023505955934524536
13.0,0.023365039378404617
14.0,0.023220697417855263
15.0,0.023078706115484238
16.0,0.02293410152196884
18.0,0.02265545353293419
20.0,0.022384148091077805
22.0,0.022119717672467232
24.0,0.02185428887605667
26.0,0.021598419174551964
28.0,0.02134730853140354
30.0,0.02110379934310913
32.0,0.02086685784161091
36.0,0.020425014197826385
40.0,0.019968578591942787
44.0,0.019543077796697617
48.0,0.019123755395412445
52.0,0.018734289333224297
56.0,0.01834053359925747
60.0,0.017966968938708305
64.0,0.017605643719434738
72.0,0.01694728247821331
80.0,0.016437919810414314
88.0,0.015954483300447464
96.0,0.015487934462726116
104.0,0.015022266656160355
112.0,0.014557543210685253
120.0,0.014031829312443733
128.0,0.013544260524213314
144.0,0.012833341024816036
160.0,0.012162911705672741
176.0,0.011457491666078568
192.0,0.010897486470639706
208.0,0.010430692695081234
224.0,0.010049811564385891
240.0,0.009859355166554451
256.0,0.009716094471514225
288.0,0.008913005702197552
320.0,0.008277187123894691
352.0,0.007828691974282265
384.0,0.007259623613208532
416.0,0.006886290851980448
448.0,0.006814716849476099
480.0,0.006997790187597275
512.0,0.006821777671575546
576.0,0.006202192511409521
640.0,0.004848260898143053
704.0,0.003883709665387869
768.0,0.003724550362676382
832.0,0.003671760205179453
896.0,0.0038941141683608294
960.0,0.004084792919456959
1024.0,0.004734150134027004
1152.0,0.004325102549046278
1280.0,0.004623354412615299
1408.0,0.003893170040100813
1536.0,0.003711090423166752
1664.0,0.0020344683434814215
1792.0,0.002597829094156623
1920.0,0.0035721531603485346
2048.0,0.004003738518804312
2304.0,0.0022704966831952333
2560.0,0.003132554469630122
2816.0,0.0020322634372860193
3072.0,0.00011160379654029384
3328.0,0.0011148100020363927
3584.0,0.0015433744993060827
3840.0,0.0017389045096933842
4096.0,-0.0020481422543525696
4608.0,-0.0012329518795013428
5120.0,0.0004479591443669051
5632.0,-0.001168496790342033
6144.0,-0.004981460515409708
6656.0,-0.008098217658698559
7168.0,-0.004224629141390324
7680.0,-0.009215124882757664
8192.0,-0.008664612658321857
end
