version,3.0
numOfCh,1
type,point
parent_name,19e3e_0dot069-0dot01
ch_type,1_1
kcount,1
numberNandB,1
brightnessNandB,1
carpet pos,0
pc,0
Time (ms),CH1 Auto-Correlation
1.0,0.046341072767972946
2.0,0.04602280259132385
3.0,0.04568720608949661
4.0,0.045346979051828384
5.0,0.045011572539806366
6.0,0.044679194688797
7.0,0.04435967653989792
8.0,0.04404645413160324
9.0,0.04372778907418251
10.0,0.04342351853847504
11.0,0.04311716929078102
12.0,0.04280402511358261
13.0,0.042471159249544144
14.0,0.0421467050909996
15.0,0.04183390736579895
16.0,0.04152197390794754
18.0,0.04093325510621071
20.0,0.04039110243320465
22.0,0.039856452494859695
24.0,0.03932495415210724
26.0,0.03879347816109657
28.0,0.03827599063515663
30.0,0.037771549075841904
32.0,0.03730122745037079
36.0,0.03631725534796715
40.0,0.03530101105570793
44.0,0.034261174499988556
48.0,0.033215176314115524
52.0,0.032206226140260696
56.0,0.031315192580223083
60.0,0.030527397990226746
64.0,0.029722608625888824
72.0,0.027973774820566177
80.0,0.026013055816292763
88.0,0.024108946323394775
96.0,0.022358974441885948
104.0,0.021121753379702568
112.0,0.020303543657064438
120.0,0.01945655234158039
128.0,0.01867668330669403
144.0,0.01766228675842285
160.0,0.016848834231495857
176.0,0.016498342156410217
192.0,0.016214028000831604
208.0,0.01590770296752453
224.0,0.01559555996209383
240.0,0.014833135530352592
256.0,0.013869059272110462
288.0,0.012812585569918156
320.0,0.012094340287148952
352.0,0.011810574680566788
384.0,0.011573205702006817
416.0,0.011483879759907722
448.0,0.010592002421617508
480.0,0.009784541092813015
512.0,0.009746087715029716
576.0,0.01259494200348854
640.0,0.014024806208908558
704.0,0.012233665212988853
768.0,0.010647444985806942
832.0,0.008959202095866203
896.0,0.007458273787051439
960.0,0.007453467696905136
1024.0,0.00591925997287035
1152.0,0.007619586773216724
1280.0,0.01188998855650425
1408.0,0.010642241686582565
1536.0,0.007366955280303955
1664.0,0.006288394331932068
1792.0,0.0014384323731064796
1920.0,0.004232350736856461
2048.0,0.003330229315906763
2304.0,-0.00069195352261886
2560.0,0.0010389202507212758
2816.0,-0.0005362628144212067
3072.0,-0.0015759140951558948
3328.0,-0.001500115729868412
3584.0,-0.011440135538578033
3840.0,-0.00908841285854578
4096.0,-0.006604705471545458
4608.0,-0.003938817419111729
5120.0,-0.008737723343074322
5632.0,-0.013973373919725418
6144.0,-0.015976686030626297
6656.0,-0.01572815328836441
7168.0,-0.00877311546355486
7680.0,-0.0038335653953254223
8192.0,-0.010261308401823044
end
