version,3.0
numOfCh,1
type,point
parent_name,19e3e_0dot069-0dot01
ch_type,1_1
kcount,1
numberNandB,1
brightnessNandB,1
carpet pos,0
pc,0
Time (ms),CH1 Auto-Correlation
1.0,0.028376437723636627
2.0,0.028183579444885254
3.0,0.027988765388727188
4.0,0.027797143906354904
5.0,0.02760794572532177
6.0,0.02742503024637699
7.0,0.027240512892603874
8.0,0.027063241228461266
9.0,0.026889944449067116
10.0,0.02671404927968979
11.0,0.026536934077739716
12.0,0.026362642645835876
13.0,0.026188576593995094
14.0,0.02601863071322441
15.0,0.0258472952991724
16.0,0.025678204372525215
18.0,0.02534552477300167
20.0,0.025022977963089943
22.0,0.0247097946703434
24.0,0.024395326152443886
26.0,0.024087201803922653
28.0,0.023780953139066696
30.0,0.023475877940654755
32.0,0.02318010851740837
36.0,0.022605475038290024
40.0,0.022089069709181786
44.0,0.021589718759059906
48.0,0.02110428363084793
52.0,0.020648125559091568
56.0,0.020207906141877174
60.0,0.019771620631217957
64.0,0.0193331316113472
72.0,0.018442116677761078
80.0,0.01760154776275158
88.0,0.016860395669937134
96.0,0.01612163335084915
104.0,0.01538428571075201
112.0,0.014700922183692455
120.0,0.014047536067664623
128.0,0.013384934514760971
144.0,0.012086732313036919
160.0,0.010914861224591732
176.0,0.009907440282404423
192.0,0.009054077789187431
208.0,0.008276415057480335
224.0,0.00744808791205287
240.0,0.006606739014387131
256.0,0.005957344081252813
288.0,0.00484435586258769
320.0,0.004201100207865238
352.0,0.003780716797336936
384.0,0.0036323065869510174
416.0,0.003184898290783167
448.0,0.0028732370119541883
480.0,0.0025309580378234386
512.0,0.0018315385095775127
576.0,0.0010857427259907126
640.0,0.0012687506387010217
704.0,0.0010183732956647873
768.0,0.0002598086721263826
832.0,0.0007050529820844531
896.0,0.0010327973868697882
960.0,0.0010051106801256537
1024.0,0.0010410510003566742
1152.0,-0.0010626434814184904
1280.0,-0.0018841322744265199
1408.0,-0.0017236270941793919
1536.0,-0.00039706676034256816
1664.0,0.0008046120055951178
1792.0,0.0009010432404465973
1920.0,0.001924245967529714
2048.0,0.00316229579038918
2304.0,-0.0004495324974413961
2560.0,-0.0024638574104756117
2816.0,-0.0016330054495483637
3072.0,-0.0005018042866140604
3328.0,0.002653625328093767
3584.0,0.0014851513551548123
3840.0,-0.000328932044794783
4096.0,-0.0005132463993504643
4608.0,-0.001386040821671486
5120.0,0.00553256506100297
5632.0,0.0021130379755049944
6144.0,-0.002442106604576111
6656.0,0.0016259754775092006
7168.0,0.0018776669166982174
7680.0,-0.0056901066564023495
8192.0,-0.005725493188947439
end
