version,3.0
numOfCh,1
type,point
parent_name,19e3e_0dot069-0dot01
ch_type,1_1
kcount,1
numberNandB,1
brightnessNandB,1
carpet pos,0
pc,0
Time (ms),CH1 Auto-Correlation
1.0,0.038599416613578796
2.0,0.038307949900627136
3.0,0.03802415356040001
4.0,0.03774557262659073
5.0,0.03746405243873596
6.0,0.03719331696629524
7.0,0.036930907517671585
8.0,0.03665979951620102
9.0,0.03640299662947655
10.0,0.036149103194475174
11.0,0.035900335758924484
12.0,0.03566211089491844
13.0,0.03543644770979881
14.0,0.03521847352385521
15.0,0.03499966114759445
16.0,0.03477415442466736
18.0,0.03432276099920273
20.0,0.03388762101531029
22.0,0.033448755741119385
24.0,0.033028487116098404
26.0,0.032612983137369156
28.0,0.03219923377037048
30.0,0.03179708868265152
32.0,0.031393323093652725
36.0,0.030592648312449455
40.0,0.029884805902838707
44.0,0.02922447957098484
48.0,0.02858879417181015
52.0,0.027990970760583878
56.0,0.027365200221538544
60.0,0.026715751737356186
64.0,0.02607964724302292
72.0,0.024941744282841682
80.0,0.02399086020886898
88.0,0.02310791425406933
96.0,0.022273702546954155
104.0,0.02147606760263443
112.0,0.020972061902284622
120.0,0.02061690390110016
128.0,0.020349103957414627
144.0,0.019874459132552147
160.0,0.019443823024630547
176.0,0.01902179606258869
192.0,0.018446167930960655
208.0,0.01812588796019554
224.0,0.018082698807120323
240.0,0.018319955095648766
256.0,0.018682092428207397
288.0,0.01884530670940876
320.0,0.017330734059214592
352.0,0.015971608459949493
384.0,0.014495336450636387
416.0,0.013639240525662899
448.0,0.013529066927731037
480.0,0.013081617653369904
512.0,0.013372180983424187
576.0,0.013962799683213234
640.0,0.012844973243772984
704.0,0.011820717714726925
768.0,0.01109000202268362
832.0,0.010846540331840515
896.0,0.010427620261907578
960.0,0.011148539371788502
1024.0,0.011937613599002361
1152.0,0.01134118065237999
1280.0,0.010382041335105896
1408.0,0.00918289739638567
1536.0,0.008549464866518974
1664.0,0.004688534419983625
1792.0,0.0030533606186509132
1920.0,0.0024279688950628042
2048.0,0.003070361679419875
2304.0,0.0027277725748717785
2560.0,0.004695657640695572
2816.0,0.006552109960466623
3072.0,0.007010322529822588
3328.0,0.002927106572315097
3584.0,0.003591202199459076
3840.0,0.0032242806628346443
4096.0,0.0016184175619855523
4608.0,-0.004928299691528082
5120.0,-0.005872242618352175
5632.0,-0.006395205855369568
6144.0,-0.005831823218613863
6656.0,-0.00428541237488389
7168.0,-0.011415557935833931
7680.0,-0.018242409452795982
8192.0,-0.024067997932434082
end
