version,3.0
numOfCh,1
type,point
parent_name,19e3e_0dot069-0dot01
ch_type,1_1
kcount,1
numberNandB,1
brightnessNandB,1
carpet pos,0
pc,0
Time (ms),CH1 Auto-Correlation
1.0,0.027448203414678574
2.0,0.027232391759753227
3.0,0.02702299691736698
4.0,0.02681637927889824
5.0,0.02661389485001564
6.0,0.026416469365358353
7.0,0.02622201479971409
8.0,0.026023531332612038
9.0,0.025824831798672676
10.0,0.02562636323273182
11.0,0.02542598731815815
12.0,0.025227190926671028
13.0,0.025036249309778214
14.0,0.024851825088262558
15.0,0.024669582024216652
16.0,0.024495592340826988
18.0,0.024161212146282196
20.0,0.02382895164191723
22.0,0.023488949984312057
24.0,0.023152664303779602
26.0,0.022810712456703186
28.0,0.022468505427241325
30.0,0.02213313989341259
32.0,0.021795837208628654
36.0,0.021165478974580765
40.0,0.020572904497385025
44.0,0.0200046319514513
48.0,0.019496189430356026
52.0,0.019006237387657166
56.0,0.018524697050452232
60.0,0.018058201298117638
64.0,0.017626319080591202
72.0,0.01677190512418747
80.0,0.01592945121228695
88.0,0.015223049558699131
96.0,0.014605674892663956
104.0,0.01396445743739605
112.0,0.013317897915840149
120.0,0.012640289030969143
128.0,0.012068541720509529
144.0,0.011072306893765926
160.0,0.010346226394176483
176.0,0.00990338996052742
192.0,0.009408914484083652
208.0,0.008922544308006763
224.0,0.008347777649760246
240.0,0.007794181816279888
256.0,0.007227962836623192
288.0,0.006275723222643137
320.0,0.005412910599261522
352.0,0.0045806290581822395
384.0,0.003765368601307273
416.0,0.0035261549055576324
448.0,0.00348251243121922
480.0,0.003880106844007969
512.0,0.0042695519514381886
576.0,0.004545074887573719
640.0,0.004705824423581362
704.0,0.004797410219907761
768.0,0.0040043555200099945
832.0,0.0019565685652196407
896.0,-0.0006977951270528138
960.0,-0.0023908191360533237
1024.0,-0.0025943531654775143
1152.0,-0.0017584175802767277
1280.0,-0.0014716185396537185
1408.0,-0.0015562411863356829
1536.0,-0.0030018091201782227
1664.0,-0.0036681818310171366
1792.0,-0.0034677458461374044
1920.0,-0.004282642155885696
2048.0,-0.00556510966271162
2304.0,-0.006067045032978058
2560.0,-0.002615395002067089
2816.0,-0.00024442290305159986
3072.0,0.0012510684318840504
3328.0,0.0014291034312918782
3584.0,0.0010505421087145805
3840.0,0.0006679154466837645
4096.0,0.0019053693395107985
4608.0,0.005462069530040026
5120.0,0.0009800026891753078
5632.0,-0.0018642439972609282
6144.0,-0.0003810805210378021
6656.0,-0.004077199846506119
7168.0,-0.005341748241335154
7680.0,-0.0016728631453588605
8192.0,-0.0026016971096396446
end
