version,3.0
numOfCh,1
type,point
parent_name,19e3e_0dot069-0dot01
ch_type,1_1
kcount,1
numberNandB,1
brightnessNandB,1
carpet pos,0
pc,0
Time (ms),CH1 Auto-Correlation
1.0,0.04278858006000519
2.0,0.04248877242207527
3.0,0.04220312088727951
4.0,0.041911330074071884
5.0,0.04162020608782768
6.0,0.04134245216846466
7.0,0.041073933243751526
8.0,0.04081094264984131
9.0,0.04054337367415428
10.0,0.04027625173330307
11.0,0.040024176239967346
12.0,0.03977755457162857
13.0,0.03952914476394653
14.0,0.0392797626554966
15.0,0.03903019428253174
16.0,0.038769111037254333
18.0,0.03824995458126068
20.0,0.03774236515164375
22.0,0.037284526973962784
24.0,0.03686501830816269
26.0,0.036474570631980896
28.0,0.03609124943614006
30.0,0.03572439029812813
32.0,0.03537118807435036
36.0,0.034617144614458084
40.0,0.03392154350876808
44.0,0.03323080763220787
48.0,0.03255085647106171
52.0,0.03186684101819992
56.0,0.03117893636226654
60.0,0.030517542734742165
64.0,0.029841968789696693
72.0,0.0286769550293684
80.0,0.027727816253900528
88.0,0.02680865302681923
96.0,0.025746023282408714
104.0,0.02468368224799633
112.0,0.023737004026770592
120.0,0.022995682433247566
128.0,0.022341545671224594
144.0,0.020980432629585266
160.0,0.019766077399253845
176.0,0.019030362367630005
192.0,0.01823423057794571
208.0,0.01755416765809059
224.0,0.017221497371792793
240.0,0.017151210457086563
256.0,0.017017146572470665
288.0,0.016946984454989433
320.0,0.01674468070268631
352.0,0.016096819192171097
384.0,0.014743897132575512
416.0,0.013397281058132648
448.0,0.01336183212697506
480.0,0.013192585669457912
512.0,0.012419610284268856
576.0,0.011610029265284538
640.0,0.011859677731990814
704.0,0.011068959720432758
768.0,0.009769381023943424
832.0,0.010096962563693523
896.0,0.009398526512086391
960.0,0.007265186402946711
1024.0,0.005256287753582001
1152.0,0.004533729515969753
1280.0,0.009166406467556953
1408.0,0.006045566406100988
1536.0,0.004131376277655363
1664.0,0.0035148602910339832
1792.0,0.0018011184874922037
1920.0,0.0012187440879642963
2048.0,0.0017740632174536586
2304.0,-0.0033180909231305122
2560.0,-0.010345649905502796
2816.0,-0.01527734100818634
3072.0,-0.014771553687751293
3328.0,-0.016678230836987495
3584.0,-0.016778964549303055
3840.0,-0.017190517857670784
4096.0,-0.014653475023806095
4608.0,-0.01680561527609825
5120.0,-0.0038161638658493757
5632.0,0.005691127851605415
6144.0,0.002490078331902623
6656.0,0.005674104671925306
7168.0,0.021750308573246002
7680.0,0.0333784818649292
8192.0,-0.009614341892302036
end
