version,3.0
numOfCh,1
type,point
parent_name,19e3e_0dot069-0dot01
ch_type,1_1
kcount,1
numberNandB,1
brightnessNandB,1
carpet pos,0
pc,0
Time (ms),CH1 Auto-Correlation
1.0,0.06767215579748154
2.0,0.06720758229494095
3.0,0.06676162779331207
4.0,0.06629866361618042
5.0,0.06584644317626953
6.0,0.06541157513856888
7.0,0.0649852380156517
8.0,0.06454608589410782
9.0,0.06413412094116211
10.0,0.06374944746494293
11.0,0.06335638463497162
12.0,0.06295721232891083
13.0,0.06257681548595428
14.0,0.062185704708099365
15.0,0.06179317831993103
16.0,0.061397623270750046
18.0,0.060574010014534
20.0,0.05986395478248596
22.0,0.05916455760598183
24.0,0.05846539884805679
26.0,0.05773596093058586
28.0,0.05705096945166588
30.0,0.05639217793941498
32.0,0.05572139844298363
36.0,0.05436650291085243
40.0,0.05329935997724533
44.0,0.0522422231733799
48.0,0.051240675151348114
52.0,0.050329871475696564
56.0,0.04943457618355751
60.0,0.048564132302999496
64.0,0.0478568896651268
72.0,0.04603272303938866
80.0,0.04452124610543251
88.0,0.04315800964832306
96.0,0.04185589402914047
104.0,0.04034687951207161
112.0,0.03868419677019119
120.0,0.037004128098487854
128.0,0.03550618514418602
144.0,0.032657332718372345
160.0,0.030449235811829567
176.0,0.027921969071030617
192.0,0.02590043656527996
208.0,0.02382121980190277
224.0,0.02168107219040394
240.0,0.020166682079434395
256.0,0.018151139840483665
288.0,0.014845140278339386
320.0,0.013926772400736809
352.0,0.01280091144144535
384.0,0.011375774629414082
416.0,0.010169521905481815
448.0,0.009079123847186565
480.0,0.008442578837275505
512.0,0.0077083841897547245
576.0,0.004856199491769075
640.0,0.0038433638401329517
704.0,0.003549410030245781
768.0,0.0036793830804526806
832.0,0.0030976510606706142
896.0,0.0031290824990719557
960.0,0.0027961863670498133
1024.0,0.00018988559895660728
1152.0,-0.005170363467186689
1280.0,-0.0028866410721093416
1408.0,-0.004686139058321714
1536.0,-0.007637739181518555
1664.0,-0.008181680925190449
1792.0,-0.009578458033502102
1920.0,-0.007629665546119213
2048.0,-0.007020115852355957
2304.0,-0.005668217316269875
2560.0,-0.0027393740601837635
2816.0,-0.0043233963660895824
3072.0,-0.0026219540741294622
3328.0,-0.0030050156638026237
3584.0,-0.0037584176752716303
3840.0,0.00033142376923933625
4096.0,0.0003599179908633232
4608.0,0.002625830937176943
5120.0,0.005578112788498402
5632.0,-0.0029660072177648544
6144.0,-0.007877354510128498
6656.0,-0.009366769343614578
7168.0,-0.010771588422358036
7680.0,-0.005876954644918442
8192.0,-7.220319821499288e-05
end
