version,3.0
numOfCh,1
type,point
parent_name,19e3e_0dot069-0dot01
ch_type,1_1
kcount,1
numberNandB,1
brightnessNandB,1
carpet pos,0
pc,0
Time (ms),CH1 Auto-Correlation
1.0,0.021731918677687645
2.0,0.021538356319069862
3.0,0.021354826167225838
4.0,0.021173911169171333
5.0,0.020998332649469376
6.0,0.020822841674089432
7.0,0.020641464740037918
8.0,0.020466351881623268
9.0,0.020295925438404083
10.0,0.02012120746076107
11.0,0.01994394324719906
12.0,0.019765375182032585
13.0,0.01958833448588848
14.0,0.019420213997364044
15.0,0.019256699830293655
16.0,0.019096411764621735
18.0,0.01878165826201439
20.0,0.0184699147939682
22.0,0.01816502772271633
24.0,0.01786082610487938
26.0,0.017556944862008095
28.0,0.017257528379559517
30.0,0.016972580924630165
32.0,0.01669619418680668
36.0,0.0161732267588377
40.0,0.015681972727179527
44.0,0.015208527445793152
48.0,0.014748885296285152
52.0,0.014312399551272392
56.0,0.013895247131586075
60.0,0.01349549274891615
64.0,0.013102433644235134
72.0,0.012392784468829632
80.0,0.011737492866814137
88.0,0.011162348091602325
96.0,0.010680565610527992
104.0,0.010294739156961441
112.0,0.009843485429883003
120.0,0.00927922036498785
128.0,0.008732886984944344
144.0,0.007577367592602968
160.0,0.006407611537724733
176.0,0.005381395574659109
192.0,0.004399100784212351
208.0,0.003518247278407216
224.0,0.0028954460285604
240.0,0.002585256239399314
256.0,0.0025287296157330275
288.0,0.002214479260146618
320.0,0.002115048700943589
352.0,0.0017934859497472644
384.0,0.0018760995008051395
416.0,0.00204453244805336
448.0,0.0020842181984335184
480.0,0.0016314643435180187
512.0,0.0012575967703014612
576.0,0.0006068617221899331
640.0,0.00017738279711920768
704.0,0.0007961271330714226
768.0,0.002162467921152711
832.0,0.003352777101099491
896.0,0.004345581401139498
960.0,0.004566841758787632
1024.0,0.004447919316589832
1152.0,0.00208254624158144
1280.0,0.0023474274203181267
1408.0,0.0016051108250394464
1536.0,0.0017693033441901207
1664.0,0.0015159655595198274
1792.0,0.0016582326497882605
1920.0,0.000600130413658917
2048.0,0.001438785344362259
2304.0,-0.0005001082899980247
2560.0,0.0006318848463706672
2816.0,-0.00030109964427538216
3072.0,-0.0006126000662334263
3328.0,-0.0021040262654423714
3584.0,-0.0010381406173110008
3840.0,-0.00036885321605950594
4096.0,0.0001606284931767732
4608.0,-0.0024121475871652365
5120.0,-0.0020927079021930695
5632.0,0.0021697585470974445
6144.0,-5.314053123584017e-05
6656.0,0.003070862963795662
7168.0,0.0016334329266101122
7680.0,0.001188437920063734
8192.0,0.0006883651367388666
end
