version,3.0
numOfCh,1
type,point
parent_name,19e3e_0dot069-0dot01
ch_type,1_1
kcount,1
numberNandB,1
brightnessNandB,1
carpet pos,0
pc,0
Time (ms),CH1 Auto-Correlation
1.0,0.02300349809229374
2.0,0.02281114086508751
3.0,0.022621361538767815
4.0,0.022434130311012268
5.0,0.022254779934883118
6.0,0.022081535309553146
7.0,0.021912623196840286
8.0,0.021745186299085617
9.0,0.02157633937895298
10.0,0.021404437720775604
11.0,0.02123953215777874
12.0,0.021078286692500114
13.0,0.020917145535349846
14.0,0.02075647935271263
15.0,0.020597293972969055
16.0,0.02043548785150051
18.0,0.02010979689657688
20.0,0.019790414720773697
22.0,0.01947959139943123
24.0,0.01918838545680046
26.0,0.018912749364972115
28.0,0.01864675059914589
30.0,0.01838543824851513
32.0,0.018127121031284332
36.0,0.0176100991666317
40.0,0.01712632365524769
44.0,0.016679683700203896
48.0,0.016233956441283226
52.0,0.01578334905207157
56.0,0.015324735082685947
60.0,0.014890212565660477
64.0,0.014475065283477306
72.0,0.013698285445570946
80.0,0.01300144474953413
88.0,0.01237958949059248
96.0,0.01183364074677229
104.0,0.011357271112501621
112.0,0.011018926277756691
120.0,0.010731403715908527
128.0,0.010456246323883533
144.0,0.010075581260025501
160.0,0.00979988556355238
176.0,0.009428431279957294
192.0,0.009090612642467022
208.0,0.008611653931438923
224.0,0.008009564131498337
240.0,0.0071739316917955875
256.0,0.006404129788279533
288.0,0.005487111397087574
320.0,0.005090484861284494
352.0,0.005034430418163538
384.0,0.004914793651551008
416.0,0.00459286430850625
448.0,0.004102165810763836
480.0,0.003743883455172181
512.0,0.003521650331094861
576.0,0.002229789039120078
640.0,0.0010932913282886147
704.0,0.0013773300452157855
768.0,0.0021556501742452383
832.0,0.002699560020118952
896.0,0.0025979650672525167
960.0,0.0023534323554486036
1024.0,0.002724521094933152
1152.0,0.0026052079629153013
1280.0,0.0020681507885456085
1408.0,0.002061279024928808
1536.0,0.00153252761811018
1664.0,0.0023679318837821484
1792.0,0.0034712343476712704
1920.0,0.005038040690124035
2048.0,0.005534566473215818
2304.0,0.005576987750828266
2560.0,0.00404374161735177
2816.0,0.0017010120209306479
3072.0,0.0003512552357278764
3328.0,0.0013470870908349752
3584.0,-0.0006073788972571492
3840.0,-0.0005444201524369419
4096.0,0.0009309429442510009
4608.0,-0.0018909648060798645
5120.0,-0.003837796626612544
5632.0,-0.0014274202985689044
6144.0,-0.0028657137881964445
6656.0,-0.005799466744065285
7168.0,-0.004947212059050798
7680.0,-0.004845437128096819
8192.0,-0.003583007724955678
end
