version,3.0
numOfCh,1
type,point
parent_name,19e3e_0dot069-0dot01
ch_type,1_1
kcount,1
numberNandB,1
brightnessNandB,1
carpet pos,0
pc,0
Time (ms),CH1 Auto-Correlation
1.0,0.14918772876262665
2.0,0.14839133620262146
3.0,0.14760154485702515
4.0,0.14682190120220184
5.0,0.14605700969696045
6.0,0.1452951580286026
7.0,0.14451809227466583
8.0,0.14376544952392578
9.0,0.1430111527442932
10.0,0.14231887459754944
11.0,0.141647070646286
12.0,0.14099985361099243
13.0,0.14035886526107788
14.0,0.13970902562141418
15.0,0.13909099996089935
16.0,0.1385607123374939
18.0,0.13755057752132416
20.0,0.13654573261737823
22.0,0.1354563683271408
24.0,0.1344178169965744
26.0,0.13331666588783264
28.0,0.13223983347415924
30.0,0.13117177784442902
32.0,0.1300523281097412
36.0,0.12772488594055176
40.0,0.12563645839691162
44.0,0.12367934733629227
48.0,0.12201050668954849
52.0,0.12048888206481934
56.0,0.11878807842731476
60.0,0.11717557162046432
64.0,0.11581102013587952
72.0,0.11364272236824036
80.0,0.11075285822153091
88.0,0.10838853567838669
96.0,0.10718648135662079
104.0,0.10577138513326645
112.0,0.1033521518111229
120.0,0.10101129859685898
128.0,0.09907031804323196
144.0,0.09608280658721924
160.0,0.09409202635288239
176.0,0.09148462861776352
192.0,0.08785377442836761
208.0,0.08489683270454407
224.0,0.08251020312309265
240.0,0.07949686050415039
256.0,0.07671346515417099
288.0,0.07034564018249512
320.0,0.061864085495471954
352.0,0.05448073521256447
384.0,0.048185065388679504
416.0,0.04367133229970932
448.0,0.041248537600040436
480.0,0.0393955297768116
512.0,0.03683861345052719
576.0,0.021969275549054146
640.0,0.015200668945908546
704.0,0.010479758493602276
768.0,0.0037792485672980547
832.0,-0.0072487760335206985
896.0,-0.011853065341711044
960.0,-0.010563933290541172
1024.0,-0.011768360622227192
1152.0,-0.015373948030173779
1280.0,-0.02054884470999241
1408.0,-0.02372443489730358
1536.0,-0.021452054381370544
1664.0,-0.020928584039211273
1792.0,-0.022167321294546127
1920.0,-0.022045180201530457
2048.0,-0.022212956100702286
2304.0,-0.030517378821969032
2560.0,-0.03479330241680145
2816.0,-0.03582030534744263
3072.0,-0.03849143162369728
3328.0,-0.034532491117715836
3584.0,-0.023029763251543045
3840.0,0.009946231730282307
4096.0,0.03309709206223488
4608.0,0.028631165623664856
5120.0,0.01767859235405922
5632.0,0.03497340902686119
6144.0,0.0377325564622879
6656.0,-0.024861276149749756
7168.0,-0.10587805509567261
end
