version,3.0
numOfCh,1
type,point
parent_name,19e3e_0dot069-0dot01
ch_type,1_1
kcount,1
numberNandB,1
brightnessNandB,1
carpet pos,0
pc,0
Time (ms),CH1 Auto-Correlation
1.0,0.04798448085784912
2.0,0.047739479690790176
3.0,0.04750439152121544
4.0,0.047271229326725006
5.0,0.04703236743807793
6.0,0.04678292199969292
7.0,0.04653896391391754
8.0,0.046311501413583755
9.0,0.04608512669801712
10.0,0.04585836082696915
11.0,0.04562775790691376
12.0,0.04540654271841049
13.0,0.045187242329120636
14.0,0.04495877027511597
15.0,0.04473965987563133
16.0,0.0445186123251915
18.0,0.04409653693437576
20.0,0.04367838799953461
22.0,0.043261218816041946
24.0,0.04284386336803436
26.0,0.04243132099509239
28.0,0.04203470051288605
30.0,0.041629936546087265
32.0,0.041221484541893005
36.0,0.04046599194407463
40.0,0.039697203785181046
44.0,0.038957834243774414
48.0,0.03823988512158394
52.0,0.03751978650689125
56.0,0.03677970916032791
60.0,0.03604203462600708
64.0,0.03534543886780739
72.0,0.034188080579042435
80.0,0.033131472766399384
88.0,0.03221672773361206
96.0,0.03144928067922592
104.0,0.030624618753790855
112.0,0.029669970273971558
120.0,0.02890854701399803
128.0,0.0283396914601326
144.0,0.027220381423830986
160.0,0.02589792013168335
176.0,0.024649672210216522
192.0,0.023552188649773598
208.0,0.022359468042850494
224.0,0.021587319672107697
240.0,0.02135188691318035
256.0,0.020997030660510063
288.0,0.02027667872607708
320.0,0.019464371725916862
352.0,0.0192129984498024
384.0,0.01911766640841961
416.0,0.018931197002530098
448.0,0.018885087221860886
480.0,0.0185480248183012
512.0,0.018535856157541275
576.0,0.01947198249399662
640.0,0.018599610775709152
704.0,0.01577110029757023
768.0,0.01316054817289114
832.0,0.010519256815314293
896.0,0.010166232474148273
960.0,0.011109752580523491
1024.0,0.013088044710457325
1152.0,0.014715174213051796
1280.0,0.01180537324398756
1408.0,0.00835349503904581
1536.0,0.005676816217601299
1664.0,0.002867970149964094
1792.0,6.30235590506345e-05
1920.0,-0.006056065671145916
2048.0,-0.007118171080946922
2304.0,-0.004506787750869989
2560.0,-0.004225826822221279
2816.0,-0.003561417805030942
3072.0,-0.007208410184830427
3328.0,-0.004781803116202354
3584.0,-0.0018518870929256082
3840.0,0.0033348023425787687
4096.0,0.007696773391216993
4608.0,0.00435362895950675
5120.0,0.0011727120727300644
5632.0,-0.008272042497992516
6144.0,-0.021410653367638588
6656.0,-0.023485084995627403
7168.0,-0.02628689631819725
7680.0,-0.018621593713760376
8192.0,-0.013820406049489975
end
