version,3.0
numOfCh,1
type,point
parent_name,19e3e_0dot069-0dot01
ch_type,1_1
kcount,1
numberNandB,1
brightnessNandB,1
carpet pos,0
pc,0
Time (ms),CH1 Auto-Correlation
1.0,0.028696076944470406
2.0,0.02851075865328312
3.0,0.028330253437161446
4.0,0.028150562196969986
5.0,0.027972647920250893
6.0,0.027798378840088844
7.0,0.02762877568602562
8.0,0.02745835855603218
9.0,0.027291154488921165
10.0,0.02712124213576317
11.0,0.026956500485539436
12.0,0.02679375559091568
13.0,0.026630263775587082
14.0,0.0264716949313879
15.0,0.02631356194615364
16.0,0.0261544156819582
18.0,0.02584628388285637
20.0,0.025554168969392776
22.0,0.0252732802182436
24.0,0.024997392669320107
26.0,0.024727575480937958
28.0,0.02445615641772747
30.0,0.02418290451169014
32.0,0.023916786536574364
36.0,0.023426294326782227
40.0,0.022976433858275414
44.0,0.02251270040869713
48.0,0.02202121540904045
52.0,0.02155900001525879
56.0,0.02113218419253826
60.0,0.020726431161165237
64.0,0.020305277779698372
72.0,0.019421420991420746
80.0,0.018644751980900764
88.0,0.017980851233005524
96.0,0.01741437241435051
104.0,0.016869129613041878
112.0,0.01626478135585785
120.0,0.015587146393954754
128.0,0.014983625151216984
144.0,0.014149845577776432
160.0,0.013459631241858006
176.0,0.01262266281992197
192.0,0.011930786073207855
208.0,0.01138290110975504
224.0,0.010937093757092953
240.0,0.010687821544706821
256.0,0.01072662603110075
288.0,0.010679129511117935
320.0,0.01055001188069582
352.0,0.010320539586246014
384.0,0.010358129628002644
416.0,0.010081454180181026
448.0,0.009629814885556698
480.0,0.008710401132702827
512.0,0.007099212612956762
576.0,0.005270663648843765
640.0,0.005055717192590237
704.0,0.00575754139572382
768.0,0.005869750864803791
832.0,0.0054048215970396996
896.0,0.004743879195302725
960.0,0.004807240795344114
1024.0,0.004598132334649563
1152.0,0.005281809251755476
1280.0,0.004562632646411657
1408.0,0.0045127407647669315
1536.0,0.004481552634388208
1664.0,0.003597166622057557
1792.0,0.004098857287317514
1920.0,0.0028779886197298765
2048.0,0.0017798966728150845
2304.0,0.002242375398054719
2560.0,0.0019588035065680742
2816.0,-0.0008484312565997243
3072.0,-0.0006608745898120105
3328.0,0.0013765188632532954
3584.0,0.0007994786719791591
3840.0,-0.0010047330288216472
4096.0,-0.00337637634947896
4608.0,-0.00811064150184393
5120.0,-0.006234993692487478
5632.0,-0.006220439914613962
6144.0,-0.007892782799899578
6656.0,-0.005793360527604818
7168.0,-0.0025860676541924477
7680.0,-0.0008165162289515138
8192.0,-0.002220915863290429
end
