version,3.0
numOfCh,1
type,point
parent_name,19e3e_0dot069-0dot01
ch_type,1_1
kcount,1
numberNandB,1
brightnessNandB,1
carpet pos,0
pc,0
Time (ms),CH1 Auto-Correlation
1.0,0.0342627614736557
2.0,0.03406503424048424
3.0,0.03387359902262688
4.0,0.03368641436100006
5.0,0.03350071236491203
6.0,0.0333145447075367
7.0,0.03313199430704117
8.0,0.03294319286942482
9.0,0.032757315784692764
10.0,0.032567963004112244
11.0,0.032383356243371964
12.0,0.032205741852521896
13.0,0.03203099966049194
14.0,0.031857457011938095
15.0,0.03168466314673424
16.0,0.03151834011077881
18.0,0.031196940690279007
20.0,0.030887406319379807
22.0,0.030588028952479362
24.0,0.030299117788672447
26.0,0.0300236027687788
28.0,0.02973955310881138
30.0,0.029441874474287033
32.0,0.02914520911872387
36.0,0.02857816591858864
40.0,0.02803635038435459
44.0,0.02751421183347702
48.0,0.027017533779144287
52.0,0.026533909142017365
56.0,0.02606068179011345
60.0,0.025600355118513107
64.0,0.025155911222100258
72.0,0.024368243291974068
80.0,0.023627495393157005
88.0,0.022902999073266983
96.0,0.022168636322021484
104.0,0.02148585580289364
112.0,0.02085738070309162
120.0,0.020276837050914764
128.0,0.0196975264698267
144.0,0.018538296222686768
160.0,0.01755797117948532
176.0,0.016572238877415657
192.0,0.015598413534462452
208.0,0.014702534303069115
224.0,0.013930076733231544
240.0,0.013436336070299149
256.0,0.012999175116419792
288.0,0.01240122877061367
320.0,0.011693121865391731
352.0,0.011119852773845196
384.0,0.010861102491617203
416.0,0.010614517144858837
448.0,0.010501552373170853
480.0,0.010845564305782318
512.0,0.011303209699690342
576.0,0.011914276517927647
640.0,0.011390100233256817
704.0,0.011116556823253632
768.0,0.011518682353198528
832.0,0.011902154423296452
896.0,0.011115283705294132
960.0,0.009073548018932343
1024.0,0.007661899086087942
1152.0,0.005988982040435076
1280.0,0.005450958851724863
1408.0,0.005195723380893469
1536.0,0.004838503431528807
1664.0,0.002792053623124957
1792.0,0.0023029104340821505
1920.0,0.002711486304178834
2048.0,0.0002858677471522242
2304.0,-0.0033658111933618784
2560.0,-0.004289163742214441
2816.0,-0.004392686765640974
3072.0,-0.004624268040060997
3328.0,-0.004330529365688562
3584.0,-0.00406552292406559
3840.0,-0.005613258574157953
4096.0,-0.005315534770488739
4608.0,-0.0026870984584093094
5120.0,-0.003926924429833889
5632.0,-0.01003851555287838
6144.0,-0.010671040043234825
6656.0,-0.011153267696499825
7168.0,-0.011001032777130604
7680.0,-0.008928494527935982
8192.0,-0.0026264251209795475
end
