version,3.0
numOfCh,1
type,point
parent_name,19e3e_0dot069-0dot01
ch_type,1_1
kcount,1
numberNandB,1
brightnessNandB,1
carpet pos,0
pc,0
Time (ms),CH1 Auto-Correlation
1.0,0.03480928763747215
2.0,0.03455237299203873
3.0,0.034301772713661194
4.0,0.034065667539834976
5.0,0.03382956609129906
6.0,0.0336165688931942
7.0,0.03340233862400055
8.0,0.03319324553012848
9.0,0.03298015892505646
10.0,0.03277178853750229
11.0,0.03257504105567932
12.0,0.032385148108005524
13.0,0.03219720721244812
14.0,0.03200507536530495
15.0,0.03181276470422745
16.0,0.03162156045436859
18.0,0.031223062425851822
20.0,0.030841490253806114
22.0,0.030474983155727386
24.0,0.030150730162858963
26.0,0.029836352914571762
28.0,0.029514029622077942
30.0,0.02919786423444748
32.0,0.028896288946270943
36.0,0.02829970419406891
40.0,0.027716858312487602
44.0,0.027141638100147247
48.0,0.026606040075421333
52.0,0.026094118133187294
56.0,0.02559509687125683
60.0,0.025130504742264748
64.0,0.024702604860067368
72.0,0.023863062262535095
80.0,0.023001085966825485
88.0,0.02223082445561886
96.0,0.02156427502632141
104.0,0.02095135860145092
112.0,0.02039235457777977
120.0,0.01988491602241993
128.0,0.019321713596582413
144.0,0.01835756003856659
160.0,0.017546644434332848
176.0,0.01687375269830227
192.0,0.016544271260499954
208.0,0.016363773494958878
224.0,0.01611606404185295
240.0,0.015838557854294777
256.0,0.015770452097058296
288.0,0.01567293517291546
320.0,0.015198829583823681
352.0,0.014526402577757835
384.0,0.014292934909462929
416.0,0.014531943947076797
448.0,0.014342467300593853
480.0,0.013294876553118229
512.0,0.012503638863563538
576.0,0.012121355161070824
640.0,0.011640272103250027
704.0,0.010162795893847942
768.0,0.007922477088868618
832.0,0.007065778132528067
896.0,0.006447180639952421
960.0,0.007543424144387245
1024.0,0.008212845772504807
1152.0,0.006401732563972473
1280.0,0.006216017995029688
1408.0,0.005899446550756693
1536.0,0.003739071311429143
1664.0,-3.6729106795974076e-05
1792.0,-0.0014863270334899426
1920.0,-0.0003474750556051731
2048.0,0.0004865746886935085
2304.0,-0.0013275204692035913
2560.0,-0.0005251426482573152
2816.0,-0.0040402403101325035
3072.0,-0.009898307733237743
3328.0,-0.009922610595822334
3584.0,-0.010108484886586666
3840.0,-0.00977586954832077
4096.0,-0.008533122017979622
4608.0,-0.007973936386406422
5120.0,-0.0028021105099469423
5632.0,-0.0016330752987414598
6144.0,0.0004420645418576896
6656.0,-0.002602651482447982
7168.0,-0.008219785057008266
7680.0,-0.005082776304334402
8192.0,-0.003704172559082508
end
