version,3.0
numOfCh,1
type,point
parent_name,19e3e_0dot069-0dot01
ch_type,1_1
kcount,1
numberNandB,1
brightnessNandB,1
carpet pos,0
pc,0
Time (ms),CH1 Auto-Correlation
1.0,0.044196177273988724
2.0,0.04388456046581268
3.0,0.04358038306236267
4.0,0.043282151222229004
5.0,0.043004054576158524
6.0,0.042745694518089294
7.0,0.04247172549366951
8.0,0.04219706356525421
9.0,0.041926126927137375
10.0,0.04167439043521881
11.0,0.04142122343182564
12.0,0.041178252547979355
13.0,0.040941085666418076
14.0,0.04070615395903587
15.0,0.04046205058693886
16.0,0.04024045541882515
18.0,0.03980688005685806
20.0,0.03940706327557564
22.0,0.039047081023454666
24.0,0.03873118758201599
26.0,0.038428790867328644
28.0,0.03812696412205696
30.0,0.03782585635781288
32.0,0.03756025433540344
36.0,0.0370156466960907
40.0,0.036397382616996765
44.0,0.035706132650375366
48.0,0.03503412753343582
52.0,0.03436334803700447
56.0,0.03363858535885811
60.0,0.03298455476760864
64.0,0.032323963940143585
72.0,0.03116249106824398
80.0,0.0302314180880785
88.0,0.029335878789424896
96.0,0.028391791507601738
104.0,0.02761068195104599
112.0,0.027027850970625877
120.0,0.026474479585886
128.0,0.0258865375071764
144.0,0.02455976791679859
160.0,0.023068087175488472
176.0,0.02167777344584465
192.0,0.020091736689209938
208.0,0.018464956432580948
224.0,0.017025433480739594
240.0,0.015877647325396538
256.0,0.014915501698851585
288.0,0.012919287197291851
320.0,0.010529166087508202
352.0,0.008172721602022648
384.0,0.006647921167314053
416.0,0.0060829585418105125
448.0,0.005803060717880726
480.0,0.004991681315004826
512.0,0.004323265980929136
576.0,0.0040831733494997025
640.0,0.0015634445007890463
704.0,-0.00256159296259284
768.0,-0.003845090279355645
832.0,-0.005165493115782738
896.0,-0.005145677365362644
960.0,-0.0050455424934625626
1024.0,-0.0054678646847605705
1152.0,-0.005822774488478899
1280.0,-0.007523803506046534
1408.0,-0.008980334736406803
1536.0,-0.007493466604501009
1664.0,-0.006320197135210037
1792.0,-0.005376532673835754
1920.0,-0.0033114717807620764
2048.0,5.510748451342806e-05
2304.0,0.005360838025808334
2560.0,0.0038708942010998726
2816.0,-0.0031509194523096085
3072.0,-0.004158156458288431
3328.0,-0.0031647169962525368
3584.0,-0.004853277932852507
3840.0,-0.005156057886779308
4096.0,-0.00873428676277399
4608.0,-0.007067529018968344
5120.0,-0.009397255256772041
5632.0,0.014392380602657795
6144.0,0.013268892653286457
6656.0,-0.0015769520541653037
7168.0,-0.024126853793859482
7680.0,-0.022035149857401848
8192.0,0.04920713230967522
end
