version,3.0
numOfCh,1
type,point
parent_name,19e3e_0dot069-0dot01
ch_type,1_1
kcount,1
numberNandB,1
brightnessNandB,1
carpet pos,0
pc,0
Time (ms),CH1 Auto-Correlation
1.0,0.028963914141058922
2.0,0.028734639286994934
3.0,0.02851085737347603
4.0,0.028298206627368927
5.0,0.028084291145205498
6.0,0.027867000550031662
7.0,0.02765829488635063
8.0,0.02745170332491398
9.0,0.027239909395575523
10.0,0.02703046426177025
11.0,0.02682257443666458
12.0,0.026622401550412178
13.0,0.026424143463373184
14.0,0.026231568306684494
15.0,0.026042908430099487
16.0,0.025853699073195457
18.0,0.02549280785024166
20.0,0.025134287774562836
22.0,0.024773720651865005
24.0,0.02441219612956047
26.0,0.024050310254096985
28.0,0.023710496723651886
30.0,0.023378916084766388
32.0,0.023062488064169884
36.0,0.022461015731096268
40.0,0.021856926381587982
44.0,0.021282201632857323
48.0,0.02073545940220356
52.0,0.020213518291711807
56.0,0.01973412185907364
60.0,0.019293496385216713
64.0,0.018880324438214302
72.0,0.018064448609948158
80.0,0.0173640139400959
88.0,0.016734613105654716
96.0,0.016069352626800537
104.0,0.015454532578587532
112.0,0.01499265804886818
120.0,0.014548934064805508
128.0,0.01399429701268673
144.0,0.012834605760872364
160.0,0.012080446816980839
176.0,0.01158817671239376
192.0,0.011005591601133347
208.0,0.010517371818423271
224.0,0.010039550252258778
240.0,0.009549897164106369
256.0,0.009085803292691708
288.0,0.00832806620746851
320.0,0.007768568582832813
352.0,0.007444420829415321
384.0,0.007297898642718792
416.0,0.007775383535772562
448.0,0.008043487556278706
480.0,0.007375921588391066
512.0,0.006246987730264664
576.0,0.004012952093034983
640.0,0.0017547097522765398
704.0,0.00029361777706071734
768.0,-0.0008557229302823544
832.0,-0.0027071526274085045
896.0,-0.0029655727557837963
960.0,-0.002872430020943284
1024.0,-0.003691914025694132
1152.0,-0.005278886295855045
1280.0,-0.00701241847127676
1408.0,-0.006921376101672649
1536.0,-0.00652017816901207
1664.0,-0.007574892602860928
1792.0,-0.00560796819627285
1920.0,-0.004116347525268793
2048.0,-0.005437184125185013
2304.0,-0.002460498595610261
2560.0,-0.0008499144460074604
2816.0,0.0016041826456785202
3072.0,0.0026618661358952522
3328.0,0.005605163984000683
3584.0,0.00714898994192481
3840.0,0.005161680281162262
4096.0,-0.0003211238654330373
4608.0,-0.0030017795506864786
5120.0,-0.000913497933652252
5632.0,-0.006091525312513113
6144.0,-0.004730409011244774
6656.0,0.003752913558855653
7168.0,0.010846149176359177
7680.0,0.004650653339922428
8192.0,-0.004363626707345247
end
