version,3.0
numOfCh,1
type,point
parent_name,19e3e_0dot069-0dot01
ch_type,1_1
kcount,1
numberNandB,1
brightnessNandB,1
carpet pos,0
pc,0
Time (ms),CH1 Auto-Correlation
1.0,0.026106327772140503
2.0,0.025885947048664093
3.0,0.025664029642939568
4.0,0.025442851707339287
5.0,0.025232495740056038
6.0,0.025022586807608604
7.0,0.024814598262310028
8.0,0.024610981345176697
9.0,0.024413015693426132
10.0,0.02422071248292923
11.0,0.02403341419994831
12.0,0.02384956367313862
13.0,0.023675603792071342
14.0,0.023498758673667908
15.0,0.023314910009503365
16.0,0.02313060499727726
18.0,0.022787760943174362
20.0,0.0224623903632164
22.0,0.022144323214888573
24.0,0.021830251440405846
26.0,0.02152581699192524
28.0,0.021237796172499657
30.0,0.020962145179510117
32.0,0.020688015967607498
36.0,0.02016545832157135
40.0,0.019683148711919785
44.0,0.019237972795963287
48.0,0.018789224326610565
52.0,0.018321139737963676
56.0,0.017846055328845978
60.0,0.01736185885965824
64.0,0.01687488704919815
72.0,0.015865743160247803
80.0,0.014867370016872883
88.0,0.013884236104786396
96.0,0.012977920472621918
104.0,0.012125561013817787
112.0,0.011342432349920273
120.0,0.010631534270942211
128.0,0.00996366422623396
144.0,0.00888508465141058
160.0,0.007786856032907963
176.0,0.006596948020160198
192.0,0.005545270629227161
208.0,0.004627375863492489
224.0,0.003972343169152737
240.0,0.0035211676731705666
256.0,0.0031269181054085493
288.0,0.002761246869340539
320.0,0.0019637427758425474
352.0,0.0005524053703993559
384.0,-0.0007181779365055263
416.0,-0.0016826034989207983
448.0,-0.0017718729795888066
480.0,-0.0015820431290194392
512.0,-0.0016212851041927934
576.0,-0.001480652717873454
640.0,-0.0015915919793769717
704.0,-0.0012582719791680574
768.0,8.353566954610869e-05
832.0,0.0022156869526952505
896.0,0.004252438433468342
960.0,0.004813828505575657
1024.0,0.0035521243698894978
1152.0,0.0020732462871819735
1280.0,0.0003835187235381454
1408.0,-0.0012616984313353896
1536.0,-0.002292838180437684
1664.0,-0.002884411718696356
1792.0,-0.00212544621899724
1920.0,-0.0015087153296917677
2048.0,-0.0006991997943259776
2304.0,2.4169810785679147e-05
2560.0,-0.0013100148644298315
2816.0,-0.0027063507586717606
3072.0,0.00024098725407384336
3328.0,-0.0039921049028635025
3584.0,-0.005153037142008543
3840.0,-0.003534051589667797
4096.0,-0.0007756375707685947
4608.0,-0.0024027021136134863
5120.0,-0.001768293441273272
5632.0,-0.00012388838513288647
6144.0,0.0020536102820187807
6656.0,0.0062741427682340145
7168.0,0.0019428052473813295
7680.0,0.0025329547934234142
8192.0,-0.0015149227110669017
end
