version,3.0
numOfCh,1
type,point
parent_name,19e3e_0dot069-0dot01
ch_type,1_1
kcount,1
numberNandB,1
brightnessNandB,1
carpet pos,0
pc,0
Time (ms),CH1 Auto-Correlation
1.0,0.02978162281215191
2.0,0.029560307040810585
3.0,0.029336603358387947
4.0,0.029110079631209373
5.0,0.028882838785648346
6.0,0.028655029833316803
7.0,0.02842843160033226
8.0,0.028203032910823822
9.0,0.027979766950011253
10.0,0.027765441685914993
11.0,0.027544282376766205
12.0,0.02732570841908455
13.0,0.02710574120283127
14.0,0.026879101991653442
15.0,0.026657113805413246
16.0,0.02643955498933792
18.0,0.02601834386587143
20.0,0.025592384859919548
22.0,0.02516629733145237
24.0,0.024746203795075417
26.0,0.02433161810040474
28.0,0.023915935307741165
30.0,0.023501893505454063
32.0,0.023093491792678833
36.0,0.022264128550887108
40.0,0.021465465426445007
44.0,0.02073025144636631
48.0,0.020060906186699867
52.0,0.019411688670516014
56.0,0.01876118592917919
60.0,0.018121367320418358
64.0,0.017520636320114136
72.0,0.016386093571782112
80.0,0.015310145914554596
88.0,0.014256298542022705
96.0,0.013187909498810768
104.0,0.012268831953406334
112.0,0.011471611447632313
120.0,0.010776901617646217
128.0,0.010205788537859917
144.0,0.009545741602778435
160.0,0.009061723947525024
176.0,0.008413990028202534
192.0,0.007267718203365803
208.0,0.006182074546813965
224.0,0.005561191588640213
240.0,0.005198284983634949
256.0,0.004864722024649382
288.0,0.0038889122661203146
320.0,0.0034319094847887754
352.0,0.003102821996435523
384.0,0.0025844050105661154
416.0,0.0018535407725721598
448.0,0.00012850214261561632
480.0,-0.00043293152702972293
512.0,0.000471200211904943
576.0,0.0040803514420986176
640.0,0.005164947360754013
704.0,0.004050537943840027
768.0,0.0024434623774141073
832.0,0.0025938753969967365
896.0,0.00440094992518425
960.0,0.0050280396826565266
1024.0,0.003260793397203088
1152.0,-0.0002366101834923029
1280.0,-0.0007659999537281692
1408.0,0.0015249736607074738
1536.0,0.0012696923222392797
1664.0,0.0016118951607495546
1792.0,0.0027333993930369616
1920.0,0.00327314087189734
2048.0,0.004923767410218716
2304.0,-0.0030452904757112265
2560.0,3.6812616599490866e-05
2816.0,0.001408623531460762
3072.0,-0.004935421049594879
3328.0,-0.0025492943823337555
3584.0,0.004915886092931032
3840.0,0.0034958384931087494
4096.0,-0.0004025731759611517
4608.0,-0.001021109288558364
5120.0,-0.0020138586405664682
5632.0,0.00013700949784833938
6144.0,0.0005115894018672407
6656.0,-0.0017997691174969077
7168.0,-0.00192744517698884
7680.0,-0.010069666430354118
8192.0,-0.01121184416115284
end
