version,3.0
numOfCh,1
type,point
parent_name,714af_0dot4-0dot1
ch_type,1_1
kcount,1
numberNandB,1
brightnessNandB,1
carpet pos,0
pc,0
Time (ms),CH1 Auto-Correlation
1.0,0.02749701403081417
2.0,0.02643853984773159
3.0,0.025454189628362656
4.0,0.024541795253753662
5.0,0.02367149293422699
6.0,0.02282637543976307
7.0,0.022040769457817078
8.0,0.021289309486746788
9.0,0.0205621849745512
10.0,0.019888058304786682
11.0,0.019254589453339577
12.0,0.018656998872756958
13.0,0.01808907650411129
14.0,0.01755906082689762
15.0,0.017048686742782593
16.0,0.016578111797571182
18.0,0.01569407805800438
20.0,0.014883103780448437
22.0,0.014137662015855312
24.0,0.013463044539093971
26.0,0.012900597415864468
28.0,0.012350122444331646
30.0,0.011785347945988178
32.0,0.011265352368354797
36.0,0.010396094992756844
40.0,0.00955573283135891
44.0,0.008974552154541016
48.0,0.008471564389765263
52.0,0.007863431237637997
56.0,0.007104975637048483
60.0,0.006397703662514687
64.0,0.005899984389543533
72.0,0.005062830168753862
80.0,0.004597279708832502
88.0,0.004256816115230322
96.0,0.003976890817284584
104.0,0.003979977685958147
112.0,0.004188692197203636
120.0,0.004155817441642284
128.0,0.004031979013234377
144.0,0.004063935950398445
160.0,0.0034816493280231953
176.0,0.0030912079382687807
192.0,0.0028872601687908173
208.0,0.0021361142862588167
224.0,0.0018920586444437504
240.0,0.0019989507272839546
256.0,0.0027968967333436012
288.0,0.0035543949343264103
320.0,0.0029961641412228346
352.0,0.001732726814225316
384.0,0.0011584514286369085
416.0,0.0009592653368599713
448.0,0.0009143254719674587
480.0,0.0006549932295456529
512.0,0.00027429431793279946
576.0,0.0021936940029263496
640.0,0.0009977526497095823
704.0,-0.00027514988323673606
768.0,0.000804529816377908
832.0,0.0007579219527542591
896.0,0.00047158842789940536
960.0,-1.2317704204178881e-05
1024.0,0.00010231677151750773
1152.0,0.0005514899967238307
1280.0,-0.0007268088520504534
1408.0,-0.0016014646971598268
1536.0,-0.001352196210063994
1664.0,-0.0019215078791603446
1792.0,-0.0026924728881567717
1920.0,-0.0027191692497581244
2048.0,-0.0018701761728152633
2304.0,-0.0019990711007267237
2560.0,-0.0006755591020919383
2816.0,0.0019975751638412476
3072.0,4.025092857773416e-05
3328.0,-0.0003250701993238181
3584.0,0.0012476604897528887
3840.0,0.0007552516181021929
4096.0,0.0005714197177439928
4608.0,-0.0012236982583999634
5120.0,-0.0011016670614480972
5632.0,0.00040329547482542694
6144.0,-2.1610398107441142e-05
6656.0,0.0011140512069687247
7168.0,-0.0006046901107765734
7680.0,-0.001691758050583303
8192.0,-0.001403296715579927
end
