version,3.0
numOfCh,1
type,point
parent_name,714af_0dot4-0dot1
ch_type,1_1
kcount,1
numberNandB,1
brightnessNandB,1
carpet pos,0
pc,0
Time (ms),CH1 Auto-Correlation
1.0,0.03078293800354004
2.0,0.02961515448987484
3.0,0.02851969376206398
4.0,0.027475612238049507
5.0,0.02646598406136036
6.0,0.025512682273983955
7.0,0.024594038724899292
8.0,0.023742476478219032
9.0,0.022966599091887474
10.0,0.022280380129814148
11.0,0.021631460636854172
12.0,0.021039612591266632
13.0,0.02047756314277649
14.0,0.019930748268961906
15.0,0.01943488046526909
16.0,0.018935589119791985
18.0,0.018009807914495468
20.0,0.01718035526573658
22.0,0.016409335657954216
24.0,0.015708420425653458
26.0,0.015093294903635979
28.0,0.014542064629495144
30.0,0.01402845699340105
32.0,0.013522335328161716
36.0,0.012509399093687534
40.0,0.01147492602467537
44.0,0.01053635310381651
48.0,0.009801071137189865
52.0,0.009114309214055538
56.0,0.008504318073391914
60.0,0.008067658171057701
64.0,0.007620219606906176
72.0,0.006461279932409525
80.0,0.005637078080326319
88.0,0.005184309557080269
96.0,0.005119439214468002
104.0,0.005271504167467356
112.0,0.0052258106879889965
120.0,0.0047980742529034615
128.0,0.004777781665325165
144.0,0.005028942599892616
160.0,0.004584870766848326
176.0,0.003907086793333292
192.0,0.003159748623147607
208.0,0.0029114969074726105
224.0,0.0019980815704911947
240.0,0.0015944301849231124
256.0,0.0013564135879278183
288.0,-0.0007639860268682241
320.0,-0.0012650693533942103
352.0,-0.0009515240089967847
384.0,-0.001248250133357942
416.0,-0.0012546508805826306
448.0,-0.0015734710032120347
480.0,-0.002127815969288349
512.0,-0.0007608424057252705
576.0,-0.0012973736738786101
640.0,0.0001224548468599096
704.0,0.0015428019687533379
768.0,-0.0003136553568765521
832.0,0.0023074650671333075
896.0,0.003404282033443451
960.0,0.005240378435701132
1024.0,0.003215267788618803
1152.0,0.0016970982542261481
1280.0,-0.00011889323650393635
1408.0,-0.0011883790139108896
1536.0,-0.00019864934438373893
1664.0,0.0019775466062128544
1792.0,0.003767694579437375
1920.0,0.0032866327092051506
2048.0,0.0010174394119530916
2304.0,-0.001405153889209032
2560.0,-0.000208525569178164
2816.0,0.0013359237927943468
3072.0,-0.0011634038528427482
3328.0,-0.002013436984270811
3584.0,0.0011954514775425196
3840.0,-0.0008121565915644169
4096.0,-0.002650553360581398
4608.0,-0.0016362624010071158
5120.0,-0.00075534638017416
5632.0,-0.0009695450426079333
6144.0,-0.0025607093703001738
6656.0,-0.0002504715812392533
7168.0,-0.0007420316687785089
7680.0,-0.003101029433310032
8192.0,0.00042037523235194385
end
