version,3.0
numOfCh,1
type,point
parent_name,714af_0dot4-0dot1
ch_type,1_1
kcount,1
numberNandB,1
brightnessNandB,1
carpet pos,0
pc,0
Time (ms),CH1 Auto-Correlation
1.0,0.04050355777144432
2.0,0.03939728066325188
3.0,0.038374096155166626
4.0,0.03739747777581215
5.0,0.036472879350185394
6.0,0.0356229729950428
7.0,0.034798573702573776
8.0,0.0340116061270237
9.0,0.03324929252266884
10.0,0.03252215310931206
11.0,0.03181397542357445
12.0,0.031157510355114937
13.0,0.030522428452968597
14.0,0.029947509989142418
15.0,0.029428282752633095
16.0,0.028962517157197
18.0,0.02810809575021267
20.0,0.027257312089204788
22.0,0.026402534916996956
24.0,0.025566432625055313
26.0,0.024768084287643433
28.0,0.024036463350057602
30.0,0.023350240662693977
32.0,0.02274329587817192
36.0,0.021668512374162674
40.0,0.020874887704849243
44.0,0.020253529772162437
48.0,0.019664069637656212
52.0,0.019101224839687347
56.0,0.018538111820816994
60.0,0.01794041506946087
64.0,0.01719619892537594
72.0,0.01585022173821926
80.0,0.015323236584663391
88.0,0.014699728228151798
96.0,0.013903015293180943
104.0,0.012938586995005608
112.0,0.012151683680713177
120.0,0.011401413939893246
128.0,0.01076056994497776
144.0,0.009119516238570213
160.0,0.007929524406790733
176.0,0.006718015763908625
192.0,0.005921512376517057
208.0,0.005613827146589756
224.0,0.0055078063160181046
240.0,0.006269524339586496
256.0,0.00700481329113245
288.0,0.0075594880618155
320.0,0.008191258646547794
352.0,0.009276529774069786
384.0,0.010518744587898254
416.0,0.009252825751900673
448.0,0.008033698424696922
480.0,0.007260600104928017
512.0,0.006321280729025602
576.0,0.005558376666158438
640.0,0.0045259571634233
704.0,0.0032259211875498295
768.0,0.004490438848733902
832.0,0.0029515286441892385
896.0,0.00024680778733454645
960.0,-0.00043099193135276437
1024.0,-0.001363992691040039
1152.0,0.00036392544279806316
1280.0,-0.001256826100870967
1408.0,-0.0019920349586755037
1536.0,-0.0041372752748429775
1664.0,-0.0031917758751660585
1792.0,-0.0025665354914963245
1920.0,-0.004051318392157555
2048.0,-0.0029167470056563616
2304.0,-0.00318440911360085
2560.0,-0.002537911059334874
2816.0,-0.001230462221428752
3072.0,0.0017655203118920326
3328.0,0.0009750744793564081
3584.0,0.0007405396900139749
3840.0,-0.00015175937733147293
4096.0,-0.0019233528291806579
4608.0,0.0005902320262975991
5120.0,-0.00013121480878908187
5632.0,-0.0020949137397110462
6144.0,-0.004269351717084646
6656.0,-0.002443382516503334
7168.0,-0.001991875935345888
7680.0,-0.0040940167382359505
8192.0,-0.006780984345823526
end
