version,3.0
numOfCh,1
type,point
parent_name,714af_0dot4-0dot1
ch_type,1_1
kcount,1
numberNandB,1
brightnessNandB,1
carpet pos,0
pc,0
Time (ms),CH1 Auto-Correlation
1.0,0.029790911823511124
2.0,0.028734128922224045
3.0,0.027736620977520943
4.0,0.026780301705002785
5.0,0.025904150679707527
6.0,0.0250698309391737
7.0,0.024256471544504166
8.0,0.023480165749788284
9.0,0.022738272324204445
10.0,0.022034969180822372
11.0,0.02141396887600422
12.0,0.020790981128811836
13.0,0.020199177786707878
14.0,0.01967274397611618
15.0,0.01914985291659832
16.0,0.018638132140040398
18.0,0.01780564710497856
20.0,0.017045538872480392
22.0,0.016410615295171738
24.0,0.015915386378765106
26.0,0.015482500195503235
28.0,0.015035555697977543
30.0,0.01460408978164196
32.0,0.014186498709022999
36.0,0.013453582301735878
40.0,0.01283213123679161
44.0,0.01223438698798418
48.0,0.011745566502213478
52.0,0.0112505704164505
56.0,0.010840478353202343
60.0,0.01048715878278017
64.0,0.009961803443729877
72.0,0.009128225035965443
80.0,0.008595995604991913
88.0,0.00816761888563633
96.0,0.007883122190833092
104.0,0.007508712820708752
112.0,0.006926032714545727
120.0,0.006234713364392519
128.0,0.005550680216401815
144.0,0.00515693798661232
160.0,0.005240784492343664
176.0,0.004479824099689722
192.0,0.004286778159439564
208.0,0.0031317840330302715
224.0,0.002220666967332363
240.0,0.0016983224777504802
256.0,0.001296401722356677
288.0,0.0012301267124712467
320.0,0.001766190049238503
352.0,0.001859267009422183
384.0,0.0022690161131322384
416.0,0.0014282510383054614
448.0,0.0011090487241744995
480.0,0.0025636437349021435
512.0,0.0035461399238556623
576.0,0.0028089999686926603
640.0,0.0011927589075639844
704.0,0.0006698279757983983
768.0,0.0009293920593336225
832.0,0.000808568496722728
896.0,0.0012883329764008522
960.0,0.0013726503821089864
1024.0,0.0007878087344579399
1152.0,0.00236119725741446
1280.0,0.0018376862863078713
1408.0,-0.00037364079616963863
1536.0,-0.0026139477267861366
1664.0,-0.0011177521664649248
1792.0,0.0003421232686378062
1920.0,0.0009118624730035663
2048.0,0.0016576427733525634
2304.0,-0.001833692891523242
2560.0,-0.003502191510051489
2816.0,-0.0023903853725641966
3072.0,0.00032537468359805644
3328.0,-0.0004432621644809842
3584.0,-0.002279509324580431
3840.0,0.0013292835792526603
4096.0,0.0004220282717142254
4608.0,0.00016059287008829415
5120.0,0.0021416558884084225
5632.0,0.0005039408570155501
6144.0,0.0011619566939771175
6656.0,-4.459093906916678e-05
7168.0,-0.0015912678791210055
7680.0,-0.00427606888115406
8192.0,-0.00334550510160625
end
