version,3.0
numOfCh,1
type,point
parent_name,714af_0dot4-0dot1
ch_type,1_1
kcount,1
numberNandB,1
brightnessNandB,1
carpet pos,0
pc,0
Time (ms),CH1 Auto-Correlation
1.0,0.0258447527885437
2.0,0.02472391352057457
3.0,0.023707980290055275
4.0,0.022746773436665535
5.0,0.021838510408997536
6.0,0.02103763446211815
7.0,0.020276186987757683
8.0,0.019592342898249626
9.0,0.018934212625026703
10.0,0.018317686393857002
11.0,0.01771187037229538
12.0,0.017161348834633827
13.0,0.016651751473546028
14.0,0.016160592436790466
15.0,0.015727970749139786
16.0,0.01530274748802185
18.0,0.014526075683534145
20.0,0.013827328570187092
22.0,0.013182180002331734
24.0,0.01262417621910572
26.0,0.012118419632315636
28.0,0.011600106954574585
30.0,0.011086520738899708
32.0,0.01055225171148777
36.0,0.00963946059346199
40.0,0.00877159833908081
44.0,0.007988766767084599
48.0,0.0074222879484295845
52.0,0.006872410420328379
56.0,0.006468373350799084
60.0,0.006071577779948711
64.0,0.005685418378561735
72.0,0.004988784436136484
80.0,0.0047441525384783745
88.0,0.004584848880767822
96.0,0.004493118729442358
104.0,0.004044187720865011
112.0,0.004134463146328926
120.0,0.0042977663688361645
128.0,0.004254835657775402
144.0,0.003485264955088496
160.0,0.002680493053048849
176.0,0.001950612524524331
192.0,0.0022206574212759733
208.0,0.0018384282011538744
224.0,0.0019992978777736425
240.0,0.002429100451990962
256.0,0.002742508891969919
288.0,0.0034456783905625343
320.0,0.003712502308189869
352.0,0.0026563326828181744
384.0,0.0022402284666895866
416.0,0.001830762135796249
448.0,0.0012099253945052624
480.0,0.0012609123950824142
512.0,0.00186492211651057
576.0,0.0017133761430159211
640.0,0.0024118151050060987
704.0,0.0019212164916098118
768.0,0.0014329325640574098
832.0,0.0014309955295175314
896.0,0.0003495597920846194
960.0,0.0007929790881462395
1024.0,0.0015916196862235665
1152.0,0.0011346177197992802
1280.0,-5.526093445951119e-05
1408.0,0.001969696022570133
1536.0,0.002840326400473714
1664.0,-0.00016728565969970077
1792.0,0.0014935190556570888
1920.0,0.0012526018545031548
2048.0,0.00033642639755271375
2304.0,-0.001121284905821085
2560.0,-0.0023348303511738777
2816.0,-0.00112922431435436
3072.0,-0.0018644859082996845
3328.0,-0.0016755907563492656
3584.0,-0.0018613607389852405
3840.0,-0.001039006281644106
4096.0,-0.0013936251634731889
4608.0,-0.004027736373245716
5120.0,-0.0006364324945025146
5632.0,0.00048200952005572617
6144.0,-0.0024949742946773767
6656.0,-0.0007405111100524664
7168.0,0.0008813317399471998
7680.0,0.0007790361414663494
8192.0,-0.00044472605804912746
end
