version,3.0
numOfCh,1
type,point
parent_name,714af_0dot4-0dot1
ch_type,1_1
kcount,1
numberNandB,1
brightnessNandB,1
carpet pos,0
pc,0
Time (ms),CH1 Auto-Correlation
1.0,0.02835184894502163
2.0,0.0273211020976305
3.0,0.026367375627160072
4.0,0.025463372468948364
5.0,0.02462036907672882
6.0,0.02380276657640934
7.0,0.022978464141488075
8.0,0.022179702296853065
9.0,0.02141611836850643
10.0,0.020727762952446938
11.0,0.02003682591021061
12.0,0.01938094198703766
13.0,0.01874895580112934
14.0,0.01816663332283497
15.0,0.01757008768618107
16.0,0.017023183405399323
18.0,0.016001399606466293
20.0,0.015113822184503078
22.0,0.014267467893660069
24.0,0.013425616547465324
26.0,0.012664454989135265
28.0,0.011985867284238338
30.0,0.011383558623492718
32.0,0.010820191353559494
36.0,0.009809760376811028
40.0,0.009066288359463215
44.0,0.00851002149283886
48.0,0.008074193261563778
52.0,0.007718414533883333
56.0,0.00730652641505003
60.0,0.006957970559597015
64.0,0.006726875901222229
72.0,0.0061218757182359695
80.0,0.005524370353668928
88.0,0.005194977857172489
96.0,0.004808316007256508
104.0,0.004498693160712719
112.0,0.004415302537381649
120.0,0.004138427786529064
128.0,0.003854096634313464
144.0,0.0037322035059332848
160.0,0.0030822826083749533
176.0,0.002621009945869446
192.0,0.001748798880726099
208.0,0.0018509802175685763
224.0,0.002763002645224333
240.0,0.003358487505465746
256.0,0.003114778781309724
288.0,0.0021336316131055355
320.0,0.001954798586666584
352.0,0.0015434257220476866
384.0,0.001850737608037889
416.0,0.0015029670903459191
448.0,0.00242025637999177
480.0,0.0019198445370420814
512.0,0.0016964280512183905
576.0,-0.00025229150196537375
640.0,0.00035906792618334293
704.0,0.0013705960009247065
768.0,0.00312456744723022
832.0,0.0016702002612873912
896.0,-0.00035584240686148405
960.0,-1.4195643416314851e-05
1024.0,0.0008971127681434155
1152.0,-0.0002850060991477221
1280.0,-0.0002905318688135594
1408.0,0.0007241019047796726
1536.0,0.0021652313880622387
1664.0,0.0016179375816136599
1792.0,0.002223874209448695
1920.0,0.0015346737345680594
2048.0,-0.00010199595999438316
2304.0,-0.0016136799240484834
2560.0,-0.002874328289180994
2816.0,-0.002303550485521555
3072.0,-0.00014425953850150108
3328.0,0.00026597140822559595
3584.0,0.0007959261420182884
3840.0,-0.0007850902620702982
4096.0,-0.002210520673543215
4608.0,-0.0014825703110545874
5120.0,0.00015868623449932784
5632.0,-0.00313203944824636
6144.0,-0.0026664428878575563
6656.0,-0.0007614042842760682
7168.0,7.312495290534571e-05
7680.0,-0.0006449986831285059
8192.0,0.00176495302002877
end
