version,3.0
numOfCh,1
type,point
parent_name,714af_0dot4-0dot1
ch_type,1_1
kcount,1
numberNandB,1
brightnessNandB,1
carpet pos,0
pc,0
Time (ms),CH1 Auto-Correlation
1.0,0.037915751338005066
2.0,0.03651933744549751
3.0,0.035180799663066864
4.0,0.033830877393484116
5.0,0.03241809457540512
6.0,0.03106737695634365
7.0,0.02978094294667244
8.0,0.028494134545326233
9.0,0.027245182543992996
10.0,0.026127180084586143
11.0,0.02504117414355278
12.0,0.02389824204146862
13.0,0.02290591597557068
14.0,0.02203725278377533
15.0,0.0212763212621212
16.0,0.02056264318525791
18.0,0.019349880516529083
20.0,0.01831113174557686
22.0,0.0173430647701025
24.0,0.01648627035319805
26.0,0.01574476808309555
28.0,0.015111330896615982
30.0,0.014604967087507248
32.0,0.01416740007698536
36.0,0.013299332931637764
40.0,0.012363781221210957
44.0,0.011632870882749557
48.0,0.011051912792026997
52.0,0.010598991066217422
56.0,0.010289325378835201
60.0,0.010157216340303421
64.0,0.009847219102084637
72.0,0.009225902147591114
80.0,0.008816208690404892
88.0,0.008155562914907932
96.0,0.007724087685346603
104.0,0.007251771166920662
112.0,0.006669073365628719
120.0,0.0062771812081336975
128.0,0.006164390593767166
144.0,0.005445864517241716
160.0,0.0055083646439015865
176.0,0.0051550427451729774
192.0,0.004174192436039448
208.0,0.003973328974097967
224.0,0.0032217083498835564
240.0,0.003598908893764019
256.0,0.004116620868444443
288.0,0.0041084554977715015
320.0,0.0028075608424842358
352.0,0.0013053592992946506
384.0,-0.0007214635843411088
416.0,-0.0012101298198103905
448.0,-0.0025809260550886393
480.0,-0.002582220360636711
512.0,-0.0015156264416873455
576.0,-0.0008022865513339639
640.0,-0.0013241262640804052
704.0,-0.0016770260408520699
768.0,-0.0009550489485263824
832.0,-0.0017556422390043736
896.0,-0.0017985826125368476
960.0,-0.0032368493266403675
1024.0,-0.0038944229017943144
1152.0,-0.0035198628902435303
1280.0,-0.003066717879846692
1408.0,0.00058288115542382
1536.0,0.001493085757829249
1664.0,0.00018759472004603595
1792.0,0.0017526415176689625
1920.0,-0.0004182170960120857
2048.0,0.0018734998302534223
2304.0,0.0034046682994812727
2560.0,-0.0015365451108664274
2816.0,-0.003078682813793421
3072.0,-0.0009085178025998175
3328.0,-0.0007267018663696945
3584.0,0.0008680009632371366
3840.0,0.0013865919318050146
4096.0,0.0014220838202163577
4608.0,-0.0009752793121151626
5120.0,-0.0027215550653636456
5632.0,0.0009356571245007217
6144.0,0.0034030419774353504
6656.0,-0.0009127937955781817
7168.0,-0.001162415137514472
7680.0,-0.0041476525366306305
8192.0,0.001171622658148408
end
