version,3.0
numOfCh,1
type,point
parent_name,714af_0dot4-0dot1
ch_type,1_1
kcount,1
numberNandB,1
brightnessNandB,1
carpet pos,0
pc,0
Time (ms),CH1 Auto-Correlation
1.0,0.02914351038634777
2.0,0.028004737570881844
3.0,0.026970364153385162
4.0,0.026005955412983894
5.0,0.025126326829195023
6.0,0.024310382083058357
7.0,0.023546062409877777
8.0,0.022821461781859398
9.0,0.02212509885430336
10.0,0.021444879472255707
11.0,0.020802538841962814
12.0,0.020228544250130653
13.0,0.019674664363265038
14.0,0.019178465008735657
15.0,0.018721409142017365
16.0,0.018258018419146538
18.0,0.017420528456568718
20.0,0.01663513109087944
22.0,0.015883706510066986
24.0,0.015235061757266521
26.0,0.014667810872197151
28.0,0.014091174118220806
30.0,0.013540001586079597
32.0,0.013012534938752651
36.0,0.012033244594931602
40.0,0.01108208205550909
44.0,0.01028174627572298
48.0,0.009570927359163761
52.0,0.008803285658359528
56.0,0.008256321772933006
60.0,0.007843728177249432
64.0,0.007437839172780514
72.0,0.006629489362239838
80.0,0.005709729623049498
88.0,0.0047431569546461105
96.0,0.004153063055127859
104.0,0.0037912183906883
112.0,0.0029057019855827093
120.0,0.0023398178163915873
128.0,0.0020989621989428997
144.0,0.0015398029936477542
160.0,0.0012402671854943037
176.0,0.0010079466737806797
192.0,0.0010086547117680311
208.0,0.0012153440620750189
224.0,0.0013054200680926442
240.0,0.0012711427407339215
256.0,0.0007179124513641
288.0,0.00048501690616831183
320.0,-0.00016312027582898736
352.0,-0.00028997365734539926
384.0,0.0012393160723149776
416.0,0.0017355469753965735
448.0,0.003210483118891716
480.0,0.00261693331412971
512.0,0.002739219693467021
576.0,0.0018834047950804234
640.0,0.002423894591629505
704.0,0.0031648387666791677
768.0,0.0005400770460255444
832.0,-0.0010288291377946734
896.0,-0.0012535855639725924
960.0,-0.0011910013854503632
1024.0,-0.0011612583184614778
1152.0,-0.001014170004054904
1280.0,-0.0006637088372372091
1408.0,0.0003425816830713302
1536.0,4.868495125265326e-06
1664.0,0.0006565151852555573
1792.0,0.0004626832087524235
1920.0,0.0014423169195652008
2048.0,-7.752297096885741e-05
2304.0,-0.0007239538826979697
2560.0,-0.0005115874810144305
2816.0,-0.0002697212912607938
3072.0,-0.0006199349882081151
3328.0,0.0009964037453755736
3584.0,9.89153195405379e-05
3840.0,0.0003050600062124431
4096.0,-0.00016075694293249398
4608.0,-0.0007942335796542466
5120.0,-0.0006845514290034771
5632.0,-0.0007061559590511024
6144.0,-0.002783074276521802
6656.0,-0.0023820032365620136
7168.0,0.0006807625177316368
7680.0,-0.00035011270665563643
8192.0,-0.0015682721277698874
end
