version,3.0
numOfCh,1
type,point
parent_name,714af_0dot4-0dot1
ch_type,1_1
kcount,1
numberNandB,1
brightnessNandB,1
carpet pos,0
pc,0
Time (ms),CH1 Auto-Correlation
1.0,0.02856243960559368
2.0,0.02751367911696434
3.0,0.026519853621721268
4.0,0.025586705654859543
5.0,0.024678386747837067
6.0,0.023864375427365303
7.0,0.023107927292585373
8.0,0.02238810621201992
9.0,0.021713586524128914
10.0,0.021068954840302467
11.0,0.02046896703541279
12.0,0.019921505823731422
13.0,0.019390936940908432
14.0,0.01889820024371147
15.0,0.01843331567943096
16.0,0.017990117892622948
18.0,0.01712094433605671
20.0,0.016300668939948082
22.0,0.0155768021941185
24.0,0.014907550998032093
26.0,0.014285090379416943
28.0,0.013715481385588646
30.0,0.013195190578699112
32.0,0.012690529227256775
36.0,0.011771922931075096
40.0,0.010893265716731548
44.0,0.010037772357463837
48.0,0.009497632272541523
52.0,0.00904004741460085
56.0,0.00874333269894123
60.0,0.008453802205622196
64.0,0.008097337558865547
72.0,0.007412368897348642
80.0,0.007079326082020998
88.0,0.006987349595874548
96.0,0.007143400609493256
104.0,0.007147710770368576
112.0,0.007043490651994944
120.0,0.00679562846198678
128.0,0.006422767415642738
144.0,0.005718388594686985
160.0,0.005093305837363005
176.0,0.005046270787715912
192.0,0.005144706927239895
208.0,0.0050263903103768826
224.0,0.004970150534063578
240.0,0.004411700647324324
256.0,0.003908300306648016
288.0,0.0034602489322423935
320.0,0.004247593227773905
352.0,0.003932506311684847
384.0,0.0037704268470406532
416.0,0.004480798728764057
448.0,0.00428038602694869
480.0,0.004748406354337931
512.0,0.0031120749190449715
576.0,0.0024349731393158436
640.0,0.0019439636962488294
704.0,0.0008896459476090968
768.0,0.0018016741378232837
832.0,0.001170700415968895
896.0,0.0008840827504172921
960.0,9.274300828110427e-05
1024.0,-0.0001841055491240695
1152.0,-0.0006945339264348149
1280.0,-0.0009662475204095244
1408.0,-0.00022582028759643435
1536.0,-0.0006519218441098928
1664.0,-0.0011294634314253926
1792.0,-0.0001790742389857769
1920.0,0.0005626205238513649
2048.0,0.0003417380212340504
2304.0,-0.0004277845146134496
2560.0,-0.0007428526296280324
2816.0,-0.0004051133000757545
3072.0,-0.0007366782519966364
3328.0,-0.0008904244750738144
3584.0,-0.0007224168512038887
3840.0,-0.0014224046608433127
4096.0,-0.001049518003128469
4608.0,-0.001029744977131486
5120.0,0.00044904998503625393
5632.0,0.001592897460795939
6144.0,0.0011059289099648595
6656.0,-0.00423204293474555
7168.0,-0.0034372773952782154
7680.0,-0.001800135476514697
8192.0,-0.0003674677573144436
end
