version,3.0
numOfCh,1
type,point
parent_name,714af_0dot4-0dot1
ch_type,1_1
kcount,1
numberNandB,1
brightnessNandB,1
carpet pos,0
pc,0
Time (ms),CH1 Auto-Correlation
1.0,0.03155345842242241
2.0,0.030471213161945343
3.0,0.029479658231139183
4.0,0.02854759804904461
5.0,0.02766413614153862
6.0,0.026818884536623955
7.0,0.026040857657790184
8.0,0.02530590631067753
9.0,0.024625204503536224
10.0,0.02400743030011654
11.0,0.023415056988596916
12.0,0.02283230423927307
13.0,0.02230370044708252
14.0,0.02179628796875477
15.0,0.02128710225224495
16.0,0.02078508585691452
18.0,0.01977991871535778
20.0,0.01886732690036297
22.0,0.018011528998613358
24.0,0.017231326550245285
26.0,0.016432447358965874
28.0,0.01569443568587303
30.0,0.015095565468072891
32.0,0.01454920694231987
36.0,0.013694800436496735
40.0,0.012993973679840565
44.0,0.012264521792531013
48.0,0.01153488364070654
52.0,0.010925322771072388
56.0,0.010343913920223713
60.0,0.009847299195826054
64.0,0.009419643320143223
72.0,0.008373350836336613
80.0,0.007607942447066307
88.0,0.006870287004858255
96.0,0.006347632966935635
104.0,0.006225004326552153
112.0,0.0060826740227639675
120.0,0.0060938140377402306
128.0,0.006112218834459782
144.0,0.0055553726851940155
160.0,0.005108483135700226
176.0,0.00472736731171608
192.0,0.004577345214784145
208.0,0.00474146194756031
224.0,0.004084181040525436
240.0,0.003326931968331337
256.0,0.002477589063346386
288.0,0.001970915589481592
320.0,0.0019216103246435523
352.0,0.0019571466837078333
384.0,0.0005519168917089701
416.0,-0.00021757384820375592
448.0,-0.0011619424913078547
480.0,-0.0011368989944458008
512.0,-0.0014068910386413336
576.0,0.0002479372778907418
640.0,0.00019339488062541932
704.0,0.001184677705168724
768.0,0.00022539972269441932
832.0,-0.0010504764504730701
896.0,-0.001838917494751513
960.0,-0.0013047439279034734
1024.0,-0.0021770119201391935
1152.0,-0.003096573054790497
1280.0,-0.0015610147966071963
1408.0,-0.0002376941411057487
1536.0,0.0003209058486390859
1664.0,0.0005216738791204989
1792.0,-0.00036108173662796617
1920.0,0.0012166566448286176
2048.0,0.002173348795622587
2304.0,0.002394064562395215
2560.0,0.0006334366626106203
2816.0,-0.0002371359005337581
3072.0,-0.0026233491953462362
3328.0,-0.0033578076399862766
3584.0,-0.002856351202353835
3840.0,-0.001381107373163104
4096.0,0.0017598244594410062
4608.0,-0.002192846732214093
5120.0,-0.0012071240926161408
5632.0,-0.0021733713801950216
6144.0,0.002069338457658887
6656.0,0.0010847585508599877
7168.0,-0.0017895348137244582
7680.0,-0.0009174061706289649
8192.0,0.0021028374321758747
end
