version,3.0
numOfCh,1
type,point
parent_name,714af_0dot4-0dot1
ch_type,1_1
kcount,1
numberNandB,1
brightnessNandB,1
carpet pos,0
pc,0
Time (ms),CH1 Auto-Correlation
1.0,0.02868173085153103
2.0,0.027625447139143944
3.0,0.02664141170680523
4.0,0.0257217176258564
5.0,0.024846071377396584
6.0,0.024045584723353386
7.0,0.023249434307217598
8.0,0.022494757547974586
9.0,0.021775636821985245
10.0,0.02106643095612526
11.0,0.020374607294797897
12.0,0.019748546183109283
13.0,0.019154708832502365
14.0,0.01856834441423416
15.0,0.018018746748566628
16.0,0.017511330544948578
18.0,0.016595883294939995
20.0,0.01578611694276333
22.0,0.015039165504276752
24.0,0.014347519725561142
26.0,0.013739001005887985
28.0,0.013231589458882809
30.0,0.012779027223587036
32.0,0.012338086031377316
36.0,0.011439642868936062
40.0,0.010752512142062187
44.0,0.010230186395347118
48.0,0.00971774011850357
52.0,0.009371886029839516
56.0,0.009122063405811787
60.0,0.008811828680336475
64.0,0.00849043671041727
72.0,0.008174818940460682
80.0,0.00800392311066389
88.0,0.007782073691487312
96.0,0.007495105266571045
104.0,0.006918627303093672
112.0,0.005795850418508053
120.0,0.004529133904725313
128.0,0.004062363412231207
144.0,0.0036250795237720013
160.0,0.0034018224105238914
176.0,0.0035258647985756397
192.0,0.0035422276705503464
208.0,0.0027210779953747988
224.0,0.002281298628076911
240.0,0.0029486799612641335
256.0,0.0030439014080911875
288.0,0.003664944786578417
320.0,0.0033514476381242275
352.0,0.0023827559780329466
384.0,0.001651050173677504
416.0,0.0002153046807507053
448.0,-0.000614686869084835
480.0,-0.001316082663834095
512.0,-0.0021736647468060255
576.0,-0.002495785476639867
640.0,-0.0010914028389379382
704.0,-0.0013687846949324012
768.0,-0.001249113236553967
832.0,-0.0012350294273346663
896.0,-0.0020702530164271593
960.0,-0.0017201689770445228
1024.0,-0.0014703547349199653
1152.0,0.0004462037468329072
1280.0,0.0004950096481479704
1408.0,3.9403195842169225e-05
1536.0,0.0005785288522019982
1664.0,-0.0003921718162018806
1792.0,0.00018274270405527204
1920.0,0.0016327659832313657
2048.0,0.0001846474187914282
2304.0,-0.0004186203586868942
2560.0,-0.002347021596506238
2816.0,-0.0008160632569342852
3072.0,-0.0006288514123298228
3328.0,-6.151533307274804e-05
3584.0,-0.0006586215458810329
3840.0,-0.0029079800006002188
4096.0,-0.002439066069200635
4608.0,0.0003861190052703023
5120.0,-0.00012287065328564495
5632.0,-0.0005587499472312629
6144.0,0.0002585267066024244
6656.0,0.0008277404704131186
7168.0,-0.00035963079426437616
7680.0,0.0020689568482339382
8192.0,0.001944608986377716
end
