version,3.0
numOfCh,1
type,point
parent_name,714af_0dot4-0dot1
ch_type,1_1
kcount,1
numberNandB,1
brightnessNandB,1
carpet pos,0
pc,0
Time (ms),CH1 Auto-Correlation
1.0,0.029313476756215096
2.0,0.028275007382035255
3.0,0.027341393753886223
4.0,0.026496442034840584
5.0,0.025689346715807915
6.0,0.024929137900471687
7.0,0.02424883097410202
8.0,0.023628078401088715
9.0,0.022978737950325012
10.0,0.02236715890467167
11.0,0.021778777241706848
12.0,0.02122500166296959
13.0,0.020677190274000168
14.0,0.020149173215031624
15.0,0.019625883549451828
16.0,0.019150666892528534
18.0,0.0182954054325819
20.0,0.017473693937063217
22.0,0.016721287742257118
24.0,0.016009468585252762
26.0,0.015358597971498966
28.0,0.01472944300621748
30.0,0.01413955818861723
32.0,0.013590551912784576
36.0,0.01260718610137701
40.0,0.011713297106325626
44.0,0.010890696197748184
48.0,0.010203640908002853
52.0,0.00972700770944357
56.0,0.00935851689428091
60.0,0.008953794836997986
64.0,0.008641786873340607
72.0,0.008138253353536129
80.0,0.0075624315068125725
88.0,0.006847600918263197
96.0,0.0062011294066905975
104.0,0.005489855073392391
112.0,0.005087344441562891
120.0,0.004899915773421526
128.0,0.00466516800224781
144.0,0.004835178609937429
160.0,0.004841976333409548
176.0,0.004911880008876324
192.0,0.0045915646478533745
208.0,0.004111339338123798
224.0,0.004334893077611923
240.0,0.003693660255521536
256.0,0.0028802063316106796
288.0,0.0030830518808215857
320.0,0.0022287170868366957
352.0,0.0012910602381452918
384.0,0.0006706358399242163
416.0,1.8722812455962412e-05
448.0,-8.668898226460442e-05
480.0,0.00019820325542241335
512.0,0.000201015078346245
576.0,0.0009909810032695532
640.0,0.002989363158121705
704.0,0.002663069637492299
768.0,0.0021310043521225452
832.0,0.0016888671088963747
896.0,0.001466204528696835
960.0,0.0011153215309605002
1024.0,-0.00028591169393621385
1152.0,0.001710494514554739
1280.0,0.0004958550562150776
1408.0,0.0016093949088826776
1536.0,0.000757404719479382
1664.0,0.001487822039052844
1792.0,0.0019949479028582573
1920.0,0.0021729785948991776
2048.0,0.0026318670716136694
2304.0,0.0033247312530875206
2560.0,0.0002495579537935555
2816.0,-0.00010232374188490212
3072.0,0.0010741620790213346
3328.0,0.0008838042849674821
3584.0,0.002388852182775736
3840.0,-0.0007462385692633688
4096.0,0.0016304954187944531
4608.0,0.0008623431785963476
5120.0,-0.0009310294990427792
5632.0,-0.0012840080307796597
6144.0,-0.003203710773959756
6656.0,-0.001199582009576261
7168.0,-0.0016334247775375843
7680.0,-0.003266808809712529
8192.0,-0.003912807907909155
end
