version,3.0
numOfCh,1
type,point
parent_name,714af_0dot4-0dot1
ch_type,1_1
kcount,1
numberNandB,1
brightnessNandB,1
carpet pos,0
pc,0
Time (ms),CH1 Auto-Correlation
1.0,0.028319470584392548
2.0,0.02728753536939621
3.0,0.026335595175623894
4.0,0.02542654052376747
5.0,0.0245378278195858
6.0,0.023689283058047295
7.0,0.022891903296113014
8.0,0.022156985476613045
9.0,0.021455716341733932
10.0,0.020817674696445465
11.0,0.020215177908539772
12.0,0.019644681364297867
13.0,0.019100990146398544
14.0,0.01857251487672329
15.0,0.018064362928271294
16.0,0.017595643177628517
18.0,0.016669614240527153
20.0,0.015863779932260513
22.0,0.01511448621749878
24.0,0.014399751089513302
26.0,0.013698357157409191
28.0,0.013022682629525661
30.0,0.012412426061928272
32.0,0.011874217540025711
36.0,0.010774550959467888
40.0,0.009852929040789604
44.0,0.009068483486771584
48.0,0.0083053819835186
52.0,0.0077111078426241875
56.0,0.0070783584378659725
60.0,0.0064576794393360615
64.0,0.0057644289918243885
72.0,0.0047531332820653915
80.0,0.004640787839889526
88.0,0.004654162563383579
96.0,0.004455417860299349
104.0,0.003901246003806591
112.0,0.0034560258500277996
120.0,0.0032549360767006874
128.0,0.003043780103325844
144.0,0.0027094297111034393
160.0,0.0026067306753247976
176.0,0.00296986335888505
192.0,0.0031594368629157543
208.0,0.002890186384320259
224.0,0.0022823947947472334
240.0,0.002176970709115267
256.0,0.0021302669774740934
288.0,0.002636623801663518
320.0,0.0028103587683290243
352.0,0.003742026397958398
384.0,0.0035788267850875854
416.0,0.0018589195096865296
448.0,0.001005597529001534
480.0,0.0009442037553526461
512.0,0.0002193356049247086
576.0,-0.001345458091236651
640.0,-0.001021757023409009
704.0,-0.0014112218050286174
768.0,-0.0014026936842128634
832.0,-0.0018028108170256019
896.0,-0.0022006016224622726
960.0,-0.00153448770288378
1024.0,-0.0019938251934945583
1152.0,-0.001415493432432413
1280.0,-0.0006832650979049504
1408.0,-0.00194073305465281
1536.0,-0.001790996640920639
1664.0,-0.0009087638463824987
1792.0,-0.0025094780139625072
1920.0,4.862360583501868e-05
2048.0,0.0005107441684231162
2304.0,0.002947909291833639
2560.0,0.001605109078809619
2816.0,-0.0011656048009172082
3072.0,-0.002211646642535925
3328.0,-0.0016964427195489407
3584.0,-0.000924211461097002
3840.0,-0.0019806232303380966
4096.0,-0.0028882413171231747
4608.0,0.0011517824605107307
5120.0,0.000296559592243284
5632.0,0.0014598923735320568
6144.0,-0.00040038739098235965
6656.0,-0.00019703847647178918
7168.0,0.0007661002455279231
7680.0,0.0004689485067501664
8192.0,-0.00030030609923414886
end
