version,3.0
numOfCh,1
type,point
parent_name,714af_0dot4-0dot1
ch_type,1_1
kcount,1
numberNandB,1
brightnessNandB,1
carpet pos,0
pc,0
Time (ms),CH1 Auto-Correlation
1.0,0.031453557312488556
2.0,0.030358873307704926
3.0,0.02932928316295147
4.0,0.028402557596564293
5.0,0.02755221724510193
6.0,0.026775836944580078
7.0,0.026015810668468475
8.0,0.025314578786492348
9.0,0.024640599265694618
10.0,0.023953957483172417
11.0,0.02329545095562935
12.0,0.022680040448904037
13.0,0.022075921297073364
14.0,0.021525466814637184
15.0,0.02099832147359848
16.0,0.020507557317614555
18.0,0.01965242810547352
20.0,0.01886003091931343
22.0,0.01810726337134838
24.0,0.017350394278764725
26.0,0.01664021611213684
28.0,0.01595524698495865
30.0,0.01528562419116497
32.0,0.014642897993326187
36.0,0.013523215427994728
40.0,0.012548316270112991
44.0,0.01164271030575037
48.0,0.010821477510035038
52.0,0.01006811112165451
56.0,0.009453232400119305
60.0,0.008920968510210514
64.0,0.008350826799869537
72.0,0.007062365300953388
80.0,0.0059758867137134075
88.0,0.00542593514546752
96.0,0.005115187726914883
104.0,0.005116848275065422
112.0,0.005156728904694319
120.0,0.005296984221786261
128.0,0.005787446163594723
144.0,0.006028907373547554
160.0,0.005601189564913511
176.0,0.004902254324406385
192.0,0.003946905955672264
208.0,0.0035763916093856096
224.0,0.0036177709698677063
240.0,0.003324157791212201
256.0,0.002527021337300539
288.0,0.001192039460875094
320.0,0.0015727769350633025
352.0,0.0024128188379108906
384.0,0.0024894648231565952
416.0,0.0010922090150415897
448.0,0.0006599642219953239
480.0,0.0012236501788720489
512.0,0.0025097960606217384
576.0,0.0003769220202229917
640.0,1.826624975365121e-05
704.0,0.0010545657714828849
768.0,0.0006049589137546718
832.0,0.0017679886659607291
896.0,0.002651382237672806
960.0,0.001633443869650364
1024.0,0.0020605307072401047
1152.0,0.0030302933882921934
1280.0,0.0015053689712658525
1408.0,0.0019071546848863363
1536.0,0.0028783055022358894
1664.0,0.000983647652901709
1792.0,-0.0015097508439794183
1920.0,-0.0027244200464338064
2048.0,-0.004616286139935255
2304.0,-0.0028565472457557917
2560.0,-0.001540348050184548
2816.0,-0.0008802044903859496
3072.0,-0.0025260108523070812
3328.0,-0.005252137780189514
3584.0,-0.004004190675914288
3840.0,-0.0019347772467881441
4096.0,-0.0011546764289960265
4608.0,-0.002018527826294303
5120.0,-0.00038845697417855263
5632.0,0.003040076233446598
6144.0,0.001208459842018783
6656.0,0.0028098751790821552
7168.0,0.003640983486548066
7680.0,-0.0027801578398793936
8192.0,0.001246781786903739
end
