version,3.0
numOfCh,1
type,point
parent_name,714af_0dot4-0dot1
ch_type,1_1
kcount,1
numberNandB,1
brightnessNandB,1
carpet pos,0
pc,0
Time (ms),CH1 Auto-Correlation
1.0,0.027721364051103592
2.0,0.026715602725744247
3.0,0.02580244652926922
4.0,0.024927716702222824
5.0,0.024117272347211838
6.0,0.02332746610045433
7.0,0.02259328030049801
8.0,0.02191644348204136
9.0,0.021308178082108498
10.0,0.020743003115057945
11.0,0.02020813338458538
12.0,0.019707832485437393
13.0,0.019232360646128654
14.0,0.01879066601395607
15.0,0.018387507647275925
16.0,0.017960073426365852
18.0,0.017176220193505287
20.0,0.01648833602666855
22.0,0.015805324539542198
24.0,0.015151013620197773
26.0,0.014576856978237629
28.0,0.01409876812249422
30.0,0.013577538542449474
32.0,0.013088231906294823
36.0,0.012233415618538857
40.0,0.011251939460635185
44.0,0.010290239937603474
48.0,0.009442529641091824
52.0,0.00871239509433508
56.0,0.008062567561864853
60.0,0.007571706548333168
64.0,0.007204231806099415
72.0,0.006653496529906988
80.0,0.006313883233815432
88.0,0.005717277992516756
96.0,0.005139284301549196
104.0,0.004563699476420879
112.0,0.0043400488793849945
120.0,0.004155876114964485
128.0,0.003833253402262926
144.0,0.0035082532558590174
160.0,0.003106833202764392
176.0,0.0026088948361575603
192.0,0.002669126493856311
208.0,0.0023582070134580135
224.0,0.0018540050368756056
240.0,0.0008841123781166971
256.0,0.0001605062570888549
288.0,0.0006548091769218445
320.0,0.0015441249124705791
352.0,0.0006666177068836987
384.0,-0.00026793728466145694
416.0,-0.00013260514242574573
448.0,-9.848405898083001e-05
480.0,-6.223094715096522e-06
512.0,-0.00010761951125459746
576.0,-0.0018825798761099577
640.0,-0.0026928377337753773
704.0,-0.002661291277036071
768.0,-0.0008288084645755589
832.0,-0.00047416609595529735
896.0,0.0010473664151504636
960.0,0.003133957739919424
1024.0,0.0021322709508240223
1152.0,0.0008753821603022516
1280.0,-0.000994197791442275
1408.0,-0.0018942748429253697
1536.0,-0.0033716822508722544
1664.0,-0.001990704797208309
1792.0,0.0005352191510610282
1920.0,0.002762850373983383
2048.0,0.002972979098558426
2304.0,0.0019406711217015982
2560.0,-0.002057922538369894
2816.0,8.919199899537489e-05
3072.0,-2.722797216847539e-05
3328.0,0.00021410862973425537
3584.0,-0.00210761115886271
3840.0,-6.609301635762677e-05
4096.0,0.002317348262295127
4608.0,-0.0017448683502152562
5120.0,0.0011003027902916074
5632.0,-0.0034906938672065735
6144.0,0.0019449557876214385
6656.0,-0.003020667005330324
7168.0,0.0009697721689008176
7680.0,-0.002986649051308632
8192.0,0.0014195502735674381
end
