version,3.0
numOfCh,1
type,point
parent_name,714af_0dot4-0dot1
ch_type,1_1
kcount,1
numberNandB,1
brightnessNandB,1
carpet pos,0
pc,0
Time (ms),CH1 Auto-Correlation
1.0,0.029400400817394257
2.0,0.0283861942589283
3.0,0.027444560080766678
4.0,0.02656678296625614
5.0,0.02572554349899292
6.0,0.02492654323577881
7.0,0.02419012039899826
8.0,0.023515380918979645
9.0,0.022875314578413963
10.0,0.02227446250617504
11.0,0.021700534969568253
12.0,0.021150778979063034
13.0,0.02062758058309555
14.0,0.020096754655241966
15.0,0.01960054785013199
16.0,0.019133292138576508
18.0,0.018302641808986664
20.0,0.01753981225192547
22.0,0.016838036477565765
24.0,0.016173798590898514
26.0,0.015535226091742516
28.0,0.014970320276916027
30.0,0.01444565411657095
32.0,0.013909738510847092
36.0,0.01302426215261221
40.0,0.012279747985303402
44.0,0.011593883857131004
48.0,0.010937603190541267
52.0,0.010436642915010452
56.0,0.010168911889195442
60.0,0.009894687682390213
64.0,0.009584755636751652
72.0,0.009152759797871113
80.0,0.008781908079981804
88.0,0.00859764777123928
96.0,0.008418775163590908
104.0,0.008150684647262096
112.0,0.008140944875776768
120.0,0.007826298475265503
128.0,0.00722681125625968
144.0,0.006405890919268131
160.0,0.006302198860794306
176.0,0.005839155986905098
192.0,0.005302593111991882
208.0,0.005013608373701572
224.0,0.004971002694219351
240.0,0.004630498122423887
256.0,0.004770350176841021
288.0,0.0039328052662312984
320.0,0.003364606061950326
352.0,0.0032861039508134127
384.0,0.004412306938320398
416.0,0.004999533295631409
448.0,0.003952377010136843
480.0,0.002587126800790429
512.0,0.0025591563899070024
576.0,0.0025562054943293333
640.0,0.0020628999918699265
704.0,0.00020678773580584675
768.0,-0.00045574078103527427
832.0,0.0006680123624391854
896.0,0.00020518539531622082
960.0,0.0011789967538788915
1024.0,0.00116335554048419
1152.0,-0.001347750541754067
1280.0,-0.002244554692879319
1408.0,-0.0012505113845691085
1536.0,0.0007048329571262002
1664.0,0.000536485284101218
1792.0,-9.729167504701763e-05
1920.0,0.0003746486036106944
2048.0,-0.00067419110564515
2304.0,-0.0009897220879793167
2560.0,0.00019433478883001953
2816.0,-0.0004209217440802604
3072.0,-0.0010778311407193542
3328.0,-0.0016641942784190178
3584.0,-0.001181669533252716
3840.0,-0.0025641133543103933
4096.0,-0.0014001114759594202
4608.0,-0.0022837913129478693
5120.0,-0.0030475768726319075
5632.0,-0.0003246348351240158
6144.0,-0.002326276386156678
6656.0,-0.0032473490573465824
7168.0,-0.0001085627663997002
7680.0,0.00189655099529773
8192.0,0.001918448368087411
end
