version,3.0
numOfCh,1
type,point
parent_name,714af_0dot4-0dot1
ch_type,1_1
kcount,1
numberNandB,1
brightnessNandB,1
carpet pos,0
pc,0
Time (ms),CH1 Auto-Correlation
1.0,0.030457472428679466
2.0,0.029371922835707664
3.0,0.028344690799713135
4.0,0.027362806722521782
5.0,0.026467906311154366
6.0,0.025624504312872887
7.0,0.02484758011996746
8.0,0.024128617718815804
9.0,0.023473303765058517
10.0,0.022832687944173813
11.0,0.02220434695482254
12.0,0.021612364798784256
13.0,0.021055148914456367
14.0,0.02053392305970192
15.0,0.020044853910803795
16.0,0.019547881558537483
18.0,0.01856846921145916
20.0,0.017638692632317543
22.0,0.016783423721790314
24.0,0.016013484448194504
26.0,0.015340005047619343
28.0,0.014759748242795467
30.0,0.014265007339417934
32.0,0.013819432817399502
36.0,0.013037791475653648
40.0,0.012315288186073303
44.0,0.011725867167115211
48.0,0.011154977604746819
52.0,0.01056328509002924
56.0,0.010141082108020782
60.0,0.009767526760697365
64.0,0.009329228661954403
72.0,0.008553226478397846
80.0,0.007838331162929535
88.0,0.007176219951361418
96.0,0.006966177839785814
104.0,0.006570884957909584
112.0,0.00614551967009902
120.0,0.005714640486985445
128.0,0.00521208718419075
144.0,0.005469153635203838
160.0,0.00542396679520607
176.0,0.004755963571369648
192.0,0.004021176137030125
208.0,0.0033166015055030584
224.0,0.003080145688727498
240.0,0.0023563457652926445
256.0,0.0016173493349924684
288.0,0.0010130454320460558
320.0,0.0010321077425032854
352.0,0.0010244728764519095
384.0,0.0006257148343138397
416.0,0.0012022312730550766
448.0,0.0005828622379340231
480.0,0.0003944451455026865
512.0,0.0007335374248214066
576.0,-5.247085937298834e-05
640.0,-0.0005356860347092152
704.0,-0.0019588868599385023
768.0,-0.001944183255545795
832.0,-4.373145566205494e-05
896.0,-0.0010533962631598115
960.0,0.0002587467897683382
1024.0,0.0017474389169365168
1152.0,0.001228346605785191
1280.0,0.0026052992325276136
1408.0,0.003448725678026676
1536.0,0.00024958167341537774
1664.0,-0.0006504039047285914
1792.0,-0.00035488186404109
1920.0,-0.000446850637672469
2048.0,-0.0005038408562541008
2304.0,-0.004166016820818186
2560.0,-0.004362556617707014
2816.0,-0.000638405850622803
3072.0,0.00028022570768371224
3328.0,0.0006714193732477725
3584.0,-0.0033594719134271145
3840.0,-0.003553018905222416
4096.0,-0.000499338551890105
4608.0,0.0005386062548495829
5120.0,-0.0006609461270272732
5632.0,-0.0030833508353680372
6144.0,0.002681683748960495
6656.0,-0.0003863299498334527
7168.0,-0.00011982573050772771
7680.0,0.002410243032500148
8192.0,0.0022352016530930996
end
