version,3.0
numOfCh,1
type,point
parent_name,714af_0dot4-0dot1
ch_type,1_1
kcount,1
numberNandB,1
brightnessNandB,1
carpet pos,0
pc,0
Time (ms),CH1 Auto-Correlation
1.0,0.029644856229424477
2.0,0.0285200085490942
3.0,0.027449673041701317
4.0,0.026439297944307327
5.0,0.025507543236017227
6.0,0.02461845986545086
7.0,0.023750577121973038
8.0,0.02292642556130886
9.0,0.022158628329634666
10.0,0.021433673799037933
11.0,0.020783061161637306
12.0,0.020171809941530228
13.0,0.01960003189742565
14.0,0.019059445708990097
15.0,0.018533980473876
16.0,0.018021631985902786
18.0,0.017015669494867325
20.0,0.01606574095785618
22.0,0.01520080678164959
24.0,0.014456480741500854
26.0,0.013815141282975674
28.0,0.013211729004979134
30.0,0.01263931579887867
32.0,0.012096124701201916
36.0,0.011125951074063778
40.0,0.010446202009916306
44.0,0.010004383511841297
48.0,0.009899327531456947
52.0,0.009929419495165348
56.0,0.009913839399814606
60.0,0.009782524779438972
64.0,0.009401359595358372
72.0,0.008413495495915413
80.0,0.00687602860853076
88.0,0.005743044428527355
96.0,0.005180511623620987
104.0,0.004998968448489904
112.0,0.004647183232009411
120.0,0.004447723273187876
128.0,0.0044214422814548016
144.0,0.003672639839351177
160.0,0.0023216218687593937
176.0,0.0012369175674393773
192.0,0.0009176210151053965
208.0,0.0003855729300994426
224.0,0.00032132602063938975
240.0,0.0006627634284086525
256.0,0.0007079778588376939
288.0,6.569617107743397e-05
320.0,-0.00047460419591516256
352.0,0.00039604766061529517
384.0,0.0005299277254380286
416.0,-0.0002568340569268912
448.0,-0.0007622799021191895
480.0,-0.0017176454421132803
512.0,-0.001154581899754703
576.0,0.0007384177297353745
640.0,0.00036774526233784854
704.0,0.001491769915446639
768.0,0.00125726661644876
832.0,-0.000585803238209337
896.0,-0.0019396664574742317
960.0,-0.0010375876445323229
1024.0,-0.0006661770748905838
1152.0,-0.00020574421796482056
1280.0,-0.0005164184840396047
1408.0,2.9372949938988313e-05
1536.0,-0.0016763962339609861
1664.0,-0.0014165211468935013
1792.0,-0.0016149227740243077
1920.0,-0.0003484896442387253
2048.0,-0.0011350989807397127
2304.0,0.0009113997803069651
2560.0,0.0020853520836681128
2816.0,0.0014920461690053344
3072.0,0.0006165853701531887
3328.0,-0.0012309117009863257
3584.0,-0.000575250422116369
3840.0,0.0005233805859461427
4096.0,0.0004154100897721946
4608.0,0.0003839576384052634
5120.0,0.00016338667774107307
5632.0,0.0002071193011943251
6144.0,-0.0030279927887022495
6656.0,0.0009354358771815896
7168.0,0.0009060718002729118
7680.0,-0.0003824367595370859
8192.0,-0.0012973047560080886
end
