version,3.0
numOfCh,1
type,point
parent_name,714af_0dot4-0dot1
ch_type,1_1
kcount,1
numberNandB,1
brightnessNandB,1
carpet pos,0
pc,0
Time (ms),CH1 Auto-Correlation
1.0,0.030846988782286644
2.0,0.02984749712049961
3.0,0.028875768184661865
4.0,0.027967439964413643
5.0,0.02713620290160179
6.0,0.02637592889368534
7.0,0.02565629780292511
8.0,0.024956798180937767
9.0,0.024289723485708237
10.0,0.023633332923054695
11.0,0.02299531362950802
12.0,0.022417107596993446
13.0,0.021858472377061844
14.0,0.021343667060136795
15.0,0.020830057561397552
16.0,0.020355919376015663
18.0,0.01949625462293625
20.0,0.018632464110851288
22.0,0.017859799787402153
24.0,0.01714598573744297
26.0,0.01651272550225258
28.0,0.01588534004986286
30.0,0.015275516547262669
32.0,0.014732401818037033
36.0,0.013724004849791527
40.0,0.012762338854372501
44.0,0.012117047794163227
48.0,0.011808529496192932
52.0,0.011593952775001526
56.0,0.0113834198564291
60.0,0.011084919795393944
64.0,0.010699879378080368
72.0,0.009938249364495277
80.0,0.009380429983139038
88.0,0.009067299775779247
96.0,0.008537700399756432
104.0,0.008066974580287933
112.0,0.007373298518359661
120.0,0.0066016362980008125
128.0,0.005650125443935394
144.0,0.0043068332597613335
160.0,0.003434132318943739
176.0,0.0024889723863452673
192.0,0.001988778356462717
208.0,0.0018976295832544565
224.0,0.0016307757468894124
240.0,0.0012501029996201396
256.0,0.0013102893717586994
288.0,0.0012930671218782663
320.0,0.0009772443445399404
352.0,0.0014271305408328772
384.0,0.0011149216443300247
416.0,0.0011053596390411258
448.0,0.00040218187496066093
480.0,0.0001293947279918939
512.0,-1.69595568877412e-05
576.0,0.0008427052525803447
640.0,0.00013511844736058265
704.0,-0.0007151294266805053
768.0,-0.0005080294795334339
832.0,-0.0008843651739880443
896.0,-0.000561144610401243
960.0,-0.0009929455118253827
1024.0,-0.0012163525680080056
1152.0,0.0009148568497039378
1280.0,0.0005820342339575291
1408.0,-0.000910125789232552
1536.0,-0.0008016981882974505
1664.0,-0.0018274097237735987
1792.0,-0.0007283869781531394
1920.0,-0.0006060394807718694
2048.0,-0.0002410646266071126
2304.0,-0.00036713670124299824
2560.0,0.0007423428469337523
2816.0,0.0009463561000302434
3072.0,-0.0003498900041449815
3328.0,-0.0006808391190133989
3584.0,-0.001505211926996708
3840.0,-0.0010290441568940878
4096.0,0.0011352382134646177
4608.0,0.0011495912913233042
5120.0,-4.585858914651908e-05
5632.0,-0.0016245960723608732
6144.0,-0.0007930283900350332
6656.0,-0.0006632042932324111
7168.0,0.0009923198958858848
7680.0,-4.027530667372048e-05
8192.0,-0.0005264111096039414
end
