version,3.0
numOfCh,1
type,point
parent_name,714af_0dot4-0dot1
ch_type,1_1
kcount,1
numberNandB,1
brightnessNandB,1
carpet pos,0
pc,0
Time (ms),CH1 Auto-Correlation
1.0,0.03013315051794052
2.0,0.028987077996134758
3.0,0.02793850377202034
4.0,0.02692202478647232
5.0,0.025960726663470268
6.0,0.025076037272810936
7.0,0.02420923486351967
8.0,0.023392727598547935
9.0,0.0226365365087986
10.0,0.021926170215010643
11.0,0.021252751350402832
12.0,0.020643465220928192
13.0,0.02011173963546753
14.0,0.019620634615421295
15.0,0.01913640834391117
16.0,0.01863100379705429
18.0,0.01768103800714016
20.0,0.016691435128450394
22.0,0.01580980233848095
24.0,0.014965366572141647
26.0,0.014169132336974144
28.0,0.013444596901535988
30.0,0.01278404425829649
32.0,0.012223624624311924
36.0,0.011394859291613102
40.0,0.010790369473397732
44.0,0.010098229162395
48.0,0.009525095112621784
52.0,0.009058230556547642
56.0,0.008670645765960217
60.0,0.008284159936010838
64.0,0.008042524568736553
72.0,0.007604794576764107
80.0,0.006923974491655827
88.0,0.006138280965387821
96.0,0.005788806360214949
104.0,0.0055516865104436874
112.0,0.005262276623398066
120.0,0.0051827323623001575
128.0,0.005125767085701227
144.0,0.004895760212093592
160.0,0.004494473338127136
176.0,0.004026649985462427
192.0,0.003437577746808529
208.0,0.0027360038366168737
224.0,0.0021447930485010147
240.0,0.0007516223704442382
256.0,-0.0006555175641551614
288.0,-0.0019037127494812012
320.0,-0.002586962655186653
352.0,-0.002626234432682395
384.0,-0.0016970018623396754
416.0,-0.0016116306651383638
448.0,-0.0022272171918302774
480.0,-0.0025915163569152355
512.0,-0.0032523346599191427
576.0,-0.000887997099198401
640.0,0.0015919167781248689
704.0,0.002991624176502228
768.0,0.002039629500359297
832.0,0.0021254252642393112
896.0,0.0010212367633357644
960.0,0.0001125047929235734
1024.0,0.0008371439762413502
1152.0,-0.0011053596390411258
1280.0,-0.000600798986852169
1408.0,0.0004296786501072347
1536.0,-0.000587114947848022
1664.0,-0.0013971435837447643
1792.0,-0.0010172177571803331
1920.0,-0.0002694887516554445
2048.0,0.0007034430745989084
2304.0,-0.001425830414518714
2560.0,-1.5712037566117942e-05
2816.0,0.0009008434135466814
3072.0,-0.000340727943694219
3328.0,-0.0010544882388785481
3584.0,-0.0004577445506583899
3840.0,0.0012742443941533566
4096.0,-0.0012620711931958795
4608.0,0.0012006559409201145
5120.0,-0.00020477983343880624
5632.0,0.0001061505899997428
6144.0,-0.002369999885559082
6656.0,-0.00035904187825508416
7168.0,-0.0028719494584947824
7680.0,0.0009567721281200647
8192.0,-0.0020442975219339132
end
