version,3.0
numOfCh,1
type,point
parent_name,714af_0dot4-0dot1
ch_type,1_1
kcount,1
numberNandB,1
brightnessNandB,1
carpet pos,0
pc,0
Time (ms),CH1 Auto-Correlation
1.0,0.0309924129396677
2.0,0.029931046068668365
3.0,0.02891940250992775
4.0,0.027982797473669052
5.0,0.02710416354238987
6.0,0.026304129511117935
7.0,0.025561416521668434
8.0,0.02487688511610031
9.0,0.02424105629324913
10.0,0.023638248443603516
11.0,0.023068761453032494
12.0,0.02250662073493004
13.0,0.02195519208908081
14.0,0.021431319415569305
15.0,0.020952964201569557
16.0,0.020491795614361763
18.0,0.019642570987343788
20.0,0.018897566944360733
22.0,0.018247224390506744
24.0,0.017648179084062576
26.0,0.017139805480837822
28.0,0.016652029007673264
30.0,0.016171779483556747
32.0,0.01569635607302189
36.0,0.014885304495692253
40.0,0.014150011353194714
44.0,0.01355554349720478
48.0,0.012932776473462582
52.0,0.012256809510290623
56.0,0.01163629349321127
60.0,0.011110249906778336
64.0,0.010587094351649284
72.0,0.009487922303378582
80.0,0.00836023036390543
88.0,0.007700718007981777
96.0,0.007396293804049492
104.0,0.00707212882116437
112.0,0.006323711480945349
120.0,0.005516946781426668
128.0,0.0047443825751543045
144.0,0.003979460336267948
160.0,0.0038032212760299444
176.0,0.003970917314291
192.0,0.0036274001467972994
208.0,0.003613361855968833
224.0,0.003729664022102952
240.0,0.0037424317561089993
256.0,0.0037703111302107573
288.0,0.002864084206521511
320.0,0.002022429136559367
352.0,0.0001501352380728349
384.0,-0.001109414268285036
416.0,-0.0019578048959374428
448.0,-0.0010984732070937753
480.0,0.0003487520443741232
512.0,0.0007828730740584433
576.0,0.0009660441428422928
640.0,-0.001030085259117186
704.0,-0.00104388571344316
768.0,0.0010224076686426997
832.0,0.0009928956860676408
896.0,-0.0006774063222110271
960.0,-0.0024014951195567846
1024.0,-0.001815826166421175
1152.0,-0.0018210032721981406
1280.0,-0.0021419194526970387
1408.0,-0.002039686543866992
1536.0,-0.0024081338196992874
1664.0,-0.0029182343278080225
1792.0,-0.0019377833232283592
1920.0,-0.00111854518763721
2048.0,-0.0028281337581574917
2304.0,-0.002032240154221654
2560.0,-0.001553029054775834
2816.0,0.0010617352090775967
3072.0,0.0016233263304457068
3328.0,0.0018547832733020186
3584.0,-0.0006774209323339164
3840.0,0.000227184355026111
4096.0,-0.0007511846488341689
4608.0,0.0010133716277778149
5120.0,-0.00015890719078015536
5632.0,0.0002495241060387343
6144.0,-0.0006367789465002716
6656.0,0.00019395303388591856
7168.0,-0.0028272278141230345
7680.0,0.000171321167727001
8192.0,-0.0002605909830890596
end
