version,3.0
numOfCh,1
type,point
parent_name,714af_0dot4-0dot1
ch_type,1_1
kcount,1
numberNandB,1
brightnessNandB,1
carpet pos,0
pc,0
Time (ms),CH1 Auto-Correlation
1.0,0.027905358001589775
2.0,0.02685372531414032
3.0,0.025895552709698677
4.0,0.02504226565361023
5.0,0.02424605004489422
6.0,0.02349749580025673
7.0,0.02281482331454754
8.0,0.022172918543219566
9.0,0.021558305248618126
10.0,0.02099025994539261
11.0,0.020395806059241295
12.0,0.019837064668536186
13.0,0.019324887543916702
14.0,0.01887163706123829
15.0,0.01842835359275341
16.0,0.018004879355430603
18.0,0.017252568155527115
20.0,0.01656917668879032
22.0,0.015884699299931526
24.0,0.015249201096594334
26.0,0.01468406431376934
28.0,0.014151708222925663
30.0,0.013678178191184998
32.0,0.013260964304208755
36.0,0.012411784380674362
40.0,0.011521504260599613
44.0,0.010669614188373089
48.0,0.009861664846539497
52.0,0.009182559326291084
56.0,0.008600905537605286
60.0,0.008153813891112804
64.0,0.007697533816099167
72.0,0.006853525061160326
80.0,0.0061978925950825214
88.0,0.005722071509808302
96.0,0.0056473007425665855
104.0,0.005675215739756823
112.0,0.005575127899646759
120.0,0.005209545139223337
128.0,0.004772016778588295
144.0,0.00407375069335103
160.0,0.003297243034467101
176.0,0.0029010854195803404
192.0,0.002245939103886485
208.0,0.0013850658433511853
224.0,0.0007110160659067333
240.0,-0.0003958736197091639
256.0,-0.00030929091735742986
288.0,-0.0003060184826608747
320.0,0.000977757154032588
352.0,0.0009577904711477458
384.0,0.0008277652086690068
416.0,-5.4459513194160536e-05
448.0,-0.001034976332448423
480.0,-0.0013584402622655034
512.0,-0.0008674113778397441
576.0,-0.0016380086308345199
640.0,-0.0011830941075459123
704.0,5.436334049591096e-06
768.0,0.0007143820403143764
832.0,0.0003784949367400259
896.0,0.0003291670000180602
960.0,-0.0005810316652059555
1024.0,-0.000549293530639261
1152.0,0.0011673884000629187
1280.0,-0.0007860978366807103
1408.0,-0.0008563908631913364
1536.0,-0.0014526470331475139
1664.0,-0.0018193640280514956
1792.0,-0.0007403214112855494
1920.0,0.0015754320193082094
2048.0,-0.0005225380882620811
2304.0,-0.0015504464972764254
2560.0,-0.0009060601005330682
2816.0,-0.0019903513602912426
3072.0,-0.00083261908730492
3328.0,0.000451941741630435
3584.0,-0.00036805603303946555
3840.0,0.00035696447594091296
4096.0,-0.0006967720109969378
4608.0,-0.00036657723831012845
5120.0,0.0021681454963982105
5632.0,-0.00043189022107981145
6144.0,-0.0008081253618001938
6656.0,-0.0012344251153990626
7168.0,-0.00042512567597441375
7680.0,-0.0014110069023445249
8192.0,0.0029819440096616745
end
