version,3.0
numOfCh,1
type,point
parent_name,714af_0dot4-0dot1
ch_type,1_1
kcount,1
numberNandB,1
brightnessNandB,1
carpet pos,0
pc,0
Time (ms),CH1 Auto-Correlation
1.0,0.028911888599395752
2.0,0.027808114886283875
3.0,0.02681853249669075
4.0,0.025888986885547638
5.0,0.025009427219629288
6.0,0.02419239468872547
7.0,0.023422928526997566
8.0,0.022689837962388992
9.0,0.021986447274684906
10.0,0.021294530481100082
11.0,0.02060387283563614
12.0,0.01999036595225334
13.0,0.019465835765004158
14.0,0.018979830667376518
15.0,0.0184682197868824
16.0,0.017937321215867996
18.0,0.016877543181180954
20.0,0.015919042751193047
22.0,0.015031209215521812
24.0,0.014175914227962494
26.0,0.013324451632797718
28.0,0.012579986825585365
30.0,0.01200017612427473
32.0,0.011544519104063511
36.0,0.010796678252518177
40.0,0.00997553113847971
44.0,0.00917845219373703
48.0,0.008490419015288353
52.0,0.007984300144016743
56.0,0.007575132418423891
60.0,0.007215287536382675
64.0,0.0069149755872786045
72.0,0.006276153028011322
80.0,0.0054847318679094315
88.0,0.004466681741178036
96.0,0.0036775823682546616
104.0,0.0033076817635446787
112.0,0.003341773757711053
120.0,0.003444262780249119
128.0,0.0038227690383791924
144.0,0.004064285196363926
160.0,0.004084808751940727
176.0,0.003993768710643053
192.0,0.0038393880240619183
208.0,0.0031841422896832228
224.0,0.002583079971373081
240.0,0.001958507113158703
256.0,0.00143685401417315
288.0,0.001090319943614304
320.0,0.0022560846991837025
352.0,0.001637056702747941
384.0,-0.0006351991323754191
416.0,2.40485678659752e-05
448.0,0.0007850589463487267
480.0,0.001884685130789876
512.0,0.0006515791756100953
576.0,-0.0004347262147348374
640.0,0.0016063085058704019
704.0,0.0006212258012965322
768.0,-0.00033559760777279735
832.0,0.0006686108536086977
896.0,-0.0004893018049187958
960.0,0.0014395138714462519
1024.0,0.0028050392866134644
1152.0,0.0005869840970262885
1280.0,-0.0003137946187052876
1408.0,-0.0011511520715430379
1536.0,-0.0015884757740423083
1664.0,-0.0005217059515416622
1792.0,-0.0017446499550715089
1920.0,-0.0015669679269194603
2048.0,-0.0020596792455762625
2304.0,-0.00278358138166368
2560.0,-0.001991110621020198
2816.0,-0.0022716231178492308
3072.0,-0.003011539112776518
3328.0,0.00061085942434147
3584.0,0.0020308212842792273
3840.0,0.0017967186868190765
4096.0,0.001830782974138856
4608.0,0.000925110827665776
5120.0,0.0021298581268638372
5632.0,-0.000821234134491533
6144.0,0.0012991814874112606
6656.0,-0.005886564031243324
7168.0,0.0001399304164806381
7680.0,-0.0016446179943159223
8192.0,-0.00033281987998634577
end
