version,3.0
numOfCh,1
type,point
parent_name,714af_0dot4-0dot1
ch_type,1_1
kcount,1
numberNandB,1
brightnessNandB,1
carpet pos,0
pc,0
Time (ms),CH1 Auto-Correlation
1.0,0.03163575753569603
2.0,0.030525386333465576
3.0,0.02947867475450039
4.0,0.02852488122880459
5.0,0.027617106214165688
6.0,0.02674897573888302
7.0,0.025889966636896133
8.0,0.025087658315896988
9.0,0.024303467944264412
10.0,0.023570416495203972
11.0,0.022857317700982094
12.0,0.02215128019452095
13.0,0.021459326148033142
14.0,0.020796911790966988
15.0,0.02015039324760437
16.0,0.019548019394278526
18.0,0.0185326486825943
20.0,0.017577024176716805
22.0,0.01673855073750019
24.0,0.015989039093255997
26.0,0.015295986086130142
28.0,0.014658129774034023
30.0,0.014057312160730362
32.0,0.013510247692465782
36.0,0.01249977108091116
40.0,0.011740307323634624
44.0,0.011147960089147091
48.0,0.010633610188961029
52.0,0.010169848799705505
56.0,0.009700978174805641
60.0,0.009289863519370556
64.0,0.008882472291588783
72.0,0.008095622062683105
80.0,0.0073997401632368565
88.0,0.006868842523545027
96.0,0.006413891911506653
104.0,0.005936037749052048
112.0,0.005559477489441633
120.0,0.0055014085955917835
128.0,0.005419010296463966
144.0,0.0044457316398620605
160.0,0.00391031289473176
176.0,0.004072273150086403
192.0,0.003972094971686602
208.0,0.003767883637920022
224.0,0.00360682001337409
240.0,0.003225266234949231
256.0,0.0034433994442224503
288.0,0.0024897234980016947
320.0,0.0012680965010076761
352.0,0.0005909877945668995
384.0,0.0002343167143408209
416.0,0.0003415830433368683
448.0,0.0010528521379455924
480.0,0.0006577387684956193
512.0,-0.0005071201594546437
576.0,-0.0007851234404370189
640.0,-0.0001935884793056175
704.0,0.0006253024330362678
768.0,0.0009325590217486024
832.0,0.0014690171228721738
896.0,0.0026476529892534018
960.0,0.0019952079746872187
1024.0,0.0016224631108343601
1152.0,0.0007266392931342125
1280.0,0.0003531586262397468
1408.0,-0.0004831720725633204
1536.0,-0.0006702366517856717
1664.0,0.0012513375841081142
1792.0,0.00264731515198946
1920.0,1.6411247997893952e-05
2048.0,0.0008208575309254229
2304.0,-0.0010439277393743396
2560.0,-0.0010268723126500845
2816.0,0.00022450805408880115
3072.0,7.655534136574715e-05
3328.0,-0.00038795446744188666
3584.0,0.0007898651529103518
3840.0,-0.00011405620898585767
4096.0,-0.0009461512672714889
4608.0,-0.0016299515264108777
5120.0,-0.001929634716361761
5632.0,-0.001338262460194528
6144.0,-0.0022094137966632843
6656.0,-0.00026602300931699574
7168.0,0.00031159105128608644
7680.0,-0.0006468479405157268
8192.0,0.00014711631229147315
end
