version,3.0
numOfCh,1
type,point
parent_name,714af_0dot4-0dot1
ch_type,1_1
kcount,1
numberNandB,1
brightnessNandB,1
carpet pos,0
pc,0
Time (ms),CH1 Auto-Correlation
1.0,0.03738405928015709
2.0,0.036034781485795975
3.0,0.03460094332695007
4.0,0.03331201896071434
5.0,0.031881049275398254
6.0,0.030759146437048912
7.0,0.029602665454149246
8.0,0.028505591675639153
9.0,0.02739819884300232
10.0,0.02644479088485241
11.0,0.0254183579236269
12.0,0.02443508617579937
13.0,0.02355801872909069
14.0,0.022744255140423775
15.0,0.02192162536084652
16.0,0.021246489137411118
18.0,0.02011033333837986
20.0,0.01911662332713604
22.0,0.018189137801527977
24.0,0.0173474308103323
26.0,0.01660817861557007
28.0,0.016066132113337517
30.0,0.015635157003998756
32.0,0.015308872796595097
36.0,0.014631997793912888
40.0,0.014011438004672527
44.0,0.013547206297516823
48.0,0.013177911750972271
52.0,0.012591147795319557
56.0,0.011996655724942684
60.0,0.011421645060181618
64.0,0.010867607779800892
72.0,0.00918127503246069
80.0,0.008285201154649258
88.0,0.008093793876469135
96.0,0.007279641460627317
104.0,0.006480725482106209
112.0,0.005903376266360283
120.0,0.005598878022283316
128.0,0.00526201818138361
144.0,0.003874128684401512
160.0,0.003031476167961955
176.0,0.002368135377764702
192.0,0.0017068778397515416
208.0,0.0011570118367671967
224.0,0.0012104585766792297
240.0,0.0015105495695024729
256.0,0.0021613934077322483
288.0,0.0013817722210660577
320.0,0.000734706234652549
352.0,2.6680736482376233e-05
384.0,-0.00045782458619214594
416.0,-0.00016176978533621877
448.0,0.0002235216088593006
480.0,0.0006405996973626316
512.0,0.001482474384829402
576.0,0.002166698919609189
640.0,0.0025469260290265083
704.0,0.0013992973836138844
768.0,0.0019334746757522225
832.0,0.00039227466913871467
896.0,-0.0018867934122681618
960.0,-0.003252005437389016
1024.0,-0.0028890161775052547
1152.0,-0.001444194931536913
1280.0,-0.0028344758320599794
1408.0,-0.0025246229488402605
1536.0,0.00016037352907005697
1664.0,0.0003881261218339205
1792.0,0.0002984798629768193
1920.0,-0.0023199638817459345
2048.0,-0.0018999502062797546
2304.0,-0.0007197265513241291
2560.0,-0.0028644767589867115
2816.0,-0.0013926435494795442
3072.0,-0.0019196301000192761
3328.0,0.0006087386282160878
3584.0,-0.0008940218249335885
3840.0,0.0019252788042649627
4096.0,0.0015511862002313137
4608.0,0.000929710571654141
5120.0,0.0008094683289527893
5632.0,0.0004814482235815376
6144.0,-0.0017901842948049307
6656.0,-0.0034085134975612164
7168.0,-0.000509974081069231
7680.0,0.0018015699461102486
8192.0,0.0021016178652644157
end
