version,3.0
numOfCh,1
type,point
parent_name,714af_0dot4-0dot1
ch_type,1_1
kcount,1
numberNandB,1
brightnessNandB,1
carpet pos,0
pc,0
Time (ms),CH1 Auto-Correlation
1.0,0.0339185856282711
2.0,0.03280867636203766
3.0,0.03177565336227417
4.0,0.03083215281367302
5.0,0.0299582090228796
6.0,0.029178284108638763
7.0,0.028434591367840767
8.0,0.02772573009133339
9.0,0.027055617421865463
10.0,0.02643699198961258
11.0,0.02586492896080017
12.0,0.025290409103035927
13.0,0.024760879576206207
14.0,0.02424556389451027
15.0,0.023752400651574135
16.0,0.023291688412427902
18.0,0.022510072216391563
20.0,0.021823639050126076
22.0,0.021238228306174278
24.0,0.02073158510029316
26.0,0.020278919488191605
28.0,0.01977086067199707
30.0,0.019267426803708076
32.0,0.018834220245480537
36.0,0.01796487532556057
40.0,0.017113512381911278
44.0,0.016223084181547165
48.0,0.015224399045109749
52.0,0.014403881505131721
56.0,0.013752743601799011
60.0,0.013105649501085281
64.0,0.012475486844778061
72.0,0.011526442132890224
80.0,0.010852879844605923
88.0,0.01027707476168871
96.0,0.009660257957875729
104.0,0.009169450961053371
112.0,0.008686241693794727
120.0,0.008559937588870525
128.0,0.008610324934124947
144.0,0.0076714083552360535
160.0,0.007139816414564848
176.0,0.007269418332725763
192.0,0.0076870606280863285
208.0,0.007468888070434332
224.0,0.006746814586222172
240.0,0.006820390932261944
256.0,0.006884505040943623
288.0,0.006161544006317854
320.0,0.005066496320068836
352.0,0.005077478010207415
384.0,0.005156246945261955
416.0,0.0049730753526091576
448.0,0.003444136120378971
480.0,0.0024616089649498463
512.0,0.00161340634804219
576.0,0.0007064523524604738
640.0,0.0005612890236079693
704.0,2.305394627910573e-05
768.0,0.0017559891566634178
832.0,0.0026232292875647545
896.0,0.001555388211272657
960.0,0.0010393197881057858
1024.0,0.0013652698835358024
1152.0,0.0031879195012152195
1280.0,0.002662023762241006
1408.0,0.0027519315481185913
1536.0,0.0007661647978238761
1664.0,0.001651519793085754
1792.0,-0.0007391157560050488
1920.0,-0.002761457348242402
2048.0,-0.001850845292210579
2304.0,-0.0024517120327800512
2560.0,-0.004022706765681505
2816.0,-0.005006841849535704
3072.0,-0.002416890347376466
3328.0,-0.0017043842235580087
3584.0,-0.0006178510375320911
3840.0,-0.0010778781725093722
4096.0,-0.0012065543560311198
4608.0,-0.0036875889636576176
5120.0,-0.0012446632608771324
5632.0,0.001243561739102006
6144.0,-0.0024278180208057165
6656.0,0.0046848272904753685
7168.0,0.004811318125575781
7680.0,0.0038729917723685503
8192.0,0.0008133014780469239
end
