version,3.0
numOfCh,1
type,point
parent_name,c1204_0dot08-1dot0
ch_type,1_1
kcount,1
numberNandB,1
brightnessNandB,1
carpet pos,0
pc,0
Time (ms),CH1 Auto-Correlation
1.0,0.024173907935619354
2.0,0.023931872099637985
3.0,0.02371654286980629
4.0,0.023503484204411507
5.0,0.023292850703001022
6.0,0.02308771014213562
7.0,0.022884035483002663
8.0,0.02268858440220356
9.0,0.022488685324788094
10.0,0.022297535091638565
11.0,0.022117381915450096
12.0,0.02194368652999401
13.0,0.02178017981350422
14.0,0.021609582006931305
15.0,0.021444128826260567
16.0,0.021280357614159584
18.0,0.02096434310078621
20.0,0.020651860162615776
22.0,0.02034660615026951
24.0,0.020037315785884857
26.0,0.019751057028770447
28.0,0.019483324140310287
30.0,0.01921507902443409
32.0,0.018961776047945023
36.0,0.018490366637706757
40.0,0.018026253208518028
44.0,0.017581066116690636
48.0,0.017152296379208565
52.0,0.016769977286458015
56.0,0.01642080582678318
60.0,0.016096439212560654
64.0,0.015766507014632225
72.0,0.015076544135808945
80.0,0.014379194937646389
88.0,0.013645819388329983
96.0,0.012884735129773617
104.0,0.01214524358510971
112.0,0.011449278332293034
120.0,0.01084478385746479
128.0,0.010358298197388649
144.0,0.009698479436337948
160.0,0.009209117852151394
176.0,0.00865600723773241
192.0,0.007876620627939701
208.0,0.007252763025462627
224.0,0.006837952416390181
240.0,0.006424866151064634
256.0,0.00587778864428401
288.0,0.004666252061724663
320.0,0.003656918415799737
352.0,0.00225632032379508
384.0,0.000982976984232664
416.0,-0.00014202228339854628
448.0,-0.0005648793885484338
480.0,-0.000407076149713248
512.0,-0.00023611435608472675
576.0,2.8114744054619223e-05
640.0,0.0004949503345414996
704.0,0.001687713898718357
768.0,0.0032919575460255146
832.0,0.004299587104469538
896.0,0.004095724783837795
960.0,0.004351072013378143
1024.0,0.005361513700336218
1152.0,0.005122985690832138
1280.0,0.003570674918591976
1408.0,0.00267517426982522
1536.0,0.00030346729909069836
1664.0,-0.0013932159636169672
1792.0,-0.00021276590996421874
1920.0,0.0019929928239434958
2048.0,0.002700398676097393
2304.0,0.002135385060682893
2560.0,0.0004290587967261672
2816.0,-0.0007214636425487697
3072.0,-0.00031056892476044595
3328.0,0.0022244486026465893
3584.0,0.0017948959721252322
3840.0,0.00040878658182919025
4096.0,-0.0003904985496774316
4608.0,0.0014437604695558548
5120.0,0.0005572582012973726
5632.0,-0.0012590634869411588
6144.0,-0.003604605095461011
6656.0,0.0007672530482523143
7168.0,-0.004989170003682375
7680.0,0.0011069951578974724
8192.0,-0.0043297442607581615
end
