version,3.0
numOfCh,1
type,point
parent_name,c1204_0dot08-1dot0
ch_type,1_1
kcount,1
numberNandB,1
brightnessNandB,1
carpet pos,0
pc,0
Time (ms),CH1 Auto-Correlation
1.0,0.02216796949505806
2.0,0.021967781707644463
3.0,0.021776065230369568
4.0,0.021589890122413635
5.0,0.021406950429081917
6.0,0.021230893209576607
7.0,0.021058212965726852
8.0,0.020878516137599945
9.0,0.020702213048934937
10.0,0.020531173795461655
11.0,0.02036774903535843
12.0,0.020205074921250343
13.0,0.020044498145580292
14.0,0.01988667994737625
15.0,0.01973108761012554
16.0,0.019581668078899384
18.0,0.01928766444325447
20.0,0.018993370234966278
22.0,0.018699338659644127
24.0,0.018423166126012802
26.0,0.01814780756831169
28.0,0.017863161861896515
30.0,0.01758965663611889
32.0,0.017316309735178947
36.0,0.016793690621852875
40.0,0.016297906637191772
44.0,0.015842020511627197
48.0,0.015418613329529762
52.0,0.014999349601566792
56.0,0.0145936394110322
60.0,0.014240353368222713
64.0,0.013925489038228989
72.0,0.013273371383547783
80.0,0.012708611786365509
88.0,0.012181304395198822
96.0,0.011708846315741539
104.0,0.011324598453938961
112.0,0.01103568822145462
120.0,0.010776683688163757
128.0,0.010573030449450016
144.0,0.010233008302748203
160.0,0.01010311022400856
176.0,0.00993817113339901
192.0,0.00966113805770874
208.0,0.009409544058144093
224.0,0.009081032127141953
240.0,0.008777966722846031
256.0,0.008644823916256428
288.0,0.008674266748130322
320.0,0.00816539116203785
352.0,0.007322012912482023
384.0,0.00667354092001915
416.0,0.0063325874507427216
448.0,0.00627868389710784
480.0,0.005994652397930622
512.0,0.0058688633143901825
576.0,0.005882645025849342
640.0,0.005650958511978388
704.0,0.0056927441619336605
768.0,0.006618655752390623
832.0,0.005971150007098913
896.0,0.0046285102143883705
960.0,0.0034619260113686323
1024.0,0.0033973143436014652
1152.0,0.001122571062296629
1280.0,-0.00038313906406983733
1408.0,-0.0005064500728622079
1536.0,-0.0006558997556567192
1664.0,-0.001334626693278551
1792.0,-0.0018648632103577256
1920.0,-0.0041046966798603535
2048.0,-0.004718727897852659
2304.0,-0.004297525156289339
2560.0,-0.005511622875928879
2816.0,-0.007272199261933565
3072.0,-0.007271335925906897
3328.0,-0.00457538478076458
3584.0,-0.004627345595508814
3840.0,-0.0038249643985182047
4096.0,-0.0034380487632006407
4608.0,-0.000698668125551194
5120.0,0.0016350648365914822
5632.0,0.002719744574278593
6144.0,0.0039777266792953014
6656.0,0.004770148545503616
7168.0,0.004153248388320208
7680.0,0.0025690272450447083
8192.0,-0.003292730078101158
end
