version,3.0
numOfCh,1
type,point
parent_name,c1204_0dot08-1dot0
ch_type,1_1
kcount,1
numberNandB,1
brightnessNandB,1
carpet pos,0
pc,0
Time (ms),CH1 Auto-Correlation
1.0,0.027368541806936264
2.0,0.02714538760483265
3.0,0.026940148323774338
4.0,0.02675142139196396
5.0,0.026574889197945595
6.0,0.026394562795758247
7.0,0.026221195235848427
8.0,0.026047226041555405
9.0,0.02587740682065487
10.0,0.02569665014743805
11.0,0.025530656799674034
12.0,0.02536984719336033
13.0,0.02520858682692051
14.0,0.025052014738321304
15.0,0.02489432878792286
16.0,0.02473253197968006
18.0,0.02441302314400673
20.0,0.024099532514810562
22.0,0.023782044649124146
24.0,0.023460140451788902
26.0,0.02312435954809189
28.0,0.0227969978004694
30.0,0.022488394752144814
32.0,0.02217998169362545
36.0,0.02158983424305916
40.0,0.021040035411715508
44.0,0.020522799342870712
48.0,0.020020604133605957
52.0,0.01954706199467182
56.0,0.01909952610731125
60.0,0.01868571527302265
64.0,0.018279239535331726
72.0,0.017442014068365097
80.0,0.01660207286477089
88.0,0.015793493017554283
96.0,0.015048639848828316
104.0,0.014395482838153839
112.0,0.013787117786705494
120.0,0.013147075660526752
128.0,0.012518810108304024
144.0,0.011383773759007454
160.0,0.01051377784460783
176.0,0.00969388335943222
192.0,0.008891269564628601
208.0,0.008357951417565346
224.0,0.00811709463596344
240.0,0.00794279482215643
256.0,0.007771013770252466
288.0,0.007262935396283865
320.0,0.0070208399556577206
352.0,0.006995892617851496
384.0,0.007123473100364208
416.0,0.007038089446723461
448.0,0.0065963068045675755
480.0,0.006161639466881752
512.0,0.0056745028123259544
576.0,0.004949713591486216
640.0,0.0037574355956166983
704.0,0.003526574932038784
768.0,0.00394896324723959
832.0,0.00452355295419693
896.0,0.004500261973589659
960.0,0.003036780748516321
1024.0,0.0015588958049193025
1152.0,-3.3113265089923516e-05
1280.0,-0.0003527282096911222
1408.0,-0.0025229905731976032
1536.0,-0.0030208141542971134
1664.0,-0.0016834797570481896
1792.0,-0.0020025281701236963
1920.0,-0.0018832379719242454
2048.0,-0.0015779263339936733
2304.0,-0.002268100157380104
2560.0,-0.0010354226687923074
2816.0,0.001328894286416471
3072.0,0.0023456336930394173
3328.0,-0.0016503629740327597
3584.0,-0.0009129939717240632
3840.0,0.0002942721184808761
4096.0,-0.001815865864045918
4608.0,-6.532589759444818e-05
5120.0,-0.0028189842123538256
5632.0,-0.005609249230474234
6144.0,-0.005364690441638231
6656.0,-0.005443650297820568
7168.0,-0.004662699997425079
7680.0,-7.481416105292737e-05
8192.0,-0.00031897006556391716
end
