version,3.0
numOfCh,1
type,point
parent_name,c1204_0dot08-1dot0
ch_type,1_1
kcount,1
numberNandB,1
brightnessNandB,1
carpet pos,0
pc,0
Time (ms),CH1 Auto-Correlation
1.0,0.027624374255537987
2.0,0.027419542893767357
3.0,0.027218665927648544
4.0,0.02702290192246437
5.0,0.02683759666979313
6.0,0.026663970202207565
7.0,0.026491114869713783
8.0,0.026325073093175888
9.0,0.026159273460507393
10.0,0.025990188121795654
11.0,0.025825554504990578
12.0,0.025661567226052284
13.0,0.02550208568572998
14.0,0.02534450963139534
15.0,0.025185871869325638
16.0,0.025029417127370834
18.0,0.0247182659804821
20.0,0.02442074753344059
22.0,0.024129226803779602
24.0,0.023845622316002846
26.0,0.023570578545331955
28.0,0.023299286141991615
30.0,0.02304074913263321
32.0,0.022791357710957527
36.0,0.022341463714838028
40.0,0.02194669097661972
44.0,0.021576132625341415
48.0,0.021223489195108414
52.0,0.020878825336694717
56.0,0.020527206361293793
60.0,0.020197700709104538
64.0,0.019885007292032242
72.0,0.019368115812540054
80.0,0.018936680629849434
88.0,0.018565228208899498
96.0,0.018151378259062767
104.0,0.0177211482077837
112.0,0.017271803691983223
120.0,0.01680346019566059
128.0,0.016437888145446777
144.0,0.015766223892569542
160.0,0.015135332942008972
176.0,0.01452943217009306
192.0,0.01403638906776905
208.0,0.013601220212876797
224.0,0.01305454596877098
240.0,0.01259288378059864
256.0,0.012166704051196575
288.0,0.011382324621081352
320.0,0.01083538681268692
352.0,0.010487757623195648
384.0,0.010146057233214378
416.0,0.00976214837282896
448.0,0.009397173300385475
480.0,0.009387892670929432
512.0,0.009513790719211102
576.0,0.009562102146446705
640.0,0.008925752714276314
704.0,0.008545417338609695
768.0,0.009308012202382088
832.0,0.00982978567481041
896.0,0.009005492553114891
960.0,0.007657657377421856
1024.0,0.006146745290607214
1152.0,0.004414502996951342
1280.0,0.0031814866233617067
1408.0,0.0016562269302085042
1536.0,-0.00035548346932046115
1664.0,-0.002279922366142273
1792.0,-0.0033583291806280613
1920.0,-0.004473990295082331
2048.0,-0.003347106045112014
2304.0,-0.005712151061743498
2560.0,-0.007278386503458023
2816.0,-0.006800535600632429
3072.0,-0.006055194418877363
3328.0,-0.005923728458583355
3584.0,-0.0032739730086177588
3840.0,-0.0029530224855989218
4096.0,-0.0015837806276977062
4608.0,0.0007606226135976613
5120.0,0.0023062496911734343
5632.0,0.0023301823530346155
6144.0,0.002263896632939577
6656.0,-0.0008157977717928588
7168.0,-0.005062237847596407
7680.0,-0.010761586017906666
8192.0,-0.011997860856354237
end
