version,3.0
numOfCh,1
type,point
parent_name,c1204_0dot08-1dot0
ch_type,1_1
kcount,1
numberNandB,1
brightnessNandB,1
carpet pos,0
pc,0
Time (ms),CH1 Auto-Correlation
1.0,0.020588254556059837
2.0,0.020349465310573578
3.0,0.020131079480051994
4.0,0.019930066540837288
5.0,0.019734708592295647
6.0,0.019560586661100388
7.0,0.019391248002648354
8.0,0.019225148484110832
9.0,0.019060030579566956
10.0,0.018905943259596825
11.0,0.018750470131635666
12.0,0.018596071749925613
13.0,0.018445078283548355
14.0,0.018294449895620346
15.0,0.018146734684705734
16.0,0.018000086769461632
18.0,0.017734622582793236
20.0,0.017496421933174133
22.0,0.017259348183870316
24.0,0.01702774316072464
26.0,0.016802309080958366
28.0,0.016581976786255836
30.0,0.016342096030712128
32.0,0.01608344539999962
36.0,0.015587203204631805
40.0,0.015111579559743404
44.0,0.014650477096438408
48.0,0.014231919310986996
52.0,0.013839241117238998
56.0,0.013465169817209244
60.0,0.013089767657220364
64.0,0.012718431651592255
72.0,0.0120674017816782
80.0,0.01151461061090231
88.0,0.011096369475126266
96.0,0.010721017606556416
104.0,0.010372254066169262
112.0,0.010008370503783226
120.0,0.009623486548662186
128.0,0.009274049662053585
144.0,0.008528217673301697
160.0,0.007849167101085186
176.0,0.007370827253907919
192.0,0.007001750636845827
208.0,0.006864672992378473
224.0,0.006923121865838766
240.0,0.007105900440365076
256.0,0.0073330337181687355
288.0,0.007219251710921526
320.0,0.00680525042116642
352.0,0.006397913675755262
384.0,0.005999145098030567
416.0,0.005403386894613504
448.0,0.004185530357062817
480.0,0.0031066013034433126
512.0,0.002718886826187372
576.0,0.0016786156920716166
640.0,0.0011549758492037654
704.0,0.0016634529456496239
768.0,0.0006762727862223983
832.0,-0.0011573234805837274
896.0,-0.0020714998245239258
960.0,-0.0019458633614704013
1024.0,-0.002123196143656969
1152.0,-0.0017334125004708767
1280.0,-0.0031120849307626486
1408.0,-0.0033729157876223326
1536.0,-0.003595806658267975
1664.0,-0.004214083310216665
1792.0,-0.0028004643972963095
1920.0,-0.0023586004972457886
2048.0,-0.002623145002871752
2304.0,-0.0007942919037304819
2560.0,0.0003356445813551545
2816.0,0.0017206348711624742
3072.0,0.003131193807348609
3328.0,0.0034823769237846136
3584.0,0.0021393438801169395
3840.0,0.0006014351965859532
4096.0,0.0008501613629050553
4608.0,-0.004979408346116543
5120.0,-0.005219322629272938
5632.0,-0.001333476509898901
6144.0,0.002638263860717416
6656.0,0.0015897894045338035
7168.0,0.0024200098123401403
7680.0,-0.002653621369972825
8192.0,-0.005778701975941658
end
