version,3.0
numOfCh,1
type,point
parent_name,c1204_0dot08-1dot0
ch_type,1_1
kcount,1
numberNandB,1
brightnessNandB,1
carpet pos,0
pc,0
Time (ms),CH1 Auto-Correlation
1.0,0.021137785166502
2.0,0.020899737253785133
3.0,0.020675119012594223
4.0,0.02047099359333515
5.0,0.020276308059692383
6.0,0.02008923888206482
7.0,0.01990579627454281
8.0,0.01972825638949871
9.0,0.019555523991584778
10.0,0.01938878744840622
11.0,0.01922273077070713
12.0,0.019050635397434235
13.0,0.01888444274663925
14.0,0.018722394481301308
15.0,0.01856200210750103
16.0,0.018405092880129814
18.0,0.018104296177625656
20.0,0.017805995419621468
22.0,0.0175299271941185
24.0,0.017257921397686005
26.0,0.01699317991733551
28.0,0.016710644587874413
30.0,0.0164396483451128
32.0,0.01617211475968361
36.0,0.015628447756171227
40.0,0.015130630694329739
44.0,0.014650169759988785
48.0,0.014207006432116032
52.0,0.013808402232825756
56.0,0.013421110808849335
60.0,0.013028518296778202
64.0,0.012646475806832314
72.0,0.011842120438814163
80.0,0.011093772016465664
88.0,0.01041807048022747
96.0,0.009848241694271564
104.0,0.009367315098643303
112.0,0.00901102926582098
120.0,0.008703796193003654
128.0,0.008402388542890549
144.0,0.007785338442772627
160.0,0.007070501334965229
176.0,0.006366298068314791
192.0,0.005564455408602953
208.0,0.004797030705958605
224.0,0.00413220701739192
240.0,0.0036421793047338724
256.0,0.0031627367716282606
288.0,0.0026449626311659813
320.0,0.0025567752309143543
352.0,0.0027815287467092276
384.0,0.0026426760014146566
416.0,0.0018974761478602886
448.0,0.0007169327582232654
480.0,-0.0002112656511599198
512.0,-0.0006645509856753051
576.0,-0.001014283625409007
640.0,-0.0007359346491284668
704.0,-0.0001629364414839074
768.0,-8.52382345328806e-06
832.0,1.2207638974359725e-05
896.0,-2.5481522243353538e-05
960.0,-0.000366716121789068
1024.0,-0.00044504913967102766
1152.0,-0.0009432087535969913
1280.0,-0.0007230748306028545
1408.0,1.4432164789468516e-05
1536.0,-0.0007225126028060913
1664.0,-0.002024406800046563
1792.0,-0.0024240228813141584
1920.0,-0.0021418214309960604
2048.0,-0.0023673924151808023
2304.0,-0.0016530948923900723
2560.0,-0.0009225199464708567
2816.0,0.0016231982735916972
3072.0,0.001512889633886516
3328.0,0.0013199613895267248
3584.0,0.0003585380909498781
3840.0,-0.0005524534499272704
4096.0,0.0025485248770564795
4608.0,0.000991721055470407
5120.0,0.00022231870389077812
5632.0,-0.0013530710712075233
6144.0,-0.002912361640483141
6656.0,-0.0034645088016986847
7168.0,0.0022031625267118216
7680.0,0.001450434559956193
8192.0,0.000804615265224129
end
