version,3.0
numOfCh,1
type,point
parent_name,c1204_0dot08-1dot0
ch_type,1_1
kcount,1
numberNandB,1
brightnessNandB,1
carpet pos,0
pc,0
Time (ms),CH1 Auto-Correlation
1.0,0.01960572972893715
2.0,0.019404111430048943
3.0,0.019216809421777725
4.0,0.019033031538128853
5.0,0.01885632798075676
6.0,0.018684906885027885
7.0,0.018513984978199005
8.0,0.018342891708016396
9.0,0.018174100667238235
10.0,0.017999444156885147
11.0,0.0178325567394495
12.0,0.017666291445493698
13.0,0.01750103384256363
14.0,0.017336878925561905
15.0,0.01717439666390419
16.0,0.017020482569932938
18.0,0.016705116257071495
20.0,0.01640237681567669
22.0,0.016100004315376282
24.0,0.015792209655046463
26.0,0.015509958378970623
28.0,0.015251358970999718
30.0,0.014996983110904694
32.0,0.014743770472705364
36.0,0.014287397265434265
40.0,0.013854981400072575
44.0,0.013463681563735008
48.0,0.01310331467539072
52.0,0.012754257768392563
56.0,0.012422916479408741
60.0,0.012141036801040173
64.0,0.011884874664247036
72.0,0.011283766478300095
80.0,0.010643254965543747
88.0,0.01009167730808258
96.0,0.009621207602322102
104.0,0.009215922094881535
112.0,0.00887823011726141
120.0,0.008539227768778801
128.0,0.00822867639362812
144.0,0.00748978229239583
160.0,0.006854166276752949
176.0,0.006310784257948399
192.0,0.00583631219342351
208.0,0.005414359737187624
224.0,0.005112396087497473
240.0,0.004721873439848423
256.0,0.004271259065717459
288.0,0.0035228256601840258
320.0,0.002955271862447262
352.0,0.002613787306472659
384.0,0.0020029195584356785
416.0,0.0013580868253484368
448.0,0.000999362557195127
480.0,0.0010015458101406693
512.0,0.0009203212102875113
576.0,0.00011458760855020955
640.0,-0.0002624191401991993
704.0,-0.0004914937308058143
768.0,-0.001167520647868514
832.0,-0.002037318889051676
896.0,-0.0014413665048778057
960.0,-0.0009165998781099916
1024.0,-0.00038881704676896334
1152.0,-0.0008020065142773092
1280.0,-0.0010058098705485463
1408.0,-0.000876770936883986
1536.0,-0.001090292353183031
1664.0,-0.0001802457554731518
1792.0,0.0013583520194515586
1920.0,0.0019252789206802845
2048.0,0.0028774805832654238
2304.0,0.0012331941397860646
2560.0,-0.0016866304213181138
2816.0,-0.0043890452943742275
3072.0,-0.00415007071569562
3328.0,-0.00223652389831841
3584.0,-0.0008112573996186256
3840.0,0.0011686537181958556
4096.0,0.0009187191026285291
4608.0,-0.002040822757408023
5120.0,-0.0004661231650970876
5632.0,-6.219130227691494e-06
6144.0,0.0013122194213792682
6656.0,-0.0005612438544631004
7168.0,4.995817653252743e-05
7680.0,0.0030332349706441164
8192.0,-0.0017498962115496397
end
