version,3.0
numOfCh,1
type,point
parent_name,c1204_0dot08-1dot0
ch_type,1_1
kcount,1
numberNandB,1
brightnessNandB,1
carpet pos,0
pc,0
Time (ms),CH1 Auto-Correlation
1.0,0.023673994466662407
2.0,0.023434825241565704
3.0,0.02320193499326706
4.0,0.022984588518738747
5.0,0.022769993171095848
6.0,0.022558508440852165
7.0,0.022349625825881958
8.0,0.022152798250317574
9.0,0.021964391693472862
10.0,0.02178414911031723
11.0,0.02160033956170082
12.0,0.021419497206807137
13.0,0.02124493196606636
14.0,0.021063407883048058
15.0,0.020891614258289337
16.0,0.02073005773127079
18.0,0.020430149510502815
20.0,0.020146667957305908
22.0,0.019867703318595886
24.0,0.019598672166466713
26.0,0.019337382167577744
28.0,0.019068142399191856
30.0,0.018813330680131912
32.0,0.018551383167505264
36.0,0.018033843487501144
40.0,0.017522938549518585
44.0,0.017013853415846825
48.0,0.016526639461517334
52.0,0.016068488359451294
56.0,0.015667080879211426
60.0,0.015272059477865696
64.0,0.014888806268572807
72.0,0.01423982996493578
80.0,0.013704752549529076
88.0,0.013150257989764214
96.0,0.012559894472360611
104.0,0.011925795115530491
112.0,0.011411073617637157
120.0,0.01097660232335329
128.0,0.010643091052770615
144.0,0.010027872398495674
160.0,0.009528573602437973
176.0,0.009116217494010925
192.0,0.008865507319569588
208.0,0.008442074991762638
224.0,0.008039500564336777
240.0,0.007498113438487053
256.0,0.007013789843767881
288.0,0.006119720637798309
320.0,0.005243427585810423
352.0,0.005193826276808977
384.0,0.005477742291986942
416.0,0.005478390492498875
448.0,0.0048860590904951096
480.0,0.0043205199763178825
512.0,0.004115018527954817
576.0,0.003656683722510934
640.0,0.002902406733483076
704.0,0.0012605271767824888
768.0,0.0012634537415578961
832.0,0.0010488538537174463
896.0,0.0004885217640548944
960.0,0.0010021425550803542
1024.0,0.0011391915613785386
1152.0,-0.0009593397262506187
1280.0,-0.0009165742667391896
1408.0,0.0011031919857487082
1536.0,0.0015415179077535868
1664.0,0.0004155556089244783
1792.0,-0.0014155851677060127
1920.0,-0.000992535031400621
2048.0,-0.001630907878279686
2304.0,-0.0016334863612428308
2560.0,0.00030592267285101116
2816.0,0.001761609106324613
3072.0,0.0008134632371366024
3328.0,0.00042051036143675447
3584.0,-0.0022377348504960537
3840.0,-0.0011760571505874395
4096.0,0.0007950596045702696
4608.0,-0.002117820316925645
5120.0,-0.004103660583496094
5632.0,-0.004160126205533743
6144.0,-0.0018267164705321193
6656.0,0.004491807427257299
7168.0,0.0040825894102454185
7680.0,0.005206563510000706
8192.0,0.004392856732010841
end
