version,3.0
numOfCh,1
type,point
parent_name,c1204_0dot08-1dot0
ch_type,1_1
kcount,1
numberNandB,1
brightnessNandB,1
carpet pos,0
pc,0
Time (ms),CH1 Auto-Correlation
1.0,0.024232324212789536
2.0,0.02402927726507187
3.0,0.02383703738451004
4.0,0.023653244599699974
5.0,0.02347147837281227
6.0,0.023289743810892105
7.0,0.02311350591480732
8.0,0.022940970957279205
9.0,0.02277441881597042
10.0,0.022609151899814606
11.0,0.022439246997237206
12.0,0.022276585921645164
13.0,0.022116465494036674
14.0,0.02195102907717228
15.0,0.021793706342577934
16.0,0.021637052297592163
18.0,0.021322008222341537
20.0,0.021003970876336098
22.0,0.020688755437731743
24.0,0.020397720858454704
26.0,0.020111365243792534
28.0,0.019839419052004814
30.0,0.019574753940105438
32.0,0.019312359392642975
36.0,0.018810654059052467
40.0,0.018333863466978073
44.0,0.017872564494609833
48.0,0.01742057129740715
52.0,0.01698228344321251
56.0,0.016544880345463753
60.0,0.016111502423882484
64.0,0.015716319903731346
72.0,0.015006372705101967
80.0,0.014269968494772911
88.0,0.013567369431257248
96.0,0.012927367351949215
104.0,0.01232844591140747
112.0,0.011710405349731445
120.0,0.011072101071476936
128.0,0.010443951934576035
144.0,0.009425920434296131
160.0,0.008632849901914597
176.0,0.008017679676413536
192.0,0.0074857729487121105
208.0,0.007113200146704912
224.0,0.006760961841791868
240.0,0.006481493823230267
256.0,0.006224664859473705
288.0,0.005731001030653715
320.0,0.005675280466675758
352.0,0.005636633839458227
384.0,0.005562535487115383
416.0,0.005781442392617464
448.0,0.0054746512323617935
480.0,0.005019661039113998
512.0,0.004684289917349815
576.0,0.004251984879374504
640.0,0.004423679783940315
704.0,0.005219519603997469
768.0,0.004067293833941221
832.0,0.002035830868408084
896.0,0.0015145797515287995
960.0,0.0023352988064289093
1024.0,0.003925541415810585
1152.0,0.004837943706661463
1280.0,0.0023910265881568193
1408.0,0.003523544641211629
1536.0,0.0031263623386621475
1664.0,0.004599981941282749
1792.0,0.004849134013056755
1920.0,0.004272667225450277
2048.0,0.0035075191408395767
2304.0,0.0004050919960718602
2560.0,-0.001221677870489657
2816.0,-0.0003109257959295064
3072.0,-0.0007869235123507679
3328.0,0.001312378910370171
3584.0,-3.4758839319692925e-05
3840.0,-9.625117672840133e-05
4096.0,-0.000265288952505216
4608.0,-0.001953977392986417
5120.0,-0.0013856650330126286
5632.0,-0.0022024724166840315
6144.0,-0.003990227356553078
6656.0,-0.001649685320444405
7168.0,-0.0019614517223089933
7680.0,-0.0015072127571329474
8192.0,-0.0043489085510373116
end
