version,3.0
numOfCh,1
type,point
parent_name,c1204_0dot08-1dot0
ch_type,1_1
kcount,1
numberNandB,1
brightnessNandB,1
carpet pos,0
pc,0
Time (ms),CH1 Auto-Correlation
1.0,0.02316332422196865
2.0,0.022955220192670822
3.0,0.022755296900868416
4.0,0.02256859838962555
5.0,0.02239176630973816
6.0,0.02221672795712948
7.0,0.022040843963623047
8.0,0.021871110424399376
9.0,0.021710673347115517
10.0,0.021550653502345085
11.0,0.02138904482126236
12.0,0.02123074233531952
13.0,0.021075988188385963
14.0,0.020916171371936798
15.0,0.02076542191207409
16.0,0.020612161606550217
18.0,0.020319053903222084
20.0,0.020028579980134964
22.0,0.019751358777284622
24.0,0.01949129067361355
26.0,0.019236961379647255
28.0,0.01899089850485325
30.0,0.018751151859760284
32.0,0.018503906205296516
36.0,0.018048932775855064
40.0,0.017638403922319412
44.0,0.01725153997540474
48.0,0.01685364544391632
52.0,0.016467835754156113
56.0,0.0160906333476305
60.0,0.015741171315312386
64.0,0.015402601100504398
72.0,0.014697450213134289
80.0,0.013968106359243393
88.0,0.013286532834172249
96.0,0.012640571221709251
104.0,0.012028281576931477
112.0,0.011401714757084846
120.0,0.010818134061992168
128.0,0.010251479223370552
144.0,0.009317344054579735
160.0,0.008509662933647633
176.0,0.00760416965931654
192.0,0.006791367661207914
208.0,0.00621304614469409
224.0,0.00571784470230341
240.0,0.00531931035220623
256.0,0.005016410257667303
288.0,0.0043481579050421715
320.0,0.00382041884586215
352.0,0.0032120742835104465
384.0,0.0022887049708515406
416.0,0.001641723676584661
448.0,0.0009470860240980983
480.0,-6.114433745096903e-06
512.0,-0.00037877087015658617
576.0,-0.0013497128384187818
640.0,-0.0032235621474683285
704.0,-0.004032182041555643
768.0,-0.0036878157407045364
832.0,-0.0021158838644623756
896.0,-0.0015828300965949893
960.0,-0.0006386106251738966
1024.0,-0.0002532934013288468
1152.0,-0.00012663622328545898
1280.0,-0.00048163029714487493
1408.0,-5.197219707042677e-06
1536.0,-0.0009565430227667093
1664.0,-0.0004346646601334214
1792.0,-0.0021212492138147354
1920.0,-0.0031745820306241512
2048.0,-0.0038673453964293003
2304.0,-0.0015994742279872298
2560.0,-4.349466325948015e-05
2816.0,0.0009268103749491274
3072.0,0.0016509100096300244
3328.0,-0.001923698466271162
3584.0,-0.0035236356779932976
3840.0,-0.0030147458892315626
4096.0,0.0015120765892788768
4608.0,-0.002464944962412119
5120.0,0.0022799859289079905
5632.0,0.002280397340655327
6144.0,0.0007747584604658186
6656.0,0.0018323319964110851
7168.0,-0.0016689698677510023
7680.0,-0.0047185467556118965
8192.0,0.0012378786923363805
end
