version,3.0
numOfCh,1
type,point
parent_name,c1204_0dot08-1dot0
ch_type,1_1
kcount,1
numberNandB,1
brightnessNandB,1
carpet pos,0
pc,0
Time (ms),CH1 Auto-Correlation
1.0,0.018299032002687454
2.0,0.018098920583724976
3.0,0.017906684428453445
4.0,0.017725884914398193
5.0,0.017550243064761162
6.0,0.0173819400370121
7.0,0.017214911058545113
8.0,0.017057374119758606
9.0,0.016896260902285576
10.0,0.016739245504140854
11.0,0.01658567227423191
12.0,0.01644105464220047
13.0,0.01628611609339714
14.0,0.016141768544912338
15.0,0.01600019633769989
16.0,0.015860091894865036
18.0,0.015587564557790756
20.0,0.015317386016249657
22.0,0.015052528120577335
24.0,0.014802810736000538
26.0,0.014543828554451466
28.0,0.014289945363998413
30.0,0.014034192077815533
32.0,0.013785773888230324
36.0,0.013321351259946823
40.0,0.012904281727969646
44.0,0.012511405162513256
48.0,0.012165180407464504
52.0,0.011840545572340488
56.0,0.011530619114637375
60.0,0.0112081877887249
64.0,0.010910450480878353
72.0,0.0103457598015666
80.0,0.00984278041869402
88.0,0.009417184628546238
96.0,0.009036527015268803
104.0,0.008733722381293774
112.0,0.008382381871342659
120.0,0.007989388890564442
128.0,0.00759081169962883
144.0,0.006934154313057661
160.0,0.006300002336502075
176.0,0.005489760544151068
192.0,0.00472615659236908
208.0,0.004105796106159687
224.0,0.0036666279193013906
240.0,0.003337711561471224
256.0,0.00298070115968585
288.0,0.002302794251590967
320.0,0.0017709851963445544
352.0,0.0011543013388291001
384.0,0.0008781746146269143
416.0,0.0006356288213282824
448.0,0.0004852713900618255
480.0,0.0004372499242890626
512.0,0.00027163344202563167
576.0,9.183674410451204e-05
640.0,-0.0003424608730711043
704.0,-0.0016754616517573595
768.0,-0.003165852976962924
832.0,-0.004509111400693655
896.0,-0.004279021173715591
960.0,-0.0027355810161679983
1024.0,-0.0007134219631552696
1152.0,4.071780131198466e-05
1280.0,-0.0003391144273336977
1408.0,-0.0006487497012130916
1536.0,0.0009428459452465177
1664.0,0.002865118207409978
1792.0,0.0023357183672487736
1920.0,0.0002556095423642546
2048.0,-0.0005555045208893716
2304.0,-0.001019486808218062
2560.0,-0.0022326249163597822
2816.0,-0.0006339982501231134
3072.0,0.0010620381217449903
3328.0,0.0034549408592283726
3584.0,0.0028898846358060837
3840.0,0.0019222834380343556
4096.0,6.919053703313693e-05
4608.0,-0.0016256379894912243
5120.0,-0.0006874199607409537
5632.0,-0.0012389619369059801
6144.0,0.0001270851498702541
6656.0,0.0010761289158836007
7168.0,-6.58009375911206e-05
7680.0,0.0005670173559337854
8192.0,-0.0004527733544819057
end
