version,3.0
numOfCh,1
type,point
parent_name,c1204_0dot08-1dot0
ch_type,1_1
kcount,1
numberNandB,1
brightnessNandB,1
carpet pos,0
pc,0
Time (ms),CH1 Auto-Correlation
1.0,0.016193635761737823
2.0,0.015983251854777336
3.0,0.01578192412853241
4.0,0.015593466348946095
5.0,0.015413615852594376
6.0,0.015229427255690098
7.0,0.015047461725771427
8.0,0.014868327416479588
9.0,0.014688130468130112
10.0,0.014512435533106327
11.0,0.014350497163832188
12.0,0.01419026032090187
13.0,0.01403682492673397
14.0,0.013880806975066662
15.0,0.013726598583161831
16.0,0.013581213541328907
18.0,0.013298597186803818
20.0,0.013014859519898891
22.0,0.012739194557070732
24.0,0.012487523257732391
26.0,0.01224400196224451
28.0,0.01201001089066267
30.0,0.011784927919507027
32.0,0.011575184762477875
36.0,0.011164115741848946
40.0,0.01077195629477501
44.0,0.010349891148507595
48.0,0.009930991567671299
52.0,0.009533622302114964
56.0,0.009177946485579014
60.0,0.008891548030078411
64.0,0.008618039079010487
72.0,0.008096623234450817
80.0,0.007641500793397427
88.0,0.007184948306530714
96.0,0.006713127717375755
104.0,0.006302645429968834
112.0,0.006007663905620575
120.0,0.0057386173866689205
128.0,0.0054578171111643314
144.0,0.004802386276423931
160.0,0.004393917042762041
176.0,0.004182299133390188
192.0,0.004023905843496323
208.0,0.003709383774548769
224.0,0.003347263438627124
240.0,0.003072369145229459
256.0,0.002766154007986188
288.0,0.0022557659540325403
320.0,0.0017625241307541728
352.0,0.001398273860104382
384.0,0.0011554525699466467
416.0,0.0008803424425423145
448.0,0.0005027655861340463
480.0,-0.0003560962504707277
512.0,-0.0012183235958218575
576.0,-0.002102024620398879
640.0,-0.002615920500829816
704.0,-0.0029388268012553453
768.0,-0.0034873683471232653
832.0,-0.0034994548186659813
896.0,-0.003136577783152461
960.0,-0.002790370024740696
1024.0,-0.00268815690651536
1152.0,-0.0016894572181627154
1280.0,-0.0011779903434216976
1408.0,-0.0005722441128455102
1536.0,0.00024745590053498745
1664.0,-0.0006586554227396846
1792.0,-4.6396482503041625e-05
1920.0,0.0012610347475856543
2048.0,0.0015624809311702847
2304.0,-0.00022810495283920318
2560.0,-0.00021724446560256183
2816.0,-0.00065800198353827
3072.0,-0.00012497283751145005
3328.0,0.00029021009686402977
3584.0,-4.9369722546543926e-05
3840.0,-0.0014940223190933466
4096.0,-1.6116033293656074e-05
4608.0,0.0010523071978241205
5120.0,0.0009837890975177288
5632.0,-0.0014515548245981336
6144.0,-0.00020471104653552175
6656.0,0.0012886393815279007
7168.0,-0.0012423000298440456
7680.0,-0.0015282654203474522
8192.0,0.001510340254753828
end
