version,3.0
numOfCh,1
type,point
parent_name,c1204_0dot08-1dot0
ch_type,1_1
kcount,1
numberNandB,1
brightnessNandB,1
carpet pos,0
pc,0
Time (ms),CH1 Auto-Correlation
1.0,0.020046133548021317
2.0,0.01984454318881035
3.0,0.019648194313049316
4.0,0.019471662119030952
5.0,0.01931254006922245
6.0,0.01914737932384014
7.0,0.018988342955708504
8.0,0.01883082650601864
9.0,0.018674377351999283
10.0,0.018526360392570496
11.0,0.018384192138910294
12.0,0.018250154331326485
13.0,0.018116293475031853
14.0,0.01798936538398266
15.0,0.017853599041700363
16.0,0.01772443950176239
18.0,0.017459996044635773
20.0,0.01719636283814907
22.0,0.01694384776055813
24.0,0.01670495979487896
26.0,0.016468390822410583
28.0,0.016231579706072807
30.0,0.015989510342478752
32.0,0.015748949721455574
36.0,0.015281513333320618
40.0,0.014823643490672112
44.0,0.014378971420228481
48.0,0.013955077156424522
52.0,0.013563694432377815
56.0,0.013210455887019634
60.0,0.012873118743300438
64.0,0.012538309209048748
72.0,0.011874963529407978
80.0,0.011244365945458412
88.0,0.01062209252268076
96.0,0.010011904872953892
104.0,0.00945553369820118
112.0,0.008955827914178371
120.0,0.008508921600878239
128.0,0.00805711280554533
144.0,0.007132750004529953
160.0,0.006390467751771212
176.0,0.005809249822050333
192.0,0.005340928211808205
208.0,0.0049011316150426865
224.0,0.004514381289482117
240.0,0.004245154559612274
256.0,0.004044810775667429
288.0,0.003903321921825409
320.0,0.003547708038240671
352.0,0.0032250871881842613
384.0,0.002889978000894189
416.0,0.002080454956740141
448.0,0.0014322042698040605
480.0,0.0010655573569238186
512.0,0.0007032529101707041
576.0,0.0010484264930710196
640.0,0.0016253517242148519
704.0,0.002063843421638012
768.0,0.0034234649501740932
832.0,0.0038292312528938055
896.0,0.0027282999362796545
960.0,0.002294423058629036
1024.0,0.001322688884101808
1152.0,0.0016282505821436644
1280.0,0.000781925511546433
1408.0,0.0003041541203856468
1536.0,0.0018175963778048754
1664.0,0.001997703453525901
1792.0,0.0013573289616033435
1920.0,0.0008494624053128064
2048.0,0.0003313145134598017
2304.0,0.0011481704423204064
2560.0,0.0029766722582280636
2816.0,0.002403481863439083
3072.0,0.0013738115085288882
3328.0,0.0005455893697217107
3584.0,0.00116955884732306
3840.0,0.0017085898434743285
4096.0,0.00013740750728175044
4608.0,-0.00021662397193722427
5120.0,-0.0001508647546870634
5632.0,-0.0018909380305558443
6144.0,-0.0006934611592441797
6656.0,0.0002741484495345503
7168.0,0.001634974149055779
7680.0,0.00021811680926475674
8192.0,-0.000932165130507201
end
