version,3.0
numOfCh,1
type,point
parent_name,c1204_0dot08-1dot0
ch_type,1_1
kcount,1
numberNandB,1
brightnessNandB,1
carpet pos,0
pc,0
Time (ms),CH1 Auto-Correlation
1.0,0.02322685532271862
2.0,0.022962886840105057
3.0,0.022724930197000504
4.0,0.022523699328303337
5.0,0.02233467809855938
6.0,0.022156601771712303
7.0,0.021975159645080566
8.0,0.02180740050971508
9.0,0.021646272391080856
10.0,0.021483784541487694
11.0,0.021326377987861633
12.0,0.02117341011762619
13.0,0.021026168018579483
14.0,0.020880844444036484
15.0,0.020744115114212036
16.0,0.020608514547348022
18.0,0.02034170925617218
20.0,0.020068561658263206
22.0,0.019804246723651886
24.0,0.019548427313566208
26.0,0.019302425906062126
28.0,0.019060034304857254
30.0,0.018826793879270554
32.0,0.018592607229948044
36.0,0.018176984041929245
40.0,0.017789794132113457
44.0,0.01741671934723854
48.0,0.017072727903723717
52.0,0.016692884266376495
56.0,0.016307316720485687
60.0,0.015954038128256798
64.0,0.01563774235546589
72.0,0.015072615817189217
80.0,0.014556591399013996
88.0,0.01404483150690794
96.0,0.013650684617459774
104.0,0.013369662687182426
112.0,0.013094957917928696
120.0,0.012756493873894215
128.0,0.012352469377219677
144.0,0.011481797322630882
160.0,0.010494089685380459
176.0,0.009777706116437912
192.0,0.009142831899225712
208.0,0.00845660362392664
224.0,0.007975875400006771
240.0,0.0077082389034330845
256.0,0.0074475789442658424
288.0,0.007126496639102697
320.0,0.006863647140562534
352.0,0.0066317180171608925
384.0,0.006304432172328234
416.0,0.0060902186669409275
448.0,0.005486433859914541
480.0,0.004349853843450546
512.0,0.0033086440525949
576.0,0.001785718253813684
640.0,0.0011802671942859888
704.0,0.0010387874208390713
768.0,0.0009151921840384603
832.0,0.0007618151721544564
896.0,0.0014391158474609256
960.0,0.0022023029159754515
1024.0,0.0031732770148664713
1152.0,0.004070193972438574
1280.0,0.002406835788860917
1408.0,0.0022017022129148245
1536.0,0.0017847777344286442
1664.0,-0.00046234260662458837
1792.0,-0.0019817103166133165
1920.0,-0.0028798470739275217
2048.0,-0.0033195733558386564
2304.0,-0.002274536294862628
2560.0,-0.0020740048494189978
2816.0,-0.003660494228824973
3072.0,-0.0019820090383291245
3328.0,-0.00014865993580315262
3584.0,-0.0018513684626668692
3840.0,-0.0036687899846583605
4096.0,-0.005808048415929079
4608.0,-0.0025660903193056583
5120.0,0.0008169743232429028
5632.0,0.00014910573372617364
6144.0,0.002678335178643465
6656.0,0.0006705999840050936
7168.0,0.000854574260301888
7680.0,0.0027261096984148026
8192.0,0.003127931384369731
end
