version,3.0
numOfCh,1
type,point
parent_name,c1204_0dot08-1dot0
ch_type,1_1
kcount,1
numberNandB,1
brightnessNandB,1
carpet pos,0
pc,0
Time (ms),CH1 Auto-Correlation
1.0,0.024087104946374893
2.0,0.023858308792114258
3.0,0.02363559603691101
4.0,0.023413797840476036
5.0,0.023206405341625214
6.0,0.023006051778793335
7.0,0.022814884781837463
8.0,0.022621214389801025
9.0,0.022437574341893196
10.0,0.022248556837439537
11.0,0.022069623693823814
12.0,0.021894602105021477
13.0,0.02172042801976204
14.0,0.021541891619563103
15.0,0.021367868408560753
16.0,0.02120385318994522
18.0,0.020876580849289894
20.0,0.020550252869725227
22.0,0.020232265815138817
24.0,0.019924720749258995
26.0,0.019619911909103394
28.0,0.01932273432612419
30.0,0.019050955772399902
32.0,0.018782377243041992
36.0,0.018246417865157127
40.0,0.01771947368979454
44.0,0.01723053865134716
48.0,0.01679878868162632
52.0,0.0163913294672966
56.0,0.015999939292669296
60.0,0.015653686597943306
64.0,0.015319708734750748
72.0,0.014596747234463692
80.0,0.013907709158957005
88.0,0.013345783576369286
96.0,0.012831645086407661
104.0,0.012312755919992924
112.0,0.011832220479846
120.0,0.011413057334721088
128.0,0.011004735715687275
144.0,0.01034538820385933
160.0,0.00966245960444212
176.0,0.009110701270401478
192.0,0.00861129630357027
208.0,0.00817833747714758
224.0,0.007657338865101337
240.0,0.007043400779366493
256.0,0.006499432027339935
288.0,0.005501188337802887
320.0,0.004813441075384617
352.0,0.004559814929962158
384.0,0.004648702684789896
416.0,0.004406326916068792
448.0,0.0037424194160848856
480.0,0.003085340606048703
512.0,0.002893173135817051
576.0,0.0030200635083019733
640.0,0.002949456451460719
704.0,0.0018252652371302247
768.0,0.0010616956278681755
832.0,0.00030367824365384877
896.0,-0.00025788170751184225
960.0,0.0007746121846139431
1024.0,0.001814274932257831
1152.0,0.0010031602578237653
1280.0,0.0002529015182517469
1408.0,0.001352496212348342
1536.0,0.0015503830509260297
1664.0,0.0011177549604326487
1792.0,-0.0011577417608350515
1920.0,-0.0035261798184365034
2048.0,-0.00396057078614831
2304.0,-0.0014655257109552622
2560.0,0.0009763696580193937
2816.0,-0.0003094969433732331
3072.0,-0.0016820592572912574
3328.0,-0.0016445796936750412
3584.0,5.0772057875292376e-05
3840.0,0.0005815466865897179
4096.0,0.00036830277531407773
4608.0,-0.0021843232680112123
5120.0,0.0014106985181570053
5632.0,-0.0025263724382966757
6144.0,-0.002883629407733679
6656.0,-0.0017411902081221342
7168.0,-0.006811062805354595
7680.0,-0.0003691485326271504
8192.0,-0.004836784675717354
end
