version,3.0
numOfCh,1
type,point
parent_name,c1204_0dot08-1dot0
ch_type,1_1
kcount,1
numberNandB,1
brightnessNandB,1
carpet pos,0
pc,0
Time (ms),CH1 Auto-Correlation
1.0,0.02286270074546337
2.0,0.022650793194770813
3.0,0.022441931068897247
4.0,0.022248925641179085
5.0,0.022061245515942574
6.0,0.02187381125986576
7.0,0.021692082285881042
8.0,0.021508177742362022
9.0,0.021321624517440796
10.0,0.021147470921278
11.0,0.02097988873720169
12.0,0.020817307755351067
13.0,0.020661456510424614
14.0,0.02050321362912655
15.0,0.02034592069685459
16.0,0.020175086334347725
18.0,0.019869333133101463
20.0,0.019574251025915146
22.0,0.019280478358268738
24.0,0.01899414137005806
26.0,0.01871774159371853
28.0,0.01846129074692726
30.0,0.01821356825530529
32.0,0.01796826533973217
36.0,0.017506755888462067
40.0,0.017093606293201447
44.0,0.016676193103194237
48.0,0.016270287334918976
52.0,0.01588951237499714
56.0,0.015523191541433334
60.0,0.015154185704886913
64.0,0.01480734720826149
72.0,0.014173844829201698
80.0,0.013586066663265228
88.0,0.01305951364338398
96.0,0.01258406788110733
104.0,0.012201755307614803
112.0,0.01187809742987156
120.0,0.011526655405759811
128.0,0.011222653090953827
144.0,0.010507631115615368
160.0,0.009789915755391121
176.0,0.009167646989226341
192.0,0.008646799251437187
208.0,0.008147449232637882
224.0,0.007710002828389406
240.0,0.007128156255930662
256.0,0.00652378099039197
288.0,0.005640719085931778
320.0,0.004854283761233091
352.0,0.004299408756196499
384.0,0.0036947252228856087
416.0,0.003088157856836915
448.0,0.0024482763838022947
480.0,0.0018663787050172687
512.0,0.0016587566351518035
576.0,0.001323958858847618
640.0,0.001192127587273717
704.0,0.0007870030240155756
768.0,0.0012476686388254166
832.0,0.0025959911290556192
896.0,0.0041970144957304
960.0,0.005482473876327276
1024.0,0.005403896793723106
1152.0,0.005534130148589611
1280.0,0.004638341721147299
1408.0,0.003947560675442219
1536.0,0.0032690519001334906
1664.0,0.0015264743706211448
1792.0,0.0035570731852203608
1920.0,0.004570369143038988
2048.0,0.004428017418831587
2304.0,0.0025074246805161238
2560.0,-0.00016939864144660532
2816.0,0.0016661121044307947
3072.0,0.0037557866889983416
3328.0,0.005293017253279686
3584.0,0.0002749893465079367
3840.0,-0.0030042845755815506
4096.0,-0.0018413611687719822
4608.0,0.0012572550913318992
5120.0,-3.064107659156434e-05
5632.0,-0.002618654863908887
6144.0,0.000606396293733269
6656.0,-0.001686575822532177
7168.0,-0.002056944416835904
7680.0,-0.00238050171174109
8192.0,-0.002699324395507574
end
