version,3.0
numOfCh,1
type,point
parent_name,c1204_0dot08-1dot0
ch_type,1_1
kcount,1
numberNandB,1
brightnessNandB,1
carpet pos,0
pc,0
Time (ms),CH1 Auto-Correlation
1.0,0.025789041072130203
2.0,0.025540828704833984
3.0,0.025316519662737846
4.0,0.025107011198997498
5.0,0.02490900829434395
6.0,0.02470557391643524
7.0,0.024515582248568535
8.0,0.024331772699952126
9.0,0.024160394445061684
10.0,0.023984892293810844
11.0,0.02380715124309063
12.0,0.023641064763069153
13.0,0.02347228117287159
14.0,0.023317625746130943
15.0,0.02315671555697918
16.0,0.02300368808209896
18.0,0.022703800350427628
20.0,0.022403184324502945
22.0,0.022102609276771545
24.0,0.021795429289340973
26.0,0.021490702405571938
28.0,0.021171115338802338
30.0,0.020864499732851982
32.0,0.020560605451464653
36.0,0.019974207505583763
40.0,0.019440121948719025
44.0,0.018939485773444176
48.0,0.018474707379937172
52.0,0.018016567453742027
56.0,0.017583677545189857
60.0,0.017182666808366776
64.0,0.01680811494588852
72.0,0.01613771729171276
80.0,0.01548494677990675
88.0,0.01483242493122816
96.0,0.014217926189303398
104.0,0.013644430786371231
112.0,0.013146737590432167
120.0,0.012747831642627716
128.0,0.012420800514519215
144.0,0.011871173977851868
160.0,0.011308452114462852
176.0,0.010625106282532215
192.0,0.009795096702873707
208.0,0.008947204798460007
224.0,0.008343666791915894
240.0,0.00802452489733696
256.0,0.007860396057367325
288.0,0.007691009435802698
320.0,0.007255747448652983
352.0,0.0061630913987755775
384.0,0.005052725784480572
416.0,0.0039418465457856655
448.0,0.0030846260488033295
480.0,0.0022060354240238667
512.0,0.0013037651078775525
576.0,-0.0002237287990283221
640.0,-0.0008590738289058208
704.0,-0.0010552367893978953
768.0,-0.0005781578947789967
832.0,-0.00023695695563219488
896.0,0.00022923544747754931
960.0,-0.0005557833937928081
1024.0,-0.0010034387232735753
1152.0,-3.661037771962583e-05
1280.0,0.00031548322294838727
1408.0,-0.0009127679513767362
1536.0,-0.0021680172067135572
1664.0,-0.0018954689148813486
1792.0,-0.002415880560874939
1920.0,1.61750413099071e-05
2048.0,0.0006279680528678
2304.0,0.0006120653124526143
2560.0,9.803705324884504e-05
2816.0,0.003492852207273245
3072.0,0.005622560158371925
3328.0,0.0020138092804700136
3584.0,-0.004622567445039749
3840.0,-0.0057209632359445095
4096.0,-0.005193360615521669
4608.0,-0.0017174610402435064
5120.0,0.003233654424548149
5632.0,0.0033286958932876587
6144.0,-0.0006984295323491096
6656.0,-0.001640703878365457
7168.0,-0.0035960727836936712
7680.0,-7.509165880037472e-05
8192.0,0.003663636278361082
end
