version,3.0
numOfCh,1
type,point
parent_name,c1204_0dot08-1dot0
ch_type,1_1
kcount,1
numberNandB,1
brightnessNandB,1
carpet pos,0
pc,0
Time (ms),CH1 Auto-Correlation
1.0,0.0201241597533226
2.0,0.019879208877682686
3.0,0.01965968869626522
4.0,0.019467242062091827
5.0,0.01927829347550869
6.0,0.01909857615828514
7.0,0.018940024077892303
8.0,0.01877875067293644
9.0,0.01862255111336708
10.0,0.018465518951416016
11.0,0.018307005986571312
12.0,0.01815176010131836
13.0,0.01800704002380371
14.0,0.017858488485217094
15.0,0.017715394496917725
16.0,0.017585691064596176
18.0,0.017312675714492798
20.0,0.01703285053372383
22.0,0.01676454208791256
24.0,0.016518861055374146
26.0,0.016285492107272148
28.0,0.016050202772021294
30.0,0.015832381322979927
32.0,0.015637895092368126
36.0,0.015279288403689861
40.0,0.014929416589438915
44.0,0.014594762586057186
48.0,0.014277945272624493
52.0,0.01396458875387907
56.0,0.013677798211574554
60.0,0.013410087674856186
64.0,0.013169713318347931
72.0,0.012676938436925411
80.0,0.012199928984045982
88.0,0.011746677570044994
96.0,0.011334244161844254
104.0,0.01091025024652481
112.0,0.010492637753486633
120.0,0.010153038427233696
128.0,0.009888410568237305
144.0,0.009323401376605034
160.0,0.008841716684401035
176.0,0.00861470028758049
192.0,0.008354047313332558
208.0,0.007943343371152878
224.0,0.007379298564046621
240.0,0.006844958756119013
256.0,0.006307146046310663
288.0,0.005287949927151203
320.0,0.004503095988184214
352.0,0.004127472639083862
384.0,0.0037401490844786167
416.0,0.003584700869396329
448.0,0.0034930116962641478
480.0,0.0030817140359431505
512.0,0.0024116220884025097
576.0,0.0017179343849420547
640.0,0.0005769695271737874
704.0,-5.6308585044462234e-05
768.0,-0.00023441154917236418
832.0,-0.00033728970447555184
896.0,-0.0009185148519463837
960.0,-0.001785170054063201
1024.0,-0.0028555025346577168
1152.0,-0.004457029979676008
1280.0,-0.004578477703034878
1408.0,-0.003053768537938595
1536.0,-0.001155444304458797
1664.0,-0.0015895527321845293
1792.0,-0.00306116696447134
1920.0,-0.0040274858474731445
2048.0,-0.003365995828062296
2304.0,-0.0033652717247605324
2560.0,0.00024298400967381895
2816.0,0.0015616792952641845
3072.0,0.0031891262624412775
3328.0,0.002893628552556038
3584.0,0.0031074662692844868
3840.0,0.0002644056221470237
4096.0,8.759288903092965e-06
4608.0,-0.004111381713300943
5120.0,-0.002831988036632538
5632.0,-0.00032291706884279847
6144.0,0.0024781590327620506
6656.0,0.004171137697994709
7168.0,0.00046822341391816735
7680.0,-0.002574983984231949
8192.0,-0.00342801702208817
end
