version,3.0
numOfCh,1
type,point
parent_name,c1204_0dot08-1dot0
ch_type,1_1
kcount,1
numberNandB,1
brightnessNandB,1
carpet pos,0
pc,0
Time (ms),CH1 Auto-Correlation
1.0,0.021767955273389816
2.0,0.021551961079239845
3.0,0.021353358402848244
4.0,0.021162832155823708
5.0,0.020981715992093086
6.0,0.020810164511203766
7.0,0.020638059824705124
8.0,0.020470941439270973
9.0,0.02031574957072735
10.0,0.020165400579571724
11.0,0.02002314291894436
12.0,0.01987565867602825
13.0,0.0197275560349226
14.0,0.019581502303481102
15.0,0.019439365714788437
16.0,0.019290070980787277
18.0,0.019010653719305992
20.0,0.018745815381407738
22.0,0.018487893044948578
24.0,0.018231654539704323
26.0,0.017977764829993248
28.0,0.01773434691131115
30.0,0.01750350371003151
32.0,0.017280425876379013
36.0,0.01685231551527977
40.0,0.016486139968037605
44.0,0.01616542600095272
48.0,0.01584780588746071
52.0,0.015538973733782768
56.0,0.015213112346827984
60.0,0.014863770455121994
64.0,0.014502735808491707
72.0,0.01382505800575018
80.0,0.013178536668419838
88.0,0.012614451348781586
96.0,0.01209568977355957
104.0,0.011593946255743504
112.0,0.011086618527770042
120.0,0.010577400214970112
128.0,0.010072583332657814
144.0,0.009141231887042522
160.0,0.008248032070696354
176.0,0.007329987827688456
192.0,0.0064008599147200584
208.0,0.005714864935725927
224.0,0.005050995387136936
240.0,0.004490423947572708
256.0,0.00414421409368515
288.0,0.0033474292140454054
320.0,0.0024911267682909966
352.0,0.0013213540660217404
384.0,0.00023823027731850743
416.0,-0.0011439017252996564
448.0,-0.00229250593110919
480.0,-0.0027852391358464956
512.0,-0.003016809234395623
576.0,-0.0033492015209048986
640.0,-0.00383808184415102
704.0,-0.0036450063344091177
768.0,-0.0029870725702494383
832.0,-0.0024643903598189354
896.0,-0.0020608038175851107
960.0,-0.0023779256734997034
1024.0,-0.0023575183004140854
1152.0,-0.0021270313300192356
1280.0,-0.0025118673220276833
1408.0,-0.0022339019924402237
1536.0,-0.003000982804223895
1664.0,-0.0030399577226489782
1792.0,-0.0014087571762502193
1920.0,0.0006114865536801517
2048.0,0.0026209938805550337
2304.0,0.003871780587360263
2560.0,0.0011179260909557343
2816.0,0.0001660343405092135
3072.0,-0.0021705960389226675
3328.0,-0.002899416722357273
3584.0,-0.0031755357049405575
3840.0,-0.00025420007295906544
4096.0,0.00015441959840245545
4608.0,0.002371596172451973
5120.0,-0.0021339464001357555
5632.0,-0.003165700240060687
6144.0,0.0029085492715239525
6656.0,0.002148707862943411
7168.0,0.002857493469491601
7680.0,-0.0011547115864232183
8192.0,-0.0013150668237358332
end
