version,3.0
numOfCh,1
type,point
parent_name,c1204_0dot08-1dot0
ch_type,1_1
kcount,1
numberNandB,1
brightnessNandB,1
carpet pos,0
pc,0
Time (ms),CH1 Auto-Correlation
1.0,0.02594342641532421
2.0,0.025710970163345337
3.0,0.02549126371741295
4.0,0.025271886959671974
5.0,0.025073474273085594
6.0,0.024877216666936874
7.0,0.024677986279129982
8.0,0.02448609285056591
9.0,0.024294918403029442
10.0,0.02411474660038948
11.0,0.023935742676258087
12.0,0.023765407502651215
13.0,0.023593846708536148
14.0,0.02343524433672428
15.0,0.023285502567887306
16.0,0.023133721202611923
18.0,0.022841380909085274
20.0,0.022567082196474075
22.0,0.02229943871498108
24.0,0.022029850631952286
26.0,0.02176508493721485
28.0,0.021501382812857628
30.0,0.021236712113022804
32.0,0.020991981029510498
36.0,0.02052532322704792
40.0,0.020027942955493927
44.0,0.019522324204444885
48.0,0.019044693559408188
52.0,0.018594417721033096
56.0,0.018139658495783806
60.0,0.017696449533104897
64.0,0.017303401604294777
72.0,0.01658230647444725
80.0,0.015879753977060318
88.0,0.015223149210214615
96.0,0.014596053399145603
104.0,0.014034613966941833
112.0,0.01357272733002901
120.0,0.013110232539474964
128.0,0.01264419686049223
144.0,0.01177708525210619
160.0,0.011017482727766037
176.0,0.01026896946132183
192.0,0.009695402346551418
208.0,0.009350311942398548
224.0,0.00918622873723507
240.0,0.009062287397682667
256.0,0.008998305536806583
288.0,0.008982526138424873
320.0,0.00899199303239584
352.0,0.008645273745059967
384.0,0.007905431091785431
416.0,0.007301007397472858
448.0,0.007131198886781931
480.0,0.007090406026691198
512.0,0.007012560497969389
576.0,0.006260357331484556
640.0,0.005896908696740866
704.0,0.005539764184504747
768.0,0.006055654492229223
832.0,0.0073254285380244255
896.0,0.007601240184158087
960.0,0.0076475078240036964
1024.0,0.00762350345030427
1152.0,0.006204982753843069
1280.0,0.004879745654761791
1408.0,0.004486520774662495
1536.0,0.004441257566213608
1664.0,0.004476932343095541
1792.0,0.004567437805235386
1920.0,0.005633829161524773
2048.0,0.0035881868097931147
2304.0,-0.0006613764562644064
2560.0,-0.0007124753901734948
2816.0,-0.00105330313090235
3072.0,-0.0008650300442241132
3328.0,-0.0021832939237356186
3584.0,-0.0030524451285600662
3840.0,-0.00554816285148263
4096.0,-0.004413969814777374
4608.0,-0.004711698740720749
5120.0,-0.007904509082436562
5632.0,-0.007284363731741905
6144.0,-0.00768860662356019
6656.0,-0.006370540242642164
7168.0,-0.006633701268583536
7680.0,-4.502151205088012e-05
8192.0,-0.002722612814977765
end
