version,3.0
numOfCh,1
type,point
parent_name,c1204_0dot08-1dot0
ch_type,1_1
kcount,1
numberNandB,1
brightnessNandB,1
carpet pos,0
pc,0
Time (ms),CH1 Auto-Correlation
1.0,0.025394082069396973
2.0,0.02516130357980728
3.0,0.02494383230805397
4.0,0.024740278720855713
5.0,0.02454613335430622
6.0,0.02436039410531521
7.0,0.024171724915504456
8.0,0.023986676707863808
9.0,0.023812340572476387
10.0,0.02363281510770321
11.0,0.0234508216381073
12.0,0.02326495386660099
13.0,0.023085523396730423
14.0,0.022901194170117378
15.0,0.022725263610482216
16.0,0.02255665510892868
18.0,0.022222725674510002
20.0,0.021892625838518143
22.0,0.021558532491326332
24.0,0.021242322400212288
26.0,0.02093641646206379
28.0,0.02064383402466774
30.0,0.020363379269838333
32.0,0.020094210281968117
36.0,0.01956375502049923
40.0,0.01905227079987526
44.0,0.0185717586427927
48.0,0.018137946724891663
52.0,0.01772097498178482
56.0,0.017323480919003487
60.0,0.016950752586126328
64.0,0.016561856493353844
72.0,0.01584158092737198
80.0,0.015081049874424934
88.0,0.01426920760422945
96.0,0.013470207341015339
104.0,0.01276604738086462
112.0,0.012164437212049961
120.0,0.011621493846178055
128.0,0.011112488806247711
144.0,0.009941107593476772
160.0,0.009003594517707825
176.0,0.008343693800270557
192.0,0.007941517978906631
208.0,0.00766455102711916
224.0,0.007403044030070305
240.0,0.007219380233436823
256.0,0.007235442753881216
288.0,0.0070498185232281685
320.0,0.0067989407107234
352.0,0.006478027440607548
384.0,0.005404330790042877
416.0,0.004325836431235075
448.0,0.0032724870834499598
480.0,0.002486421260982752
512.0,0.0017840082291513681
576.0,0.0015618391335010529
640.0,0.0008270566468127072
704.0,0.0006784966099075973
768.0,0.0008613094687461853
832.0,0.001790642156265676
896.0,0.002442871453240514
960.0,0.001730363117530942
1024.0,0.0007523779640905559
1152.0,0.002575305989012122
1280.0,0.004990520421415567
1408.0,0.005140108987689018
1536.0,0.0027283071540296078
1664.0,0.0018288296414539218
1792.0,0.003993324935436249
1920.0,0.004265929106622934
2048.0,0.0022269883193075657
2304.0,0.0013341656886041164
2560.0,0.00020680908346548676
2816.0,-0.0009367032325826585
3072.0,-0.0016019978793337941
3328.0,-0.0005046080332249403
3584.0,0.0012250699801370502
3840.0,0.0009434967068955302
4096.0,-0.0017205217154696584
4608.0,-0.0016018545720726252
5120.0,0.0006643779925070703
5632.0,0.0002661906473804265
6144.0,-0.0012931899400427938
6656.0,-0.0035695480182766914
7168.0,-0.0019034857396036386
7680.0,-0.002985364058986306
8192.0,-0.008588122203946114
end
