version,3.0
numOfCh,1
type,point
parent_name,c1204_0dot08-1dot0
ch_type,1_1
kcount,1
numberNandB,1
brightnessNandB,1
carpet pos,0
pc,0
Time (ms),CH1 Auto-Correlation
1.0,0.026522647589445114
2.0,0.026330063119530678
3.0,0.026150308549404144
4.0,0.025972729548811913
5.0,0.025789598003029823
6.0,0.0256175734102726
7.0,0.025449270382523537
8.0,0.025285936892032623
9.0,0.025126665830612183
10.0,0.02497047558426857
11.0,0.024814754724502563
12.0,0.0246635302901268
13.0,0.02451615408062935
14.0,0.024371743202209473
15.0,0.024230491369962692
16.0,0.024091389030218124
18.0,0.023812826722860336
20.0,0.02354603074491024
22.0,0.023286418989300728
24.0,0.02303464151918888
26.0,0.022798143327236176
28.0,0.022555869072675705
30.0,0.022316696122288704
32.0,0.02208091877400875
36.0,0.021625448018312454
40.0,0.021173862740397453
44.0,0.020728332921862602
48.0,0.020299259573221207
52.0,0.019866060465574265
56.0,0.019442088901996613
60.0,0.019004562869668007
64.0,0.018562527373433113
72.0,0.01772386208176613
80.0,0.01698644645512104
88.0,0.016242166981101036
96.0,0.015514401718974113
104.0,0.014819341711699963
112.0,0.014211965724825859
120.0,0.013635524548590183
128.0,0.01303880475461483
144.0,0.01181113626807928
160.0,0.010829241015017033
176.0,0.010032935068011284
192.0,0.00932867731899023
208.0,0.00854499638080597
224.0,0.007983798161149025
240.0,0.007699441164731979
256.0,0.007605328224599361
288.0,0.00751549331471324
320.0,0.0070763928815722466
352.0,0.006314310245215893
384.0,0.0055249822326004505
416.0,0.004428439773619175
448.0,0.0034925632644444704
480.0,0.003050676081329584
512.0,0.003174354089424014
576.0,0.002725058002397418
640.0,0.0017338433535769582
704.0,0.0009128526435233653
768.0,-0.00013713310181628913
832.0,-5.88069815421477e-06
896.0,0.0006020124419592321
960.0,0.00044140388490632176
1024.0,0.0005180362495593727
1152.0,0.0013778000138700008
1280.0,0.0026791829150170088
1408.0,0.0031616592314094305
1536.0,0.0025273337960243225
1664.0,0.0012323276605457067
1792.0,0.00013523436791729182
1920.0,0.0014082139823585749
2048.0,-0.00015631921996828169
2304.0,-3.0863669962855056e-05
2560.0,0.0009432382648810744
2816.0,0.0020424516405910254
3072.0,0.001884324592538178
3328.0,0.0006651628646068275
3584.0,0.0012733967741951346
3840.0,0.0025685876607894897
4096.0,0.0004577197541948408
4608.0,-0.0013376171700656414
5120.0,-0.0005686075892299414
5632.0,-0.004031171556562185
6144.0,-0.0018106155330315232
6656.0,-0.0034735046792775393
7168.0,-0.0038825124502182007
7680.0,-0.0014575226232409477
8192.0,0.00010538665810599923
end
