version,3.0
numOfCh,1
type,point
parent_name,c1204_0dot08-1dot0
ch_type,1_1
kcount,1
numberNandB,1
brightnessNandB,1
carpet pos,0
pc,0
Time (ms),CH1 Auto-Correlation
1.0,0.02174396440386772
2.0,0.02155076339840889
3.0,0.021370884031057358
4.0,0.021200357005000114
5.0,0.021031489595770836
6.0,0.020862387493252754
7.0,0.02070300094783306
8.0,0.02055126428604126
9.0,0.02039603516459465
10.0,0.02024504728615284
11.0,0.020095333456993103
12.0,0.019940892234444618
13.0,0.019788866862654686
14.0,0.019635342061519623
15.0,0.019483987241983414
16.0,0.019329410046339035
18.0,0.019034307450056076
20.0,0.01874573528766632
22.0,0.018453245982527733
24.0,0.018160803243517876
26.0,0.01788191869854927
28.0,0.017613597214221954
30.0,0.017354004085063934
32.0,0.017103753983974457
36.0,0.016633599996566772
40.0,0.016185127198696136
44.0,0.015755068510770798
48.0,0.015322253108024597
52.0,0.014907403849065304
56.0,0.014529465697705746
60.0,0.014171144925057888
64.0,0.013843365013599396
72.0,0.01327537838369608
80.0,0.01280638761818409
88.0,0.012313909828662872
96.0,0.011851760558784008
104.0,0.011340886354446411
112.0,0.01075714360922575
120.0,0.010176988318562508
128.0,0.0096637774258852
144.0,0.008897845633327961
160.0,0.00823241751641035
176.0,0.0077314418740570545
192.0,0.007364343386143446
208.0,0.006980609148740768
224.0,0.006608796305954456
240.0,0.00613450026139617
256.0,0.00560374092310667
288.0,0.005492284893989563
320.0,0.005885376129299402
352.0,0.006207781378179789
384.0,0.006186243612319231
416.0,0.005862582940608263
448.0,0.005361944902688265
480.0,0.0052262721583247185
512.0,0.00518217496573925
576.0,0.004918400663882494
640.0,0.005312083289027214
704.0,0.005775530356913805
768.0,0.0064078145660459995
832.0,0.006715172436088324
896.0,0.005630898755043745
960.0,0.0037288109306246042
1024.0,0.0022484383080154657
1152.0,0.0005698001477867365
1280.0,-0.0014932126505300403
1408.0,-0.001852525514550507
1536.0,-0.0012058872962370515
1664.0,-0.000948095868807286
1792.0,-0.0019752855878323317
1920.0,-0.0024395401123911142
2048.0,-0.002675335155799985
2304.0,-0.0014647050993517041
2560.0,-0.0013080717762932181
2816.0,-0.0005891640903428197
3072.0,0.0007218625396490097
3328.0,-0.00048466745647601783
3584.0,-0.001676430576480925
3840.0,-0.0011518410174176097
4096.0,-0.0015382205601781607
4608.0,-0.0030370685271918774
5120.0,-0.0022759181447327137
5632.0,-4.0776158130029216e-05
6144.0,0.0012997508747503161
6656.0,0.0020920855458825827
7168.0,-0.0010877536842599511
7680.0,-0.0005557015538215637
8192.0,0.0005628765211440623
end
