version,3.0
numOfCh,1
type,point
parent_name,c1204_0dot08-1dot0
ch_type,1_1
kcount,1
numberNandB,1
brightnessNandB,1
carpet pos,0
pc,0
Time (ms),CH1 Auto-Correlation
1.0,0.016638342291116714
2.0,0.01643466018140316
3.0,0.016245484352111816
4.0,0.01606300286948681
5.0,0.01588560827076435
6.0,0.01571432501077652
7.0,0.015552392229437828
8.0,0.015386318787932396
9.0,0.015230287797749043
10.0,0.015079880133271217
11.0,0.014923508279025555
12.0,0.0147687504068017
13.0,0.014623912051320076
14.0,0.01447908766567707
15.0,0.014339323155581951
16.0,0.014200338162481785
18.0,0.013942805118858814
20.0,0.013692181557416916
22.0,0.013448183424770832
24.0,0.013204609975218773
26.0,0.012963540852069855
28.0,0.012731616385281086
30.0,0.012506798841059208
32.0,0.012289459817111492
36.0,0.011889183893799782
40.0,0.011503917165100574
44.0,0.011138979345560074
48.0,0.010806931182742119
52.0,0.010468575172126293
56.0,0.01013245154172182
60.0,0.009835275821387768
64.0,0.009508894756436348
72.0,0.008858301676809788
80.0,0.00829752255231142
88.0,0.007825867272913456
96.0,0.0074886903166770935
104.0,0.007206898648291826
112.0,0.006879754830151796
120.0,0.006588582880795002
128.0,0.006384880281984806
144.0,0.0061389487236738205
160.0,0.005836317781358957
176.0,0.0053881569765508175
192.0,0.004988604690879583
208.0,0.004509780090302229
224.0,0.004041480366140604
240.0,0.0037130832206457853
256.0,0.0033519556745886803
288.0,0.002779698697850108
320.0,0.0027379272505640984
352.0,0.0028371058870106936
384.0,0.002743971301242709
416.0,0.0025709783658385277
448.0,0.0019036501180380583
480.0,0.0012562922202050686
512.0,0.0007899494376033545
576.0,0.0003189266426488757
640.0,0.0002139421849278733
704.0,6.689522706437856e-05
768.0,-0.00028690139879472554
832.0,-0.0007966211414895952
896.0,-0.0010934575693681836
960.0,-0.0010621926048770547
1024.0,-0.0012125197099521756
1152.0,-7.540764636360109e-05
1280.0,-0.0009195062448270619
1408.0,-0.0019761507865041494
1536.0,-0.0014363299123942852
1664.0,-0.0005601625889539719
1792.0,0.0008045939030125737
1920.0,0.00024133597617037594
2048.0,0.0004738524730782956
2304.0,0.001846606144681573
2560.0,0.001014451845549047
2816.0,0.0021765618585050106
3072.0,0.001817057840526104
3328.0,-0.0010353010147809982
3584.0,-0.0026141172274947166
3840.0,-0.0023365458473563194
4096.0,-0.0013101139338687062
4608.0,-0.002206613076850772
5120.0,-0.002326350659132004
5632.0,-0.00237975362688303
6144.0,9.516132558928803e-05
6656.0,-0.0002420315140625462
7168.0,-0.0009180355700664222
7680.0,-0.004107750952243805
8192.0,-0.0013901946367695928
end
