version,3.0
numOfCh,1
type,point
parent_name,c1204_0dot08-1dot0
ch_type,1_1
kcount,1
numberNandB,1
brightnessNandB,1
carpet pos,0
pc,0
Time (ms),CH1 Auto-Correlation
1.0,0.01857897825539112
2.0,0.018348349258303642
3.0,0.018127886578440666
4.0,0.01792760193347931
5.0,0.01773340068757534
6.0,0.017548134550452232
7.0,0.017366396263241768
8.0,0.01720152050256729
9.0,0.01703614741563797
10.0,0.016872014850378036
11.0,0.01670590601861477
12.0,0.016537198796868324
13.0,0.016369324177503586
14.0,0.016198448836803436
15.0,0.016042863950133324
16.0,0.015894094482064247
18.0,0.01560012437403202
20.0,0.015322461724281311
22.0,0.01505324523895979
24.0,0.014820423908531666
26.0,0.014585286378860474
28.0,0.014366031624376774
30.0,0.014166857115924358
32.0,0.01395866647362709
36.0,0.013561281375586987
40.0,0.013173679821193218
44.0,0.012805715203285217
48.0,0.012455113232135773
52.0,0.012115723453462124
56.0,0.01178692001849413
60.0,0.011489582248032093
64.0,0.011199221946299076
72.0,0.01064967643469572
80.0,0.010120480321347713
88.0,0.009657420217990875
96.0,0.009295793250203133
104.0,0.008994651958346367
112.0,0.0086844926699996
120.0,0.008450940251350403
128.0,0.008264054544270039
144.0,0.007971268147230148
160.0,0.007582824677228928
176.0,0.007125874049961567
192.0,0.006822525057941675
208.0,0.006482206750661135
224.0,0.006059051491320133
240.0,0.005773997399955988
256.0,0.0056860605254769325
288.0,0.005407949443906546
320.0,0.0052858334966003895
352.0,0.0048807705752551556
384.0,0.004530835896730423
416.0,0.0037691781762987375
448.0,0.0030878663528710604
480.0,0.002537648193538189
512.0,0.002446982078254223
576.0,0.0026805412489920855
640.0,0.0026794185396283865
704.0,0.0019211929757148027
768.0,0.0010446137748658657
832.0,0.0010677913669496775
896.0,0.001219536061398685
960.0,0.0011979637201875448
1024.0,0.001079479930922389
1152.0,0.0010447332169860601
1280.0,0.001902810181491077
1408.0,0.001216604490764439
1536.0,-0.00023230844817589968
1664.0,0.0002967862819787115
1792.0,-0.0004364819033071399
1920.0,-0.0003603166260290891
2048.0,-0.0004034791199956089
2304.0,0.0007866713567636907
2560.0,0.0007678332622162998
2816.0,2.6962974516209215e-05
3072.0,-0.0002600137668196112
3328.0,-0.0005617973511107266
3584.0,4.4654614612227306e-05
3840.0,-0.001431451179087162
4096.0,-0.0025980633217841387
4608.0,-0.0015741634415462613
5120.0,-0.0012037802953273058
5632.0,-0.0011738865869119763
6144.0,-6.480784941231832e-05
6656.0,-0.00025787611957639456
7168.0,-0.001414660015143454
7680.0,-0.0024099894799292088
8192.0,-0.005391565151512623
end
