version,3.0
numOfCh,1
type,point
parent_name,c1204_0dot08-1dot0
ch_type,1_1
kcount,1
numberNandB,1
brightnessNandB,1
carpet pos,0
pc,0
Time (ms),CH1 Auto-Correlation
1.0,0.025398436933755875
2.0,0.025195591151714325
3.0,0.024998996406793594
4.0,0.024796292185783386
5.0,0.024600552394986153
6.0,0.024413539096713066
7.0,0.024233002215623856
8.0,0.024051818996667862
9.0,0.023877127096056938
10.0,0.023702487349510193
11.0,0.023527842015028
12.0,0.023361874744296074
13.0,0.023195207118988037
14.0,0.023035487160086632
15.0,0.022884324193000793
16.0,0.0227340217679739
18.0,0.02244758978486061
20.0,0.022170359268784523
22.0,0.02190595120191574
24.0,0.02164814993739128
26.0,0.021402208134531975
28.0,0.021155593916773796
30.0,0.020912379026412964
32.0,0.020677007734775543
36.0,0.02021104097366333
40.0,0.019714539870619774
44.0,0.019253050908446312
48.0,0.018837112933397293
52.0,0.018444828689098358
56.0,0.018047425895929337
60.0,0.017654724419116974
64.0,0.01726241037249565
72.0,0.016538813710212708
80.0,0.015865543857216835
88.0,0.015202650800347328
96.0,0.014467146247625351
104.0,0.013716138899326324
112.0,0.012937739491462708
120.0,0.012203199788928032
128.0,0.011465301737189293
144.0,0.010093179531395435
160.0,0.008788813836872578
176.0,0.007621383760124445
192.0,0.006508335936814547
208.0,0.0055815898813307285
224.0,0.004659069702029228
240.0,0.003747379407286644
256.0,0.0028879311867058277
288.0,0.001391882193274796
320.0,-1.3694027074961923e-05
352.0,-0.0012095046695321798
384.0,-0.0022216672077775
416.0,-0.0030141151510179043
448.0,-0.003695408347994089
480.0,-0.004248075187206268
512.0,-0.004470770247280598
576.0,-0.005141201429069042
640.0,-0.005557251162827015
704.0,-0.006141429301351309
768.0,-0.006514437031000853
832.0,-0.0061255223117768764
896.0,-0.005288155749440193
960.0,-0.004767716396600008
1024.0,-0.00398206477984786
1152.0,0.0014796615578234196
1280.0,0.0044899326749145985
1408.0,0.0037485226057469845
1536.0,0.0011297574965283275
1664.0,-0.0022695811931043863
1792.0,-0.004316747188568115
1920.0,-0.003756016492843628
2048.0,-0.003202576655894518
2304.0,0.0011325950035825372
2560.0,0.003672891529276967
2816.0,0.0007874175789766014
3072.0,-0.0021018527913838625
3328.0,0.0009581295889802277
3584.0,0.0033652365673333406
3840.0,0.00360153173096478
4096.0,-0.00630471296608448
4608.0,-0.002049735514447093
5120.0,0.003285100683569908
5632.0,-0.0022481910418719053
6144.0,0.0014152127550914884
6656.0,-0.001532812020741403
7168.0,0.00313311698846519
7680.0,-0.001978532876819372
8192.0,0.0006299984524957836
end
