version,3.0
numOfCh,1
type,point
parent_name,c1204_0dot08-1dot0
ch_type,1_1
kcount,1
numberNandB,1
brightnessNandB,1
carpet pos,0
pc,0
Time (ms),CH1 Auto-Correlation
1.0,0.024798115715384483
2.0,0.024546360597014427
3.0,0.024311279878020287
4.0,0.024088144302368164
5.0,0.023888587951660156
6.0,0.023706845939159393
7.0,0.023519868031144142
8.0,0.02332640066742897
9.0,0.023135164752602577
10.0,0.022950880229473114
11.0,0.022766053676605225
12.0,0.022593753412365913
13.0,0.022421076893806458
14.0,0.022248560562729836
15.0,0.02208738587796688
16.0,0.021913595497608185
18.0,0.021568238735198975
20.0,0.021253852173686028
22.0,0.02096334658563137
24.0,0.02066730707883835
26.0,0.02039368264377117
28.0,0.02011815272271633
30.0,0.01982875168323517
32.0,0.019539766013622284
36.0,0.018975479528307915
40.0,0.018450934439897537
44.0,0.017972562462091446
48.0,0.01753600686788559
52.0,0.017122723162174225
56.0,0.01671634241938591
60.0,0.01635318621993065
64.0,0.016008587554097176
72.0,0.015360070392489433
80.0,0.014697635546326637
88.0,0.014027726836502552
96.0,0.013374296948313713
104.0,0.012788810767233372
112.0,0.012275700457394123
120.0,0.011771886609494686
128.0,0.011234065517783165
144.0,0.010219074785709381
160.0,0.009591181762516499
176.0,0.009247970767319202
192.0,0.009043007157742977
208.0,0.008994951844215393
224.0,0.008885037153959274
240.0,0.00869354885071516
256.0,0.008395334705710411
288.0,0.007807532325387001
320.0,0.006992476526647806
352.0,0.006218316964805126
384.0,0.005884323734790087
416.0,0.0058019934222102165
448.0,0.005595697555691004
480.0,0.00537997018545866
512.0,0.005788937211036682
576.0,0.005788210779428482
640.0,0.006057830527424812
704.0,0.006005918141454458
768.0,0.005883223842829466
832.0,0.005711895879358053
896.0,0.0063057043589651585
960.0,0.0070611825212836266
1024.0,0.006799271795898676
1152.0,0.005543685518205166
1280.0,0.003712603123858571
1408.0,0.002491684164851904
1536.0,0.004477779380977154
1664.0,0.006268245168030262
1792.0,0.007251068949699402
1920.0,0.006363437976688147
2048.0,0.0073434049263596535
2304.0,0.0024708297569304705
2560.0,0.0029471360612660646
2816.0,0.0051002828404307365
3072.0,0.0032378453761339188
3328.0,0.002654038369655609
3584.0,0.003322875127196312
3840.0,0.002855251543223858
4096.0,0.0005857984651811421
4608.0,-0.0014597820118069649
5120.0,-0.0020825874526053667
5632.0,-0.0021540592424571514
6144.0,-0.0025571847800165415
6656.0,-0.007071107160300016
7168.0,-0.003294736612588167
7680.0,-0.0051904465071856976
8192.0,-0.006784213241189718
end
