version,3.0
numOfCh,1
type,point
parent_name,c1204_0dot08-1dot0
ch_type,1_1
kcount,1
numberNandB,1
brightnessNandB,1
carpet pos,0
pc,0
Time (ms),CH1 Auto-Correlation
1.0,0.021731823682785034
2.0,0.021527940407395363
3.0,0.021331556141376495
4.0,0.021143225952982903
5.0,0.020960688591003418
6.0,0.020780984312295914
7.0,0.020613113418221474
8.0,0.020457962527871132
9.0,0.020293716341257095
10.0,0.020132284611463547
11.0,0.01996469497680664
12.0,0.019796617329120636
13.0,0.019633160904049873
14.0,0.01947031356394291
15.0,0.019319159910082817
16.0,0.019174592569470406
18.0,0.01887177675962448
20.0,0.01858382858335972
22.0,0.018307404592633247
24.0,0.01805070787668228
26.0,0.017805714160203934
28.0,0.01756187714636326
30.0,0.0173138827085495
32.0,0.017066936939954758
36.0,0.016607489436864853
40.0,0.016174741089344025
44.0,0.015731848776340485
48.0,0.015302841551601887
52.0,0.014852226711809635
56.0,0.014412462711334229
60.0,0.013975648209452629
64.0,0.013587231747806072
72.0,0.012853657826781273
80.0,0.012218743562698364
88.0,0.011689484119415283
96.0,0.011175354942679405
104.0,0.010645617730915546
112.0,0.010158859193325043
120.0,0.009719899855554104
128.0,0.009380697272717953
144.0,0.008851714432239532
160.0,0.008212012238800526
176.0,0.007673846557736397
192.0,0.007340773940086365
208.0,0.006983059458434582
224.0,0.006637715268880129
240.0,0.006542311981320381
256.0,0.006372726056724787
288.0,0.005593849811702967
320.0,0.004964030347764492
352.0,0.004569384269416332
384.0,0.003800340462476015
416.0,0.0028159141074866056
448.0,0.002065817127004266
480.0,0.002081005135551095
512.0,0.002343153115361929
576.0,0.0019729931373149157
640.0,0.001916128327138722
704.0,0.0007279996643774211
768.0,-0.0006819885456934571
832.0,-0.0010203142883256078
896.0,-0.0007078752387315035
960.0,-0.0009431783109903336
1024.0,-0.0022012002300471067
1152.0,-0.0021548450458794832
1280.0,-0.0007319748983718455
1408.0,-7.568355795228854e-05
1536.0,0.0002486984303686768
1664.0,0.00025193358305841684
1792.0,0.00023514633357990533
1920.0,-0.000978863681666553
2048.0,-0.001765333698131144
2304.0,-3.6369817735248944e-06
2560.0,0.0017664142651483417
2816.0,9.292484173784032e-05
3072.0,-0.0035252177622169256
3328.0,-0.0054667918011546135
3584.0,-0.00509354192763567
3840.0,-0.0023869199212640524
4096.0,0.0009927881183102727
4608.0,0.0016254991060122848
5120.0,0.0013991541927680373
5632.0,0.0008343391818925738
6144.0,-0.00154320418369025
6656.0,0.0004308872448746115
7168.0,0.0013108366401866078
7680.0,-0.0033553768880665302
8192.0,-0.005188296549022198
end
