version,3.0
numOfCh,1
type,point
parent_name,ff67b_0dot08-0dot01
ch_type,1_1
kcount,1
numberNandB,1
brightnessNandB,1
carpet pos,0
pc,0
Time (ms),CH1 Auto-Correlation
1.0,0.035774681717157364
2.0,0.03551573306322098
3.0,0.035255201160907745
4.0,0.034999556839466095
5.0,0.03474845364689827
6.0,0.03449729457497597
7.0,0.034251242876052856
8.0,0.03399749845266342
9.0,0.033750019967556
10.0,0.033501386642456055
11.0,0.033249713480472565
12.0,0.033008553087711334
13.0,0.03276652470231056
14.0,0.03253404423594475
15.0,0.03230404853820801
16.0,0.03208795189857483
18.0,0.03164927288889885
20.0,0.031226299703121185
22.0,0.030817633494734764
24.0,0.030402349308133125
26.0,0.02997155860066414
28.0,0.029546478763222694
30.0,0.029130399227142334
32.0,0.02873709611594677
36.0,0.02793509140610695
40.0,0.027157332748174667
44.0,0.02641368843615055
48.0,0.025695541873574257
52.0,0.024997733533382416
56.0,0.024314772337675095
60.0,0.02366098389029503
64.0,0.0230313278734684
72.0,0.021792162209749222
80.0,0.020632563158869743
88.0,0.019457073882222176
96.0,0.018279382959008217
104.0,0.01716264709830284
112.0,0.01602625660598278
120.0,0.015003958716988564
128.0,0.014142693020403385
144.0,0.01271276455372572
160.0,0.011637533083558083
176.0,0.010742342099547386
192.0,0.009845721535384655
208.0,0.009278613142669201
224.0,0.00923276785761118
240.0,0.009435771964490414
256.0,0.009646262042224407
288.0,0.009923718869686127
320.0,0.010222679935395718
352.0,0.010090271942317486
384.0,0.00973859615623951
416.0,0.008969541639089584
448.0,0.007654442451894283
480.0,0.006941609550267458
512.0,0.006508383899927139
576.0,0.00474720960482955
640.0,0.004473906476050615
704.0,0.0039992742240428925
768.0,0.0027613502461463213
832.0,0.0010624872520565987
896.0,0.0002965062449220568
960.0,0.0017204472096636891
1024.0,0.004146936349570751
1152.0,0.0034820190630853176
1280.0,0.0002864271227736026
1408.0,-0.0011846086708828807
1536.0,-3.3920110581675544e-05
1664.0,-0.001506709959357977
1792.0,4.9563375796424225e-05
1920.0,0.003955130930989981
2048.0,0.004313805140554905
2304.0,0.0003698195214383304
2560.0,-0.002776798326522112
2816.0,-0.0031337288673967123
3072.0,-0.0036794187035411596
3328.0,-0.004738973919302225
3584.0,-0.0069555724039673805
3840.0,-0.005361519288271666
4096.0,-0.005476239137351513
4608.0,-0.008657258935272694
5120.0,-0.006793508771806955
5632.0,-0.005787632893770933
6144.0,-0.004736911039799452
6656.0,-0.0030857084784656763
7168.0,0.0023216712288558483
7680.0,0.005538698751479387
8192.0,0.006186786573380232
end
