version,3.0
numOfCh,1
type,point
parent_name,ff67b_0dot08-0dot01
ch_type,1_1
kcount,1
numberNandB,1
brightnessNandB,1
carpet pos,0
pc,0
Time (ms),CH1 Auto-Correlation
1.0,0.03387381136417389
2.0,0.033609699457883835
3.0,0.03335801512002945
4.0,0.033110782504081726
5.0,0.03286316618323326
6.0,0.032618191093206406
7.0,0.03237202391028404
8.0,0.03212817385792732
9.0,0.03189307078719139
10.0,0.03166569396853447
11.0,0.03143977001309395
12.0,0.031219057738780975
13.0,0.03099539503455162
14.0,0.030778730288147926
15.0,0.030570801347494125
16.0,0.03036491759121418
18.0,0.029972486197948456
20.0,0.029568715021014214
22.0,0.029164399951696396
24.0,0.028750527650117874
26.0,0.028335344046354294
28.0,0.027928190305829048
30.0,0.02753528021275997
32.0,0.0271636713296175
36.0,0.026478128507733345
40.0,0.02586129680275917
44.0,0.025302957743406296
48.0,0.024762418121099472
52.0,0.024259254336357117
56.0,0.023813189938664436
60.0,0.023439601063728333
64.0,0.02308054082095623
72.0,0.022335795685648918
80.0,0.021683279424905777
88.0,0.021027980372309685
96.0,0.020251702517271042
104.0,0.019487256184220314
112.0,0.01877930574119091
120.0,0.018110904842615128
128.0,0.017484204843640327
144.0,0.016558723524212837
160.0,0.01594851166009903
176.0,0.015462739393115044
192.0,0.014840983785688877
208.0,0.014170253649353981
224.0,0.013627718202769756
240.0,0.013296310789883137
256.0,0.012919447384774685
288.0,0.01192454993724823
320.0,0.010725656524300575
352.0,0.009722424671053886
384.0,0.008188501931726933
416.0,0.007259111385792494
448.0,0.007552128750830889
480.0,0.008151976391673088
512.0,0.007769088726490736
576.0,0.005579331889748573
640.0,0.0032818755134940147
704.0,0.0023440751247107983
768.0,0.0005009003216400743
832.0,-0.001506867934949696
896.0,-0.00308498227968812
960.0,-0.0031017055734992027
1024.0,-0.00228423741646111
1152.0,-0.003148466581478715
1280.0,-0.003494162345305085
1408.0,-0.0033073152881115675
1536.0,-0.002630455419421196
1664.0,-0.0020488854497671127
1792.0,-0.0008512544445693493
1920.0,0.000319712795317173
2048.0,0.0029662323649972677
2304.0,0.003964374773204327
2560.0,0.0021684225648641586
2816.0,-0.002018965082243085
3072.0,-0.0025971082504838705
3328.0,-0.003205736167728901
3584.0,0.00041301705641672015
3840.0,0.0016081944340839982
4096.0,0.002417367184534669
4608.0,0.000740310933906585
5120.0,-0.0061843665316700935
5632.0,-0.006385439541190863
6144.0,-0.003967955708503723
6656.0,-0.0029737281147390604
7168.0,0.0037927906960248947
7680.0,-0.0008900328539311886
8192.0,-0.005986369680613279
end
