version,3.0
numOfCh,1
type,point
parent_name,ff67b_0dot08-0dot01
ch_type,1_1
kcount,1
numberNandB,1
brightnessNandB,1
carpet pos,0
pc,0
Time (ms),CH1 Auto-Correlation
1.0,0.05096432566642761
2.0,0.05068978667259216
3.0,0.05041387677192688
4.0,0.05013944208621979
5.0,0.04986676573753357
6.0,0.04959983006119728
7.0,0.04932951182126999
8.0,0.04906407371163368
9.0,0.048800405114889145
10.0,0.048531707376241684
11.0,0.04826420545578003
12.0,0.048004165291786194
13.0,0.04774557426571846
14.0,0.04749317467212677
15.0,0.047249212861061096
16.0,0.047008465975522995
18.0,0.04652915894985199
20.0,0.04605037719011307
22.0,0.0455717071890831
24.0,0.045095719397068024
26.0,0.044630713760852814
28.0,0.044188424944877625
30.0,0.043756090104579926
32.0,0.04334017634391785
36.0,0.04253162816166878
40.0,0.04173806682229042
44.0,0.040977101773023605
48.0,0.040266841650009155
52.0,0.039603639394044876
56.0,0.03898300603032112
60.0,0.03836892172694206
64.0,0.037783797830343246
72.0,0.036755502223968506
80.0,0.03580918535590172
88.0,0.034889593720436096
96.0,0.03391044959425926
104.0,0.032999277114868164
112.0,0.03217513859272003
120.0,0.03138689324259758
128.0,0.0307172741740942
144.0,0.029422568157315254
160.0,0.028074119240045547
176.0,0.026519762352108955
192.0,0.025064613670110703
208.0,0.023998010903596878
224.0,0.023256665095686913
240.0,0.022397762164473534
256.0,0.021208908408880234
288.0,0.01937166042625904
320.0,0.018260201439261436
352.0,0.017343934625387192
384.0,0.016634494066238403
416.0,0.015411590225994587
448.0,0.013935430906713009
480.0,0.012380673550069332
512.0,0.01164163462817669
576.0,0.010980498045682907
640.0,0.010714433155953884
704.0,0.010496208444237709
768.0,0.010899395681917667
832.0,0.010354723781347275
896.0,0.009264343418180943
960.0,0.008401216007769108
1024.0,0.006352659314870834
1152.0,0.003403389360755682
1280.0,0.0026036850176751614
1408.0,0.00028768504853360355
1536.0,-0.0005364036769606173
1664.0,-0.0018041166476905346
1792.0,-0.0020076120272278786
1920.0,0.0004339856968726963
2048.0,0.003074369626119733
2304.0,0.000693943293299526
2560.0,-0.00426667183637619
2816.0,-0.0011521102860569954
3072.0,0.0031308340840041637
3328.0,0.002234872430562973
3584.0,-0.002317451173439622
3840.0,-0.004455194808542728
4096.0,-0.0003525671490933746
4608.0,0.00022720397100783885
5120.0,0.009320146404206753
5632.0,0.0034947465173900127
6144.0,0.003979475703090429
6656.0,-0.0048088189214468
7168.0,-0.009036572650074959
7680.0,-0.019972670823335648
8192.0,-0.017235834151506424
end
