version,3.0
numOfCh,1
type,point
parent_name,ff67b_0dot08-0dot01
ch_type,1_1
kcount,1
numberNandB,1
brightnessNandB,1
carpet pos,0
pc,0
Time (ms),CH1 Auto-Correlation
1.0,0.03842547535896301
2.0,0.03813411667943001
3.0,0.03784759342670441
4.0,0.03756879270076752
5.0,0.0372958667576313
6.0,0.03703094646334648
7.0,0.036766137927770615
8.0,0.03650648519396782
9.0,0.03625025227665901
10.0,0.03599521517753601
11.0,0.03574337065219879
12.0,0.03549445793032646
13.0,0.03525203466415405
14.0,0.03501399978995323
15.0,0.03477529063820839
16.0,0.034542933106422424
18.0,0.034097809344530106
20.0,0.03364712744951248
22.0,0.033210862427949905
24.0,0.032784853130578995
26.0,0.03236180543899536
28.0,0.031934335827827454
30.0,0.031521402299404144
32.0,0.03112911991775036
36.0,0.030415019020438194
40.0,0.029770171269774437
44.0,0.029165033251047134
48.0,0.02859225869178772
52.0,0.028007475659251213
56.0,0.02743218094110489
60.0,0.026860997080802917
64.0,0.02627638913691044
72.0,0.025175387039780617
80.0,0.024056890979409218
88.0,0.023012131452560425
96.0,0.021998794749379158
104.0,0.021105533465743065
112.0,0.020266354084014893
120.0,0.019463464617729187
128.0,0.018796810880303383
144.0,0.017632843926548958
160.0,0.01646672748029232
176.0,0.01556106936186552
192.0,0.014752406626939774
208.0,0.013998400419950485
224.0,0.013292815536260605
240.0,0.012505424208939075
256.0,0.011670653708279133
288.0,0.010447287000715733
320.0,0.00984849501401186
352.0,0.009447871707379818
384.0,0.008746816776692867
416.0,0.007932065054774284
448.0,0.006655258592218161
480.0,0.005876028910279274
512.0,0.0055512068793177605
576.0,0.006621148437261581
640.0,0.007088511250913143
704.0,0.008119511418044567
768.0,0.00898539088666439
832.0,0.008751379325985909
896.0,0.007719211280345917
960.0,0.006947108544409275
1024.0,0.005913708824664354
1152.0,0.0025303640868514776
1280.0,0.0016870523104444146
1408.0,0.0029759416356682777
1536.0,0.0019164716359227896
1664.0,0.00015165336662903428
1792.0,-0.0003968198725488037
1920.0,-0.0017777193570509553
2048.0,-0.003940355498343706
2304.0,-0.0033173635601997375
2560.0,-0.004748216364532709
2816.0,-0.007569027598947287
3072.0,-0.008025490678846836
3328.0,-0.004011915531009436
3584.0,-0.0029555161017924547
3840.0,-0.002008292358368635
4096.0,-0.002215005923062563
4608.0,0.002098026452586055
5120.0,0.004231531638652086
5632.0,0.004752749111503363
6144.0,0.0009756137733347714
6656.0,-0.001979663036763668
7168.0,-0.007710057310760021
7680.0,-0.004973539151251316
8192.0,-0.004073379561305046
end
