version,3.0
numOfCh,1
type,point
parent_name,ff67b_0dot08-0dot01
ch_type,1_1
kcount,1
numberNandB,1
brightnessNandB,1
carpet pos,0
pc,0
Time (ms),CH1 Auto-Correlation
1.0,0.03789851814508438
2.0,0.03761591017246246
3.0,0.03734101727604866
4.0,0.03708326816558838
5.0,0.03683072328567505
6.0,0.036591626703739166
7.0,0.03634718060493469
8.0,0.03609877824783325
9.0,0.03585350513458252
10.0,0.035614535212516785
11.0,0.03538338094949722
12.0,0.03515511006116867
13.0,0.034926675260066986
14.0,0.03469959273934364
15.0,0.034481603652238846
16.0,0.03427024558186531
18.0,0.03385549038648605
20.0,0.033457834273576736
22.0,0.033057600259780884
24.0,0.03264957293868065
26.0,0.03224018216133118
28.0,0.03184551000595093
30.0,0.03145419806241989
32.0,0.031068895012140274
36.0,0.030301637947559357
40.0,0.029565388336777687
44.0,0.0288626030087471
48.0,0.028217127546668053
52.0,0.027583597227931023
56.0,0.02696826681494713
60.0,0.026391012594103813
64.0,0.02581731416285038
72.0,0.02475784346461296
80.0,0.023739153519272804
88.0,0.02275186777114868
96.0,0.02174067497253418
104.0,0.02089822292327881
112.0,0.02023078314960003
120.0,0.019717449322342873
128.0,0.019319819286465645
144.0,0.01866687647998333
160.0,0.018117304891347885
176.0,0.017371468245983124
192.0,0.016505440697073936
208.0,0.015981027856469154
224.0,0.015752114355564117
240.0,0.015574268996715546
256.0,0.015423167496919632
288.0,0.016053497791290283
320.0,0.01589638739824295
352.0,0.015294164419174194
384.0,0.014441795647144318
416.0,0.01357830036431551
448.0,0.012719121761620045
480.0,0.011327995918691158
512.0,0.010070683434605598
576.0,0.007851299829781055
640.0,0.005998643115162849
704.0,0.006584241054952145
768.0,0.008642639964818954
832.0,0.010043947026133537
896.0,0.009305069223046303
960.0,0.007560508791357279
1024.0,0.007069489452987909
1152.0,0.007735061459243298
1280.0,0.005716756917536259
1408.0,0.0036089562345296144
1536.0,0.0011478234082460403
1664.0,0.0005614100955426693
1792.0,-0.0018354450585320592
1920.0,-0.00016870441322680563
2048.0,-0.0015325318090617657
2304.0,-0.003997442778199911
2560.0,-0.006547435186803341
2816.0,-0.004254271741956472
3072.0,-0.001897024572826922
3328.0,-0.0015828240429982543
3584.0,-0.000842859095428139
3840.0,-0.0019594994373619556
4096.0,-0.0015520814340561628
4608.0,-0.0005299214390106499
5120.0,-0.005290716886520386
5632.0,-0.009869011119008064
6144.0,-0.013084480538964272
6656.0,-0.01610727421939373
7168.0,-0.008821854367852211
7680.0,-0.004044828470796347
8192.0,0.0028483679052442312
end
