version,3.0
numOfCh,1
type,point
parent_name,ff67b_0dot08-0dot01
ch_type,1_1
kcount,1
numberNandB,1
brightnessNandB,1
carpet pos,0
pc,0
Time (ms),CH1 Auto-Correlation
1.0,0.02959606610238552
2.0,0.029269276186823845
3.0,0.028951892629265785
4.0,0.02863759733736515
5.0,0.02832663431763649
6.0,0.028024835512042046
7.0,0.027735982090234756
8.0,0.02745077572762966
9.0,0.02716393582522869
10.0,0.02685844525694847
11.0,0.02658133953809738
12.0,0.026323942467570305
13.0,0.026069240644574165
14.0,0.025816339999437332
15.0,0.02558176778256893
16.0,0.025340653955936432
18.0,0.02487698569893837
20.0,0.024435827508568764
22.0,0.024010729044675827
24.0,0.023587241768836975
26.0,0.023154402151703835
28.0,0.02270832471549511
30.0,0.02228093147277832
32.0,0.021850479766726494
36.0,0.021095525473356247
40.0,0.020396225154399872
44.0,0.019694454967975616
48.0,0.01895921677350998
52.0,0.018134882673621178
56.0,0.01725497841835022
60.0,0.016490232199430466
64.0,0.015735093504190445
72.0,0.014239267446100712
80.0,0.012938104569911957
88.0,0.011847562156617641
96.0,0.010947905480861664
104.0,0.010200368240475655
112.0,0.009560372680425644
120.0,0.008968085050582886
128.0,0.008504392579197884
144.0,0.007828393019735813
160.0,0.007493116427212954
176.0,0.007423096802085638
192.0,0.007220504339784384
208.0,0.006947684101760387
224.0,0.007134303916245699
240.0,0.0074641406536102295
256.0,0.007907772436738014
288.0,0.008862522430717945
320.0,0.00884032342582941
352.0,0.007158107124269009
384.0,0.0045808651484549046
416.0,0.002933953423053026
448.0,0.0013891123235225677
480.0,0.0009987950325012207
512.0,0.001179091981612146
576.0,0.004074456170201302
640.0,0.004385638050734997
704.0,0.0034638431388884783
768.0,0.0033200192265212536
832.0,0.0031687517184764147
896.0,0.0033545815385878086
960.0,0.0028030327521264553
1024.0,-0.0004703377780970186
1152.0,-0.0023861853405833244
1280.0,-0.0062916576862335205
1408.0,-0.0073679122142493725
1536.0,-0.00513996509835124
1664.0,-0.0027004710864275694
1792.0,-0.002566015115007758
1920.0,-0.0005252839182503521
2048.0,-0.001484063221141696
2304.0,-0.0028856273274868727
2560.0,2.0193618183839135e-05
2816.0,0.0038037183694541454
3072.0,0.00012451517977751791
3328.0,-0.0023588519543409348
3584.0,-0.00034353669616393745
3840.0,0.0008455297793261707
4096.0,-0.0027550463564693928
4608.0,-0.006764499004930258
5120.0,-0.006323670502752066
5632.0,0.002402382902801037
6144.0,0.009097719565033913
6656.0,0.008535648696124554
7168.0,-0.002695854054763913
7680.0,-0.007734273094683886
8192.0,-0.009205352514982224
end
