version,3.0
numOfCh,1
type,point
parent_name,ff67b_0dot08-0dot01
ch_type,1_1
kcount,1
numberNandB,1
brightnessNandB,1
carpet pos,0
pc,0
Time (ms),CH1 Auto-Correlation
1.0,0.03793254494667053
2.0,0.03765026107430458
3.0,0.03737461194396019
4.0,0.03709471970796585
5.0,0.03681333735585213
6.0,0.03653542324900627
7.0,0.03625533729791641
8.0,0.03598079830408096
9.0,0.035722143948078156
10.0,0.0354749970138073
11.0,0.03523653373122215
12.0,0.03501022607088089
13.0,0.03478000685572624
14.0,0.03453901782631874
15.0,0.03429631516337395
16.0,0.03406078368425369
18.0,0.03360872343182564
20.0,0.03316953778266907
22.0,0.03274080157279968
24.0,0.03231680020689964
26.0,0.03190357983112335
28.0,0.03150443732738495
30.0,0.031125614419579506
32.0,0.030749987810850143
36.0,0.030030498281121254
40.0,0.029342474415898323
44.0,0.028683576732873917
48.0,0.028054026886820793
52.0,0.027466828003525734
56.0,0.0268996711820364
60.0,0.02636396512389183
64.0,0.02580859139561653
72.0,0.024672197178006172
80.0,0.023522425442934036
88.0,0.022411122918128967
96.0,0.0212198868393898
104.0,0.019899573177099228
112.0,0.018688922747969627
120.0,0.017672888934612274
128.0,0.016789911314845085
144.0,0.015250440686941147
160.0,0.013869148679077625
176.0,0.012446113862097263
192.0,0.010991833172738552
208.0,0.00977542344480753
224.0,0.008771436288952827
240.0,0.007713782601058483
256.0,0.006343986839056015
288.0,0.003908395767211914
320.0,0.00242613279260695
352.0,0.0016861940966919065
384.0,0.0018338370136916637
416.0,0.0020693123806267977
448.0,0.002842579735442996
480.0,0.0038105689454823732
512.0,0.00412503769621253
576.0,0.004914672579616308
640.0,0.0045371148735284805
704.0,0.00203414517454803
768.0,0.0006880255532450974
832.0,-0.0009078420116566122
896.0,-0.0019000610336661339
960.0,-0.0009990689577534795
1024.0,0.0003639159258455038
1152.0,0.004404436331242323
1280.0,0.0008541226270608604
1408.0,-0.00598089350387454
1536.0,-0.00877335574477911
1664.0,-0.007523883134126663
1792.0,-0.006028133910149336
1920.0,-0.00598925119265914
2048.0,-0.005885893013328314
2304.0,-0.005360259674489498
2560.0,-0.007675378583371639
2816.0,-0.004885398782789707
3072.0,-0.004819517023861408
3328.0,-0.0017112710047513247
3584.0,0.00020309897081460804
3840.0,0.003661889350041747
4096.0,0.009414429776370525
4608.0,0.0037686643190681934
5120.0,0.0016771538648754358
5632.0,0.0010642987908795476
6144.0,-0.00017236839630641043
6656.0,-0.00632407097145915
7168.0,-0.0006766254082322121
7680.0,-0.003463472705334425
8192.0,9.49347509049403e-07
end
