version,3.0
numOfCh,1
type,point
parent_name,ff67b_0dot08-0dot01
ch_type,1_1
kcount,1
numberNandB,1
brightnessNandB,1
carpet pos,0
pc,0
Time (ms),CH1 Auto-Correlation
1.0,0.030931316316127777
2.0,0.03063768707215786
3.0,0.030353300273418427
4.0,0.03007643111050129
5.0,0.0298053789883852
6.0,0.029538502916693687
7.0,0.029271284118294716
8.0,0.028999069705605507
9.0,0.028726788237690926
10.0,0.0284596998244524
11.0,0.028200529515743256
12.0,0.027952095493674278
13.0,0.027708275243639946
14.0,0.027472885325551033
15.0,0.02724083513021469
16.0,0.027012642472982407
18.0,0.02654646523296833
20.0,0.026087479665875435
22.0,0.02564718760550022
24.0,0.025216737762093544
26.0,0.024781623855233192
28.0,0.02435835637152195
30.0,0.0239432230591774
32.0,0.023526079952716827
36.0,0.022730017080903053
40.0,0.02196115255355835
44.0,0.0212142001837492
48.0,0.02047843299806118
52.0,0.01981760375201702
56.0,0.01925709843635559
60.0,0.018752219155430794
64.0,0.018274979665875435
72.0,0.01732507161796093
80.0,0.01646013744175434
88.0,0.015790803357958794
96.0,0.015203751623630524
104.0,0.01468002051115036
112.0,0.01420503482222557
120.0,0.013798389583826065
128.0,0.013431212864816189
144.0,0.01309629250317812
160.0,0.013043543323874474
176.0,0.012926995754241943
192.0,0.012476588599383831
208.0,0.011726832948625088
224.0,0.010712112300097942
240.0,0.009606586769223213
256.0,0.00894097425043583
288.0,0.007793519180268049
320.0,0.006780161987990141
352.0,0.005973454099148512
384.0,0.005513328593224287
416.0,0.004462040029466152
448.0,0.0042564766481518745
480.0,0.004013358149677515
512.0,0.003618978662416339
576.0,0.0013457456370815635
640.0,0.0007533550960943103
704.0,0.00037049638922326267
768.0,-0.000690943852532655
832.0,-0.0001747845089994371
896.0,0.0005153959500603378
960.0,9.599044278729707e-05
1024.0,0.0014500138349831104
1152.0,0.0033194010611623526
1280.0,0.003100760979577899
1408.0,0.00043013086542487144
1536.0,-0.00010873689461732283
1664.0,-0.0029973224736750126
1792.0,-0.00553432060405612
1920.0,-0.006692728027701378
2048.0,-0.00432727811858058
2304.0,-0.0033489183988422155
2560.0,-0.0025164028629660606
2816.0,-0.0009512709802947938
3072.0,-0.001381868845783174
3328.0,0.0005843142862431705
3584.0,0.0012770564062520862
3840.0,0.0019596763886511326
4096.0,0.002334724413231015
4608.0,0.00378944119438529
5120.0,0.0010972189484164119
5632.0,-0.002451939508318901
6144.0,-0.005037159658968449
6656.0,-0.005349235143512487
7168.0,-0.002056536264717579
7680.0,0.0007028789259493351
8192.0,0.002634648699313402
end
