version,3.0
numOfCh,1
type,point
parent_name,ff67b_0dot08-0dot01
ch_type,1_1
kcount,1
numberNandB,1
brightnessNandB,1
carpet pos,0
pc,0
Time (ms),CH1 Auto-Correlation
1.0,0.03270743414759636
2.0,0.03245257958769798
3.0,0.032205767929553986
4.0,0.03196575120091438
5.0,0.03172791004180908
6.0,0.03149910271167755
7.0,0.03126971796154976
8.0,0.031039921566843987
9.0,0.030813097953796387
10.0,0.030592061579227448
11.0,0.03037448227405548
12.0,0.030155165120959282
13.0,0.029943469911813736
14.0,0.02973492629826069
15.0,0.02952810376882553
16.0,0.029325613752007484
18.0,0.02893308363854885
20.0,0.028532814234495163
22.0,0.02812553569674492
24.0,0.02772185020148754
26.0,0.027329064905643463
28.0,0.02695818617939949
30.0,0.02662031538784504
32.0,0.02631196193397045
36.0,0.025695888325572014
40.0,0.025110486894845963
44.0,0.024601193144917488
48.0,0.024118289351463318
52.0,0.02358856424689293
56.0,0.023005511611700058
60.0,0.022496724501252174
64.0,0.022050969302654266
72.0,0.02120240218937397
80.0,0.02033832110464573
88.0,0.01952359825372696
96.0,0.018799960613250732
104.0,0.018089450895786285
112.0,0.017401523888111115
120.0,0.01678120344877243
128.0,0.016192013397812843
144.0,0.015267307870090008
160.0,0.014282362535595894
176.0,0.01355853769928217
192.0,0.013340000063180923
208.0,0.01310735009610653
224.0,0.012819246388971806
240.0,0.012365828268229961
256.0,0.011794540099799633
288.0,0.011327317915856838
320.0,0.010487577877938747
352.0,0.009367869235575199
384.0,0.008029798977077007
416.0,0.006471875123679638
448.0,0.005047126207500696
480.0,0.003937919624149799
512.0,0.002312466036528349
576.0,-0.0014848156133666635
640.0,-0.003934405744075775
704.0,-0.003994791768491268
768.0,-0.002736479276791215
832.0,-0.002381836296990514
896.0,-0.00254434603266418
960.0,-0.0028678092639893293
1024.0,-0.002936786040663719
1152.0,0.0010568269062787294
1280.0,0.001631734543479979
1408.0,0.001360084512270987
1536.0,0.000765654374845326
1664.0,-0.00034850937663577497
1792.0,-0.0011154336389154196
1920.0,-0.0029443411622196436
2048.0,-0.003716337261721492
2304.0,-0.0053375293500721455
2560.0,-0.007405459880828857
2816.0,-0.0048108878545463085
3072.0,0.0011930791661143303
3328.0,0.006393826566636562
3584.0,0.003929462283849716
3840.0,-0.004548639990389347
4096.0,-0.01136957760900259
4608.0,-0.0038129123859107494
5120.0,0.00010541442316025496
5632.0,-0.0034398799762129784
6144.0,0.003755433950573206
6656.0,0.007581607438623905
7168.0,-0.0003220388025511056
7680.0,-0.006939904764294624
8192.0,0.004021722823381424
end
