version,3.0
numOfCh,1
type,point
parent_name,ff67b_0dot08-0dot01
ch_type,1_1
kcount,1
numberNandB,1
brightnessNandB,1
carpet pos,0
pc,0
Time (ms),CH1 Auto-Correlation
1.0,0.029340611770749092
2.0,0.029098019003868103
3.0,0.02885497361421585
4.0,0.028624000027775764
5.0,0.028393281623721123
6.0,0.028160443529486656
7.0,0.02792956680059433
8.0,0.027703475207090378
9.0,0.027478430420160294
10.0,0.027249179780483246
11.0,0.027028227224946022
12.0,0.026814566925168037
13.0,0.026598475873470306
14.0,0.026382969692349434
15.0,0.02616659365594387
16.0,0.025958267971873283
18.0,0.025553932413458824
20.0,0.02517051063477993
22.0,0.02480357699096203
24.0,0.024429529905319214
26.0,0.02405635640025139
28.0,0.023684188723564148
30.0,0.023319439962506294
32.0,0.02296268753707409
36.0,0.022279608994722366
40.0,0.02164141833782196
44.0,0.021023746579885483
48.0,0.02041279524564743
52.0,0.01984184794127941
56.0,0.019304046407341957
60.0,0.018779713660478592
64.0,0.01831028237938881
72.0,0.01743239536881447
80.0,0.016688022762537003
88.0,0.016063695773482323
96.0,0.015540074557065964
104.0,0.015091340988874435
112.0,0.014610555954277515
120.0,0.014095842838287354
128.0,0.013672558590769768
144.0,0.01286108698695898
160.0,0.012129480950534344
176.0,0.011434192769229412
192.0,0.010840742848813534
208.0,0.010442106053233147
224.0,0.010288645513355732
240.0,0.010223286226391792
256.0,0.009932545945048332
288.0,0.009272400289773941
320.0,0.008541634306311607
352.0,0.007771318778395653
384.0,0.00707232253625989
416.0,0.006656264420598745
448.0,0.006209443788975477
480.0,0.00584831740707159
512.0,0.005597876850515604
576.0,0.0058509549126029015
640.0,0.004899857100099325
704.0,0.0037562332581728697
768.0,0.0023098939564079046
832.0,0.0022651299368590117
896.0,0.0025239763781428337
960.0,0.0030475088860839605
1024.0,0.0027887385804206133
1152.0,0.0013788742944598198
1280.0,0.0012086911592632532
1408.0,-0.0009337954688817263
1536.0,-0.00016165614943020046
1664.0,-0.002227777848020196
1792.0,-0.0024489869829267263
1920.0,-0.00145336939021945
2048.0,-0.0006342718261294067
2304.0,0.00011996833927696571
2560.0,-0.0014805590035393834
2816.0,-0.0017735592555254698
3072.0,0.0012589156394824386
3328.0,-0.0003866922634188086
3584.0,-0.002191117499023676
3840.0,-0.004298263695091009
4096.0,-0.00394807755947113
4608.0,-0.0034897972363978624
5120.0,-0.0070602260529994965
5632.0,-0.0072387102991342545
6144.0,-0.006641646381467581
6656.0,0.00105844356585294
7168.0,0.003432854078710079
7680.0,0.0030945006292313337
8192.0,-0.00022541411453858018
end
