version,3.0
numOfCh,1
type,point
parent_name,ff67b_0dot08-0dot01
ch_type,1_1
kcount,1
numberNandB,1
brightnessNandB,1
carpet pos,0
pc,0
Time (ms),CH1 Auto-Correlation
1.0,0.0367606021463871
2.0,0.03644097223877907
3.0,0.03612469136714935
4.0,0.03580908477306366
5.0,0.03550596535205841
6.0,0.03521406278014183
7.0,0.03493526950478554
8.0,0.034661903977394104
9.0,0.03439243510365486
10.0,0.03414241969585419
11.0,0.033889178186655045
12.0,0.03363112732768059
13.0,0.03337490186095238
14.0,0.03311776742339134
15.0,0.03287317231297493
16.0,0.03262225538492203
18.0,0.03215531259775162
20.0,0.03167858347296715
22.0,0.0312320739030838
24.0,0.030818453058600426
26.0,0.030408231541514397
28.0,0.02998453937470913
30.0,0.02956310287117958
32.0,0.02914155088365078
36.0,0.028336448594927788
40.0,0.02751515805721283
44.0,0.026746492832899094
48.0,0.026062587276101112
52.0,0.025436805561184883
56.0,0.024820690974593163
60.0,0.02426335960626602
64.0,0.023735590279102325
72.0,0.02263886108994484
80.0,0.021644743159413338
88.0,0.020769162103533745
96.0,0.01999865286052227
104.0,0.019258510321378708
112.0,0.01851559616625309
120.0,0.017740493640303612
128.0,0.01707564853131771
144.0,0.015587550587952137
160.0,0.014424504712224007
176.0,0.013496849685907364
192.0,0.012777416966855526
208.0,0.012232749722898006
224.0,0.011933849193155766
240.0,0.01191545370966196
256.0,0.011967389844357967
288.0,0.011454178020358086
320.0,0.010276866145431995
352.0,0.00862120371311903
384.0,0.007446696981787682
416.0,0.0065969922579824924
448.0,0.005975206382572651
480.0,0.004827842116355896
512.0,0.003565410617738962
576.0,0.0027878291439265013
640.0,0.003225268330425024
704.0,0.0037830884102731943
768.0,0.00454673869535327
832.0,0.0043851775117218494
896.0,0.0032745630014687777
960.0,0.002556914696469903
1024.0,0.0025231814943253994
1152.0,0.00427146116271615
1280.0,0.003975271712988615
1408.0,0.0018419628031551838
1536.0,-0.0016877325251698494
1664.0,-0.0024991354439407587
1792.0,-0.001088809920474887
1920.0,-0.001640729489736259
2048.0,0.0011372537119314075
2304.0,0.0007088732090778649
2560.0,-2.5022593035828322e-05
2816.0,9.79914257186465e-05
3072.0,-0.0005096491659060121
3328.0,0.0021200396586209536
3584.0,-0.003201480023562908
3840.0,-0.0041288346983492374
4096.0,-0.005557842552661896
4608.0,-0.010014067403972149
5120.0,-0.011091195046901703
5632.0,-0.005536631681025028
6144.0,0.0021603007335215807
6656.0,0.0032263258472085
7168.0,-0.002234336221590638
7680.0,-0.0009590875124558806
8192.0,-0.0007040479104034603
end
