version,3.0
numOfCh,1
type,point
parent_name,ff67b_0dot08-0dot01
ch_type,1_1
kcount,1
numberNandB,1
brightnessNandB,1
carpet pos,0
pc,0
Time (ms),CH1 Auto-Correlation
1.0,0.03560648858547211
2.0,0.035283010452985764
3.0,0.03496507927775383
4.0,0.03465654328465462
5.0,0.03436494991183281
6.0,0.03408125415444374
7.0,0.03381019085645676
8.0,0.033548448234796524
9.0,0.03330014646053314
10.0,0.03304586187005043
11.0,0.0327887237071991
12.0,0.0325239859521389
13.0,0.0322653129696846
14.0,0.03201460465788841
15.0,0.03178292140364647
16.0,0.03155190125107765
18.0,0.03104572556912899
20.0,0.030595596879720688
22.0,0.03014884889125824
24.0,0.029710927978157997
26.0,0.029285594820976257
28.0,0.02888069488108158
30.0,0.028489334508776665
32.0,0.028107764199376106
36.0,0.027282942086458206
40.0,0.026587961241602898
44.0,0.02596493437886238
48.0,0.02544625848531723
52.0,0.02497570589184761
56.0,0.024535201489925385
60.0,0.02412467449903488
64.0,0.023748651146888733
72.0,0.022967593744397163
80.0,0.02232459746301174
88.0,0.02182004787027836
96.0,0.021391265094280243
104.0,0.020990723744034767
112.0,0.02059725672006607
120.0,0.020122293382883072
128.0,0.019454171881079674
144.0,0.018086545169353485
160.0,0.016979428008198738
176.0,0.01617654785513878
192.0,0.01520682405680418
208.0,0.014323864132165909
224.0,0.013452247716486454
240.0,0.012287845835089684
256.0,0.011381440795958042
288.0,0.009257953613996506
320.0,0.007345044054090977
352.0,0.005266411695629358
384.0,0.003634420922026038
416.0,0.002548304619267583
448.0,0.0019820595625787973
480.0,0.0011751753045246005
512.0,-6.644337554462254e-05
576.0,-0.0022012051194906235
640.0,-0.0021855763625353575
704.0,-0.001464762957766652
768.0,-7.727690899628215e-06
832.0,0.0005958124529570341
896.0,0.0019569694995880127
960.0,0.003009459935128689
1024.0,0.0029229111969470978
1152.0,0.002209101803600788
1280.0,0.002284112386405468
1408.0,0.0016606115968897939
1536.0,0.001050235703587532
1664.0,0.00031840027077123523
1792.0,-0.0026072782929986715
1920.0,-0.0032287270296365023
2048.0,-0.005134455859661102
2304.0,-0.007051963824778795
2560.0,-0.0013828981900587678
2816.0,0.0014748176326975226
3072.0,-0.002207719022408128
3328.0,-0.004265591036528349
3584.0,-0.003860368160530925
3840.0,0.0007534231408499181
4096.0,0.003967904020100832
4608.0,0.003957998938858509
5120.0,0.005165972746908665
5632.0,4.503275704337284e-05
6144.0,0.00027163000777363777
6656.0,-0.0009650796419009566
7168.0,-0.0017226454801857471
7680.0,-0.0044682822190225124
8192.0,-0.013683637604117393
end
