version,3.0
numOfCh,1
type,point
parent_name,ff67b_0dot08-0dot01
ch_type,1_1
kcount,1
numberNandB,1
brightnessNandB,1
carpet pos,0
pc,0
Time (ms),CH1 Auto-Correlation
1.0,0.03274279087781906
2.0,0.032447610050439835
3.0,0.03216022625565529
4.0,0.03188147395849228
5.0,0.03161000460386276
6.0,0.03134109079837799
7.0,0.031074918806552887
8.0,0.030807388946413994
9.0,0.030549416318535805
10.0,0.0303032249212265
11.0,0.030068237334489822
12.0,0.02984568662941456
13.0,0.029621882364153862
14.0,0.029389047995209694
15.0,0.02918221987783909
16.0,0.02898392081260681
18.0,0.028608353808522224
20.0,0.028244320303201675
22.0,0.027880825102329254
24.0,0.027509989216923714
26.0,0.027157453820109367
28.0,0.02684018202126026
30.0,0.026545686647295952
32.0,0.02627372555434704
36.0,0.025743233039975166
40.0,0.025240467861294746
44.0,0.02475355565547943
48.0,0.024269310757517815
52.0,0.02383868396282196
56.0,0.02344439923763275
60.0,0.02307678945362568
64.0,0.022733572870492935
72.0,0.021954236552119255
80.0,0.021017994731664658
88.0,0.019893066957592964
96.0,0.01892295479774475
104.0,0.018224438652396202
112.0,0.017475906759500504
120.0,0.016744986176490784
128.0,0.016114115715026855
144.0,0.015070701949298382
160.0,0.013847161084413528
176.0,0.012947802431881428
192.0,0.01222632359713316
208.0,0.011178902350366116
224.0,0.01008232869207859
240.0,0.009386475197970867
256.0,0.008947428315877914
288.0,0.0077415513806045055
320.0,0.00678299181163311
352.0,0.0064986953511834145
384.0,0.004582342691719532
416.0,0.003438520012423396
448.0,0.0026291459798812866
480.0,0.0007082316442392766
512.0,-0.0008530775085091591
576.0,-0.0037170706782490015
640.0,-0.003052476327866316
704.0,-0.001740221749059856
768.0,-0.0034791005309671164
832.0,-0.006849274039268494
896.0,-0.01054326631128788
960.0,-0.011384636163711548
1024.0,-0.01079061720520258
1152.0,-0.010072830133140087
1280.0,-0.009172404184937477
1408.0,-0.009558966383337975
1536.0,-0.008826528675854206
1664.0,-0.0075098141096532345
1792.0,-0.003901083255186677
1920.0,0.00041281463927589357
2048.0,0.0060088904574513435
2304.0,0.008018014021217823
2560.0,0.01278673205524683
2816.0,0.011044268496334553
3072.0,-0.002911434043198824
3328.0,-0.01529393158853054
3584.0,-0.011904573999345303
3840.0,-0.003252339782193303
4096.0,-0.004082644823938608
end
