version,3.0
numOfCh,1
type,point
parent_name,ff67b_0dot08-0dot01
ch_type,1_1
kcount,1
numberNandB,1
brightnessNandB,1
carpet pos,0
pc,0
Time (ms),CH1 Auto-Correlation
1.0,0.14475128054618835
2.0,0.14209498465061188
3.0,0.13939018547534943
4.0,0.13649362325668335
5.0,0.13368414342403412
6.0,0.13084156811237335
7.0,0.12799909710884094
8.0,0.1251167356967926
9.0,0.12219934165477753
10.0,0.11920802295207977
11.0,0.11616280674934387
12.0,0.11313392221927643
13.0,0.1100764125585556
14.0,0.10715784877538681
15.0,0.10413137078285217
16.0,0.10114870965480804
18.0,0.09517915546894073
20.0,0.0891234502196312
22.0,0.08313807100057602
24.0,0.07708317786455154
26.0,0.07114981859922409
28.0,0.06516300141811371
30.0,0.05926358327269554
32.0,0.05331910029053688
36.0,0.042204905301332474
40.0,0.03131667524576187
44.0,0.025894809514284134
48.0,0.02543797716498375
52.0,0.02507033757865429
56.0,0.024677367880940437
60.0,0.024306029081344604
64.0,0.024070320650935173
72.0,0.023784061893820763
80.0,0.02292885072529316
88.0,0.021649034693837166
96.0,0.020118243992328644
104.0,0.018459094688296318
112.0,0.016439568251371384
120.0,0.015109183266758919
128.0,0.014267800375819206
144.0,0.01247851736843586
160.0,0.010941824875772
176.0,0.010182462632656097
192.0,0.010969785042107105
208.0,0.012026582844555378
224.0,0.011653225868940353
240.0,0.010955024510622025
256.0,0.011130604892969131
288.0,0.010897860862314701
320.0,0.006774079520255327
352.0,0.00530548021197319
384.0,0.003351833438500762
416.0,0.002120513468980789
448.0,0.0014017814537510276
480.0,0.0033124061301350594
512.0,0.0048864842392504215
576.0,0.004012249410152435
640.0,0.0025365385226905346
704.0,0.00023932999465614557
768.0,-0.0004568053991533816
832.0,-3.065466444240883e-05
896.0,-4.4060310756321996e-05
960.0,6.61066806060262e-05
1024.0,-0.00012028236233163625
1152.0,-0.0025942306965589523
1280.0,-0.004872468300163746
1408.0,-0.00433327117934823
1536.0,-0.0027788300067186356
1664.0,-0.003114986000582576
1792.0,-0.004147164523601532
1920.0,-0.0019873897545039654
2048.0,-0.0006468039355240762
2304.0,0.0008513960056006908
2560.0,0.005350442137569189
2816.0,0.005967701319605112
3072.0,0.00508715258911252
3328.0,0.004060209263116121
3584.0,0.004326041787862778
3840.0,0.0030181482434272766
4096.0,0.0010548142017796636
4608.0,-0.003764186752960086
5120.0,-0.010391839779913425
5632.0,-0.007516766898334026
6144.0,0.001285936450585723
6656.0,0.005873608402907848
7168.0,0.0044956388883292675
7680.0,-0.011912117712199688
8192.0,-0.0052987951785326
end
