version,3.0
numOfCh,1
type,point
parent_name,ff67b_0dot08-0dot01
ch_type,1_1
kcount,1
numberNandB,1
brightnessNandB,1
carpet pos,0
pc,0
Time (ms),CH1 Auto-Correlation
1.0,0.03472979739308357
2.0,0.034462857991456985
3.0,0.03419170156121254
4.0,0.03391934558749199
5.0,0.03365383669734001
6.0,0.03339182212948799
7.0,0.03313368186354637
8.0,0.03287970647215843
9.0,0.03263377025723457
10.0,0.03239407390356064
11.0,0.03216072916984558
12.0,0.031928978860378265
13.0,0.031704679131507874
14.0,0.031489137560129166
15.0,0.03127448260784149
16.0,0.031055916100740433
18.0,0.030642371624708176
20.0,0.03023673966526985
22.0,0.029842833057045937
24.0,0.02947041019797325
26.0,0.029117746278643608
28.0,0.02878549136221409
30.0,0.02846512198448181
32.0,0.028138160705566406
36.0,0.027455473318696022
40.0,0.02680446021258831
44.0,0.02619941718876362
48.0,0.02560339868068695
52.0,0.025024129077792168
56.0,0.024497902020812035
60.0,0.02398267574608326
64.0,0.02346421591937542
72.0,0.02247387357056141
80.0,0.021539144217967987
88.0,0.02062670886516571
96.0,0.019649982452392578
104.0,0.01871972717344761
112.0,0.01796700991690159
120.0,0.017335616052150726
128.0,0.016740331426262856
144.0,0.015885047614574432
160.0,0.01502193696796894
176.0,0.014251504093408585
192.0,0.013595418073236942
208.0,0.01286842580884695
224.0,0.011860236525535583
240.0,0.010876019485294819
256.0,0.009879068471491337
288.0,0.008492113091051579
320.0,0.007663107942789793
352.0,0.007243480067700148
384.0,0.0067075686529278755
416.0,0.005824789870530367
448.0,0.004325860645622015
480.0,0.002571173245087266
512.0,0.001335885375738144
576.0,-0.0001032473737723194
640.0,0.00010937947081401944
704.0,0.00018662888032849878
768.0,0.0008013619808480144
832.0,-5.0256738177267835e-05
896.0,-0.0016106509137898684
960.0,-0.003719070926308632
1024.0,-0.004236771259456873
1152.0,-0.0034650510642677546
1280.0,-0.0015823032008484006
1408.0,-0.0006132535054348409
1536.0,-0.00020891815074719489
1664.0,-0.0008585469331592321
1792.0,-0.002417678479105234
1920.0,-0.0035343992058187723
2048.0,-0.0029692393727600574
2304.0,-0.0007527541019953787
2560.0,0.002011016709730029
2816.0,0.000363171478966251
3072.0,-0.0011594416573643684
3328.0,-0.004593773279339075
3584.0,-0.0021533938124775887
3840.0,0.003999353386461735
4096.0,0.008078581653535366
4608.0,0.005788048729300499
5120.0,-0.0035811651032418013
5632.0,0.0004260681162122637
6144.0,-0.007947075180709362
6656.0,-0.0031363137532025576
7168.0,0.0006614673184230924
7680.0,-0.003233677940443158
8192.0,0.002975934650748968
end
