version,3.0
numOfCh,1
type,point
parent_name,ff67b_0dot08-0dot01
ch_type,1_1
kcount,1
numberNandB,1
brightnessNandB,1
carpet pos,0
pc,0
Time (ms),CH1 Auto-Correlation
1.0,0.045893341302871704
2.0,0.045614149421453476
3.0,0.04534025490283966
4.0,0.04506273195147514
5.0,0.044791098684072495
6.0,0.04452308267354965
7.0,0.04425854608416557
8.0,0.04399924352765083
9.0,0.043750159442424774
10.0,0.0434996597468853
11.0,0.04325355589389801
12.0,0.043011944741010666
13.0,0.04276948422193527
14.0,0.04252692684531212
15.0,0.04228626564145088
16.0,0.04204115271568298
18.0,0.04155906289815903
20.0,0.041098225861787796
22.0,0.04066454991698265
24.0,0.04025477543473244
26.0,0.039864473044872284
28.0,0.039482712745666504
30.0,0.03910531476140022
32.0,0.03876636177301407
36.0,0.03814452141523361
40.0,0.037569332867860794
44.0,0.037053246051073074
48.0,0.03654919192194939
52.0,0.03602588176727295
56.0,0.03552061691880226
60.0,0.03505191579461098
64.0,0.03464527800679207
72.0,0.033899709582328796
80.0,0.03316113352775574
88.0,0.032374124974012375
96.0,0.03155895322561264
104.0,0.030693231150507927
112.0,0.029843617230653763
120.0,0.02887941151857376
128.0,0.027839405462145805
144.0,0.025747548788785934
160.0,0.024455903097987175
176.0,0.023709721863269806
192.0,0.02294640988111496
208.0,0.022035304456949234
224.0,0.021311212331056595
240.0,0.020678948611021042
256.0,0.01998285762965679
288.0,0.01913641206920147
320.0,0.01841176301240921
352.0,0.017964918166399002
384.0,0.018084757030010223
416.0,0.017475593835115433
448.0,0.01631311886012554
480.0,0.014977783896028996
512.0,0.014590066857635975
576.0,0.013354652561247349
640.0,0.01227144431322813
704.0,0.011460415087640285
768.0,0.010553088039159775
832.0,0.009420874528586864
896.0,0.008202609606087208
960.0,0.006476053036749363
1024.0,0.004922885913401842
1152.0,1.4188776731316466e-05
1280.0,-0.004052224103361368
1408.0,-0.005684777162969112
1536.0,-0.006840835325419903
1664.0,-0.007660337258130312
1792.0,-0.0067147258669137955
1920.0,-0.008585208095610142
2048.0,-0.009784422814846039
2304.0,-0.007369665428996086
2560.0,-0.0031708490569144487
2816.0,0.0008629268850199878
3072.0,0.004766716621816158
3328.0,0.008280955255031586
3584.0,0.008965411223471165
3840.0,0.007553094532340765
4096.0,0.007348461542278528
4608.0,-0.006525545846670866
5120.0,-0.011616505682468414
5632.0,-0.01252495776861906
6144.0,-0.005495625082403421
6656.0,-0.0018445845926180482
7168.0,-0.006786789279431105
7680.0,-0.0026259508449584246
8192.0,-0.01249965000897646
end
