version,3.0
numOfCh,1
type,point
parent_name,ff67b_0dot08-0dot01
ch_type,1_1
kcount,1
numberNandB,1
brightnessNandB,1
carpet pos,0
pc,0
Time (ms),CH1 Auto-Correlation
1.0,0.03680757060647011
2.0,0.03653184697031975
3.0,0.036253854632377625
4.0,0.035989198833703995
5.0,0.035731129348278046
6.0,0.03547469899058342
7.0,0.035221658647060394
8.0,0.034967318177223206
9.0,0.034720126539468765
10.0,0.03446590527892113
11.0,0.03421786427497864
12.0,0.033977314829826355
13.0,0.03375143185257912
14.0,0.033534858375787735
15.0,0.03331898897886276
16.0,0.033105332404375076
18.0,0.03269357234239578
20.0,0.032293692231178284
22.0,0.031912170350551605
24.0,0.03154902905225754
26.0,0.031196577474474907
28.0,0.030848737806081772
30.0,0.03051096387207508
32.0,0.030205557122826576
36.0,0.029634034261107445
40.0,0.029116366058588028
44.0,0.02861080691218376
48.0,0.028117770329117775
52.0,0.027649734169244766
56.0,0.027210379019379616
60.0,0.026780685409903526
64.0,0.026338700205087662
72.0,0.02543136104941368
80.0,0.024536043405532837
88.0,0.023675765842199326
96.0,0.022919461131095886
104.0,0.022289175540208817
112.0,0.021741833537817
120.0,0.02114246040582657
128.0,0.02051607146859169
144.0,0.01913585141301155
160.0,0.017919212579727173
176.0,0.01669151894748211
192.0,0.015498110093176365
208.0,0.014628414995968342
224.0,0.014040429145097733
240.0,0.013621828518807888
256.0,0.013164394535124302
288.0,0.012042137794196606
320.0,0.01007412001490593
352.0,0.008511978201568127
384.0,0.0077211144380271435
416.0,0.007796995807439089
448.0,0.007901918143033981
480.0,0.007892862893640995
512.0,0.00807120930403471
576.0,0.007120662368834019
640.0,0.006787682417780161
704.0,0.007077549584209919
768.0,0.006424698978662491
832.0,0.0061770109459757805
896.0,0.005848390515893698
960.0,0.005566212814301252
1024.0,0.0065008969977498055
1152.0,0.008054625242948532
1280.0,0.007366841193288565
1408.0,0.006647828966379166
1536.0,0.005110516678541899
1664.0,0.0016233171336352825
1792.0,-0.0011015803320333362
1920.0,-0.0016629777383059263
2048.0,-0.0008374993340112269
2304.0,-0.005672497674822807
2560.0,-0.007375639863312244
2816.0,-0.009170924313366413
3072.0,-0.009566196240484715
3328.0,-0.011469008401036263
3584.0,-0.010389798320829868
3840.0,-0.010453504510223866
4096.0,-0.008643453940749168
4608.0,-0.006619597785174847
5120.0,-0.005253680516034365
5632.0,0.0006127188098616898
6144.0,0.0037661551032215357
6656.0,0.004551945719867945
7168.0,0.006312399171292782
7680.0,0.009346026927232742
8192.0,0.0062197912484407425
end
