version,3.0
numOfCh,1
type,point
parent_name,ff67b_0dot08-0dot01
ch_type,1_1
kcount,1
numberNandB,1
brightnessNandB,1
carpet pos,0
pc,0
Time (ms),CH1 Auto-Correlation
1.0,0.03153056278824806
2.0,0.031250838190317154
3.0,0.03096793405711651
4.0,0.03068726882338524
5.0,0.030411722138524055
6.0,0.030138572677969933
7.0,0.029867645353078842
8.0,0.029604149982333183
9.0,0.029337158426642418
10.0,0.029070766642689705
11.0,0.028805365785956383
12.0,0.028539834544062614
13.0,0.02827952243387699
14.0,0.028024420142173767
15.0,0.02777445688843727
16.0,0.0275337602943182
18.0,0.027058091014623642
20.0,0.02657638117671013
22.0,0.02610606513917446
24.0,0.025657935068011284
26.0,0.025237595662474632
28.0,0.024831797927618027
30.0,0.024436092004179955
32.0,0.0240535419434309
36.0,0.0233046505600214
40.0,0.022578010335564613
44.0,0.021885553374886513
48.0,0.021241631358861923
52.0,0.020675869658589363
56.0,0.020195983350276947
60.0,0.01981036551296711
64.0,0.019528374075889587
72.0,0.019073540344834328
80.0,0.01863853633403778
88.0,0.01824585162103176
96.0,0.01779877580702305
104.0,0.017387624830007553
112.0,0.01701711118221283
120.0,0.01659378968179226
128.0,0.0161471925675869
144.0,0.015216605737805367
160.0,0.014336958527565002
176.0,0.013429825194180012
192.0,0.01248241774737835
208.0,0.011759260669350624
224.0,0.011104332283139229
240.0,0.010536059737205505
256.0,0.010121702216565609
288.0,0.009304603561758995
320.0,0.008861496113240719
352.0,0.008486766368150711
384.0,0.008033291436731815
416.0,0.007791768293827772
448.0,0.007392002269625664
480.0,0.007048896513879299
512.0,0.007104494608938694
576.0,0.00756041007116437
640.0,0.006635219324380159
704.0,0.006064903922379017
768.0,0.006383334286510944
832.0,0.005740668158978224
896.0,0.005845498293638229
960.0,0.006501778494566679
1024.0,0.005656749941408634
1152.0,0.0035627810284495354
1280.0,0.00043854478280991316
1408.0,-0.000717972288839519
1536.0,-0.00033019526745192707
1664.0,-0.0006316617946140468
1792.0,0.0004876334860455245
1920.0,0.0022295857779681683
2048.0,0.0019249508623033762
2304.0,-0.0019905692897737026
2560.0,-0.0043321093544363976
2816.0,-0.0007325237384065986
3072.0,-0.0017608008347451687
3328.0,-0.004734367597848177
3584.0,-0.0030852314084768295
3840.0,0.0017125637969002128
4096.0,-0.0010977311758324504
4608.0,0.0007824830245226622
5120.0,-5.567082189372741e-05
5632.0,-0.002654979471117258
6144.0,-0.00458470918238163
6656.0,-0.00484296353533864
7168.0,-0.007394710090011358
7680.0,-0.006668237969279289
8192.0,-0.004061910789459944
end
