version,3.0
numOfCh,1
type,point
parent_name,ff67b_0dot08-0dot01
ch_type,1_1
kcount,1
numberNandB,1
brightnessNandB,1
carpet pos,0
pc,0
Time (ms),CH1 Auto-Correlation
1.0,0.03855941444635391
2.0,0.03825470060110092
3.0,0.03795785456895828
4.0,0.03766942396759987
5.0,0.03738728538155556
6.0,0.03711673989892006
7.0,0.03684519976377487
8.0,0.03658488392829895
9.0,0.036315515637397766
10.0,0.03605791926383972
11.0,0.035798121243715286
12.0,0.03554078936576843
13.0,0.035287775099277496
14.0,0.035052813589572906
15.0,0.034824173897504807
16.0,0.03458051756024361
18.0,0.03411001339554787
20.0,0.03364410623908043
22.0,0.033191338181495667
24.0,0.032756950706243515
26.0,0.03233766555786133
28.0,0.031945377588272095
30.0,0.03157166391611099
32.0,0.031195614486932755
36.0,0.030455544590950012
40.0,0.029710067436099052
44.0,0.028983091935515404
48.0,0.02833770588040352
52.0,0.027743952348828316
56.0,0.02719135209918022
60.0,0.026643697172403336
64.0,0.02612798474729061
72.0,0.025103352963924408
80.0,0.02418692782521248
88.0,0.02328738011419773
96.0,0.02237669564783573
104.0,0.021447613835334778
112.0,0.020669644698500633
120.0,0.020023763179779053
128.0,0.01949579454958439
144.0,0.018845153972506523
160.0,0.018101049587130547
176.0,0.017169266939163208
192.0,0.016160154715180397
208.0,0.014785997569561005
224.0,0.01331342663615942
240.0,0.012043002992868423
256.0,0.010701179504394531
288.0,0.008355565369129181
320.0,0.006587001029402018
352.0,0.005882534198462963
384.0,0.005440845619887114
416.0,0.005400313995778561
448.0,0.004746296443045139
480.0,0.004383348394185305
512.0,0.004479844588786364
576.0,0.004335479345172644
640.0,0.0042072623036801815
704.0,0.0034360275603830814
768.0,0.0025769814383238554
832.0,0.00269394856877625
896.0,0.0007802991312928498
960.0,-0.003116511506959796
1024.0,-0.005648992024362087
1152.0,-0.008601372130215168
1280.0,-0.007345391903072596
1408.0,-0.005321254953742027
1536.0,-0.0017865034751594067
1664.0,-0.001435411861166358
1792.0,-0.0006569528486579657
1920.0,-0.00032012854353524745
2048.0,0.0019238102249801159
2304.0,0.004374361597001553
2560.0,-0.0010630061151459813
2816.0,-0.0028087771497666836
3072.0,-0.011028269305825233
3328.0,-0.014374667778611183
3584.0,-0.009406711906194687
3840.0,-0.0044098966754972935
4096.0,-0.002190572675317526
4608.0,0.0058905635960400105
5120.0,0.0008607408381067216
5632.0,-0.00011375767644494772
6144.0,0.007013692986220121
6656.0,0.0008777622133493423
7168.0,0.0046297344379127026
7680.0,-0.0023439787328243256
8192.0,7.63954667490907e-05
end
