version,3.0
numOfCh,1
type,point
parent_name,ff67b_0dot08-0dot01
ch_type,1_1
kcount,1
numberNandB,1
brightnessNandB,1
carpet pos,0
pc,0
Time (ms),CH1 Auto-Correlation
1.0,0.05497504025697708
2.0,0.05454867705702782
3.0,0.054133761674165726
4.0,0.05371581017971039
5.0,0.05330051854252815
6.0,0.052885353565216064
7.0,0.05247766152024269
8.0,0.05209878832101822
9.0,0.05174536630511284
10.0,0.05139828845858574
11.0,0.051067400723695755
12.0,0.050755005329847336
13.0,0.05044175311923027
14.0,0.05011644586920738
15.0,0.04978345334529877
16.0,0.04945083335042
18.0,0.048632439225912094
20.0,0.048021100461483
22.0,0.04748176038265228
24.0,0.046938229352235794
26.0,0.04638464376330376
28.0,0.045773714780807495
30.0,0.04511876776814461
32.0,0.04445919021964073
36.0,0.043281715363264084
40.0,0.042235903441905975
44.0,0.0411653146147728
48.0,0.040029700845479965
52.0,0.038979001343250275
56.0,0.037965115159749985
60.0,0.036948833614587784
64.0,0.03601284697651863
72.0,0.03339730575680733
80.0,0.03141775354743004
88.0,0.029459191486239433
96.0,0.027771301567554474
104.0,0.026216642931103706
112.0,0.024156585335731506
120.0,0.022179847583174706
128.0,0.020614314824342728
144.0,0.015977950766682625
160.0,0.013252285309135914
176.0,0.011083828285336494
192.0,0.009400819428265095
208.0,0.007855328731238842
224.0,0.006473726127296686
240.0,0.005079020280390978
256.0,0.003959400579333305
288.0,0.003256009193137288
320.0,0.0024762311950325966
352.0,0.0011058220406994224
384.0,0.0008995854295790195
416.0,0.0005121869617141783
448.0,0.000705741171259433
480.0,0.0011849241564050317
512.0,0.0007014356087893248
576.0,-0.0007577834185212851
640.0,-0.0012357612140476704
704.0,-0.004177198279649019
768.0,-0.005698200780898333
832.0,-0.006483667995780706
896.0,-0.006430742796510458
960.0,-0.0075819287449121475
1024.0,-0.006839614361524582
1152.0,-0.006470394320785999
1280.0,-0.009527933783829212
1408.0,-0.006637193262577057
1536.0,-0.005957047920674086
1664.0,-0.0021881761495023966
1792.0,0.005432829260826111
1920.0,0.006501182913780212
2048.0,-0.0010812565451487899
2304.0,-0.0040876008570194244
2560.0,0.0021422116551548243
2816.0,0.00279493210837245
3072.0,0.005294515285640955
3328.0,0.008745558559894562
3584.0,0.008573447354137897
3840.0,-0.003911501262336969
4096.0,-0.01521033700555563
end
