version,3.0
numOfCh,1
type,point
parent_name,ff67b_0dot08-0dot01
ch_type,1_1
kcount,1
numberNandB,1
brightnessNandB,1
carpet pos,0
pc,0
Time (ms),CH1 Auto-Correlation
1.0,0.033223092555999756
2.0,0.03292732685804367
3.0,0.032629795372486115
4.0,0.03232509270310402
5.0,0.032025180757045746
6.0,0.03173292800784111
7.0,0.03145160898566246
8.0,0.031175661832094193
9.0,0.030910592526197433
10.0,0.03064785525202751
11.0,0.030390409752726555
12.0,0.030139684677124023
13.0,0.029892783612012863
14.0,0.029661651700735092
15.0,0.029431981965899467
16.0,0.02920706383883953
18.0,0.028749652206897736
20.0,0.028297243639826775
22.0,0.027850238606333733
24.0,0.02741028182208538
26.0,0.02697659470140934
28.0,0.02655811794102192
30.0,0.026146341115236282
32.0,0.02575073391199112
36.0,0.02498823031783104
40.0,0.02420513704419136
44.0,0.023439478129148483
48.0,0.02272704988718033
52.0,0.022080982103943825
56.0,0.02146284654736519
60.0,0.02083868533372879
64.0,0.020192978903651237
72.0,0.01901896856725216
80.0,0.017928604036569595
88.0,0.01693558692932129
96.0,0.016029758378863335
104.0,0.015232675708830357
112.0,0.014660222455859184
120.0,0.014186306856572628
128.0,0.013774891383945942
144.0,0.012798230163753033
160.0,0.011730625294148922
176.0,0.010580576956272125
192.0,0.009507616981863976
208.0,0.00886293314397335
224.0,0.008454710245132446
240.0,0.007999061606824398
256.0,0.007661907467991114
288.0,0.007381819654256105
320.0,0.006678963080048561
352.0,0.00575231621041894
384.0,0.005192792974412441
416.0,0.004977941047400236
448.0,0.0047715334221720695
480.0,0.004372130148112774
512.0,0.003954602871090174
576.0,0.002162148244678974
640.0,0.00010379054583609104
704.0,-0.0006006764015182853
768.0,-0.00028394334367476404
832.0,0.0003891643136739731
896.0,1.988420626730658e-05
960.0,-0.0014764426741749048
1024.0,-0.0026536814402788877
1152.0,-0.003690780373290181
1280.0,-0.0030755505431443453
1408.0,-0.0027294533792883158
1536.0,-0.004981511272490025
1664.0,-0.0020181224681437016
1792.0,0.0010992141906172037
1920.0,0.00033452315255999565
2048.0,0.0005578084383159876
2304.0,0.0019547129049897194
2560.0,0.0021761907264590263
2816.0,0.0013592528412118554
3072.0,-0.00010621202818583697
3328.0,-0.0019156940979883075
3584.0,-0.003545073326677084
3840.0,-0.006418014410883188
4096.0,-0.0038915048353374004
4608.0,-0.0019191986648365855
5120.0,0.004307453986257315
5632.0,0.004407770466059446
6144.0,-0.005380986724048853
6656.0,-0.008728551678359509
7168.0,-0.006111647933721542
7680.0,-0.0011233881814405322
8192.0,-0.0008556277025490999
end
