version,3.0
numOfCh,1
type,point
parent_name,ff67b_0dot08-0dot01
ch_type,1_1
kcount,1
numberNandB,1
brightnessNandB,1
carpet pos,0
pc,0
Time (ms),CH1 Auto-Correlation
1.0,0.08710898458957672
2.0,0.08642148226499557
3.0,0.08580441772937775
4.0,0.08520489186048508
5.0,0.08460882306098938
6.0,0.08402630686759949
7.0,0.0834355279803276
8.0,0.08287281543016434
9.0,0.08228503167629242
10.0,0.081636942923069
11.0,0.08096236735582352
12.0,0.08029720932245255
13.0,0.07960663735866547
14.0,0.0788826122879982
15.0,0.07822000980377197
16.0,0.07757111638784409
18.0,0.0761195570230484
20.0,0.07465503364801407
22.0,0.07318200916051865
24.0,0.07173462957143784
26.0,0.07028987258672714
28.0,0.06889820098876953
30.0,0.067569300532341
32.0,0.06619460880756378
36.0,0.06335195899009705
40.0,0.06071119382977486
44.0,0.05794624239206314
48.0,0.055479519069194794
52.0,0.053025972098112106
56.0,0.050900157541036606
60.0,0.04900107532739639
64.0,0.047582536935806274
72.0,0.044253721833229065
80.0,0.043285638093948364
88.0,0.042706698179244995
96.0,0.042059849947690964
104.0,0.041760604828596115
112.0,0.04161950573325157
120.0,0.04112888500094414
128.0,0.04005664587020874
144.0,0.03429914265871048
160.0,0.028429578989744186
176.0,0.02340281754732132
192.0,0.020475704222917557
208.0,0.020450355485081673
224.0,0.021059272810816765
240.0,0.0217080470174551
256.0,0.022308900952339172
288.0,0.020722050219774246
320.0,0.01812949776649475
352.0,0.014850952662527561
384.0,0.010113115422427654
416.0,0.006075599696487188
448.0,0.001846771570853889
480.0,0.00015698566858191043
512.0,-0.00023065024288371205
576.0,0.0018600451294332743
640.0,0.007152463309466839
704.0,0.009493966586887836
768.0,0.006309613585472107
832.0,0.003696338040754199
896.0,0.0031351596117019653
960.0,0.002360220532864332
1024.0,-0.0004967738059349358
1152.0,0.0011865724809467793
1280.0,-0.0001586746657267213
1408.0,0.0015625449595972896
1536.0,0.0037262029945850372
1664.0,0.004753923509269953
1792.0,0.010667607188224792
1920.0,0.010356489568948746
2048.0,0.00651745218783617
2304.0,-0.0039689005352556705
2560.0,-0.01404055766761303
2816.0,-0.008727469481527805
3072.0,-0.0006246243137866259
3328.0,-0.0093248151242733
3584.0,-0.012882892042398453
3840.0,-0.01171480305492878
4096.0,-0.011974754743278027
end
