version,3.0
numOfCh,1
type,point
parent_name,ff67b_0dot08-0dot01
ch_type,1_1
kcount,1
numberNandB,1
brightnessNandB,1
carpet pos,0
pc,0
Time (ms),CH1 Auto-Correlation
1.0,0.12096529453992844
2.0,0.12028280645608902
3.0,0.11957348883152008
4.0,0.11891748011112213
5.0,0.11828159540891647
6.0,0.11764882504940033
7.0,0.11702869832515717
8.0,0.11642468720674515
9.0,0.11589466780424118
10.0,0.11536921560764313
11.0,0.11487355828285217
12.0,0.11435068398714066
13.0,0.11380675435066223
14.0,0.11329276859760284
15.0,0.1127907931804657
16.0,0.11228837072849274
18.0,0.11129791289567947
20.0,0.11026876419782639
22.0,0.10923077166080475
24.0,0.10808916389942169
26.0,0.10690734535455704
28.0,0.1057426854968071
30.0,0.10454942286014557
32.0,0.10333627462387085
36.0,0.1002812311053276
40.0,0.0976691022515297
44.0,0.09521621465682983
48.0,0.09278779476881027
52.0,0.09055602550506592
56.0,0.08833824843168259
60.0,0.0860905796289444
64.0,0.08394664525985718
72.0,0.07954797148704529
80.0,0.07503398507833481
88.0,0.07019737362861633
96.0,0.06520558148622513
104.0,0.0596558079123497
112.0,0.053698841482400894
120.0,0.04838266223669052
128.0,0.04332970455288887
144.0,0.03412269800901413
160.0,0.028227686882019043
176.0,0.023436017334461212
192.0,0.01955305226147175
208.0,0.014308207668364048
224.0,0.010199741460382938
240.0,0.007108451332896948
256.0,0.006777158007025719
288.0,0.00543465930968523
320.0,0.004373506642878056
352.0,0.003576827934011817
384.0,0.002541117137297988
416.0,0.0010770453372970223
448.0,-0.00012925527698826045
480.0,-0.000865472829900682
512.0,-0.0008526790188625455
576.0,-0.0005283677019178867
640.0,-0.0007988942670635879
704.0,-0.0018242992227897048
768.0,-0.00034147792030125856
832.0,0.0005189039511606097
896.0,-0.002811254933476448
960.0,-0.004826448392122984
1024.0,-0.006956254597753286
1152.0,-0.0062128398567438126
1280.0,-0.002211332553997636
1408.0,-0.0010605150600895286
1536.0,-0.00016825919738039374
1664.0,-0.0019522132351994514
1792.0,-0.008323408663272858
1920.0,-0.006048065144568682
2048.0,-0.003329830477014184
2304.0,-0.003763239597901702
2560.0,0.0005762550281360745
2816.0,0.004411434754729271
3072.0,0.0065043168142437935
3328.0,0.0024867700412869453
3584.0,0.0010729124769568443
3840.0,-0.0009420372662134469
4096.0,0.00044594492646865547
4608.0,0.004953633528202772
5120.0,0.005268414039164782
5632.0,0.006420889403671026
6144.0,0.0027418944519013166
6656.0,-0.00838504359126091
7168.0,-0.007323086727410555
7680.0,-0.0011458866065368056
8192.0,0.0029827251564711332
end
