version,3.0
numOfCh,1
type,point
parent_name,dirty_3dot0-0dot01
ch_type,1_1
kcount,1
numberNandB,1
brightnessNandB,1
carpet pos,0
pc,0
Time (ms),CH1 Auto-Correlation
1.0,0.480911523103714
2.0,0.4796156883239746
3.0,0.47858601808547974
4.0,0.47771155834198
5.0,0.4769349694252014
6.0,0.47624632716178894
7.0,0.47560828924179077
8.0,0.4750136137008667
9.0,0.4744947552680969
10.0,0.4739781320095062
11.0,0.4734903872013092
12.0,0.47300583124160767
13.0,0.47255873680114746
14.0,0.4720969498157501
15.0,0.471650093793869
16.0,0.47120583057403564
18.0,0.47037264704704285
20.0,0.46951979398727417
22.0,0.46864253282546997
24.0,0.4678203761577606
26.0,0.46699953079223633
28.0,0.4662606418132782
30.0,0.4655870795249939
32.0,0.4649713933467865
36.0,0.4635447561740875
40.0,0.4621230363845825
44.0,0.46061721444129944
48.0,0.4590918719768524
52.0,0.4577052593231201
56.0,0.4564307928085327
60.0,0.45510679483413696
64.0,0.45380353927612305
72.0,0.45130398869514465
80.0,0.44851669669151306
88.0,0.4457129240036011
96.0,0.4431515634059906
104.0,0.4408643841743469
112.0,0.4389134347438812
120.0,0.43704479932785034
128.0,0.4350844621658325
144.0,0.43162915110588074
160.0,0.42795512080192566
176.0,0.4244173765182495
192.0,0.4209953248500824
208.0,0.41730228066444397
224.0,0.4131375551223755
240.0,0.4082778990268707
256.0,0.4032495319843292
288.0,0.39153170585632324
320.0,0.38017499446868896
352.0,0.369689017534256
384.0,0.35981038212776184
416.0,0.34908464550971985
448.0,0.33720412850379944
480.0,0.32560619711875916
512.0,0.3154062330722809
576.0,0.29390689730644226
640.0,0.2714199125766754
704.0,0.2533332109451294
768.0,0.23666048049926758
832.0,0.22108560800552368
896.0,0.20645159482955933
960.0,0.19401055574417114
1024.0,0.17866501212120056
1152.0,0.1577737033367157
1280.0,0.14149236679077148
1408.0,0.12320474535226822
1536.0,0.0997701957821846
1664.0,0.07463808357715607
1792.0,0.05071358010172844
1920.0,0.020326795056462288
2048.0,-0.007930821739137173
2304.0,-0.03589997440576553
2560.0,-0.04015810415148735
2816.0,-0.03550365939736366
3072.0,-0.022174084559082985
3328.0,-0.040171779692173004
3584.0,-0.06915351003408432
3840.0,-0.07910709828138351
4096.0,-0.0489504374563694
4608.0,-0.024041714146733284
5120.0,-0.08891680836677551
5632.0,-0.13034559786319733
6144.0,-0.10388338565826416
6656.0,-0.04259414225816727
7168.0,0.08744174987077713
7680.0,0.20859065651893616
8192.0,0.23656804859638214
9216.0,0.16819773614406586
10240.0,-0.13554823398590088
11264.0,-0.27835115790367126
12288.0,-0.3850315511226654
13312.0,-0.4891176223754883
14336.0,-0.5560715198516846
end
