version,3.0
numOfCh,1
type,point
parent_name,dirty_3dot0-0dot01
ch_type,1_1
kcount,1
numberNandB,1
brightnessNandB,1
carpet pos,0
pc,0
Time (ms),CH1 Auto-Correlation
1.0,0.7912110090255737
2.0,0.7894749641418457
3.0,0.7880629301071167
4.0,0.7868828773498535
5.0,0.7858383059501648
6.0,0.7849054336547852
7.0,0.7840457558631897
8.0,0.783210813999176
9.0,0.7824485898017883
10.0,0.7817389965057373
11.0,0.7809939384460449
12.0,0.7802833914756775
13.0,0.7796343564987183
14.0,0.7790898084640503
15.0,0.7785525918006897
16.0,0.7780032157897949
18.0,0.776915431022644
20.0,0.7757638096809387
22.0,0.7745716571807861
24.0,0.773339033126831
26.0,0.7721554636955261
28.0,0.7709222435951233
30.0,0.7695891261100769
32.0,0.7682932615280151
36.0,0.7657887935638428
40.0,0.7632997035980225
44.0,0.7609604001045227
48.0,0.7589221000671387
52.0,0.7566636204719543
56.0,0.7544300556182861
60.0,0.7522334456443787
64.0,0.7499292492866516
72.0,0.7447949647903442
80.0,0.7396044731140137
88.0,0.734356164932251
96.0,0.7293882966041565
104.0,0.7241266965866089
112.0,0.7189939618110657
120.0,0.7139980792999268
128.0,0.7093791365623474
144.0,0.7003574967384338
160.0,0.6925947070121765
176.0,0.6841070055961609
192.0,0.6758386492729187
208.0,0.6694636940956116
224.0,0.6648239493370056
240.0,0.6601323485374451
256.0,0.655686616897583
288.0,0.6493279933929443
320.0,0.6451185345649719
352.0,0.6433472037315369
384.0,0.6431725025177002
416.0,0.6444207429885864
448.0,0.6440550088882446
480.0,0.6430317163467407
512.0,0.6422443389892578
576.0,0.6404223442077637
640.0,0.6359378099441528
704.0,0.6187012195587158
768.0,0.5979008078575134
832.0,0.5736923217773438
896.0,0.5501556396484375
960.0,0.5310449004173279
1024.0,0.5109707117080688
1152.0,0.48981159925460815
1280.0,0.4757246971130371
1408.0,0.44847384095191956
1536.0,0.4130816161632538
1664.0,0.37063419818878174
1792.0,0.3282923698425293
1920.0,0.2942984402179718
2048.0,0.2754487097263336
2304.0,0.20484530925750732
2560.0,0.11536049097776413
2816.0,0.04061981663107872
3072.0,-0.053594622761011124
3328.0,-0.15210019052028656
3584.0,-0.2016998678445816
3840.0,-0.2549067735671997
4096.0,-0.2893846333026886
4608.0,-0.31102949380874634
5120.0,-0.30494242906570435
5632.0,-0.29772916436195374
6144.0,-0.2853405773639679
6656.0,-0.2717067003250122
7168.0,-0.2597556412220001
7680.0,-0.24603621661663055
8192.0,-0.27533188462257385
9216.0,-0.29444420337677
10240.0,-0.231331005692482
11264.0,-0.12818072736263275
12288.0,0.10389643907546997
13312.0,0.21166472136974335
14336.0,0.239874467253685
end
