version,3.0
numOfCh,1
type,point
parent_name,dirty_3dot0-0dot01
ch_type,1_1
kcount,1
numberNandB,1
brightnessNandB,1
carpet pos,0
pc,0
Time (ms),CH1 Auto-Correlation
1.0,0.6020972728729248
2.0,0.6003973484039307
3.0,0.599000871181488
4.0,0.5977896451950073
5.0,0.5966735482215881
6.0,0.5956136584281921
7.0,0.5946556925773621
8.0,0.5937310457229614
9.0,0.5928342938423157
10.0,0.5919996500015259
11.0,0.5912583470344543
12.0,0.5905276536941528
13.0,0.5897781848907471
14.0,0.5890044569969177
15.0,0.5883047580718994
16.0,0.5876458883285522
18.0,0.5864088535308838
20.0,0.5851323008537292
22.0,0.5838014483451843
24.0,0.5825481414794922
26.0,0.5814197063446045
28.0,0.5802833437919617
30.0,0.5791406631469727
32.0,0.5779498219490051
36.0,0.5752517580986023
40.0,0.5724598169326782
44.0,0.569694995880127
48.0,0.5670284628868103
52.0,0.5645974278450012
56.0,0.5621455311775208
60.0,0.5594339966773987
64.0,0.5568750500679016
72.0,0.5515167713165283
80.0,0.5463562607765198
88.0,0.5415240526199341
96.0,0.5371183753013611
104.0,0.5323761701583862
112.0,0.5274634957313538
120.0,0.522498607635498
128.0,0.5172494053840637
144.0,0.5053609013557434
160.0,0.49305790662765503
176.0,0.47943398356437683
192.0,0.46564823389053345
208.0,0.4518783390522003
224.0,0.43827348947525024
240.0,0.4249137341976166
256.0,0.4125742018222809
288.0,0.38745853304862976
320.0,0.36046749353408813
352.0,0.33332040905952454
384.0,0.31074491143226624
416.0,0.2893192172050476
448.0,0.26768529415130615
480.0,0.24372363090515137
512.0,0.22241690754890442
576.0,0.18892556428909302
640.0,0.15762732923030853
704.0,0.1330621987581253
768.0,0.11163754761219025
832.0,0.09087419509887695
896.0,0.07394333928823471
960.0,0.05205869302153587
1024.0,0.032705917954444885
1152.0,0.010808991268277168
1280.0,0.014813159592449665
1408.0,0.04557209834456444
1536.0,0.08482688665390015
1664.0,0.11992968618869781
1792.0,0.13365775346755981
1920.0,0.12252447754144669
2048.0,0.09701287746429443
2304.0,0.022848259657621384
2560.0,-0.028118688613176346
2816.0,-0.03450770303606987
3072.0,0.0211583711206913
3328.0,0.10023051500320435
3584.0,0.12528976798057556
3840.0,0.07937248796224594
4096.0,0.021802406758069992
4608.0,-0.08601706475019455
5120.0,-0.1490250527858734
5632.0,-0.21741017699241638
6144.0,-0.256857305765152
6656.0,-0.24564379453659058
7168.0,-0.16426469385623932
7680.0,3.610002750065178e-05
8192.0,0.010250688530504704
9216.0,-0.12164406478404999
10240.0,-0.03071608394384384
11264.0,-0.018186980858445168
12288.0,0.23550401628017426
13312.0,-0.0661628320813179
14336.0,-0.20113374292850494
end
