version,3.0
numOfCh,1
type,point
parent_name,dirty_3dot0-0dot01
ch_type,1_1
kcount,1
numberNandB,1
brightnessNandB,1
carpet pos,0
pc,0
Time (ms),CH1 Auto-Correlation
1.0,0.3559127151966095
2.0,0.35228458046913147
3.0,0.3495306074619293
4.0,0.3472590446472168
5.0,0.34543827176094055
6.0,0.3438381850719452
7.0,0.3423892855644226
8.0,0.3410167396068573
9.0,0.3398478627204895
10.0,0.3386468291282654
11.0,0.3375701904296875
12.0,0.33649784326553345
13.0,0.33553260564804077
14.0,0.33469465374946594
15.0,0.3336695432662964
16.0,0.33282455801963806
18.0,0.33119767904281616
20.0,0.3296659290790558
22.0,0.32809844613075256
24.0,0.3262946605682373
26.0,0.32424479722976685
28.0,0.3221999406814575
30.0,0.32036247849464417
32.0,0.31844469904899597
36.0,0.31438860297203064
40.0,0.310438334941864
44.0,0.3065997064113617
48.0,0.303039014339447
52.0,0.29967910051345825
56.0,0.29691997170448303
60.0,0.29421013593673706
64.0,0.2919280230998993
72.0,0.288663774728775
80.0,0.28629255294799805
88.0,0.2850348651409149
96.0,0.28466367721557617
104.0,0.2850520610809326
112.0,0.2859061360359192
120.0,0.2871135473251343
128.0,0.28796592354774475
144.0,0.28862088918685913
160.0,0.288068562746048
176.0,0.284755676984787
192.0,0.27871882915496826
208.0,0.2722577154636383
224.0,0.26754143834114075
240.0,0.2635079622268677
256.0,0.26115161180496216
288.0,0.25179538130760193
320.0,0.2388100028038025
352.0,0.22753578424453735
384.0,0.21830126643180847
416.0,0.20876364409923553
448.0,0.19589628279209137
480.0,0.1785128116607666
512.0,0.16066445410251617
576.0,0.14695660769939423
640.0,0.12416020780801773
704.0,0.0974828377366066
768.0,0.08197091519832611
832.0,0.07588626444339752
896.0,0.0643254742026329
960.0,0.058187272399663925
1024.0,0.058777134865522385
1152.0,0.05262087285518646
1280.0,0.051568493247032166
1408.0,0.0508122555911541
1536.0,0.042727258056402206
1664.0,0.03503282368183136
1792.0,0.018021896481513977
1920.0,0.0034071924164891243
2048.0,-0.012762784026563168
2304.0,-0.029250578954815865
2560.0,-0.03986728563904762
2816.0,-0.04583115503191948
3072.0,-0.047970134764909744
3328.0,-0.04772865027189255
3584.0,-0.04653701186180115
3840.0,-0.04745787754654884
4096.0,-0.05480210855603218
4608.0,-0.06614962965250015
5120.0,-0.06730812042951584
5632.0,-0.08106296509504318
6144.0,-0.0870235487818718
6656.0,-0.07481224834918976
7168.0,-0.07371724396944046
7680.0,-0.08329237997531891
8192.0,-0.04415097460150719
9216.0,0.019013799726963043
10240.0,0.035135138779878616
11264.0,0.03556204214692116
12288.0,0.03746911138296127
13312.0,0.03737135976552963
14336.0,0.03397750109434128
end
