version,3.0
numOfCh,1
type,point
parent_name,dirty_3dot0-0dot01
ch_type,1_1
kcount,1
numberNandB,1
brightnessNandB,1
carpet pos,0
pc,0
Time (ms),CH1 Auto-Correlation
1.0,0.028401410207152367
2.0,0.023514993488788605
3.0,0.02009606920182705
4.0,0.017565416172146797
5.0,0.015743298456072807
6.0,0.01431623101234436
7.0,0.013086264953017235
8.0,0.01207901444286108
9.0,0.011244269087910652
10.0,0.01056293211877346
11.0,0.00979552697390318
12.0,0.009203859604895115
13.0,0.008696877397596836
14.0,0.008326447568833828
15.0,0.007870849221944809
16.0,0.007274304050952196
18.0,0.0063775950111448765
20.0,0.005627079866826534
22.0,0.005284550599753857
24.0,0.005017541814595461
26.0,0.004608671646565199
28.0,0.00432100985199213
30.0,0.004104956053197384
32.0,0.003828614018857479
36.0,0.003312229411676526
40.0,0.0028863439802080393
44.0,0.002662580693140626
48.0,0.0024373861961066723
52.0,0.0021934211254119873
56.0,0.0019799345172941685
60.0,0.0018679896602407098
64.0,0.0015290561132133007
72.0,0.0013199097011238337
80.0,0.0009410962811671197
88.0,0.0002490785263944417
96.0,0.00012377466191537678
104.0,0.00045768264681100845
112.0,0.0005605556070804596
120.0,0.001159366685897112
128.0,0.0012262436794117093
144.0,0.0009410835918970406
160.0,0.0012943616602569818
176.0,0.0011819107457995415
192.0,0.0005535483360290527
208.0,-0.00020565817249007523
224.0,0.0001877741888165474
240.0,7.358132279478014e-05
256.0,-0.00020247734209988266
288.0,-0.0004517001216299832
320.0,-0.0008888010634109378
352.0,-0.0003971923724748194
384.0,0.00040978699689731
416.0,0.0016699436819180846
448.0,0.0004856050945818424
480.0,0.00012122774933231995
512.0,0.00046917726285755634
576.0,0.0005946264718659222
640.0,-0.00031389156356453896
704.0,-0.000165990277309902
768.0,0.00038935913471505046
832.0,0.0015417352551594377
896.0,0.0012015289394184947
960.0,0.0004517821071203798
1024.0,0.0005738587351515889
1152.0,0.00027047336334362626
1280.0,0.000810373923741281
1408.0,-0.00010795723210321739
1536.0,-0.0009398518595844507
1664.0,2.954084993689321e-05
1792.0,0.0003808325855061412
1920.0,-7.6610769610852e-05
2048.0,0.0005112689104862511
2304.0,0.00041534387855790555
2560.0,1.7367314285365865e-05
2816.0,0.000543705653399229
3072.0,0.0006761997356079519
3328.0,0.0006024572649039328
3584.0,0.0005709656397812068
3840.0,-2.9956119760754518e-05
4096.0,6.757660594303161e-05
4608.0,5.207376307225786e-05
5120.0,-0.00039433856727555394
5632.0,-0.00034167192643508315
6144.0,-0.0002538242260925472
6656.0,-9.155571751762182e-05
7168.0,-0.0005855837371200323
7680.0,-1.2963918152308906e-06
8192.0,-0.00023121721460483968
9216.0,-0.0005077976384200156
10240.0,-0.0005758894258178771
11264.0,1.180836079583969e-05
12288.0,-0.000869380368385464
13312.0,-0.0006226496770977974
14336.0,-0.0006143786595202982
end
