version,3.0
numOfCh,1
type,point
parent_name,dirty_3dot0-0dot01
ch_type,1_1
kcount,1
numberNandB,1
brightnessNandB,1
carpet pos,0
pc,0
Time (ms),CH1 Auto-Correlation
1.0,0.5588733553886414
2.0,0.5564116835594177
3.0,0.5545585751533508
4.0,0.5530788898468018
5.0,0.5518020391464233
6.0,0.550689160823822
7.0,0.5496841073036194
8.0,0.5486915707588196
9.0,0.5477861166000366
10.0,0.546885073184967
11.0,0.5460340976715088
12.0,0.5453652143478394
13.0,0.5447999835014343
14.0,0.5441797375679016
15.0,0.5435481071472168
16.0,0.5429725646972656
18.0,0.5418235659599304
20.0,0.5409100651741028
22.0,0.5402244329452515
24.0,0.5395740270614624
26.0,0.5389364957809448
28.0,0.5382293462753296
30.0,0.5374559164047241
32.0,0.5364940762519836
36.0,0.5347860455513
40.0,0.5330050587654114
44.0,0.5318330526351929
48.0,0.5308948159217834
52.0,0.529910683631897
56.0,0.5290193557739258
60.0,0.5282526612281799
64.0,0.5271361470222473
72.0,0.5246741771697998
80.0,0.52238929271698
88.0,0.5213066339492798
96.0,0.5196844339370728
104.0,0.5176383852958679
112.0,0.5157030820846558
120.0,0.5141934752464294
128.0,0.5122988820075989
144.0,0.5097375512123108
160.0,0.5070692300796509
176.0,0.5033637881278992
192.0,0.4998645484447479
208.0,0.49667462706565857
224.0,0.4927523732185364
240.0,0.48757049441337585
256.0,0.4809541404247284
288.0,0.4705641567707062
320.0,0.4607623219490051
352.0,0.45022013783454895
384.0,0.4407474398612976
416.0,0.4302096664905548
448.0,0.4168981611728668
480.0,0.40614253282546997
512.0,0.39489904046058655
576.0,0.3731784224510193
640.0,0.34836992621421814
704.0,0.32321038842201233
768.0,0.29594501852989197
832.0,0.2750193178653717
896.0,0.24922457337379456
960.0,0.2176435887813568
1024.0,0.1883717179298401
1152.0,0.13552305102348328
1280.0,0.09316975623369217
1408.0,0.06529837846755981
1536.0,0.042489297688007355
1664.0,0.018765602260828018
1792.0,0.004667442757636309
1920.0,-0.007059736177325249
2048.0,-0.01931983232498169
2304.0,-0.026812711730599403
2560.0,-0.030906496569514275
2816.0,-0.030563924461603165
3072.0,-0.029196327552199364
3328.0,-0.030907858163118362
3584.0,-0.03498535975813866
3840.0,-0.03718655928969383
4096.0,-0.04023672267794609
4608.0,-0.047656361013650894
5120.0,-0.053255368024110794
5632.0,-0.05958137288689613
6144.0,-0.07215776294469833
6656.0,-0.08557294309139252
7168.0,-0.09492282569408417
7680.0,-0.10135721415281296
8192.0,-0.11052911728620529
9216.0,-0.1378927081823349
10240.0,-0.16936510801315308
11264.0,-0.23990498483181
12288.0,-0.08925680816173553
13312.0,0.3770366311073303
14336.0,0.21489275991916656
end
