version,3.0
numOfCh,1
type,point
parent_name,dirty_3dot0-0dot01
ch_type,1_1
kcount,1
numberNandB,1
brightnessNandB,1
carpet pos,0
pc,0
Time (ms),CH1 Auto-Correlation
1.0,0.2441636323928833
2.0,0.24159447848796844
3.0,0.2395893633365631
4.0,0.23803552985191345
5.0,0.23671138286590576
6.0,0.23562800884246826
7.0,0.23463653028011322
8.0,0.2337261438369751
9.0,0.23285259306430817
10.0,0.23196375370025635
11.0,0.23110388219356537
12.0,0.23029881715774536
13.0,0.22960422933101654
14.0,0.2288680523633957
15.0,0.2282213717699051
16.0,0.22755439579486847
18.0,0.22627487778663635
20.0,0.22526182234287262
22.0,0.22423449158668518
24.0,0.22305215895175934
26.0,0.22186751663684845
28.0,0.22067587077617645
30.0,0.21952049434185028
32.0,0.21828420460224152
36.0,0.21588262915611267
40.0,0.21337203681468964
44.0,0.21088907122612
48.0,0.20858603715896606
52.0,0.20614221692085266
56.0,0.20385736227035522
60.0,0.20179735124111176
64.0,0.19959405064582825
72.0,0.19511348009109497
80.0,0.19139501452445984
88.0,0.18781723082065582
96.0,0.1839982569217682
104.0,0.18031062185764313
112.0,0.17660647630691528
120.0,0.17273107171058655
128.0,0.1683996319770813
144.0,0.1602320522069931
160.0,0.15274260938167572
176.0,0.14633195102214813
192.0,0.14070731401443481
208.0,0.1356891393661499
224.0,0.13028180599212646
240.0,0.12501591444015503
256.0,0.11957185715436935
288.0,0.10830049961805344
320.0,0.09922719746828079
352.0,0.09175816178321838
384.0,0.08455813676118851
416.0,0.07969289273023605
448.0,0.07741271704435349
480.0,0.0736413225531578
512.0,0.06888408213853836
576.0,0.06120336800813675
640.0,0.05200091004371643
704.0,0.04665159061551094
768.0,0.041745275259017944
832.0,0.04157278314232826
896.0,0.04303750768303871
960.0,0.040763311088085175
1024.0,0.035066816955804825
1152.0,0.026817018166184425
1280.0,0.021290626376867294
1408.0,0.016954516991972923
1536.0,0.02274889312684536
1664.0,0.03227367252111435
1792.0,0.04799053445458412
1920.0,0.0630476251244545
2048.0,0.06425400078296661
2304.0,0.06765467673540115
2560.0,0.028695914894342422
2816.0,-0.0011168605415150523
3072.0,-0.027700018137693405
3328.0,-0.04590970277786255
3584.0,-0.04716576635837555
3840.0,-0.029716942459344864
4096.0,-0.015221028588712215
4608.0,-0.003237087046727538
5120.0,0.0012209955602884293
5632.0,0.006367603316903114
6144.0,0.00760357640683651
6656.0,0.01038819458335638
7168.0,0.0008457806543447077
7680.0,0.02604999765753746
8192.0,-0.04519066959619522
9216.0,-0.07541153579950333
10240.0,-0.07550084590911865
11264.0,-0.08658667653799057
12288.0,-0.07313156127929688
13312.0,-0.01617683470249176
14336.0,-0.048990827053785324
end
