version,3.0
numOfCh,1
type,point
parent_name,dirty_3dot0-0dot01
ch_type,1_1
kcount,1
numberNandB,1
brightnessNandB,1
carpet pos,0
pc,0
Time (ms),CH1 Auto-Correlation
1.0,0.049827493727207184
2.0,0.0453282929956913
3.0,0.042335301637649536
4.0,0.039993904531002045
5.0,0.038025472313165665
6.0,0.03637785091996193
7.0,0.03496774286031723
8.0,0.03396129235625267
9.0,0.0331919826567173
10.0,0.03234054893255234
11.0,0.03150639683008194
12.0,0.030751273036003113
13.0,0.03024376556277275
14.0,0.029948536306619644
15.0,0.029750218614935875
16.0,0.029529394581913948
18.0,0.029061831533908844
20.0,0.02852686680853367
22.0,0.02808450721204281
24.0,0.027547992765903473
26.0,0.027345871552824974
28.0,0.02705715224146843
30.0,0.02656790427863598
32.0,0.026272982358932495
36.0,0.025444479659199715
40.0,0.024832339957356453
44.0,0.024212777614593506
48.0,0.023772045969963074
52.0,0.023588230833411217
56.0,0.023032333701848984
60.0,0.02292492240667343
64.0,0.022957446053624153
72.0,0.0218972060829401
80.0,0.021115247160196304
88.0,0.020392585545778275
96.0,0.02004336193203926
104.0,0.01955714076757431
112.0,0.018992861732840538
120.0,0.01811981201171875
128.0,0.01784915290772915
144.0,0.01827387325465679
160.0,0.017741823568940163
176.0,0.017671072855591774
192.0,0.01816387288272381
208.0,0.017944810912013054
224.0,0.017267683520913124
240.0,0.017249789088964462
256.0,0.016059475019574165
288.0,0.014021326787769794
320.0,0.013366630300879478
352.0,0.013260377570986748
384.0,0.013457171618938446
416.0,0.013726224191486835
448.0,0.012469993904232979
480.0,0.011130229569971561
512.0,0.010270479135215282
576.0,0.007982112467288971
640.0,0.006081509403884411
704.0,0.005401502829045057
768.0,0.0039056786336004734
832.0,0.0036592651158571243
896.0,0.002849109936505556
960.0,0.0027445617597550154
1024.0,0.0017800437053665519
1152.0,0.0004907861584797502
1280.0,0.0014206848572939634
1408.0,7.572271715616807e-05
1536.0,0.0014108197065070271
1664.0,0.0020003176759928465
1792.0,0.0023247443605214357
1920.0,0.00011296156299067661
2048.0,0.00012646755203604698
2304.0,-0.00017643031605985016
2560.0,0.0008576910477131605
2816.0,0.0004838752211071551
3072.0,-0.0008363507222384214
3328.0,-0.0019101935904473066
3584.0,-0.001783540821634233
3840.0,-0.0031596950720995665
4096.0,-0.0027652319986373186
4608.0,0.0003579203621484339
5120.0,0.0018027094192802906
5632.0,-0.00013082221266813576
6144.0,-0.0014835866168141365
6656.0,-0.0028169003780931234
7168.0,-0.0028233162593096495
7680.0,-0.001592084881849587
8192.0,-0.0032821213826537132
9216.0,-0.007924302481114864
10240.0,-0.005374070722609758
11264.0,-0.0005634856061078608
12288.0,-0.0035879267379641533
13312.0,0.015742918476462364
14336.0,-0.013971850275993347
end
