version,3.0
numOfCh,1
type,point
parent_name,dirty_3dot0-0dot01
ch_type,1_1
kcount,1
numberNandB,1
brightnessNandB,1
carpet pos,0
pc,0
Time (ms),CH1 Auto-Correlation
1.0,0.4576979875564575
2.0,0.4565521478652954
3.0,0.4556254744529724
4.0,0.4547974765300751
5.0,0.45404934883117676
6.0,0.45333829522132874
7.0,0.45263025164604187
8.0,0.4519686996936798
9.0,0.45134633779525757
10.0,0.45076659321784973
11.0,0.4502193331718445
12.0,0.4496970474720001
13.0,0.449225515127182
14.0,0.4487643539905548
15.0,0.44833672046661377
16.0,0.44787082076072693
18.0,0.4469652473926544
20.0,0.446044385433197
22.0,0.4451945424079895
24.0,0.4442850649356842
26.0,0.44337910413742065
28.0,0.44252341985702515
30.0,0.44169852137565613
32.0,0.44084906578063965
36.0,0.43928948044776917
40.0,0.43787333369255066
44.0,0.43647152185440063
48.0,0.4350771903991699
52.0,0.4337512254714966
56.0,0.43246787786483765
60.0,0.4311329126358032
64.0,0.429772287607193
72.0,0.4265270531177521
80.0,0.4229148328304291
88.0,0.4194546043872833
96.0,0.4163375794887543
104.0,0.4129609763622284
112.0,0.4096231758594513
120.0,0.40656185150146484
128.0,0.4036155045032501
144.0,0.39799097180366516
160.0,0.39302462339401245
176.0,0.3887020945549011
192.0,0.3832399249076843
208.0,0.3776731491088867
224.0,0.3722366392612457
240.0,0.36692288517951965
256.0,0.36225828528404236
288.0,0.3527286648750305
320.0,0.34331947565078735
352.0,0.3347857594490051
384.0,0.3244073688983917
416.0,0.3136439323425293
448.0,0.30414018034935
480.0,0.2959430515766144
512.0,0.2883678078651428
576.0,0.2787838876247406
640.0,0.2710797190666199
704.0,0.26093605160713196
768.0,0.24886460602283478
832.0,0.2371867448091507
896.0,0.22503185272216797
960.0,0.21498943865299225
1024.0,0.20583972334861755
1152.0,0.19014719128608704
1280.0,0.18231895565986633
1408.0,0.1874563843011856
1536.0,0.19692926108837128
1664.0,0.19592176377773285
1792.0,0.17769251763820648
1920.0,0.1594121754169464
2048.0,0.14049303531646729
2304.0,0.08207158744335175
2560.0,0.022930124774575233
2816.0,-0.018659807741642
3072.0,-0.04386341944336891
3328.0,-0.07882778346538544
3584.0,-0.11061364412307739
3840.0,-0.13062745332717896
4096.0,-0.15210171043872833
4608.0,-0.14572380483150482
5120.0,-0.14821074903011322
5632.0,-0.15399233996868134
6144.0,-0.12797166407108307
6656.0,-0.09709670394659042
7168.0,-0.06496180593967438
7680.0,-0.0005552023067139089
8192.0,0.04082520678639412
9216.0,0.09856384247541428
10240.0,-0.06794624030590057
11264.0,-0.10056786239147186
12288.0,-0.31648164987564087
13312.0,-0.25811997056007385
14336.0,-0.06618546694517136
end
