version,3.0
numOfCh,1
type,point
parent_name,dirty_3dot0-0dot01
ch_type,1_1
kcount,1
numberNandB,1
brightnessNandB,1
carpet pos,0
pc,0
Time (ms),CH1 Auto-Correlation
1.0,0.13442453742027283
2.0,0.13038568198680878
3.0,0.1274007260799408
4.0,0.12513169646263123
5.0,0.12323614954948425
6.0,0.12162118405103683
7.0,0.12032409757375717
8.0,0.11924330145120621
9.0,0.11825021356344223
10.0,0.11740751564502716
11.0,0.11654184013605118
12.0,0.1158396378159523
13.0,0.11517035216093063
14.0,0.11454690992832184
15.0,0.11390872299671173
16.0,0.11316576600074768
18.0,0.11191385984420776
20.0,0.11096382141113281
22.0,0.11014809459447861
24.0,0.10941164195537567
26.0,0.10884683579206467
28.0,0.10815546661615372
30.0,0.10729410499334335
32.0,0.10637394338846207
36.0,0.1044595018029213
40.0,0.10285206884145737
44.0,0.10128969699144363
48.0,0.0997505709528923
52.0,0.0978400856256485
56.0,0.0961463451385498
60.0,0.09500377625226974
64.0,0.09388767182826996
72.0,0.09146792441606522
80.0,0.08897188305854797
88.0,0.08630699664354324
96.0,0.0837157741189003
104.0,0.08136751502752304
112.0,0.0791241005063057
120.0,0.07642706483602524
128.0,0.07358639687299728
144.0,0.06839089095592499
160.0,0.062339067459106445
176.0,0.05768868327140808
192.0,0.05505719408392906
208.0,0.051729679107666016
224.0,0.048074349761009216
240.0,0.045777395367622375
256.0,0.04366462305188179
288.0,0.04203440248966217
320.0,0.04005523771047592
352.0,0.03490566089749336
384.0,0.030638309195637703
416.0,0.02450903318822384
448.0,0.018278412520885468
480.0,0.01256126444786787
512.0,0.009587612003087997
576.0,0.0034655125346034765
640.0,-0.002157788723707199
704.0,-0.004981213249266148
768.0,-0.006855204701423645
832.0,-0.008050007745623589
896.0,-0.007842855527997017
960.0,-0.010201675817370415
1024.0,-0.010211633518338203
1152.0,-0.013872126117348671
1280.0,-0.014177831821143627
1408.0,-0.009835705161094666
1536.0,-0.012063807807862759
1664.0,-0.010622633621096611
1792.0,-0.008317060768604279
1920.0,-0.008981777355074883
2048.0,-0.007518383674323559
2304.0,-0.005573140922933817
2560.0,-0.004621766973286867
2816.0,0.007960936985909939
3072.0,0.026688160374760628
3328.0,0.028575964272022247
3584.0,0.01677575521171093
3840.0,0.005318972747772932
4096.0,-0.0009702993556857109
4608.0,-0.009200056083500385
5120.0,-0.008499421179294586
5632.0,-0.0033226239029318094
6144.0,0.019144447520375252
6656.0,0.006825256627053022
7168.0,-0.0017946261214092374
7680.0,-0.0046765804290771484
8192.0,-0.011155604384839535
9216.0,-0.010930722579360008
10240.0,-0.011943742632865906
11264.0,-0.01752764917910099
12288.0,-0.002426264574751258
13312.0,-0.01542065478861332
14336.0,-0.04304689168930054
end
