version,3.0
numOfCh,1
type,point
parent_name,dirty_3dot0-0dot01
ch_type,1_1
kcount,1
numberNandB,1
brightnessNandB,1
carpet pos,0
pc,0
Time (ms),CH1 Auto-Correlation
1.0,0.8644422292709351
2.0,0.8621664047241211
3.0,0.8604001402854919
4.0,0.8589809536933899
5.0,0.8576664924621582
6.0,0.8565478920936584
7.0,0.8555670380592346
8.0,0.8546808362007141
9.0,0.8539288640022278
10.0,0.8531895279884338
11.0,0.8525844216346741
12.0,0.851949155330658
13.0,0.8513487577438354
14.0,0.8508144617080688
15.0,0.8502170443534851
16.0,0.8496420383453369
18.0,0.8485191464424133
20.0,0.847460150718689
22.0,0.8464549779891968
24.0,0.845500111579895
26.0,0.8445085883140564
28.0,0.8435071110725403
30.0,0.8422824740409851
32.0,0.8410414457321167
36.0,0.8386757373809814
40.0,0.8366118669509888
44.0,0.8346938490867615
48.0,0.8328531980514526
52.0,0.8306472301483154
56.0,0.8283510208129883
60.0,0.8259737491607666
64.0,0.8233538269996643
72.0,0.8187878727912903
80.0,0.8140646815299988
88.0,0.8089210987091064
96.0,0.8036503195762634
104.0,0.7985142469406128
112.0,0.7932626008987427
120.0,0.7877235412597656
128.0,0.7820131182670593
144.0,0.7706703543663025
160.0,0.758479654788971
176.0,0.7469056844711304
192.0,0.7353982329368591
208.0,0.7222281694412231
224.0,0.7091542482376099
240.0,0.6957934498786926
256.0,0.6820245981216431
288.0,0.6532790064811707
320.0,0.6228979229927063
352.0,0.5929116606712341
384.0,0.5645399689674377
416.0,0.5342409014701843
448.0,0.5033755898475647
480.0,0.47434675693511963
512.0,0.4452721178531647
576.0,0.3788122534751892
640.0,0.31844377517700195
704.0,0.26634883880615234
768.0,0.2242278903722763
832.0,0.19743618369102478
896.0,0.18860457837581635
960.0,0.1880481243133545
1024.0,0.19920094311237335
1152.0,0.22848805785179138
1280.0,0.27283376455307007
1408.0,0.3299083411693573
1536.0,0.38382309675216675
1664.0,0.40907785296440125
1792.0,0.405312180519104
1920.0,0.3690948188304901
2048.0,0.3109912872314453
2304.0,0.14486336708068848
2560.0,0.021711720153689384
2816.0,-0.030291331931948662
3072.0,-0.041104115545749664
3328.0,-0.044805221259593964
3584.0,-0.041242070496082306
3840.0,-0.020018747076392174
4096.0,0.007050099316984415
4608.0,-0.021333228796720505
5120.0,-0.05596528202295303
5632.0,-0.023479994386434555
6144.0,-0.03194081783294678
6656.0,-0.08995462208986282
7168.0,-0.11275557428598404
7680.0,-0.12791164219379425
8192.0,-0.13551677763462067
9216.0,-0.18436823785305023
10240.0,-0.21549800038337708
11264.0,-0.295840322971344
12288.0,-0.40077832341194153
13312.0,-0.6238775849342346
14336.0,-0.5872863531112671
end
