version,3.0
numOfCh,1
type,point
parent_name,dirty_3dot0-0dot01
ch_type,1_1
kcount,1
numberNandB,1
brightnessNandB,1
carpet pos,0
pc,0
Time (ms),CH1 Auto-Correlation
1.0,0.18134865164756775
2.0,0.1779569834470749
3.0,0.17536774277687073
4.0,0.1734127402305603
5.0,0.17181816697120667
6.0,0.1703910529613495
7.0,0.16923148930072784
8.0,0.1682678461074829
9.0,0.167367085814476
10.0,0.16662679612636566
11.0,0.1659192442893982
12.0,0.1652631312608719
13.0,0.16468511521816254
14.0,0.16406017541885376
15.0,0.1634567230939865
16.0,0.16287614405155182
18.0,0.16179315745830536
20.0,0.16100643575191498
22.0,0.1600361317396164
24.0,0.15902410447597504
26.0,0.15802687406539917
28.0,0.15730038285255432
30.0,0.15655438601970673
32.0,0.15598618984222412
36.0,0.15478570759296417
40.0,0.15375076234340668
44.0,0.15287189185619354
48.0,0.15175582468509674
52.0,0.15073522925376892
56.0,0.14980453252792358
60.0,0.1486297994852066
64.0,0.14731921255588531
72.0,0.1445395052433014
80.0,0.14171431958675385
88.0,0.1396365463733673
96.0,0.13795436918735504
104.0,0.13630719482898712
112.0,0.13487912714481354
120.0,0.13410191237926483
128.0,0.1331966519355774
144.0,0.1309201568365097
160.0,0.12895311415195465
176.0,0.12687990069389343
192.0,0.12545698881149292
208.0,0.12213347107172012
224.0,0.1189616397023201
240.0,0.11624984443187714
256.0,0.11408068239688873
288.0,0.11261167377233505
320.0,0.11459045857191086
352.0,0.11633744835853577
384.0,0.11459578573703766
416.0,0.10936858505010605
448.0,0.10247547924518585
480.0,0.09630991518497467
512.0,0.09046454727649689
576.0,0.08025824278593063
640.0,0.06812437623739243
704.0,0.06142592057585716
768.0,0.059668149799108505
832.0,0.0541626401245594
896.0,0.04813215509057045
960.0,0.0413876511156559
1024.0,0.03284183517098427
1152.0,0.024469783529639244
1280.0,0.02208150364458561
1408.0,0.023159435018897057
1536.0,0.02327911928296089
1664.0,0.023678570985794067
1792.0,0.026682067662477493
1920.0,0.02179909683763981
2048.0,0.015201425179839134
2304.0,0.004018370993435383
2560.0,-0.008659439161419868
2816.0,-0.013866674154996872
3072.0,-0.012667865492403507
3328.0,-0.006073421332985163
3584.0,0.008825394324958324
3840.0,0.01602894999086857
4096.0,0.016244910657405853
4608.0,-0.002897817874327302
5120.0,-0.01344681903719902
5632.0,-0.018504630774259567
6144.0,-0.020435985177755356
6656.0,-0.021965162828564644
7168.0,-0.023920465260744095
7680.0,-0.02519623376429081
8192.0,-0.02689436450600624
9216.0,-0.03614192083477974
10240.0,-0.04685189574956894
11264.0,-0.05735035240650177
12288.0,-0.05682406574487686
13312.0,-0.015760861337184906
14336.0,0.016554081812500954
end
