version,3.0
numOfCh,1
type,point
parent_name,dirty_3dot0-0dot01
ch_type,1_1
kcount,1
numberNandB,1
brightnessNandB,1
carpet pos,0
pc,0
Time (ms),CH1 Auto-Correlation
1.0,0.03750433027744293
2.0,0.03280119597911835
3.0,0.029550783336162567
4.0,0.02710307575762272
5.0,0.025104891508817673
6.0,0.023526912555098534
7.0,0.0222904272377491
8.0,0.021212751045823097
9.0,0.020354174077510834
10.0,0.019562309607863426
11.0,0.018901973962783813
12.0,0.018331333994865417
13.0,0.017906153574585915
14.0,0.01759342849254608
15.0,0.017189808189868927
16.0,0.016893230378627777
18.0,0.0161629319190979
20.0,0.01544773019850254
22.0,0.01481636706739664
24.0,0.014049157500267029
26.0,0.013463923707604408
28.0,0.013269834220409393
30.0,0.013088129460811615
32.0,0.012643762864172459
36.0,0.012276369147002697
40.0,0.012068521231412888
44.0,0.011911637149751186
48.0,0.011705593205988407
52.0,0.011618302203714848
56.0,0.011092274449765682
60.0,0.010612564161419868
64.0,0.010076066479086876
72.0,0.009922818280756474
80.0,0.008680732920765877
88.0,0.00794487725943327
96.0,0.007085752673447132
104.0,0.005878177005797625
112.0,0.005536865908652544
120.0,0.005327089224010706
128.0,0.004905364476144314
144.0,0.003731680801138282
160.0,0.0036363727413117886
176.0,0.004254070110619068
192.0,0.004022891167551279
208.0,0.00273877358995378
224.0,0.0019708045292645693
240.0,0.0025023985654115677
256.0,0.002126734470948577
288.0,0.0022474650759249926
320.0,0.0019511408172547817
352.0,0.0013041447382420301
384.0,0.0014800847275182605
416.0,0.001241094432771206
448.0,0.0009667936246842146
480.0,0.00014651590026915073
512.0,-0.00015333853662014008
576.0,0.000192500272532925
640.0,0.0006689217407256365
704.0,0.0003804048174060881
768.0,-6.346346344798803e-05
832.0,-0.00037637344212271273
896.0,-0.0016814141999930143
960.0,-0.0006304009002633393
1024.0,0.00026213741512037814
1152.0,0.0019070333801209927
1280.0,0.001564461155794561
1408.0,0.0008354448946192861
1536.0,9.443149610888213e-05
1664.0,0.0008445050334557891
1792.0,0.0023130886256694794
1920.0,0.0025780315045267344
2048.0,0.001051306608133018
2304.0,-5.771317955804989e-05
2560.0,-0.0006446428596973419
2816.0,-0.0015761242248117924
3072.0,0.00011640025331871584
3328.0,4.976821583113633e-05
3584.0,-0.0013042022474110126
3840.0,-0.0011701255571097136
4096.0,0.000591667543631047
4608.0,-0.0004005485970992595
5120.0,-0.0008494483772665262
5632.0,-0.0019891648553311825
6144.0,-0.0005578129785135388
6656.0,-0.0004455344460438937
7168.0,-0.0011850219452753663
7680.0,-0.0016325582982972264
8192.0,-0.000283888221019879
9216.0,4.052705116919242e-05
10240.0,-0.0006267589051276445
11264.0,0.000602597719989717
12288.0,-0.0009421771392226219
13312.0,-0.0007074247696436942
14336.0,-0.00027754160691984
end
