version,3.0
numOfCh,1
type,point
parent_name,10-cuts
ch_type,1_1
kcount,1
numberNandB,1
brightnessNandB,1
carpet pos,0
pc,0
Time (ms),CH1 Auto-Correlation
1.0,0.028153715655207634
2.0,0.026012981310486794
3.0,0.024189012125134468
4.0,0.02259509451687336
5.0,0.021188141778111458
6.0,0.019986800849437714
7.0,0.018872268497943878
8.0,0.017887525260448456
9.0,0.016986582428216934
10.0,0.01613595522940159
11.0,0.015360510908067226
12.0,0.014598703943192959
13.0,0.01391011755913496
14.0,0.013246569782495499
15.0,0.01263702567666769
16.0,0.012025002390146255
18.0,0.011015289463102818
20.0,0.010092811658978462
22.0,0.009235343895852566
24.0,0.008497670292854309
26.0,0.007921869866549969
28.0,0.007333035580813885
30.0,0.006839974783360958
32.0,0.006388653069734573
36.0,0.0057046059519052505
40.0,0.005198453087359667
44.0,0.004744250327348709
48.0,0.004475559573620558
52.0,0.004344195127487183
56.0,0.00410471111536026
60.0,0.003598265117034316
64.0,0.0033568493090569973
72.0,0.0030642510391771793
80.0,0.002715443726629019
88.0,0.001834127469919622
96.0,0.0017182212322950363
104.0,0.0016944229137152433
112.0,0.001741244224831462
120.0,0.0019204000709578395
128.0,0.0021752321626991034
144.0,0.00188511295709759
160.0,0.001511016977019608
176.0,0.0019546321127563715
192.0,0.0020397400949150324
208.0,0.0025642886757850647
224.0,0.0021634362637996674
240.0,0.0011666837381199002
256.0,0.0006619701161980629
288.0,-7.211063348222524e-05
320.0,0.00042884977301582694
352.0,0.00034137495094910264
384.0,0.0005835622432641685
416.0,0.000912367133423686
448.0,0.000864444999024272
480.0,-0.00036443283897824585
512.0,-0.0007898147450760007
576.0,-0.001846394152380526
640.0,-0.0010970787843689322
704.0,0.00038963311817497015
768.0,-0.0006539669702760875
832.0,0.0004473727021832019
896.0,0.0005750922136940062
960.0,-0.0006275018095038831
1024.0,-0.0005868750158697367
1152.0,0.0005584862665273249
1280.0,-0.0002631304960232228
1408.0,0.0002393613540334627
1536.0,-0.0005550793721340597
1664.0,-0.0012213550508022308
1792.0,-7.41050680517219e-05
1920.0,0.0005095363012515008
2048.0,0.0001612009946256876
2304.0,-0.000273160170763731
2560.0,-0.001256757415831089
2816.0,-0.0012006533797830343
3072.0,2.91580508928746e-05
3328.0,0.00014588379417546093
3584.0,-0.0008173002279363573
3840.0,0.0005076135857962072
4096.0,0.000998662319034338
4608.0,-0.000297504011541605
5120.0,0.0002486499724909663
5632.0,-0.00033091430668719113
6144.0,0.00031387535273097456
6656.0,-0.0007547985296696424
7168.0,0.0014109746553003788
7680.0,-0.0011462429538369179
8192.0,0.0002532960206735879
9216.0,0.00010942373046418652
10240.0,-0.0005409880541265011
11264.0,0.001223549828864634
12288.0,0.00013602551189251244
13312.0,-0.0005007057916373014
14336.0,-0.0013380174059420824
end
