version,3.0
numOfCh,1
type,point
parent_name,10-cuts
ch_type,1_1
kcount,1
numberNandB,1
brightnessNandB,1
carpet pos,0
pc,0
Time (ms),CH1 Auto-Correlation
1.0,0.09194391965866089
2.0,0.08519014716148376
3.0,0.07939928025007248
4.0,0.07421412318944931
5.0,0.06962308287620544
6.0,0.06567975878715515
7.0,0.06210226193070412
8.0,0.05879918858408928
9.0,0.05562698841094971
10.0,0.05272991210222244
11.0,0.050297629088163376
12.0,0.04791420325636864
13.0,0.04588128253817558
14.0,0.04395785927772522
15.0,0.04226834699511528
16.0,0.040726371109485626
18.0,0.037851206958293915
20.0,0.035189490765333176
22.0,0.03267481178045273
24.0,0.030380288138985634
26.0,0.028280282393097878
28.0,0.026562560349702835
30.0,0.025328272953629494
32.0,0.024193961173295975
36.0,0.02138562686741352
40.0,0.0198987890034914
44.0,0.019238416105508804
48.0,0.018239041790366173
52.0,0.017703190445899963
56.0,0.01735791005194187
60.0,0.01718357391655445
64.0,0.017203334718942642
72.0,0.01686282455921173
80.0,0.016359470784664154
88.0,0.013954302296042442
96.0,0.0107271121814847
104.0,0.009021966718137264
112.0,0.007141072303056717
120.0,0.005192664451897144
128.0,0.005687744356691837
144.0,0.005503379739820957
160.0,0.0029707157518714666
176.0,0.0002861193206626922
192.0,0.0008878205553628504
208.0,0.001573397545143962
224.0,0.0018132866825908422
240.0,0.0027627337258309126
256.0,0.0020200153812766075
288.0,0.00045631357352249324
320.0,0.0006331814220175147
352.0,-0.0014004816766828299
384.0,-0.00012348800373729318
416.0,-0.0015793484635651112
448.0,-0.0029074468184262514
480.0,-0.0012458134442567825
512.0,-0.0029485144186764956
576.0,-0.0037292297929525375
640.0,-0.004138783551752567
704.0,-0.003333010710775852
768.0,-0.004158588591963053
832.0,-0.005186619237065315
896.0,-0.007661303970962763
960.0,-0.005281914956867695
1024.0,0.0007530792499892414
1152.0,0.0011962242424488068
1280.0,0.001355639542452991
1408.0,0.005625856574624777
1536.0,0.003230094676837325
1664.0,-0.001303832745179534
1792.0,0.002312330063432455
1920.0,0.0016791316447779536
2048.0,-0.0010248023318126798
2304.0,-0.0035617630928754807
2560.0,-0.002681203419342637
2816.0,-0.0021203237120062113
3072.0,0.0001104273833334446
3328.0,0.0010549103608354926
3584.0,0.003959987312555313
3840.0,0.0015923588071018457
4096.0,0.00029623808222822845
4608.0,-0.0024326439015567303
5120.0,0.003567478619515896
5632.0,-0.0010724239982664585
6144.0,-0.004231344908475876
6656.0,0.0011333244619891047
7168.0,0.0010251656640321016
7680.0,-9.04037879081443e-05
8192.0,-0.0018859473057091236
9216.0,-0.00010467382526258007
10240.0,-0.001965938601642847
11264.0,-0.0023979952093213797
12288.0,9.853891242528334e-05
13312.0,-0.001929839956574142
14336.0,0.004816371016204357
end
