version,3.0
numOfCh,1
type,point
parent_name,10-cuts
ch_type,1_1
kcount,1
numberNandB,1
brightnessNandB,1
carpet pos,0
pc,0
Time (ms),CH1 Auto-Correlation
1.0,0.04017419368028641
2.0,0.03704915568232536
3.0,0.03443729132413864
4.0,0.03221418336033821
5.0,0.030340366065502167
6.0,0.028649339452385902
7.0,0.027140041813254356
8.0,0.02570321410894394
9.0,0.0244204793125391
10.0,0.02324560284614563
11.0,0.022125346586108208
12.0,0.02117389813065529
13.0,0.020384108647704124
14.0,0.019614018499851227
15.0,0.018865618854761124
16.0,0.018164368346333504
18.0,0.017092738300561905
20.0,0.01623869314789772
22.0,0.015466369688510895
24.0,0.014671697281301022
26.0,0.013949943706393242
28.0,0.013184322975575924
30.0,0.012387788854539394
32.0,0.011750002391636372
36.0,0.010885928757488728
40.0,0.010350806638598442
44.0,0.00966944731771946
48.0,0.008550827391445637
52.0,0.007550446782261133
56.0,0.006942066363990307
60.0,0.006572935730218887
64.0,0.006236629094928503
72.0,0.005654416512697935
80.0,0.00506585231050849
88.0,0.004737326875329018
96.0,0.004431655164808035
104.0,0.004148261155933142
112.0,0.003539014607667923
120.0,0.002746708458289504
128.0,0.0021228045225143433
144.0,0.001442053820937872
160.0,0.002267212839797139
176.0,0.002707106526941061
192.0,0.0019993497990071774
208.0,0.001968489494174719
224.0,0.0023215545807033777
240.0,0.00213626935146749
256.0,0.0027274673338979483
288.0,0.002347353845834732
320.0,0.0003909313236363232
352.0,-0.00025358592392876744
384.0,0.001526244217529893
416.0,0.0009565156069584191
448.0,0.0015151017578318715
480.0,0.001828386215493083
512.0,0.00016412674449384212
576.0,-0.0012996167642995715
640.0,-0.0017504707211628556
704.0,0.00035919135552830994
768.0,0.0009752700570970774
832.0,0.00018752510368358344
896.0,-0.0013320139842107892
960.0,-0.0009532716358080506
1024.0,-0.0012284545227885246
1152.0,-0.00046230590669438243
1280.0,-0.001449020579457283
1408.0,0.0008958684047684073
1536.0,-1.0909040611295495e-05
1664.0,0.0011798846535384655
1792.0,0.00022691096819471568
1920.0,0.0006236659246496856
2048.0,-0.0010426259832456708
2304.0,-0.0003266915155109018
2560.0,-0.0009546206565573812
2816.0,-0.00035807196400128305
3072.0,-0.0007488421979360282
3328.0,-0.0010944838868454099
3584.0,0.0001736084377625957
3840.0,-0.0012164097279310226
4096.0,-0.00042074263910762966
4608.0,-0.0004418407625053078
5120.0,0.0003069208760280162
5632.0,0.0006605780217796564
6144.0,0.0005772760487161577
6656.0,-0.0009362739510834217
7168.0,0.0012344119604676962
7680.0,-0.0011504115536808968
8192.0,0.0006263725808821619
9216.0,0.00041291877278126776
10240.0,-0.0009393164655193686
11264.0,-0.0014644329203292727
12288.0,-0.0007734385435469449
13312.0,-0.0007112895254977047
14336.0,0.0021989764645695686
end
