version,3.0
numOfCh,1
type,point
parent_name,10-cuts
ch_type,1_1
kcount,1
numberNandB,1
brightnessNandB,1
carpet pos,0
pc,0
Time (ms),CH1 Auto-Correlation
1.0,0.02637867070734501
2.0,0.024333348497748375
3.0,0.02257470414042473
4.0,0.021003976464271545
5.0,0.019568562507629395
6.0,0.018297748640179634
7.0,0.017230862751603127
8.0,0.016282785683870316
9.0,0.015448210760951042
10.0,0.014665129594504833
11.0,0.013979483395814896
12.0,0.013317005708813667
13.0,0.012679786421358585
14.0,0.012075136415660381
15.0,0.011504502967000008
16.0,0.010881160385906696
18.0,0.009849248453974724
20.0,0.008996188640594482
22.0,0.008167637512087822
24.0,0.007386748678982258
26.0,0.006691176909953356
28.0,0.006070670671761036
30.0,0.005565296858549118
32.0,0.005094204097986221
36.0,0.004439293872565031
40.0,0.0038190879859030247
44.0,0.0035595542285591364
48.0,0.003530653193593025
52.0,0.0033443025313317776
56.0,0.0029836262110620737
60.0,0.002771344967186451
64.0,0.002410643035545945
72.0,0.002068486763164401
80.0,0.0017545822774991393
88.0,0.0012433493975549936
96.0,0.0009875706164166331
104.0,0.0012807497987523675
112.0,0.0015055465046316385
120.0,0.001517114113084972
128.0,0.0013740499271079898
144.0,0.0007471716380678117
160.0,0.0006709502195008099
176.0,0.0007790563977323472
192.0,0.00012924836482852697
208.0,0.0003113356651738286
224.0,0.0010058812331408262
240.0,0.0012300870148465037
256.0,0.00035336779546923935
288.0,-0.0003596463066060096
320.0,0.0003341636620461941
352.0,0.00048021881957538426
384.0,5.628119470202364e-05
416.0,-0.0003862164739985019
448.0,-0.000491284066811204
480.0,-0.0001027860926114954
512.0,0.0009041065932251513
576.0,0.0006300296518020332
640.0,0.00018893480591941625
704.0,0.0006236442713998258
768.0,-0.0003570305125322193
832.0,-0.0004334422992542386
896.0,-5.308886102284305e-05
960.0,-0.000490692793391645
1024.0,-0.0004802309849765152
1152.0,-0.00010062115325126797
1280.0,2.6439582143211737e-05
1408.0,0.00040739108226262033
1536.0,-0.00026627283659763634
1664.0,0.00025554432068020105
1792.0,-0.00041416645399294794
1920.0,-0.00033567039645276964
2048.0,0.000141914002597332
2304.0,0.0003944890049751848
2560.0,-0.0004919664934277534
2816.0,-0.0007118009380064905
3072.0,-0.000968563137575984
3328.0,-0.00044176317169331014
3584.0,-0.00045672463602386415
3840.0,-0.000631420174613595
4096.0,0.000190417020348832
4608.0,0.00013980981020722538
5120.0,-0.0011635045520961285
5632.0,-0.00040131350397132337
6144.0,0.0006907947827130556
6656.0,0.000927389191929251
7168.0,-0.00045000616228207946
7680.0,0.00027222526841796935
8192.0,0.0010833097621798515
9216.0,-0.0011431084712967277
10240.0,0.000320893683237955
11264.0,-0.0009970926912501454
12288.0,0.0010312532540410757
13312.0,-0.0006125328945927322
14336.0,0.0011306649539619684
end
