version,3.0
numOfCh,1
type,point
parent_name,10-cuts
ch_type,1_1
kcount,1
numberNandB,1
brightnessNandB,1
carpet pos,0
pc,0
Time (ms),CH1 Auto-Correlation
1.0,0.09436892718076706
2.0,0.08713877201080322
3.0,0.08083929866552353
4.0,0.07533441483974457
5.0,0.07039164006710052
6.0,0.0662127360701561
7.0,0.06249751150608063
8.0,0.058994341641664505
9.0,0.05586935207247734
10.0,0.05314032733440399
11.0,0.05058746412396431
12.0,0.048235293477773666
13.0,0.0462443009018898
14.0,0.04414932429790497
15.0,0.04219895601272583
16.0,0.0406084768474102
18.0,0.03786172717809677
20.0,0.0351451113820076
22.0,0.03277691826224327
24.0,0.03066948801279068
26.0,0.028497405350208282
28.0,0.02601400576531887
30.0,0.023730894550681114
32.0,0.022159762680530548
36.0,0.02003161981701851
40.0,0.019099241122603416
44.0,0.018386412411928177
48.0,0.016903366893529892
52.0,0.014812123030424118
56.0,0.013009234331548214
60.0,0.01172555610537529
64.0,0.010815332643687725
72.0,0.009630300104618073
80.0,0.0076826089061796665
88.0,0.007178193423897028
96.0,0.0065294792875647545
104.0,0.006682653445750475
112.0,0.007379222195595503
120.0,0.006665305234491825
128.0,0.0060966722667217255
144.0,0.007457067724317312
160.0,0.009631378576159477
176.0,0.010294079780578613
192.0,0.006602308247238398
208.0,0.0030553857795894146
224.0,0.0030777673237025738
240.0,0.0005237662116996944
256.0,-0.002009378978982568
288.0,0.0027961439918726683
320.0,0.006959557067602873
352.0,0.0067000132985413074
384.0,0.007406250108033419
416.0,0.003980372566729784
448.0,0.00280573358759284
480.0,0.0012279442744329572
512.0,0.0026218045968562365
576.0,0.0066161127761006355
640.0,-0.0014418561477214098
704.0,-0.0004200210387352854
768.0,0.0005668096127919853
832.0,0.0023495913483202457
896.0,0.001669517019763589
960.0,-0.0019707640167325735
1024.0,-0.004619208630174398
1152.0,-0.0025566737167537212
1280.0,-0.0018136397702619433
1408.0,-8.539683767594397e-05
1536.0,-0.000947554362937808
1664.0,0.002597860060632229
1792.0,0.003896615467965603
1920.0,-0.002787858946248889
2048.0,-0.0031943810172379017
2304.0,-5.059764225734398e-05
2560.0,-0.004671142902225256
2816.0,-0.0030220267362892628
3072.0,-0.004160131327807903
3328.0,-0.004561562091112137
3584.0,-0.0035798274911940098
3840.0,-0.0024912296794354916
4096.0,-0.0007813905249349773
4608.0,-0.0006692957831546664
5120.0,-0.00424283416941762
5632.0,-0.0006246533012017608
6144.0,0.00031868324731476605
6656.0,0.003989735152572393
7168.0,0.0069212582893669605
7680.0,0.002625187626108527
8192.0,0.0020135389640927315
9216.0,-0.002583721885457635
10240.0,-0.002635946264490485
11264.0,-0.0010286531178280711
12288.0,0.0009381147101521492
13312.0,0.0007100646616891026
14336.0,0.0003394006926100701
end
