version,3.0
numOfCh,1
type,point
parent_name,10-cuts
ch_type,1_1
kcount,1
numberNandB,1
brightnessNandB,1
carpet pos,0
pc,0
Time (ms),CH1 Auto-Correlation
1.0,0.028567351400852203
2.0,0.026452550664544106
3.0,0.024563418701291084
4.0,0.02294444665312767
5.0,0.021570218726992607
6.0,0.020274359732866287
7.0,0.019171616062521935
8.0,0.018189959228038788
9.0,0.017271550372242928
10.0,0.01648719236254692
11.0,0.015828248113393784
12.0,0.015189776197075844
13.0,0.014579462818801403
14.0,0.01409549918025732
15.0,0.013565747067332268
16.0,0.013051971793174744
18.0,0.012206156738102436
20.0,0.011561659164726734
22.0,0.010839215479791164
24.0,0.01021562423557043
26.0,0.009567180648446083
28.0,0.008868171833455563
30.0,0.008293514139950275
32.0,0.0077449907548725605
36.0,0.006734583992511034
40.0,0.005993182770907879
44.0,0.005174555815756321
48.0,0.004334263503551483
52.0,0.0037023366894572973
56.0,0.0032329324167221785
60.0,0.002965630264952779
64.0,0.0026723158080130816
72.0,0.002583671361207962
80.0,0.002706891857087612
88.0,0.0027998376172035933
96.0,0.0030994382686913013
104.0,0.003278432646766305
112.0,0.0032837516628205776
120.0,0.0029142326675355434
128.0,0.002626346191391349
144.0,0.001689780387096107
160.0,0.0015367401065304875
176.0,0.0017401200020685792
192.0,0.001303634257055819
208.0,0.001160774496383965
224.0,0.00024952113744802773
240.0,0.00039750183350406587
256.0,0.0005493079079315066
288.0,0.00010593522893032059
320.0,0.0006269616424106061
352.0,-9.632522414904088e-05
384.0,-0.0003125974035356194
416.0,3.7334742955863476e-05
448.0,0.0003184836241416633
480.0,-0.00034274865174666047
512.0,0.0006130660185590386
576.0,0.00041466031689196825
640.0,0.0006848361226730049
704.0,-0.0006186795653775334
768.0,-0.0005130081553943455
832.0,-0.00084913638420403
896.0,-7.597426156280562e-05
960.0,0.00019183169933967292
1024.0,-0.0011054105125367641
1152.0,-0.0007086085970513523
1280.0,-0.0010289489291608334
1408.0,-0.0007446688832715154
1536.0,0.0002550528442952782
1664.0,0.0019075226737186313
1792.0,0.0012208460830152035
1920.0,0.0010790424421429634
2048.0,0.0006351301562972367
2304.0,-0.00016113411402329803
2560.0,0.0007488562841899693
2816.0,0.001154802506789565
3072.0,-0.0016393563710153103
3328.0,-0.0007188606541603804
3584.0,-0.00033925959724001586
3840.0,-0.0005464085843414068
4096.0,-0.00022408731456380337
4608.0,0.0002597747079562396
5120.0,-3.3924439776455984e-05
5632.0,-0.0007809796370565891
6144.0,-0.00016223896818701178
6656.0,0.001088057877495885
7168.0,0.0011004761327058077
7680.0,-0.000607139547355473
8192.0,-0.00016629479068797082
9216.0,-0.00015092140529304743
10240.0,-0.001270512817427516
11264.0,0.00030271054129116237
12288.0,-0.0026334275025874376
13312.0,0.0007436652085743845
14336.0,-0.0023093309719115496
end
