version,3.0
numOfCh,1
type,point
parent_name,10-cuts
ch_type,1_1
kcount,1
numberNandB,1
brightnessNandB,1
carpet pos,0
pc,0
Time (ms),CH1 Auto-Correlation
1.0,0.03788527101278305
2.0,0.0346757173538208
3.0,0.031933579593896866
4.0,0.029534460976719856
5.0,0.027443813160061836
6.0,0.025700340047478676
7.0,0.02413599006831646
8.0,0.022703707218170166
9.0,0.02131829597055912
10.0,0.020015325397253036
11.0,0.018876729533076286
12.0,0.017870290204882622
13.0,0.016972923651337624
14.0,0.016215495765209198
15.0,0.015464813448488712
16.0,0.014830470085144043
18.0,0.013594822958111763
20.0,0.012552187778055668
22.0,0.011798515915870667
24.0,0.011230552569031715
26.0,0.01064981333911419
28.0,0.00988234207034111
30.0,0.009184535592794418
32.0,0.008502029813826084
36.0,0.0073315794579684734
40.0,0.006512151099741459
44.0,0.006383801344782114
48.0,0.0060716476291418076
52.0,0.00553120719268918
56.0,0.004697154276072979
60.0,0.004040289670228958
64.0,0.0037138357292860746
72.0,0.0033265617676079273
80.0,0.002657283330336213
88.0,0.0019088041735813022
96.0,0.0015647365944460034
104.0,0.001407922594808042
112.0,0.0012352373450994492
120.0,0.0009425831376574934
128.0,0.0010462637292221189
144.0,0.00013748396304436028
160.0,-0.0006370858172886074
176.0,-0.0008066726732067764
192.0,-0.0018761763349175453
208.0,-0.0010383666958659887
224.0,0.00012187383254058659
240.0,-0.0003815873933490366
256.0,-0.0012942012399435043
288.0,-0.001299689756706357
320.0,-0.0010170403402298689
352.0,-0.0013194158673286438
384.0,-0.0013062041252851486
416.0,-0.0018729264847934246
448.0,-0.0010603341506794095
480.0,-0.0004719385760836303
512.0,0.0007299873977899551
576.0,0.0005174652324058115
640.0,0.0006095462013036013
704.0,-0.000581487431190908
768.0,-0.0008319366606883705
832.0,1.3463833965943195e-05
896.0,0.0022629275918006897
960.0,0.0021679517813026905
1024.0,0.0004448782710824162
1152.0,0.00022709679615218192
1280.0,0.0014825608814135194
1408.0,-0.0005997914122417569
1536.0,-0.0012710130540654063
1664.0,-0.0011409780709072948
1792.0,-0.00058216683100909
1920.0,0.0007923534722067416
2048.0,0.00047774994163773954
2304.0,-0.0001367395161651075
2560.0,0.00021252788428682834
2816.0,0.00022282561985775828
3072.0,-0.0001847399107646197
3328.0,0.0002926940214820206
3584.0,0.00020897890499327332
3840.0,-0.0011835256591439247
4096.0,0.00024186605878639966
4608.0,-0.0005474996869452298
5120.0,0.00036675037699751556
5632.0,-0.0005307012470439076
6144.0,0.000728941522538662
6656.0,-0.0012917730491608381
7168.0,-0.00046929321251809597
7680.0,3.5991524782730266e-05
8192.0,-0.00033019582042470574
9216.0,-0.00021938493591733277
10240.0,-0.00042547908378764987
11264.0,-0.00036712270230054855
12288.0,-0.0006418235134333372
13312.0,0.0004817886801902205
14336.0,9.397777830599807e-06
end
