version,3.0
numOfCh,1
type,point
parent_name,10-cuts
ch_type,1_1
kcount,1
numberNandB,1
brightnessNandB,1
carpet pos,0
pc,0
Time (ms),CH1 Auto-Correlation
1.0,0.08516024053096771
2.0,0.07832135260105133
3.0,0.07239238917827606
4.0,0.06724628061056137
5.0,0.06296258419752121
6.0,0.05895042046904564
7.0,0.05513565242290497
8.0,0.05185748636722565
9.0,0.04880248010158539
10.0,0.04605842009186745
11.0,0.043602440506219864
12.0,0.04131793603301048
13.0,0.03911154717206955
14.0,0.037232231348752975
15.0,0.03553786501288414
16.0,0.0338444858789444
18.0,0.031260035932064056
20.0,0.029027193784713745
22.0,0.027044067159295082
24.0,0.02556666173040867
26.0,0.024431739002466202
28.0,0.023328207433223724
30.0,0.022261707112193108
32.0,0.021544115617871284
36.0,0.019963756203651428
40.0,0.018587160855531693
44.0,0.017867421731352806
48.0,0.017098840326070786
52.0,0.015282654203474522
56.0,0.012729234993457794
60.0,0.01038383413106203
64.0,0.009248320013284683
72.0,0.006576694548130035
80.0,0.004757972434163094
88.0,0.0030438778921961784
96.0,0.0026036188937723637
104.0,0.0021552082616835833
112.0,0.001001850818283856
120.0,-0.001124497619457543
128.0,-7.191884651547298e-05
144.0,0.0005215652054175735
160.0,0.0010841189650818706
176.0,0.0019467147067189217
192.0,0.0026979034300893545
208.0,0.004243809264153242
224.0,0.003952546510845423
240.0,0.005370551720261574
256.0,0.005984819028526545
288.0,-9.783841960597783e-05
320.0,-0.002613160526379943
352.0,-0.0008891628822311759
384.0,0.00026272449758835137
416.0,-0.002432027366012335
448.0,-0.0003540527541190386
480.0,0.003187917172908783
512.0,0.0023025197442620993
576.0,-0.0005754028097726405
640.0,-0.0016129374271258712
704.0,-0.005016532726585865
768.0,-0.0012918667634949088
832.0,0.0029607887845486403
896.0,0.0009756495128385723
960.0,-0.00016246046288870275
1024.0,0.002304129535332322
1152.0,-0.000718546740245074
1280.0,-0.001788284513168037
1408.0,-0.0053814975544810295
1536.0,-0.003552570240572095
1664.0,0.001520602498203516
1792.0,-0.0012708642752841115
1920.0,0.001665421761572361
2048.0,-0.0015966467326506972
2304.0,-0.0007624293793924153
2560.0,0.0018259169301018119
2816.0,0.003916701767593622
3072.0,0.0007289714412763715
3328.0,-0.0018192848656326532
3584.0,-0.0027738600037992
3840.0,-0.0005256446311250329
4096.0,-0.0005749186384491622
4608.0,7.626651495229453e-05
5120.0,-8.541823626728728e-05
5632.0,0.0008252628613263369
6144.0,-0.00015440148126799613
6656.0,-0.002642435720190406
7168.0,-0.0005278250318951905
7680.0,-0.001215196680277586
8192.0,0.002027431270107627
9216.0,-0.0021958875004202127
10240.0,-0.0006513731786981225
11264.0,0.0029537484515458345
12288.0,-0.00013800771557725966
13312.0,0.0002681674377527088
14336.0,0.0007997695938684046
end
