version,3.0
numOfCh,1
type,point
parent_name,10-cuts
ch_type,1_1
kcount,1
numberNandB,1
brightnessNandB,1
carpet pos,0
pc,0
Time (ms),CH1 Auto-Correlation
1.0,0.04037436842918396
2.0,0.03727271407842636
3.0,0.0346762090921402
4.0,0.03241294249892235
5.0,0.030334774404764175
6.0,0.028519729152321815
7.0,0.02689414471387863
8.0,0.025437870994210243
9.0,0.024067040532827377
10.0,0.02282136119902134
11.0,0.02172752097249031
12.0,0.020744165405631065
13.0,0.019841143861413002
14.0,0.019056541845202446
15.0,0.018227357417345047
16.0,0.01747991517186165
18.0,0.016171177849173546
20.0,0.014882756397128105
22.0,0.013606537133455276
24.0,0.012472553178668022
26.0,0.01136576384305954
28.0,0.010430888272821903
30.0,0.009509559720754623
32.0,0.008638058789074421
36.0,0.00751774525269866
40.0,0.0064160642214119434
44.0,0.005558331031352282
48.0,0.004828378092497587
52.0,0.0045491429045796394
56.0,0.004550319164991379
60.0,0.004661357030272484
64.0,0.004642775747925043
72.0,0.005062183830887079
80.0,0.005239895079284906
88.0,0.004947892390191555
96.0,0.004701871424913406
104.0,0.00432372884824872
112.0,0.003309499705210328
120.0,0.0024384453427046537
128.0,0.002032266464084387
144.0,0.0012707528658211231
160.0,0.0014390898868441582
176.0,0.0010396111756563187
192.0,0.0006210908177308738
208.0,0.0017619318095967174
224.0,0.0020130446646362543
240.0,0.0012305048294365406
256.0,0.0011077354429289699
288.0,0.0017478480003774166
320.0,0.0012013926170766354
352.0,-4.316527702030726e-05
384.0,-4.9726317229215056e-05
416.0,0.0007652109488844872
448.0,-0.0004083661187905818
480.0,-0.0009707632707431912
512.0,-0.00012618086475413293
576.0,0.0008831630693748593
640.0,5.2063613111386076e-05
704.0,-0.00028915630537085235
768.0,-0.0021262741647660732
832.0,-0.0004438841133378446
896.0,-0.0009600602788850665
960.0,-0.0009996019070968032
1024.0,-0.00016908337420318276
1152.0,-0.001137870829552412
1280.0,-0.0024344660341739655
1408.0,-0.0026279748417437077
1536.0,-0.0017799007473513484
1664.0,-0.0002971960057038814
1792.0,-0.0002509355254005641
1920.0,-0.00042957303230650723
2048.0,-0.0011622918536886573
2304.0,0.00023665829212404788
2560.0,-0.0005653764237649739
2816.0,0.0014583943411707878
3072.0,0.0017721890471875668
3328.0,-0.0005932820495218039
3584.0,-0.0009155763546004891
3840.0,-3.863412348437123e-05
4096.0,0.0008941167034208775
4608.0,0.0009767530718818307
5120.0,-0.0009235340403392911
5632.0,-0.0008263156050816178
6144.0,-0.0007950284634716809
6656.0,0.0008815992623567581
7168.0,0.0001413283753208816
7680.0,-0.0004731075605377555
8192.0,-0.0017107081366702914
9216.0,0.001214507850818336
10240.0,4.213302236166783e-05
11264.0,-0.00040266409632749856
12288.0,0.0003727424191311002
13312.0,-0.0002513278159312904
14336.0,0.00011584154708543792
end
