version,3.0
numOfCh,1
type,point
parent_name,10-cuts
ch_type,1_1
kcount,1
numberNandB,1
brightnessNandB,1
carpet pos,0
pc,0
Time (ms),CH1 Auto-Correlation
1.0,0.043656256049871445
2.0,0.04041832685470581
3.0,0.037561386823654175
4.0,0.03516976162791252
5.0,0.033025894314050674
6.0,0.031101422384381294
7.0,0.02939022332429886
8.0,0.027768783271312714
9.0,0.026357272639870644
10.0,0.02501739375293255
11.0,0.02387666516005993
12.0,0.022837156429886818
13.0,0.021945515647530556
14.0,0.021141836419701576
15.0,0.02042372338473797
16.0,0.01974957436323166
18.0,0.01855688914656639
20.0,0.017444346100091934
22.0,0.01630381867289543
24.0,0.015368076972663403
26.0,0.014617625623941422
28.0,0.014034164138138294
30.0,0.01340399868786335
32.0,0.01282989140599966
36.0,0.012243291363120079
40.0,0.01146695576608181
44.0,0.010615366511046886
48.0,0.009583869017660618
52.0,0.008838243782520294
56.0,0.007859806530177593
60.0,0.00734360795468092
64.0,0.0070318542420864105
72.0,0.0060988012701272964
80.0,0.005668323952704668
88.0,0.005175081547349691
96.0,0.0049329181201756
104.0,0.004718526266515255
112.0,0.0044384668581187725
120.0,0.0043795122765004635
128.0,0.004475611262023449
144.0,0.0033132624812424183
160.0,0.003117549931630492
176.0,0.002660375088453293
192.0,0.0023948524612933397
208.0,0.00192500208504498
224.0,0.0019643225241452456
240.0,0.002565740142017603
256.0,0.0023645861074328423
288.0,0.0023273970000445843
320.0,0.001952819642610848
352.0,0.0020974897779524326
384.0,0.0030974047258496284
416.0,0.0034941481426358223
448.0,0.001353205181658268
480.0,-0.001149365329183638
512.0,-0.0007624884601682425
576.0,0.00030539280851371586
640.0,-0.0009503567707724869
704.0,-0.0007345577469095588
768.0,-0.0010006100637838244
832.0,-0.00022039134637452662
896.0,-0.0009238483035005629
960.0,0.0012516157003119588
1024.0,-0.00011472339974716306
1152.0,0.000171574778505601
1280.0,0.0002773145097307861
1408.0,0.0009010173380374908
1536.0,0.00019141774100717157
1664.0,-0.00110714347101748
1792.0,-0.0005558744887821376
1920.0,-0.0026478241197764874
2048.0,-0.003574811853468418
2304.0,-0.0008834716281853616
2560.0,-0.0028984069358557463
2816.0,-0.0022733486257493496
3072.0,0.0007189901079982519
3328.0,0.0004923018277622759
3584.0,-0.0011186747578904033
3840.0,-0.0006272479076869786
4096.0,-0.0004504768003243953
4608.0,-4.90130260004662e-05
5120.0,0.001989803509786725
5632.0,0.0017700508469715714
6144.0,0.0007326188497245312
6656.0,0.0009349966421723366
7168.0,-0.0006820409325882792
7680.0,-0.001378778601065278
8192.0,-0.002546164905652404
9216.0,-0.0013538328930735588
10240.0,0.00039264356018975377
11264.0,0.0016677768435329199
12288.0,-0.0004736505215987563
13312.0,-0.0005682365735992789
14336.0,-0.000684942293446511
end
