version,3.0
numOfCh,1
type,point
parent_name,10-cuts
ch_type,1_1
kcount,1
numberNandB,1
brightnessNandB,1
carpet pos,0
pc,0
Time (ms),CH1 Auto-Correlation
1.0,0.027713725343346596
2.0,0.025511804968118668
3.0,0.02365870587527752
4.0,0.021997006610035896
5.0,0.020595425739884377
6.0,0.019367994740605354
7.0,0.018263844773173332
8.0,0.017284216359257698
9.0,0.016424080356955528
10.0,0.0156633909791708
11.0,0.01498548872768879
12.0,0.014363140799105167
13.0,0.013744235970079899
14.0,0.013131227344274521
15.0,0.012604738585650921
16.0,0.012113542295992374
18.0,0.011243864893913269
20.0,0.010528028011322021
22.0,0.009915999136865139
24.0,0.009413225576281548
26.0,0.009120328351855278
28.0,0.008870799094438553
30.0,0.008643153123557568
32.0,0.00846985261887312
36.0,0.00779084162786603
40.0,0.007090728264302015
44.0,0.0063804942183196545
48.0,0.005543368868529797
52.0,0.005025178659707308
56.0,0.004797196947038174
60.0,0.004582032095640898
64.0,0.00416329363361001
72.0,0.003870973829180002
80.0,0.003932836465537548
88.0,0.003549588145688176
96.0,0.0030213086865842342
104.0,0.002744084456935525
112.0,0.0026286172214895487
120.0,0.0024718379136174917
128.0,0.0018697624327614903
144.0,0.0016291136853396893
160.0,0.0017572039505466819
176.0,0.002214682986959815
192.0,0.0023980322293937206
208.0,0.0019482061034068465
224.0,0.000981129938736558
240.0,0.0007610632455907762
256.0,0.0008224343182519078
288.0,0.0009940321324393153
320.0,0.0011318492470309138
352.0,0.0009955853456631303
384.0,0.0006588957621715963
416.0,0.0009071004460565746
448.0,0.000890380993951112
480.0,-4.917350088362582e-05
512.0,0.0005271043628454208
576.0,0.0008664844208396971
640.0,0.0007737841224297881
704.0,0.0008059662650339305
768.0,0.00030055694514885545
832.0,-0.0008614956750534475
896.0,-0.000257152714766562
960.0,0.0008684856002219021
1024.0,0.0004949794965796173
1152.0,0.0007054338348098099
1280.0,0.00028939099865965545
1408.0,0.000756819557864219
1536.0,-0.0005211057723499835
1664.0,-0.0004960176884196699
1792.0,-0.000865503738168627
1920.0,-0.0003840421559289098
2048.0,-0.0010530533036217093
2304.0,-0.0009185858652926981
2560.0,-0.0005161853623576462
2816.0,-0.000477574416436255
3072.0,5.581869118032046e-05
3328.0,-0.00013024592772126198
3584.0,0.0001427129900548607
3840.0,-0.0005868283333256841
4096.0,-0.0007151348399929702
4608.0,-0.0004412078997120261
5120.0,-0.0002806538832373917
5632.0,-0.0005039210082031786
6144.0,-0.0005442167748697102
6656.0,-8.608673670096323e-05
7168.0,0.0005506513989530504
7680.0,-0.0002746999089140445
8192.0,0.001591929467394948
9216.0,2.1077932615298778e-05
10240.0,-0.00045749530545435846
11264.0,0.0015430658822879195
12288.0,0.0002933326759375632
13312.0,-0.003334213513880968
14336.0,-0.002383521758019924
end
