version,3.0
numOfCh,1
type,point
parent_name,10-cuts
ch_type,1_1
kcount,1
numberNandB,1
brightnessNandB,1
carpet pos,0
pc,0
Time (ms),CH1 Auto-Correlation
1.0,0.08793511986732483
2.0,0.08107593655586243
3.0,0.07533056288957596
4.0,0.07040324062108994
5.0,0.0661022812128067
6.0,0.062300264835357666
7.0,0.058978959918022156
8.0,0.05605216324329376
9.0,0.05321988835930824
10.0,0.050624947994947433
11.0,0.04829372838139534
12.0,0.04615342617034912
13.0,0.04398612678050995
14.0,0.042194779962301254
15.0,0.04071565344929695
16.0,0.03913966193795204
18.0,0.03660469502210617
20.0,0.03429282084107399
22.0,0.03240783512592316
24.0,0.03080667182803154
26.0,0.029013419523835182
28.0,0.027183642610907555
30.0,0.02539787068963051
32.0,0.023872852325439453
36.0,0.02155592292547226
40.0,0.01995200477540493
44.0,0.018575461581349373
48.0,0.016940990462899208
52.0,0.016085991635918617
56.0,0.014665761031210423
60.0,0.013362118043005466
64.0,0.011676518246531487
72.0,0.01054907776415348
80.0,0.009305132552981377
88.0,0.008233641274273396
96.0,0.006753493100404739
104.0,0.004802582785487175
112.0,0.0029788357205688953
120.0,0.002696421928703785
128.0,0.0039395978674292564
144.0,0.004759910982102156
160.0,0.004259064327925444
176.0,0.0027429177425801754
192.0,0.0005897605442442
208.0,-0.0016524289967492223
224.0,-0.002453269436955452
240.0,-0.0004920823266729712
256.0,-0.0021233810111880302
288.0,-0.0028778191190212965
320.0,-0.002641401020810008
352.0,-0.002878500847145915
384.0,-0.004647404886782169
416.0,-0.0038084962870925665
448.0,-0.004185526631772518
480.0,-0.004641673061996698
512.0,-0.0018528319196775556
576.0,0.00025433878181502223
640.0,-0.0002389494184171781
704.0,-0.00471744267269969
768.0,-0.002385589061304927
832.0,-0.0007415332947857678
896.0,-0.0015602174680680037
960.0,-0.0007732934900559485
1024.0,0.003380563110113144
1152.0,0.0023166979663074017
1280.0,-0.002972562098875642
1408.0,-0.004823366645723581
1536.0,-0.0021781453397125006
1664.0,-0.0008609468932263553
1792.0,0.001235275762155652
1920.0,0.001350975246168673
2048.0,-0.0027874037623405457
2304.0,-0.003222610102966428
2560.0,0.0011214877013117075
2816.0,0.002784660318866372
3072.0,-0.00039754091994836926
3328.0,-0.0006623370572924614
3584.0,-0.0010374145349487662
3840.0,0.0010382955661043525
4096.0,0.001264070742763579
4608.0,0.0011437174398452044
5120.0,-0.0004496194305829704
5632.0,-0.001102514797821641
6144.0,-0.0014840129297226667
6656.0,0.0016230613691732287
7168.0,0.0006545470678247511
7680.0,0.0003372694191057235
8192.0,-0.0020537790842354298
9216.0,-0.0005423663533292711
10240.0,9.874708484858274e-05
11264.0,0.0012379384133964777
12288.0,-0.0002616079873405397
13312.0,-0.0009177234605886042
14336.0,0.001291961525566876
end
