version,3.0
numOfCh,1
type,point
parent_name,10-cuts
ch_type,1_1
kcount,1
numberNandB,1
brightnessNandB,1
carpet pos,0
pc,0
Time (ms),CH1 Auto-Correlation
1.0,0.08032771944999695
2.0,0.0732627585530281
3.0,0.06725756078958511
4.0,0.0620465911924839
5.0,0.057571135461330414
6.0,0.053692176938056946
7.0,0.050249069929122925
8.0,0.04721713438630104
9.0,0.044401295483112335
10.0,0.04212328791618347
11.0,0.03984460607171059
12.0,0.03772640973329544
13.0,0.035961031913757324
14.0,0.03423355519771576
15.0,0.03280641883611679
16.0,0.031523335725069046
18.0,0.029215959832072258
20.0,0.02752884291112423
22.0,0.025860268622636795
24.0,0.024630596861243248
26.0,0.023414459079504013
28.0,0.021970568224787712
30.0,0.02029840648174286
32.0,0.018633317202329636
36.0,0.016581321135163307
40.0,0.015300964005291462
44.0,0.014034263789653778
48.0,0.01279408112168312
52.0,0.011805655434727669
56.0,0.012017675675451756
60.0,0.012430300004780293
64.0,0.01244798582047224
72.0,0.01203380711376667
80.0,0.011926430277526379
88.0,0.010297320783138275
96.0,0.008658104576170444
104.0,0.006951105780899525
112.0,0.0047632562927901745
120.0,0.004482709337025881
128.0,0.0038368827663362026
144.0,0.0031308194156736135
160.0,0.004493669141083956
176.0,0.004212506115436554
192.0,0.0028644809499382973
208.0,0.0012454224051907659
224.0,0.0023376995231956244
240.0,0.0039450665935873985
256.0,0.0037204166874289513
288.0,0.00043831512448377907
320.0,-0.0028678406961262226
352.0,-0.0020450835581868887
384.0,-0.001604603137820959
416.0,-0.002532921964302659
448.0,0.002115239156410098
480.0,0.00172653968911618
512.0,0.0016604088013991714
576.0,0.002552765654399991
640.0,0.005527948495000601
704.0,0.005594363436102867
768.0,0.002018148545175791
832.0,-0.0010381967294961214
896.0,-0.0005483811255544424
960.0,0.0004328995128162205
1024.0,-0.0020650753285735846
1152.0,0.0021871100179851055
1280.0,-8.567224722355604e-05
1408.0,0.0004000058106612414
1536.0,0.001250003231689334
1664.0,0.003936704248189926
1792.0,-0.0014174364041537046
1920.0,-0.002360312733799219
2048.0,-0.0020655589178204536
2304.0,0.0018144762143492699
2560.0,-0.0019188515143468976
2816.0,0.001118175219744444
3072.0,-0.002511713420972228
3328.0,-0.0024081191513687372
3584.0,-0.0006081005558371544
3840.0,0.0024751254823058844
4096.0,0.0003662341623567045
4608.0,-0.00025642142281867564
5120.0,0.0007997535867616534
5632.0,-0.003177212318405509
6144.0,-0.0034860200248658657
6656.0,-0.0017896411009132862
7168.0,-0.0018873012159019709
7680.0,-0.0026303455233573914
8192.0,-0.0005413586623035371
9216.0,7.215067307697609e-05
10240.0,-0.0016102002700790763
11264.0,-0.002269325777888298
12288.0,0.004713406786322594
13312.0,0.000534798193257302
14336.0,0.006230210419744253
end
