version,3.0
numOfCh,1
type,point
parent_name,10-cuts
ch_type,1_1
kcount,1
numberNandB,1
brightnessNandB,1
carpet pos,0
pc,0
Time (ms),CH1 Auto-Correlation
1.0,0.02872641384601593
2.0,0.02652299776673317
3.0,0.02467653900384903
4.0,0.023065557703375816
5.0,0.021702859550714493
6.0,0.020459569990634918
7.0,0.019417347386479378
8.0,0.018458809703588486
9.0,0.01756875403225422
10.0,0.016754083335399628
11.0,0.015992844477295876
12.0,0.015255310572683811
13.0,0.01462638285011053
14.0,0.014006933197379112
15.0,0.013447543606162071
16.0,0.012889408506453037
18.0,0.011926881968975067
20.0,0.01121040154248476
22.0,0.010684375651180744
24.0,0.010259161703288555
26.0,0.009670397266745567
28.0,0.009110723622143269
30.0,0.008657816797494888
32.0,0.00828542746603489
36.0,0.0074541582725942135
40.0,0.006770633161067963
44.0,0.0060965511947870255
48.0,0.005343173630535603
52.0,0.004740267526358366
56.0,0.004300123080611229
60.0,0.003996856510639191
64.0,0.0036510510835796595
72.0,0.0033810874447226524
80.0,0.002770280232653022
88.0,0.002067703055217862
96.0,0.0016090924618765712
104.0,0.001273393165320158
112.0,0.0008430160232819617
120.0,0.000655848125461489
128.0,0.00029289594385772943
144.0,0.0007958544883877039
160.0,0.0007069057901389897
176.0,0.0010596552165225148
192.0,0.0006747639854438603
208.0,0.0004035609890706837
224.0,0.0008864831179380417
240.0,0.001088514574803412
256.0,0.002276154700666666
288.0,0.002375168027356267
320.0,0.002110301051288843
352.0,0.0015165102668106556
384.0,0.0013567093992605805
416.0,-3.0063236408750527e-05
448.0,-0.0006057779537513852
480.0,0.00029482002719305456
512.0,-7.5714779086411e-05
576.0,1.4763095350645017e-05
640.0,-0.00028880624449811876
704.0,-0.0009226638940162957
768.0,-0.001097785192541778
832.0,-0.0014841383090242743
896.0,-3.273420225013979e-05
960.0,-0.00027068579220212996
1024.0,-0.0014075381914153695
1152.0,-0.0002659627643879503
1280.0,-0.0009938394650816917
1408.0,-0.0007977404748089612
1536.0,-0.00045492732897400856
1664.0,0.0007661348208785057
1792.0,-0.0013217013329267502
1920.0,0.0008216327987611294
2048.0,0.00046569114783778787
2304.0,0.00022888036619406193
2560.0,-0.00018583369092084467
2816.0,4.3745898437919095e-05
3072.0,-0.000733682478312403
3328.0,-0.001628596568480134
3584.0,-0.0008840538212098181
3840.0,-0.0008154040551744401
4096.0,-0.00011427422577980906
4608.0,0.0005699987523257732
5120.0,0.0004329518706072122
5632.0,0.000576067715883255
6144.0,4.530642036115751e-05
6656.0,-0.0007559999939985573
7168.0,-0.00012343905109446496
7680.0,0.0006159191252663732
8192.0,-0.00032614998053759336
9216.0,-0.0001690401986707002
10240.0,-9.335562208434567e-05
11264.0,0.00016697800310794264
12288.0,-0.00011122591240564361
13312.0,0.0007330282242037356
14336.0,-0.0005744041409343481
end
