version,3.0
numOfCh,1
type,point
parent_name,10-cuts
ch_type,1_1
kcount,1
numberNandB,1
brightnessNandB,1
carpet pos,0
pc,0
Time (ms),CH1 Auto-Correlation
1.0,0.037131860852241516
2.0,0.0338524654507637
3.0,0.031040338799357414
4.0,0.02861928381025791
5.0,0.02649795450270176
6.0,0.02464287541806698
7.0,0.023035017773509026
8.0,0.021691713482141495
9.0,0.020413637161254883
10.0,0.019327864050865173
11.0,0.018258731812238693
12.0,0.01731695607304573
13.0,0.016516435891389847
14.0,0.015633363276720047
15.0,0.014838604256510735
16.0,0.014022392220795155
18.0,0.012816885486245155
20.0,0.011863741092383862
22.0,0.011265883222222328
24.0,0.010774926282465458
26.0,0.010162447579205036
28.0,0.00945109874010086
30.0,0.008766933344304562
32.0,0.008261182345449924
36.0,0.007364076562225819
40.0,0.006383207626640797
44.0,0.005591782741248608
48.0,0.0052473279647529125
52.0,0.004990094341337681
56.0,0.004719292279332876
60.0,0.004638244863599539
64.0,0.004150118213146925
72.0,0.0032622129656374454
80.0,0.0030687160324305296
88.0,0.0028592224698513746
96.0,0.002393007278442383
104.0,0.0025322800502181053
112.0,0.0026939373929053545
120.0,0.0026752238627523184
128.0,0.002522073220461607
144.0,0.0027626678347587585
160.0,0.0031904270872473717
176.0,0.0029053762555122375
192.0,0.0021796105429530144
208.0,0.0019865429494529963
224.0,0.0008427215507254004
240.0,-7.189388998085633e-05
256.0,0.0005118880653753877
288.0,5.3621686674887314e-05
320.0,-0.0004661889106500894
352.0,-0.00025816832203418016
384.0,0.0009490599622949958
416.0,-1.4325508345791604e-05
448.0,0.0010533647146075964
480.0,0.0012692671734839678
512.0,0.00126358971465379
576.0,0.0012175675947219133
640.0,0.0006017428822815418
704.0,-5.256701115285978e-05
768.0,-0.000822901725769043
832.0,0.0001967462885659188
896.0,-0.00019327222253195941
960.0,-0.000996053102426231
1024.0,-0.001820034347474575
1152.0,0.00022339136921800673
1280.0,-0.0006140412297099829
1408.0,-0.000871099007781595
1536.0,0.0001040647184709087
1664.0,-0.000445699057308957
1792.0,-0.0004738908028230071
1920.0,-0.00016196307842619717
2048.0,-0.0009628024417907
2304.0,-0.0019466886296868324
2560.0,-0.0004715110408142209
2816.0,-0.001412204117514193
3072.0,0.00038702256279066205
3328.0,0.0011576340766623616
3584.0,0.0005306776729412377
3840.0,-7.619655661983415e-05
4096.0,0.0004232500505167991
4608.0,-0.000404603430069983
5120.0,-0.00023543434508610517
5632.0,-5.48510615772102e-06
6144.0,0.0005427512223832309
6656.0,0.0004373748670332134
7168.0,-0.00043119516340084374
7680.0,0.00019580904336180538
8192.0,-0.0013113993918523192
9216.0,-3.440329237491824e-05
10240.0,0.00018463273590896279
11264.0,0.0003924041520804167
12288.0,0.0010235143126919866
13312.0,-7.586349966004491e-05
14336.0,-0.0006196919712238014
end
