version,3.0
numOfCh,1
type,point
parent_name,10-cuts
ch_type,1_1
kcount,1
numberNandB,1
brightnessNandB,1
carpet pos,0
pc,0
Time (ms),CH1 Auto-Correlation
1.0,0.042270321398973465
2.0,0.03896357864141464
3.0,0.03613463416695595
4.0,0.03381754830479622
5.0,0.03177688270807266
6.0,0.029963308945298195
7.0,0.028327027335762978
8.0,0.026741690933704376
9.0,0.02524152211844921
10.0,0.02392810396850109
11.0,0.022736411541700363
12.0,0.021745378151535988
13.0,0.02080632746219635
14.0,0.019923454150557518
15.0,0.01900072954595089
16.0,0.018206730484962463
18.0,0.016924532130360603
20.0,0.015838978812098503
22.0,0.014790141955018044
24.0,0.013696100562810898
26.0,0.012874380685389042
28.0,0.012291032820940018
30.0,0.011743302457034588
32.0,0.011247136630117893
36.0,0.01025563757866621
40.0,0.009047280997037888
44.0,0.00823333952575922
48.0,0.007356428541243076
52.0,0.006886775605380535
56.0,0.006530657410621643
60.0,0.005966738797724247
64.0,0.0052223666571080685
72.0,0.004276536870747805
80.0,0.0038459424395114183
88.0,0.003471593139693141
96.0,0.004007314797490835
104.0,0.004471259657293558
112.0,0.004553535487502813
120.0,0.004362480714917183
128.0,0.00374421919696033
144.0,0.0032438253983855247
160.0,0.0030984252225607634
176.0,0.0020225467160344124
192.0,0.001824051607400179
208.0,0.002180967014282942
224.0,0.0017743550706654787
240.0,0.0016806276980787516
256.0,0.001983090303838253
288.0,0.0014070294564589858
320.0,0.0007251836359500885
352.0,0.0015844196313992143
384.0,0.00076815125066787
416.0,0.0014852216700091958
448.0,0.0014630394289270043
480.0,0.0014375867322087288
512.0,0.001790922600775957
576.0,0.002466221572831273
640.0,0.0014064050046727061
704.0,-0.00223021162673831
768.0,0.0003694597107823938
832.0,0.0005108796758577228
896.0,-0.00023935679928399622
960.0,-0.0011375953909009695
1024.0,6.522008334286511e-05
1152.0,-0.0013015522854402661
1280.0,0.00025400458252988756
1408.0,0.00029088169685564935
1536.0,0.00038035769830457866
1664.0,0.00028396243578754365
1792.0,-0.0001319111615885049
1920.0,0.00031614091130904853
2048.0,0.0007731156074441969
2304.0,0.00044621279812417924
2560.0,-0.001178200007416308
2816.0,-8.108521433314309e-05
3072.0,-0.0007196504739113152
3328.0,-0.0015524823684245348
3584.0,-0.002033434808254242
3840.0,-0.0009360334952361882
4096.0,0.00034544762456789613
4608.0,-0.001304697711020708
5120.0,-0.0012148689711466432
5632.0,-0.0002029308961937204
6144.0,0.00016702715947758406
6656.0,-0.0014890272868797183
7168.0,-0.0016116300830617547
7680.0,-0.002318920334801078
8192.0,0.001979187363758683
9216.0,0.0001888340339064598
10240.0,0.0017071431502699852
11264.0,0.0011424992699176073
12288.0,0.0004609340976458043
13312.0,4.361976243671961e-05
14336.0,-0.0018765015993267298
end
