version,3.0
numOfCh,1
type,point
parent_name,10-cuts
ch_type,1_1
kcount,1
numberNandB,1
brightnessNandB,1
carpet pos,0
pc,0
Time (ms),CH1 Auto-Correlation
1.0,0.040549952536821365
2.0,0.03735286742448807
3.0,0.0345521979033947
4.0,0.03211424872279167
5.0,0.02999792993068695
6.0,0.028149809688329697
7.0,0.02653275430202484
8.0,0.02507868967950344
9.0,0.023824846372008324
10.0,0.02273513749241829
11.0,0.0217167679220438
12.0,0.020677197724580765
13.0,0.01977222040295601
14.0,0.018956489861011505
15.0,0.0182279534637928
16.0,0.0174728836864233
18.0,0.016301436349749565
20.0,0.015413821674883366
22.0,0.014759170822799206
24.0,0.014018540270626545
26.0,0.013372652232646942
28.0,0.01292805839329958
30.0,0.012309465557336807
32.0,0.011810539290308952
36.0,0.01104405615478754
40.0,0.010436582379043102
44.0,0.009803159162402153
48.0,0.009104379452764988
52.0,0.008299869485199451
56.0,0.007596345618367195
60.0,0.007095716893672943
64.0,0.006817536428570747
72.0,0.005824632942676544
80.0,0.005245858337730169
88.0,0.004582880064845085
96.0,0.004297439008951187
104.0,0.004865735303610563
112.0,0.0054917847737669945
120.0,0.005216328892856836
128.0,0.00428589666262269
144.0,0.002809474477544427
160.0,0.0019836630672216415
176.0,0.001542540267109871
192.0,0.0018933193059638143
208.0,0.0010355205740779638
224.0,0.0005511249182745814
240.0,0.000632135896012187
256.0,0.0008066391455940902
288.0,-0.0006987141678109765
320.0,-0.0016742728184908628
352.0,-0.000800683512352407
384.0,-0.0010478075128048658
416.0,0.0002686003572307527
448.0,0.0005110776983201504
480.0,0.0013081934303045273
512.0,0.0010672571370378137
576.0,0.0012016117107123137
640.0,0.0014531243359670043
704.0,0.00204399018548429
768.0,0.00014558561088051647
832.0,0.0019164539407938719
896.0,0.00317958602681756
960.0,0.0032826103270053864
1024.0,0.002357243560254574
1152.0,0.002137312898412347
1280.0,0.0003576675953809172
1408.0,0.0012384670553728938
1536.0,0.0020921912509948015
1664.0,0.001148677198216319
1792.0,-0.0005064538563601673
1920.0,0.00039689053664915264
2048.0,-8.011348108993843e-05
2304.0,0.0004213473876006901
2560.0,0.0014278716407716274
2816.0,-0.0013892342103645205
3072.0,-0.0007728825439698994
3328.0,-0.00024152902187779546
3584.0,0.000860185653436929
3840.0,-0.00032081673271022737
4096.0,-0.0019844602793455124
4608.0,7.35435460228473e-05
5120.0,-0.0008277317392639816
5632.0,-0.0008443896076641977
6144.0,0.0007744674803689122
6656.0,-0.0014953501522541046
7168.0,0.0018112256657332182
7680.0,-0.0005609001382254064
8192.0,6.751183536835015e-05
9216.0,-0.0010263464646413922
10240.0,-0.0008206056081689894
11264.0,-0.0003962763585150242
12288.0,-0.000378540251404047
13312.0,-0.0027983300387859344
14336.0,-0.0021469739731401205
end
