version,3.0
numOfCh,1
type,point
parent_name,10-cuts
ch_type,1_1
kcount,1
numberNandB,1
brightnessNandB,1
carpet pos,0
pc,0
Time (ms),CH1 Auto-Correlation
1.0,0.02803514525294304
2.0,0.025885405018925667
3.0,0.02402496710419655
4.0,0.02238377369940281
5.0,0.020993627607822418
6.0,0.019703062251210213
7.0,0.01854828931391239
8.0,0.01759735308587551
9.0,0.01676485501229763
10.0,0.016030116006731987
11.0,0.015347400680184364
12.0,0.014763589017093182
13.0,0.014226799830794334
14.0,0.013750411570072174
15.0,0.013327741995453835
16.0,0.01289606373757124
18.0,0.012195691466331482
20.0,0.011544535867869854
22.0,0.010943097062408924
24.0,0.010411746799945831
26.0,0.009879356250166893
28.0,0.009336183778941631
30.0,0.008861277252435684
32.0,0.008445228450000286
36.0,0.007678513880819082
40.0,0.00705337431281805
44.0,0.006628761067986488
48.0,0.006189459003508091
52.0,0.005666256882250309
56.0,0.005232888273894787
60.0,0.004856331739574671
64.0,0.004719670861959457
72.0,0.004626711830496788
80.0,0.004213729873299599
88.0,0.003801551880314946
96.0,0.003879865165799856
104.0,0.0038382152561098337
112.0,0.0033619834575802088
120.0,0.002573709934949875
128.0,0.0021084712352603674
144.0,0.002498036716133356
160.0,0.0027236901223659515
176.0,0.0024719086941331625
192.0,0.0021014539524912834
208.0,0.0018219489138573408
224.0,0.0014322989154607058
240.0,0.0012020993744954467
256.0,0.001647471683099866
288.0,0.001326021971181035
320.0,0.0003264168044552207
352.0,-0.00026451656594872475
384.0,-0.00075024418765679
416.0,-0.0006362252752296627
448.0,0.0001466269459342584
480.0,3.73112598026637e-05
512.0,-0.0017377969343215227
576.0,-0.0010592088801786304
640.0,-0.0003449508221819997
704.0,0.0001338900619884953
768.0,-0.00047926654224283993
832.0,-0.0006205403478816152
896.0,-0.0005789183196611702
960.0,3.083820774918422e-05
1024.0,0.0004254500090610236
1152.0,-0.0006643867818638682
1280.0,-0.0007647231104783714
1408.0,-0.0004808419616892934
1536.0,0.000275024474831298
1664.0,-0.000774661370087415
1792.0,-0.0006761639378964901
1920.0,-0.0021170738618820906
2048.0,-0.0033790431916713715
2304.0,-0.0020333544816821814
2560.0,-0.0008735708543099463
2816.0,9.870270150713623e-05
3072.0,0.0018224244704470038
3328.0,0.0011308899847790599
3584.0,0.0010653482750058174
3840.0,0.001449167844839394
4096.0,0.0012349593453109264
4608.0,1.221203274326399e-05
5120.0,-0.00016320784925483167
5632.0,-0.0018399172695353627
6144.0,-0.0015845047309994698
6656.0,0.0009391471394337714
7168.0,-0.0008639428997412324
7680.0,0.0016325495671480894
8192.0,0.002036286750808358
9216.0,-0.0006387227331288159
10240.0,-0.00105115189217031
11264.0,0.0007309689535759389
12288.0,0.0006063226610422134
13312.0,-0.0010193618945777416
14336.0,-0.0007181820110417902
end
