version,3.0
numOfCh,1
type,point
parent_name,10-cuts
ch_type,1_1
kcount,1
numberNandB,1
brightnessNandB,1
carpet pos,0
pc,0
Time (ms),CH1 Auto-Correlation
1.0,0.02794315665960312
2.0,0.02587631158530712
3.0,0.024072911590337753
4.0,0.022452982142567635
5.0,0.021012313663959503
6.0,0.019837435334920883
7.0,0.018887728452682495
8.0,0.018064890056848526
9.0,0.017349133267998695
10.0,0.016669580712914467
11.0,0.016031237319111824
12.0,0.015497343614697456
13.0,0.014952774159610271
14.0,0.014397630468010902
15.0,0.013887031935155392
16.0,0.013348142616450787
18.0,0.012379293330013752
20.0,0.01155102625489235
22.0,0.010732601396739483
24.0,0.010027056559920311
26.0,0.009386610239744186
28.0,0.008741309866309166
30.0,0.008138773962855339
32.0,0.007705627474933863
36.0,0.006929041352123022
40.0,0.005914635956287384
44.0,0.005224777385592461
48.0,0.004943137522786856
52.0,0.004526250530034304
56.0,0.003941801376640797
60.0,0.003682150039821863
64.0,0.0034957886673510075
72.0,0.0027714669704437256
80.0,0.0021563994232565165
88.0,0.0019006812945008278
96.0,0.0014730847906321287
104.0,0.0008084819419309497
112.0,0.0005679982714354992
120.0,0.0003921726893167943
128.0,0.0007215387304313481
144.0,0.0002517900720704347
160.0,-0.0006377107347361743
176.0,-0.0006888969801366329
192.0,-0.0003544978972058743
208.0,-0.0005214724224060774
224.0,-0.0006047180504538119
240.0,-0.0001743485772749409
256.0,0.0006118788151070476
288.0,0.00018834650109056383
320.0,0.0005305790109559894
352.0,-0.00030776610947214067
384.0,-0.0008003429975360632
416.0,-0.0012929252116009593
448.0,-0.0008136526448652148
480.0,-0.000584529188927263
512.0,4.290082142688334e-05
576.0,-0.00048336098552681506
640.0,0.0009024530299939215
704.0,0.000376904325094074
768.0,-0.0009550199611112475
832.0,0.0002817492641042918
896.0,0.0012524930061772466
960.0,-0.000139382915222086
1024.0,-0.000562128028832376
1152.0,0.0005116218817420304
1280.0,-0.0002928998146671802
1408.0,-0.00026310497196391225
1536.0,-0.00024891557404771447
1664.0,0.000302673113765195
1792.0,0.001925550983287394
1920.0,-0.0006288092117756605
2048.0,0.00138035137206316
2304.0,-0.00039588887011632323
2560.0,-0.00010335188562748954
2816.0,0.00039944739546626806
3072.0,0.00011417156201787293
3328.0,-0.00041915482142940164
3584.0,-0.0011928034946322441
3840.0,0.0008225138881243765
4096.0,-0.0016649134922772646
4608.0,-0.0002532970393076539
5120.0,0.0004637819074559957
5632.0,-0.0003747502632904798
6144.0,-0.0008437464130111039
6656.0,0.0009424315649084747
7168.0,0.0003529847599565983
7680.0,-0.00034773285733535886
8192.0,0.0003526668297126889
9216.0,-0.0002234105922980234
10240.0,-0.0008956418023444712
11264.0,0.0002419618977000937
12288.0,-0.00043885232298634946
13312.0,0.00016251043416559696
14336.0,0.0012658489868044853
end
