version,3.0
numOfCh,1
type,point
parent_name,10-cuts
ch_type,1_1
kcount,1
numberNandB,1
brightnessNandB,1
carpet pos,0
pc,0
Time (ms),CH1 Auto-Correlation
1.0,0.026689395308494568
2.0,0.024532882496714592
3.0,0.02273222804069519
4.0,0.021192800253629684
5.0,0.019837141036987305
6.0,0.01868457905948162
7.0,0.01762234792113304
8.0,0.016654031351208687
9.0,0.015788961201906204
10.0,0.014960655942559242
11.0,0.014164485968649387
12.0,0.013451391831040382
13.0,0.012784263119101524
14.0,0.012243903242051601
15.0,0.011784730479121208
16.0,0.011320366524159908
18.0,0.010458058677613735
20.0,0.009725844487547874
22.0,0.009059076197445393
24.0,0.008508793078362942
26.0,0.007817350327968597
28.0,0.007335404399782419
30.0,0.00692538870498538
32.0,0.006502089556306601
36.0,0.005809093359857798
40.0,0.0052186474204063416
44.0,0.0047196378000080585
48.0,0.004311848431825638
52.0,0.0038376084994524717
56.0,0.0034681304823607206
60.0,0.0028595118783414364
64.0,0.0024348958395421505
72.0,0.0021026385948061943
80.0,0.0017164989840239286
88.0,0.0013915341114625335
96.0,0.0015918697463348508
104.0,0.0017809142591431737
112.0,0.0016720049316063523
120.0,0.0014313252177089453
128.0,0.0012707861606031656
144.0,0.0012564487988129258
160.0,0.00031510982080362737
176.0,-5.957386383670382e-05
192.0,9.762748959474266e-05
208.0,0.00040862729656510055
224.0,0.0008466656436212361
240.0,0.0010280829155817628
256.0,-0.00014829100109636784
288.0,-0.0012210984714329243
320.0,-0.0012408900074660778
352.0,-0.000383208564016968
384.0,-0.0006314380443654954
416.0,3.5301291063660756e-05
448.0,0.0002443710109218955
480.0,0.0011208767537027597
512.0,0.00018993031699210405
576.0,-0.0004843877977691591
640.0,0.0005438631633296609
704.0,-0.00032389748957939446
768.0,-0.0005968320183455944
832.0,0.000606955902185291
896.0,0.0004959524958394468
960.0,-9.185305680148304e-05
1024.0,-0.0007482880027964711
1152.0,-0.0011724221985787153
1280.0,0.00014298759924713522
1408.0,-0.00013303218293003738
1536.0,8.168411295628175e-05
1664.0,0.0013449498219415545
1792.0,-0.00019755394896492362
1920.0,-0.00047375427675433457
2048.0,0.0003444880130700767
2304.0,-0.0002543899754527956
2560.0,-0.0007249543559737504
2816.0,-0.0006567580858245492
3072.0,-0.001008765771985054
3328.0,0.0008672758704051375
3584.0,0.0010898006148636341
3840.0,-7.878139876993373e-05
4096.0,-0.0005328395054675639
4608.0,7.048113911878318e-05
5120.0,0.000626266875769943
5632.0,-0.0004950436414219439
6144.0,-0.0004692850634455681
6656.0,0.0002467334270477295
7168.0,-0.0003748405142687261
7680.0,-0.00014834769535809755
8192.0,-0.00039699103217571974
9216.0,0.00022593000903725624
10240.0,6.977996235946193e-05
11264.0,-0.0002725388912949711
12288.0,-0.00022520011407323182
13312.0,0.0005029719904996455
14336.0,0.0005331178545020521
end
