version,3.0
numOfCh,1
type,point
parent_name,10-cuts
ch_type,1_1
kcount,1
numberNandB,1
brightnessNandB,1
carpet pos,0
pc,0
Time (ms),CH1 Auto-Correlation
1.0,0.041541408747434616
2.0,0.03824674338102341
3.0,0.035419631749391556
4.0,0.03288174793124199
5.0,0.030601952224969864
6.0,0.028546350076794624
7.0,0.026717647910118103
8.0,0.025141648948192596
9.0,0.0236656591296196
10.0,0.022325826808810234
11.0,0.021185334771871567
12.0,0.020047759637236595
13.0,0.018993768841028214
14.0,0.01807148940861225
15.0,0.017283346503973007
16.0,0.016461485996842384
18.0,0.015240352600812912
20.0,0.01425644475966692
22.0,0.013290519826114178
24.0,0.012316213920712471
26.0,0.011409053578972816
28.0,0.010671889409422874
30.0,0.010023454204201698
32.0,0.009438159875571728
36.0,0.008545366115868092
40.0,0.007944554090499878
44.0,0.007349508348852396
48.0,0.006715884432196617
52.0,0.006404058076441288
56.0,0.006665402092039585
60.0,0.006698615849018097
64.0,0.006212840788066387
72.0,0.004489393439143896
80.0,0.003230382688343525
88.0,0.002528543584048748
96.0,0.0029914805199950933
104.0,0.0034069777466356754
112.0,0.004258007276803255
120.0,0.004873452242463827
128.0,0.004185637924820185
144.0,0.0030568980146199465
160.0,0.0028874212875962257
176.0,0.002794928615912795
192.0,0.002888899063691497
208.0,0.002497366163879633
224.0,0.0015579437604174018
240.0,0.0016963492380455136
256.0,0.0013699713163077831
288.0,0.001072801067493856
320.0,-0.0006087660440243781
352.0,-0.0008295775623992085
384.0,-0.0006010412471368909
416.0,4.2208748709526844e-06
448.0,-0.0002382008678978309
480.0,-0.0001807243243092671
512.0,-0.0022840125020593405
576.0,-0.0025246667210012674
640.0,-0.0018614799482747912
704.0,-0.0017960406839847565
768.0,3.852642112178728e-05
832.0,0.0018395842052996159
896.0,0.0018771047471091151
960.0,0.0009528166265226901
1024.0,-3.4830729418899864e-05
1152.0,0.0020445031113922596
1280.0,0.0015243839006870985
1408.0,-0.00031268224120140076
1536.0,-0.00011150737554999068
1664.0,-0.0001845280348788947
1792.0,0.0001596508373040706
1920.0,-0.0006738657830283046
2048.0,-0.00047389272367581725
2304.0,0.0006736891227774322
2560.0,0.0002123585290974006
2816.0,-0.0016232174821197987
3072.0,-0.0011130430502817035
3328.0,-0.0010773527901619673
3584.0,0.00012722260726150125
3840.0,0.0004569475131575018
4096.0,0.0015540142776444554
4608.0,-0.000509068660903722
5120.0,0.00014117966929916292
5632.0,-0.00013514871534425765
6144.0,-0.0001517184282420203
6656.0,0.0006334261852316558
7168.0,-0.001318595022894442
7680.0,0.0014477117219939828
8192.0,0.00020929562742821872
9216.0,-0.0006199739873409271
10240.0,-0.0014229710213840008
11264.0,-0.0009183581569232047
12288.0,-0.0005108035984449089
13312.0,-0.000616874429397285
14336.0,0.0015486282063648105
end
