version,3.0
numOfCh,1
type,point
parent_name,10-cuts
ch_type,1_1
kcount,1
numberNandB,1
brightnessNandB,1
carpet pos,0
pc,0
Time (ms),CH1 Auto-Correlation
1.0,0.027455149218440056
2.0,0.02526562474668026
3.0,0.023361291736364365
4.0,0.021669676527380943
5.0,0.020205380395054817
6.0,0.018855467438697815
7.0,0.017673632130026817
8.0,0.01660359650850296
9.0,0.015651993453502655
10.0,0.014845840632915497
11.0,0.014093213714659214
12.0,0.013435276225209236
13.0,0.012838111259043217
14.0,0.012270440347492695
15.0,0.011703580617904663
16.0,0.011189429089426994
18.0,0.010371389798820019
20.0,0.009727817960083485
22.0,0.009115952998399734
24.0,0.008624066598713398
26.0,0.008108978159725666
28.0,0.007620244286954403
30.0,0.007146402262151241
32.0,0.0067191356793046
36.0,0.005882659927010536
40.0,0.005311185028403997
44.0,0.004946282133460045
48.0,0.004629789385944605
52.0,0.004255753941833973
56.0,0.0038429563865065575
60.0,0.0033341492526233196
64.0,0.0032316583674401045
72.0,0.0028132041916251183
80.0,0.002050309209153056
88.0,0.0013299778802320361
96.0,0.0007852843846194446
104.0,0.0007044944795779884
112.0,0.0006450461223721504
120.0,0.0007602008408866823
128.0,0.0012573993299156427
144.0,0.001367680262774229
160.0,0.001109930220991373
176.0,0.0015318470541387796
192.0,0.001604516408406198
208.0,0.001454520272091031
224.0,0.0009282392566092312
240.0,0.00025257811648771167
256.0,0.0006553927669301629
288.0,0.0005526439053937793
320.0,0.0019740520510822535
352.0,0.0011021627578884363
384.0,0.001272048568353057
416.0,0.0002335124445380643
448.0,-0.00013431880506686866
480.0,-0.00030306409462355077
512.0,0.00015913390961941332
576.0,0.0008621279266662896
640.0,0.0001634426589589566
704.0,0.0008166608749888837
768.0,0.00023956515360623598
832.0,-0.00024472182849422097
896.0,-0.0006883777678012848
960.0,-0.0008451830944977701
1024.0,-0.0020080560352653265
1152.0,-0.0014582016738131642
1280.0,-0.0012129866518080235
1408.0,-0.0002736531605478376
1536.0,-0.0005042316042818129
1664.0,-0.0005668898811563849
1792.0,-0.0006251493468880653
1920.0,-0.0007012754213064909
2048.0,-0.00011732718849088997
2304.0,0.0002591577067505568
2560.0,-0.000406865932745859
2816.0,0.0009361802949570119
3072.0,-0.00036626000655815005
3328.0,-0.00020801353093702346
3584.0,0.0005906335427425802
3840.0,-0.0009197154431603849
4096.0,0.00024642530479468405
4608.0,0.00047259521670639515
5120.0,-0.00010246643796563148
5632.0,-0.00017695226415526122
6144.0,-0.0002510937920305878
6656.0,-0.0008205871563404799
7168.0,-0.0006959127495065331
7680.0,-2.2658463421976194e-05
8192.0,-0.00045303988736122847
9216.0,0.00040295501821674407
10240.0,7.143335096770898e-05
11264.0,0.0006772146443836391
12288.0,-0.0018460534047335386
13312.0,0.0023900012020021677
14336.0,0.002998553914949298
end
