version,3.0
numOfCh,1
type,point
parent_name,10-cuts
ch_type,1_1
kcount,1
numberNandB,1
brightnessNandB,1
carpet pos,0
pc,0
Time (ms),CH1 Auto-Correlation
1.0,0.040157902985811234
2.0,0.03710493445396423
3.0,0.034439221024513245
4.0,0.03209652006626129
5.0,0.030041608959436417
6.0,0.028250383213162422
7.0,0.026658155024051666
8.0,0.025280389934778214
9.0,0.023978576064109802
10.0,0.022748881950974464
11.0,0.021716220304369926
12.0,0.02075108140707016
13.0,0.019831454381346703
14.0,0.019062163308262825
15.0,0.018361877650022507
16.0,0.017665715888142586
18.0,0.01649896241724491
20.0,0.01545093022286892
22.0,0.014410994946956635
24.0,0.013483092188835144
26.0,0.012621669098734856
28.0,0.011730734258890152
30.0,0.010960093699395657
32.0,0.010270846076309681
36.0,0.009174424223601818
40.0,0.008333305828273296
44.0,0.007586682215332985
48.0,0.007177299354225397
52.0,0.0072362362407147884
56.0,0.007004887331277132
60.0,0.00664691673591733
64.0,0.006487083621323109
72.0,0.0065809329971671104
80.0,0.006392397917807102
88.0,0.005368012003600597
96.0,0.0047631580382585526
104.0,0.0037698494270443916
112.0,0.0028521320782601833
120.0,0.002919459715485573
128.0,0.0036263703368604183
144.0,0.0033306642435491085
160.0,0.0035248694475740194
176.0,0.0023447652347385883
192.0,0.0006548353703692555
208.0,-0.0006274932529777288
224.0,-0.000952563772443682
240.0,-0.0012654021847993135
256.0,-0.0010844157077372074
288.0,-0.0016157341888174415
320.0,-0.0020680769812315702
352.0,-0.0016472316347062588
384.0,-0.0016856614965945482
416.0,-0.0008956583915278316
448.0,-0.000789727782830596
480.0,-0.001524703111499548
512.0,-0.0013209983007982373
576.0,-0.0030927041079849005
640.0,-0.0029174531809985638
704.0,-0.0016308748163282871
768.0,-0.0018352580955252051
832.0,-0.00016889670223463327
896.0,0.00030061250436119735
960.0,0.0016153480391949415
1024.0,0.0026913646142929792
1152.0,0.0017063891282305121
1280.0,0.002338145626708865
1408.0,0.0012322074035182595
1536.0,-0.0005781669169664383
1664.0,-0.0015700362855568528
1792.0,-0.0018588209059089422
1920.0,-0.0014454162446781993
2048.0,-0.0012429979396983981
2304.0,-0.00039349717553704977
2560.0,0.00048754128511063755
2816.0,6.221132207429036e-05
3072.0,0.00011715049186022952
3328.0,0.000625528977252543
3584.0,-0.0009421767899766564
3840.0,-0.0003999658511020243
4096.0,0.0019452279666438699
4608.0,-0.0014298936584964395
5120.0,0.0004645032458938658
5632.0,-0.00032555664074607193
6144.0,-0.0007074727909639478
6656.0,0.001327941077761352
7168.0,0.0001129981828853488
7680.0,-0.0012646075338125229
8192.0,0.0005895490176044405
9216.0,-0.0003342215495649725
10240.0,0.0001587152946740389
11264.0,-0.0001853933063102886
12288.0,0.0008349348208867013
13312.0,2.5200357413268648e-05
14336.0,-0.0027093959506601095
end
