version,3.0
numOfCh,1
type,point
parent_name,10-cuts
ch_type,1_1
kcount,1
numberNandB,1
brightnessNandB,1
carpet pos,0
pc,0
Time (ms),CH1 Auto-Correlation
1.0,0.02914588525891304
2.0,0.026999808847904205
3.0,0.02512277476489544
4.0,0.02352217026054859
5.0,0.022124040871858597
6.0,0.02085082046687603
7.0,0.019750865176320076
8.0,0.01876465231180191
9.0,0.017820069566369057
10.0,0.016948504373431206
11.0,0.016113176941871643
12.0,0.01529415138065815
13.0,0.014553260989487171
14.0,0.01384337805211544
15.0,0.013259955681860447
16.0,0.012695234268903732
18.0,0.011640481650829315
20.0,0.010805866681039333
22.0,0.010012563318014145
24.0,0.009364886209368706
26.0,0.008791983127593994
28.0,0.008120409213006496
30.0,0.007494638208299875
32.0,0.006914101075381041
36.0,0.0058110905811190605
40.0,0.005196127109229565
44.0,0.004968427121639252
48.0,0.00482439249753952
52.0,0.004719057120382786
56.0,0.004603263922035694
60.0,0.004310027230530977
64.0,0.003959751687943935
72.0,0.0034348852932453156
80.0,0.0031335384119302034
88.0,0.002630652394145727
96.0,0.0017631171504035592
104.0,0.0012505378108471632
112.0,0.0012877717381343246
120.0,0.001019133604131639
128.0,0.0007479972555302083
144.0,0.00041095924098044634
160.0,0.0003046041529159993
176.0,0.0003001918375957757
192.0,-0.00023615547979716212
208.0,-0.00019985636754427105
224.0,-0.00029055256163701415
240.0,-0.0005259670433588326
256.0,-0.0006726092542521656
288.0,0.000380715326173231
320.0,-0.00031327849137596786
352.0,-3.259086224716157e-05
384.0,-0.00040638598147779703
416.0,1.3416611182037741e-05
448.0,0.0002595053520053625
480.0,0.0001940421061590314
512.0,0.0009066892671398818
576.0,0.0006237901980057359
640.0,0.0007741366280242801
704.0,-0.0001926096301758662
768.0,-0.0006562506896443665
832.0,-0.0010935867903754115
896.0,0.0007880423218011856
960.0,0.0004878438194282353
1024.0,-0.00035866652615368366
1152.0,0.00038016552571207285
1280.0,-0.00014705875946674496
1408.0,5.217691796133295e-05
1536.0,0.0004097309720236808
1664.0,-0.0019130483269691467
1792.0,-0.0010706858010962605
1920.0,-0.0003944674099329859
2048.0,-0.0003714830381795764
2304.0,-0.0004970055888406932
2560.0,0.0009632160072214901
2816.0,0.0003984355425927788
3072.0,0.0005005340790376067
3328.0,0.0001371118996758014
3584.0,3.54933763446752e-05
3840.0,-0.0006454674294218421
4096.0,-0.0004879108164459467
4608.0,-0.00021749254665337503
5120.0,-7.288996130228043e-05
5632.0,0.0009297027718275785
6144.0,0.0001539780932944268
6656.0,0.00028563017258420587
7168.0,-0.0006015727412886918
7680.0,-0.0007683060830458999
8192.0,2.3765605874359608e-05
9216.0,2.3000980945653282e-05
10240.0,-0.0008964735898189247
11264.0,-0.00013026664964854717
12288.0,0.0005046888836659491
13312.0,-0.0005104502779431641
14336.0,-0.000841852743178606
end
