version,3.0
numOfCh,1
type,point
parent_name,10-cuts
ch_type,1_1
kcount,1
numberNandB,1
brightnessNandB,1
carpet pos,0
pc,0
Time (ms),CH1 Auto-Correlation
1.0,0.08197949081659317
2.0,0.07497234642505646
3.0,0.06878940761089325
4.0,0.06365685909986496
5.0,0.0591336190700531
6.0,0.0553080216050148
7.0,0.05181150138378143
8.0,0.04874158650636673
9.0,0.04574807733297348
10.0,0.0428709015250206
11.0,0.040159497410058975
12.0,0.03775497153401375
13.0,0.03559519350528717
14.0,0.03374015539884567
15.0,0.03202107176184654
16.0,0.030390171334147453
18.0,0.027657514438033104
20.0,0.02552814967930317
22.0,0.023590626195073128
24.0,0.021801549941301346
26.0,0.01994466781616211
28.0,0.018328426405787468
30.0,0.01688053272664547
32.0,0.01596567966043949
36.0,0.015105594880878925
40.0,0.014267505146563053
44.0,0.013378939591348171
48.0,0.012706635519862175
52.0,0.01215340942144394
56.0,0.010969768278300762
60.0,0.009535289369523525
64.0,0.007803615182638168
72.0,0.004666564986109734
80.0,0.0026015222538262606
88.0,0.0026793470606207848
96.0,0.002788202604278922
104.0,0.0014141268329694867
112.0,0.0015878045232966542
120.0,0.0016574201872572303
128.0,0.001435974845662713
144.0,-0.00043311589979566634
160.0,-0.00043024023761972785
176.0,0.00193662173114717
192.0,0.00304889096878469
208.0,0.004182587843388319
224.0,0.003382985945791006
240.0,0.0017250239616259933
256.0,0.0016918210312724113
288.0,-0.0008565426687709987
320.0,-0.0013678331160917878
352.0,-0.002810148522257805
384.0,-0.005442988593131304
416.0,-0.005001387558877468
448.0,-0.006413479335606098
480.0,-0.004011018667370081
512.0,-0.0011838441714644432
576.0,0.000569175579585135
640.0,-0.0013855096185579896
704.0,0.0009766161674633622
768.0,-0.001610811916179955
832.0,0.00012021746806567535
896.0,0.0009633290464989841
960.0,-0.000827691750600934
1024.0,0.0012386695016175508
1152.0,-0.0006904220790602267
1280.0,9.581197809893638e-05
1408.0,-0.0031924580689519644
1536.0,-0.0018561315955594182
1664.0,0.002175287576392293
1792.0,-0.0004309122159611434
1920.0,0.0011388675775378942
2048.0,0.0021494810935109854
2304.0,0.00031567513360641897
2560.0,-0.00235263560898602
2816.0,-0.001781935803592205
3072.0,0.00034331768983975053
3328.0,8.199047442758456e-05
3584.0,-0.003595498623326421
3840.0,0.001287854858674109
4096.0,-0.0019574265461415052
4608.0,0.000706898863427341
5120.0,0.00026356783928349614
5632.0,0.00015956330753397197
6144.0,0.00015007826732471585
6656.0,0.00282318820245564
7168.0,0.00035178608959540725
7680.0,-0.0005740193300880492
8192.0,-0.0008636159473098814
9216.0,0.0008824145770631731
10240.0,-0.0011063391575589776
11264.0,0.00014792161528021097
12288.0,-0.0007067581755109131
13312.0,0.00039857981028035283
14336.0,-0.00015306996647268534
end
