version,3.0
numOfCh,1
type,point
parent_name,10-cuts
ch_type,1_1
kcount,1
numberNandB,1
brightnessNandB,1
carpet pos,0
pc,0
Time (ms),CH1 Auto-Correlation
1.0,0.02749614417552948
2.0,0.025373943150043488
3.0,0.023582255467772484
4.0,0.0220215804874897
5.0,0.020704360678792
6.0,0.019540289416909218
7.0,0.0184846930205822
8.0,0.017566438764333725
9.0,0.016754982993006706
10.0,0.015929346904158592
11.0,0.015153373591601849
12.0,0.014444527216255665
13.0,0.013751877471804619
14.0,0.013196602463722229
15.0,0.012705524452030659
16.0,0.012244935147464275
18.0,0.01119621004909277
20.0,0.010281461291015148
22.0,0.00958646833896637
24.0,0.009032737463712692
26.0,0.008609192445874214
28.0,0.008094478398561478
30.0,0.007559501565992832
32.0,0.007090126164257526
36.0,0.006314374972134829
40.0,0.005881893448531628
44.0,0.005432854872196913
48.0,0.00496290996670723
52.0,0.004586761351674795
56.0,0.004302926827222109
60.0,0.0039617568254470825
64.0,0.0034801834262907505
72.0,0.0030423528514802456
80.0,0.0026391332503408194
88.0,0.0021150398533791304
96.0,0.0022617834620177746
104.0,0.002373718423768878
112.0,0.002566421404480934
120.0,0.0023698515724390745
128.0,0.0014539300464093685
144.0,0.0008261460461653769
160.0,0.0011622767196968198
176.0,0.0013404178898781538
192.0,0.0010432250564917922
208.0,0.0007710835197940469
224.0,-0.00016898650210350752
240.0,-0.00032362065394409
256.0,0.0003885567421093583
288.0,0.0006727896397933364
320.0,0.001080350368283689
352.0,0.00040841149166226387
384.0,-0.0007721366127952933
416.0,-0.001268311170861125
448.0,-0.0009211826254613698
480.0,-0.0009410982020199299
512.0,-0.0002485773293301463
576.0,-0.0005400181398727
640.0,-0.0001596298534423113
704.0,0.0005251833354122937
768.0,0.0007184489513747394
832.0,-0.0004042017681058496
896.0,0.0003503528132569045
960.0,0.0009591997368261218
1024.0,0.00048236455768346786
1152.0,-0.00038406343082897365
1280.0,-0.001091429847292602
1408.0,-0.0012514932313933969
1536.0,-0.0005678816232830286
1664.0,0.00011022757098544389
1792.0,0.0004907614784315228
1920.0,0.0010516576003283262
2048.0,-0.0008952644420787692
2304.0,-0.0014145801542326808
2560.0,6.041983942850493e-05
2816.0,0.0005749334231950343
3072.0,-0.0016994718462228775
3328.0,0.0003658588684629649
3584.0,0.0007135849446058273
3840.0,-0.0008965367451310158
4096.0,-0.0014036215143278241
4608.0,-0.00015412083303090185
5120.0,-0.0002447729930281639
5632.0,-0.0005137250409461558
6144.0,-0.0005067380843684077
6656.0,0.00043040665332227945
7168.0,0.0010981934610754251
7680.0,0.0013089581625536084
8192.0,-0.00029165821615606546
9216.0,0.0003747472364921123
10240.0,0.00013729208149015903
11264.0,-0.0013547383714467287
12288.0,0.0005128195625729859
13312.0,-0.00015515246195718646
14336.0,0.0016579617513343692
end
