version,3.0
numOfCh,1
type,point
parent_name,10-cuts
ch_type,1_1
kcount,1
numberNandB,1
brightnessNandB,1
carpet pos,0
pc,0
Time (ms),CH1 Auto-Correlation
1.0,0.1043122336268425
2.0,0.09780602902173996
3.0,0.09210781753063202
4.0,0.08722451329231262
5.0,0.08277230709791183
6.0,0.07871387153863907
7.0,0.07518064230680466
8.0,0.07195302844047546
9.0,0.06901086866855621
10.0,0.06645411252975464
11.0,0.06411591917276382
12.0,0.06211284548044205
13.0,0.06017262488603592
14.0,0.05846092849969864
15.0,0.05678829550743103
16.0,0.055286917835474014
18.0,0.0522666834294796
20.0,0.04945866018533707
22.0,0.04717347025871277
24.0,0.045168470591306686
26.0,0.043257080018520355
28.0,0.04148457944393158
30.0,0.03958749398589134
32.0,0.03773737698793411
36.0,0.034997303038835526
40.0,0.03271429240703583
44.0,0.031185787171125412
48.0,0.0295393168926239
52.0,0.027829330414533615
56.0,0.027166517451405525
60.0,0.02591521665453911
64.0,0.024060694500803947
72.0,0.020071204751729965
80.0,0.017446551471948624
88.0,0.017184438183903694
96.0,0.01454964093863964
104.0,0.012106760405004025
112.0,0.011517373844981194
120.0,0.010779786854982376
128.0,0.010156350210309029
144.0,0.010550376959145069
160.0,0.01132277399301529
176.0,0.011943007819354534
192.0,0.008961143903434277
208.0,0.008076656609773636
224.0,0.008286332711577415
240.0,0.007334405090659857
256.0,0.006763748824596405
288.0,0.006339312996715307
320.0,0.0067194560542702675
352.0,0.006236253306269646
384.0,0.004525965545326471
416.0,0.0051485635340213776
448.0,-0.0014707003720104694
480.0,-0.002010122872889042
512.0,-0.0024790391325950623
576.0,0.006514886859804392
640.0,0.005351221654564142
704.0,0.0010218899697065353
768.0,-0.0013167962897568941
832.0,-0.0013729772763326764
896.0,-0.0014168723719194531
960.0,-0.0014480054378509521
1024.0,-0.0027605199720710516
1152.0,-0.001997180748730898
1280.0,-0.004502502270042896
1408.0,-0.0037492059636861086
1536.0,-0.001253946335054934
1664.0,-0.00113745778799057
1792.0,0.002174034481868148
1920.0,-0.005486135836690664
2048.0,-0.0036036137025803328
2304.0,0.005674528423696756
2560.0,0.004200350027531385
2816.0,0.004447857849299908
3072.0,0.005614863708615303
3328.0,-0.0001366009091725573
3584.0,-0.005752152763307095
3840.0,-0.007040476892143488
4096.0,-0.006063665729016066
4608.0,-0.0003565497463569045
5120.0,0.0006855619139969349
5632.0,0.0008459657547064126
6144.0,-0.0026434140745550394
6656.0,-0.005997818894684315
7168.0,-0.0009948201477527618
7680.0,0.004107970744371414
8192.0,0.00043569246190600097
9216.0,-0.002969826338812709
10240.0,-0.002575887134298682
11264.0,-0.003050625789910555
12288.0,-0.0034672068431973457
13312.0,0.004922475665807724
14336.0,0.0016914221923798323
end
