version,3.0
numOfCh,1
type,point
parent_name,10-cuts
ch_type,1_1
kcount,1
numberNandB,1
brightnessNandB,1
carpet pos,0
pc,0
Time (ms),CH1 Auto-Correlation
1.0,0.04252021387219429
2.0,0.03935857117176056
3.0,0.03660881146788597
4.0,0.03423907607793808
5.0,0.032123006880283356
6.0,0.03026227280497551
7.0,0.02857648767530918
8.0,0.027055254206061363
9.0,0.025647038593888283
10.0,0.0243542417883873
11.0,0.023156363517045975
12.0,0.022058185189962387
13.0,0.021071242168545723
14.0,0.020198965445160866
15.0,0.019426504150032997
16.0,0.018797263503074646
18.0,0.01758192479610443
20.0,0.016615156084299088
22.0,0.01569795049726963
24.0,0.014736354351043701
26.0,0.013727130368351936
28.0,0.012870516628026962
30.0,0.012237303890287876
32.0,0.011549989692866802
36.0,0.010608090087771416
40.0,0.00999492034316063
44.0,0.009311503730714321
48.0,0.008557271212339401
52.0,0.00786372646689415
56.0,0.007503715809434652
60.0,0.0072013274766504765
64.0,0.0068830158561468124
72.0,0.0060165333561599255
80.0,0.005209851078689098
88.0,0.004518928937613964
96.0,0.0038011360447853804
104.0,0.0031583907548338175
112.0,0.002772250911220908
120.0,0.002987029729411006
128.0,0.0030718494672328234
144.0,0.0033963965252041817
160.0,0.0038252107333391905
176.0,0.003578444477170706
192.0,0.0034320910926908255
208.0,0.002195505890995264
224.0,0.001154741970822215
240.0,0.0008267383091151714
256.0,0.0010158908553421497
288.0,-7.49638129491359e-05
320.0,-0.00022722629364579916
352.0,-0.0005216204444877803
384.0,0.0013446228113025427
416.0,0.0017103147692978382
448.0,0.0028892168775200844
480.0,0.0024525488261133432
512.0,0.0022331562358886003
576.0,-0.0002513267390895635
640.0,0.00048568687634542584
704.0,-0.0009340575197711587
768.0,-0.000767282210290432
832.0,-0.0016581389354541898
896.0,-0.00016657586093060672
960.0,0.0008664125925861299
1024.0,-0.0004088255809620023
1152.0,-6.0440357628976926e-05
1280.0,-0.0005886474973522127
1408.0,-0.0006464184843935072
1536.0,-0.000962719030212611
1664.0,-0.00028560671489685774
1792.0,-0.00035156612284481525
1920.0,-0.0002941636194009334
2048.0,-0.0011812122538685799
2304.0,-0.001593678374774754
2560.0,-0.0024841208942234516
2816.0,-0.0010320688597857952
3072.0,1.3819476407661568e-05
3328.0,0.001108426135033369
3584.0,0.0001636769447941333
3840.0,-0.0009330872562713921
4096.0,0.000821996945887804
4608.0,0.000746722798794508
5120.0,-0.0005422455142252147
5632.0,-0.00138319272082299
6144.0,0.0012839193223044276
6656.0,-0.0015301322564482689
7168.0,-0.001228814129717648
7680.0,-3.243091850890778e-05
8192.0,-0.0005299853510223329
9216.0,0.002746697748079896
10240.0,0.0007450410048477352
11264.0,-0.0020579437259584665
12288.0,0.0007022499921731651
13312.0,0.00030984554905444384
14336.0,-0.002082580467686057
end
