version,3.0
numOfCh,1
type,point
parent_name,10-cuts
ch_type,1_1
kcount,1
numberNandB,1
brightnessNandB,1
carpet pos,0
pc,0
Time (ms),CH1 Auto-Correlation
1.0,0.02509521320462227
2.0,0.022977400571107864
3.0,0.02106316387653351
4.0,0.0194206815212965
5.0,0.01798534020781517
6.0,0.01671631820499897
7.0,0.015576994977891445
8.0,0.014574627391994
9.0,0.01364230364561081
10.0,0.012822126969695091
11.0,0.012119007296860218
12.0,0.011466779746115208
13.0,0.010861741378903389
14.0,0.010336600244045258
15.0,0.009802978485822678
16.0,0.009261210449039936
18.0,0.008449874818325043
20.0,0.007737686391919851
22.0,0.007116416003555059
24.0,0.006576147861778736
26.0,0.006116626784205437
28.0,0.00574134849011898
30.0,0.005557982251048088
32.0,0.005364115349948406
36.0,0.004696458112448454
40.0,0.004287690855562687
44.0,0.003949177451431751
48.0,0.0036694728769361973
52.0,0.003206493565812707
56.0,0.0027000668924301863
60.0,0.00225743162445724
64.0,0.002054948825389147
72.0,0.001898069866001606
80.0,0.0018150456016883254
88.0,0.0016447153175249696
96.0,0.0014764575753360987
104.0,0.0011143030133098364
112.0,0.000775048159994185
120.0,-4.994665687263478e-06
128.0,-0.00035806340747512877
144.0,0.0001818628516048193
160.0,0.000573323923163116
176.0,0.0006678223144263029
192.0,0.0003655900072772056
208.0,-0.00026571389753371477
224.0,-0.00047062631347216666
240.0,-0.0003224276297260076
256.0,3.2804255170049146e-05
288.0,-0.0005106684984639287
320.0,0.0006790403858758509
352.0,0.0005245070206001401
384.0,4.4692744268104434e-05
416.0,-0.0006506689824163914
448.0,-0.000601380888838321
480.0,-0.001309967483393848
512.0,-0.001360778114758432
576.0,-5.4711221309844404e-05
640.0,0.0002715371665544808
704.0,-0.00023686711210757494
768.0,0.0013208973687142134
832.0,0.0004267824988346547
896.0,9.734844206832349e-05
960.0,-0.0001099787768907845
1024.0,-0.0011683180928230286
1152.0,-0.0008458764641545713
1280.0,-0.0008025430724956095
1408.0,-0.0008964831358753145
1536.0,-0.00042268092511221766
1664.0,9.015751129481941e-05
1792.0,-0.000952396949287504
1920.0,-0.00047939244541339576
2048.0,-0.0008360457723028958
2304.0,0.00021543998445849866
2560.0,0.0011255004210397601
2816.0,0.00022422803158406168
3072.0,0.00014152364747133106
3328.0,0.0005354763125069439
3584.0,-0.000342525978339836
3840.0,-0.001090042176656425
4096.0,-0.0008592297090217471
4608.0,-0.000640213256701827
5120.0,-0.00016602598770987242
5632.0,0.001625255448743701
6144.0,0.00020595469686668366
6656.0,-0.00023918850638438016
7168.0,-0.0002996929979417473
7680.0,-0.00027437866083346307
8192.0,0.001177938305772841
9216.0,-0.0002984955790452659
10240.0,-0.0005848432774655521
11264.0,0.00037128006806597114
12288.0,-0.00017090172332245857
13312.0,0.0006475439295172691
14336.0,-4.13182278862223e-05
end
