version,3.0
numOfCh,1
type,point
parent_name,10-cuts
ch_type,1_1
kcount,1
numberNandB,1
brightnessNandB,1
carpet pos,0
pc,0
Time (ms),CH1 Auto-Correlation
1.0,0.04043550416827202
2.0,0.03722785785794258
3.0,0.03448311239480972
4.0,0.03200417384505272
5.0,0.029864223673939705
6.0,0.027977654710412025
7.0,0.026294508948922157
8.0,0.024852218106389046
9.0,0.023510638624429703
10.0,0.02227603644132614
11.0,0.021078916266560555
12.0,0.019972318783402443
13.0,0.018917517736554146
14.0,0.01787848398089409
15.0,0.017001017928123474
16.0,0.01625881902873516
18.0,0.014773732051253319
20.0,0.013470050878822803
22.0,0.012383467517793179
24.0,0.01149495504796505
26.0,0.010769693180918694
28.0,0.010145078413188457
30.0,0.00965531449764967
32.0,0.009197750128805637
36.0,0.008613385260105133
40.0,0.007864955812692642
44.0,0.00738167017698288
48.0,0.006799282971769571
52.0,0.006256145425140858
56.0,0.005644639953970909
60.0,0.004948838613927364
64.0,0.0045469156466424465
72.0,0.003905541030690074
80.0,0.0035657219123095274
88.0,0.003134187078103423
96.0,0.0030713805463165045
104.0,0.0030827538575977087
112.0,0.0021739026997238398
120.0,0.001799278543330729
128.0,0.0017287572845816612
144.0,0.0032401783391833305
160.0,0.0024182540364563465
176.0,0.0010905751259997487
192.0,0.0002684283535927534
208.0,-3.2437554182251915e-05
224.0,0.0002275199949508533
240.0,-0.0005686131771653891
256.0,-8.893816993804649e-05
288.0,-0.0010621077381074429
320.0,-0.001087781391106546
352.0,-0.001001768745481968
384.0,0.00012390386837068945
416.0,-0.0007360001909546554
448.0,-0.0018135628197342157
480.0,-0.0014022040413692594
512.0,-0.0022545841056853533
576.0,-0.003382244147360325
640.0,-0.002035710494965315
704.0,-8.822188101476058e-05
768.0,0.0014729076065123081
832.0,0.0007973271422088146
896.0,0.0002558913256507367
960.0,0.0010724569438025355
1024.0,-0.0008854639600031078
1152.0,0.00014040748646948487
1280.0,-0.0018071765080094337
1408.0,-0.0003832446818705648
1536.0,0.00032223499147221446
1664.0,0.0005827033892273903
1792.0,0.0006234408356249332
1920.0,-0.001353336963802576
2048.0,-0.00279399030841887
2304.0,-0.00023706263164058328
2560.0,9.114734712056816e-05
2816.0,-0.00016030273400247097
3072.0,0.0014198424760252237
3328.0,0.0018381117843091488
3584.0,0.0001252664951607585
3840.0,-0.0002805498952511698
4096.0,-0.0010746048064902425
4608.0,-0.00023214118846226484
5120.0,-0.0005314977606758475
5632.0,-0.0002438440133119002
6144.0,0.0006375612574629486
6656.0,0.0009105374338105321
7168.0,-0.0011905762366950512
7680.0,0.0004433572757989168
8192.0,-0.0002744524390436709
9216.0,0.0014992267824709415
10240.0,-0.00018379373068455607
11264.0,-0.002992123132571578
12288.0,0.0016251407796517015
13312.0,0.0013160128146409988
14336.0,-0.0030485193710774183
end
