version,3.0
numOfCh,1
type,point
parent_name,10-cuts
ch_type,1_1
kcount,1
numberNandB,1
brightnessNandB,1
carpet pos,0
pc,0
Time (ms),CH1 Auto-Correlation
1.0,0.04686684533953667
2.0,0.04357922449707985
3.0,0.04079243913292885
4.0,0.0383286215364933
5.0,0.03622746467590332
6.0,0.03444957360625267
7.0,0.032840196043252945
8.0,0.03134305775165558
9.0,0.030047157779335976
10.0,0.028862129896879196
11.0,0.027804475277662277
12.0,0.02677980251610279
13.0,0.025699414312839508
14.0,0.024692563340067863
15.0,0.023843305185437202
16.0,0.023011913523077965
18.0,0.021446149796247482
20.0,0.020102040842175484
22.0,0.018855614587664604
24.0,0.017755528911948204
26.0,0.016730161383748055
28.0,0.01587570086121559
30.0,0.01521745789796114
32.0,0.014667741023004055
36.0,0.013479378074407578
40.0,0.012224613688886166
44.0,0.011356104165315628
48.0,0.011085959151387215
52.0,0.010801850818097591
56.0,0.010477306321263313
60.0,0.01010773703455925
64.0,0.009761404246091843
72.0,0.008590668439865112
80.0,0.007922464050352573
88.0,0.007166669704020023
96.0,0.006244336254894733
104.0,0.005721760913729668
112.0,0.005274925846606493
120.0,0.00519153755158186
128.0,0.005073702894151211
144.0,0.004372652154415846
160.0,0.0037661714013665915
176.0,0.0035945987328886986
192.0,0.0024091224186122417
208.0,0.002291424898430705
224.0,0.002834269544109702
240.0,0.0028413610998541117
256.0,0.003401920897886157
288.0,0.002976587973535061
320.0,0.0017321455525234342
352.0,0.0002555821556597948
384.0,-0.0008100669365376234
416.0,-0.002518304158002138
448.0,-0.00235512712970376
480.0,-0.0013846511719748378
512.0,0.0006610460695810616
576.0,-0.002478367416188121
640.0,-0.0034893581178039312
704.0,-0.002448573475703597
768.0,0.0005766745307482779
832.0,0.002161154057830572
896.0,-0.0018605835502967238
960.0,-0.0034861506428569555
1024.0,-0.0024959552101790905
1152.0,-0.0035805189982056618
1280.0,-0.001522062229923904
1408.0,-0.0011113618966192007
1536.0,-0.0005194646655581892
1664.0,0.0007842315826565027
1792.0,0.0015313341282308102
1920.0,-0.0005196906859055161
2048.0,0.0010873652063310146
2304.0,0.00048584488104097545
2560.0,0.000971100467722863
2816.0,0.0007089221035130322
3072.0,0.0003076665452681482
3328.0,-0.0008753698784857988
3584.0,-0.0010504614328965545
3840.0,0.00028421415481716394
4096.0,-0.00022029918909538537
4608.0,0.0009651678847149014
5120.0,-0.0016293850494548678
5632.0,-0.0003638853377196938
6144.0,0.000552311830688268
6656.0,-0.0022079069167375565
7168.0,-0.001944153686054051
7680.0,0.0024061636067926884
8192.0,-3.1978022889234126e-05
9216.0,-0.00015332909242715687
10240.0,0.00017361932259518653
11264.0,-0.0004939319915138185
12288.0,0.0006033192621544003
13312.0,0.0011366629041731358
14336.0,0.00010157233191421255
end
