version,3.0
numOfCh,1
type,point
parent_name,10-cuts
ch_type,1_1
kcount,1
numberNandB,1
brightnessNandB,1
carpet pos,0
pc,0
Time (ms),CH1 Auto-Correlation
1.0,0.026547584682703018
2.0,0.024417610839009285
3.0,0.02260986901819706
4.0,0.02109511010348797
5.0,0.019727427512407303
6.0,0.018532486632466316
7.0,0.017487699165940285
8.0,0.01657806523144245
9.0,0.015750152990221977
10.0,0.015029039233922958
11.0,0.014320839196443558
12.0,0.013673331588506699
13.0,0.013063431717455387
14.0,0.012579196132719517
15.0,0.012125784531235695
16.0,0.01166909746825695
18.0,0.010675746016204357
20.0,0.009794699028134346
22.0,0.008973648771643639
24.0,0.008262001909315586
26.0,0.00773036852478981
28.0,0.0071980697102844715
30.0,0.006869435776025057
32.0,0.006583785638213158
36.0,0.005844229832291603
40.0,0.005230342969298363
44.0,0.0048421649262309074
48.0,0.004609689116477966
52.0,0.004239579197019339
56.0,0.0035913330502808094
60.0,0.003079968737438321
64.0,0.0031001067254692316
72.0,0.0031040275935083628
80.0,0.0026588093023747206
88.0,0.002241462469100952
96.0,0.0020384229719638824
104.0,0.0018803972052410245
112.0,0.0014543627621605992
120.0,0.0009197244653478265
128.0,0.0007627456216141582
144.0,0.00045554916141554713
160.0,-0.0005908234161324799
176.0,-0.00020455170306377113
192.0,0.00013971864245831966
208.0,-0.00038881177897565067
224.0,-0.00013421215408015996
240.0,0.0004109779838472605
256.0,0.0008083475986495614
288.0,-0.00020897072681691498
320.0,-0.000508420926053077
352.0,-0.0009041997836902738
384.0,-0.0011094602523371577
416.0,-0.0004023504734504968
448.0,6.11277500865981e-05
480.0,0.0007033335277810693
512.0,0.0019835743587464094
576.0,0.002239410998299718
640.0,0.001704650348983705
704.0,0.001150821102783084
768.0,-0.00010645434667821974
832.0,-0.000962396094109863
896.0,-0.0009750439203344285
960.0,-0.0006706026615574956
1024.0,-6.239976937649772e-05
1152.0,0.0004111003072466701
1280.0,0.0006945810746401548
1408.0,0.00012496885028667748
1536.0,-0.0012210308341309428
1664.0,-0.0002263136557303369
1792.0,0.0005184909678064287
1920.0,0.0008853525505401194
2048.0,0.00023250341473612934
2304.0,0.00014727909001521766
2560.0,0.00029564640135504305
2816.0,-0.0005494985380209982
3072.0,0.00015480989532079548
3328.0,-0.0007675878005102277
3584.0,-4.617022568709217e-06
3840.0,-0.0004305963811930269
4096.0,8.966039604274556e-05
4608.0,-0.0007458876352757215
5120.0,-0.000341517326887697
5632.0,-7.381074829027057e-05
6144.0,-5.6265100283781067e-05
6656.0,-0.0002770699793472886
7168.0,5.714839062420651e-05
7680.0,-0.0004204131255391985
8192.0,-0.000690602813847363
9216.0,-0.0003411434590816498
10240.0,-0.0007384319324046373
11264.0,0.000484737305669114
12288.0,-0.00032695932895876467
13312.0,0.0016955321189016104
14336.0,3.889550862368196e-05
end
