version,3.0
numOfCh,1
type,point
parent_name,10-cuts
ch_type,1_1
kcount,1
numberNandB,1
brightnessNandB,1
carpet pos,0
pc,0
Time (ms),CH1 Auto-Correlation
1.0,0.09057570993900299
2.0,0.08384541422128677
3.0,0.0780569314956665
4.0,0.07305208593606949
5.0,0.06874464452266693
6.0,0.06485041230916977
7.0,0.061413638293743134
8.0,0.05822744965553284
9.0,0.05539162829518318
10.0,0.05273996666073799
11.0,0.05040683597326279
12.0,0.04818623512983322
13.0,0.04608318582177162
14.0,0.04406457021832466
15.0,0.04216092452406883
16.0,0.04042600840330124
18.0,0.037654273211956024
20.0,0.035493649542331696
22.0,0.03381703048944473
24.0,0.032459698617458344
26.0,0.030787719413638115
28.0,0.029610803350806236
30.0,0.028721682727336884
32.0,0.027587706223130226
36.0,0.02510014735162258
40.0,0.023962723091244698
44.0,0.022597698494791985
48.0,0.021147631108760834
52.0,0.020224733278155327
56.0,0.01939862221479416
60.0,0.01833988167345524
64.0,0.017499590292572975
72.0,0.015582924708724022
80.0,0.013846487738192081
88.0,0.012950127013027668
96.0,0.009972951374948025
104.0,0.006775203160941601
112.0,0.005689508747309446
120.0,0.006961318664252758
128.0,0.00845420267432928
144.0,0.0078626349568367
160.0,0.008890324272215366
176.0,0.010570387355983257
192.0,0.011285386048257351
208.0,0.009267830289900303
224.0,0.005125412717461586
240.0,0.0029128321912139654
256.0,0.0016021487535908818
288.0,-0.00381383765488863
320.0,-0.0046449461951851845
352.0,0.0003324623394291848
384.0,0.00068372004898265
416.0,0.0010952078737318516
448.0,0.000324100605212152
480.0,-0.000440994743257761
512.0,-0.001433337340131402
576.0,-0.0001724512258078903
640.0,0.0026739612221717834
704.0,0.001545240986160934
768.0,0.0010614334605634212
832.0,0.003731521312147379
896.0,0.0052036442793905735
960.0,0.003728448413312435
1024.0,-0.0013252143980935216
1152.0,0.0028699184767901897
1280.0,0.0024323202669620514
1408.0,-0.0006295445491559803
1536.0,-0.0005170877557247877
1664.0,0.0017651395173743367
1792.0,0.0027870771009474993
1920.0,-8.36035906104371e-05
2048.0,-0.0011897003278136253
2304.0,-0.001594253582879901
2560.0,-0.006041320506483316
2816.0,4.180006726528518e-05
3072.0,-0.0004051716241519898
3328.0,-0.004974611569195986
3584.0,-0.003652020590379834
3840.0,-0.0021984197665005922
4096.0,-0.0002497997193131596
4608.0,-0.004807983059436083
5120.0,-0.0008519626571796834
5632.0,0.0017114285146817565
6144.0,0.0020357363391667604
6656.0,-0.002212527208030224
7168.0,-3.9922484575072303e-05
7680.0,-0.0012472325470298529
8192.0,-0.002747362945228815
9216.0,0.002224005525931716
10240.0,0.0021910429932177067
11264.0,0.003933866508305073
12288.0,-0.0005658259033225477
13312.0,-0.0065233721397817135
14336.0,0.0007491876021958888
end
