version,3.0
numOfCh,1
type,point
parent_name,10-cuts
ch_type,1_1
kcount,1
numberNandB,1
brightnessNandB,1
carpet pos,0
pc,0
Time (ms),CH1 Auto-Correlation
1.0,0.08591242134571075
2.0,0.0789804458618164
3.0,0.07297559827566147
4.0,0.06781860440969467
5.0,0.06325892359018326
6.0,0.05919116735458374
7.0,0.05560538172721863
8.0,0.05222837254405022
9.0,0.049336791038513184
10.0,0.046740736812353134
11.0,0.04444528743624687
12.0,0.04242291674017906
13.0,0.04046805948019028
14.0,0.0385608971118927
15.0,0.0368904247879982
16.0,0.03552567586302757
18.0,0.033194683492183685
20.0,0.03133450448513031
22.0,0.02918638102710247
24.0,0.027264446020126343
26.0,0.025556040927767754
28.0,0.023869408294558525
30.0,0.022352037951350212
32.0,0.020914403721690178
36.0,0.01833747886121273
40.0,0.015929147601127625
44.0,0.013987456448376179
48.0,0.012997403740882874
52.0,0.012425165623426437
56.0,0.011750731617212296
60.0,0.010770178399980068
64.0,0.009666120633482933
72.0,0.00904486421495676
80.0,0.008598970249295235
88.0,0.007753018755465746
96.0,0.007033226080238819
104.0,0.005894926376640797
112.0,0.005247489083558321
120.0,0.004972538910806179
128.0,0.005179929547011852
144.0,0.003577342489734292
160.0,0.005270616617053747
176.0,0.00697898305952549
192.0,0.0037536320742219687
208.0,0.0009863668819889426
224.0,-0.002075887518003583
240.0,-0.0009226832771673799
256.0,-0.00035065237898379564
288.0,0.0009534905548207462
320.0,0.0018308954313397408
352.0,0.001832810346968472
384.0,-0.00025670340983197093
416.0,0.00013274411321617663
448.0,0.001676906947977841
480.0,0.0023119370453059673
512.0,-0.0009574422729201615
576.0,-0.0012305683922022581
640.0,0.00026202070876024663
704.0,-0.0011853573378175497
768.0,0.0016338477144017816
832.0,-0.002976151881739497
896.0,9.44713392527774e-05
960.0,0.0004169871681369841
1024.0,-0.00015687066479586065
1152.0,-0.000503783579915762
1280.0,-0.0016125536058098078
1408.0,-0.0064703854732215405
1536.0,-0.005898745264858007
1664.0,-0.0012321744579821825
1792.0,0.001666348660364747
1920.0,0.0016015253495424986
2048.0,0.0011353575391694903
2304.0,-0.0006700957310386002
2560.0,-0.0020396567415446043
2816.0,-0.0018014280358329415
3072.0,0.0024761976674199104
3328.0,-0.0012455444084480405
3584.0,0.0018497580895200372
3840.0,-0.000433445384260267
4096.0,0.0015873776283115149
4608.0,-0.0012538449373096228
5120.0,-0.0013627249281853437
5632.0,-0.0010221278062090278
6144.0,0.0006885743932798505
6656.0,-0.0025216112844645977
7168.0,0.0031608878634870052
7680.0,0.00048367600538767874
8192.0,-0.0004245549498591572
9216.0,0.00017322237545158714
10240.0,-0.0002740899217315018
11264.0,0.006400881335139275
12288.0,-0.004014844540506601
13312.0,-0.005189389921724796
14336.0,0.0015834398800507188
end
