version,3.0
numOfCh,1
type,point
parent_name,10-cuts
ch_type,1_1
kcount,1
numberNandB,1
brightnessNandB,1
carpet pos,0
pc,0
Time (ms),CH1 Auto-Correlation
1.0,0.03995930403470993
2.0,0.036823879927396774
3.0,0.03413516283035278
4.0,0.03166079521179199
5.0,0.02953239344060421
6.0,0.02766919508576393
7.0,0.025957902893424034
8.0,0.024448206648230553
9.0,0.023051206022500992
10.0,0.021793097257614136
11.0,0.02062464877963066
12.0,0.01962784118950367
13.0,0.01868945173919201
14.0,0.01784353516995907
15.0,0.017050767317414284
16.0,0.0162627175450325
18.0,0.01485327910631895
20.0,0.01375220064073801
22.0,0.012967796996235847
24.0,0.012282359413802624
26.0,0.01171226054430008
28.0,0.01104317232966423
30.0,0.010428378358483315
32.0,0.009911059401929379
36.0,0.009041301906108856
40.0,0.00889671128243208
44.0,0.008679909631609917
48.0,0.008201341144740582
52.0,0.008167518302798271
56.0,0.0079119224101305
60.0,0.007206243928521872
64.0,0.006231742911040783
72.0,0.0047563486732542515
80.0,0.003760369960218668
88.0,0.002900505205616355
96.0,0.0020483897533267736
104.0,0.0009902050951495767
112.0,0.0005969142075628042
120.0,0.0009891680674627423
128.0,0.0005855474155396223
144.0,0.000732859771233052
160.0,0.000624992186203599
176.0,0.00025667407317087054
192.0,0.0016361101297661662
208.0,0.0012821186101064086
224.0,0.0007711058133281767
240.0,0.0005570066859945655
256.0,-0.0004221969284117222
288.0,-0.001917510642670095
320.0,-0.0007421633345074952
352.0,-0.0021085275802761316
384.0,-0.0032532839104533195
416.0,-0.002148843603208661
448.0,-0.002217669505625963
480.0,-0.0014512722846120596
512.0,-0.0013008899986743927
576.0,-0.0013963968958705664
640.0,0.0003088514495175332
704.0,0.0018673569429665804
768.0,0.0029310458339750767
832.0,0.0024562529288232327
896.0,-0.0009504460613243282
960.0,-0.0004065085086040199
1024.0,0.0006371417548507452
1152.0,-0.0018145347712561488
1280.0,-0.0026457826606929302
1408.0,0.00044934326433576643
1536.0,-0.0007665070588700473
1664.0,-1.1705562428687699e-05
1792.0,0.0004234432417433709
1920.0,-0.0006139992619864643
2048.0,-0.00036253215512260795
2304.0,0.0007123343530111015
2560.0,-0.0008967800531536341
2816.0,-0.000368911714758724
3072.0,0.00042849243618547916
3328.0,-0.0015679491916671395
3584.0,0.0006041017477400601
3840.0,3.0609775421908125e-05
4096.0,-0.00011315143638057634
4608.0,0.000754298351239413
5120.0,-0.000594416749663651
5632.0,2.2064976292313077e-05
6144.0,-0.00054427410941571
6656.0,-4.52941058028955e-05
7168.0,-0.00043415030813775957
7680.0,-0.00015402732242364436
8192.0,0.0002987971529364586
9216.0,3.749000825337134e-05
10240.0,-0.0003472711832728237
11264.0,-0.00032176345121115446
12288.0,-0.00010923388617811725
13312.0,0.0003687922435346991
14336.0,0.00022124868701212108
end
