version,3.0
numOfCh,1
type,point
parent_name,10-cuts
ch_type,1_1
kcount,1
numberNandB,1
brightnessNandB,1
carpet pos,0
pc,0
Time (ms),CH1 Auto-Correlation
1.0,0.04251692816615105
2.0,0.039130546152591705
3.0,0.03627379238605499
4.0,0.033818356692790985
5.0,0.03175506368279457
6.0,0.029861249029636383
7.0,0.028031334280967712
8.0,0.026387779042124748
9.0,0.02492380514740944
10.0,0.023710254579782486
11.0,0.02270360291004181
12.0,0.021724730730056763
13.0,0.020846204832196236
14.0,0.01995260640978813
15.0,0.01911444589495659
16.0,0.01838773675262928
18.0,0.017083391547203064
20.0,0.015903379768133163
22.0,0.014759546145796776
24.0,0.01365694310516119
26.0,0.012564611621201038
28.0,0.011412663385272026
30.0,0.010569928213953972
32.0,0.009671222418546677
36.0,0.00884280540049076
40.0,0.008317057974636555
44.0,0.007428293116390705
48.0,0.006526666693389416
52.0,0.005741181783378124
56.0,0.005587324034422636
60.0,0.0052490439265966415
64.0,0.0047851125709712505
72.0,0.004695952404290438
80.0,0.0052413977682590485
88.0,0.005123849958181381
96.0,0.00498727522790432
104.0,0.00416732719168067
112.0,0.003649821737781167
120.0,0.003265626262873411
128.0,0.0024560359306633472
144.0,0.0013882636558264494
160.0,0.0018566959770396352
176.0,0.0020426553674042225
192.0,0.0017544238362461329
208.0,0.0021633992437273264
224.0,0.0007265284657478333
240.0,0.0005580569850280881
256.0,0.0008548605255782604
288.0,0.0015209026169031858
320.0,0.0004221776907797903
352.0,-0.0003097075968980789
384.0,-0.0010393473785370588
416.0,-9.93514186120592e-05
448.0,0.0003870720975100994
480.0,0.0011009045410901308
512.0,0.0007489856798201799
576.0,0.0003230831935070455
640.0,-0.0006229208083823323
704.0,0.00030399439856410027
768.0,0.0010821777395904064
832.0,-6.392972863977775e-05
896.0,-0.0017056218348443508
960.0,-0.002112486632540822
1024.0,-0.0003746066940948367
1152.0,-0.00040519930189475417
1280.0,0.0002400010998826474
1408.0,0.00021593525889329612
1536.0,0.0007904641097411513
1664.0,-0.00014740187907591462
1792.0,0.0010217453818768263
1920.0,0.0022038198076188564
2048.0,0.001629819511435926
2304.0,-0.0012780734105035663
2560.0,0.00016773647803347558
2816.0,-0.0012140055187046528
3072.0,-0.0012526103528216481
3328.0,7.526273839175701e-05
3584.0,-0.001546030631288886
3840.0,-0.00033878523390740156
4096.0,0.0012167011154815555
4608.0,-9.56458316068165e-05
5120.0,-0.0009100055322051048
5632.0,-0.0008537694811820984
6144.0,0.0007115095504559577
6656.0,-0.001328498707152903
7168.0,-0.0006781667470932007
7680.0,0.001240463345311582
8192.0,0.00020315554866101593
9216.0,-0.000911007693503052
10240.0,-0.0001233048678841442
11264.0,0.0006460188888013363
12288.0,0.001182865584269166
13312.0,0.0004867368843406439
14336.0,-3.1375234357255977e-06
end
