version,3.0
numOfCh,1
type,point
parent_name,10-cuts
ch_type,1_1
kcount,1
numberNandB,1
brightnessNandB,1
carpet pos,0
pc,0
Time (ms),CH1 Auto-Correlation
1.0,0.04068382829427719
2.0,0.03756938874721527
3.0,0.03484957665205002
4.0,0.03244904428720474
5.0,0.03018823266029358
6.0,0.028279375284910202
7.0,0.026567133143544197
8.0,0.025106556713581085
9.0,0.023721065372228622
10.0,0.022495267912745476
11.0,0.021393995732069016
12.0,0.020370211452245712
13.0,0.019406959414482117
14.0,0.018565688282251358
15.0,0.01778142713010311
16.0,0.0170294176787138
18.0,0.01553218625485897
20.0,0.014184652827680111
22.0,0.01303781196475029
24.0,0.012135826051235199
26.0,0.01129829976707697
28.0,0.010581801645457745
30.0,0.010005981661379337
32.0,0.009618864394724369
36.0,0.00906683411449194
40.0,0.008164809085428715
44.0,0.007112662307918072
48.0,0.00621538981795311
52.0,0.0056838952004909515
56.0,0.005187646951526403
60.0,0.004797448869794607
64.0,0.004005419090390205
72.0,0.0023890186566859484
80.0,0.0016699344851076603
88.0,0.0014502443373203278
96.0,0.0017475613858550787
104.0,0.0012940731830894947
112.0,-3.903468314092606e-05
120.0,-0.0008053786586970091
128.0,-0.0007143327384255826
144.0,-0.0008298463653773069
160.0,-0.0006350015173666179
176.0,-0.00035558381932787597
192.0,-0.0011729337275028229
208.0,-0.002018940169364214
224.0,-0.0024272797163575888
240.0,-0.0033218630123883486
256.0,-0.00352608528919518
288.0,-0.0017453711479902267
320.0,-0.0012529096566140652
352.0,-0.00043553978321142495
384.0,0.00024789234157651663
416.0,0.0012676113983616233
448.0,0.0006322236731648445
480.0,-0.001040025264956057
512.0,-0.0005458005471155047
576.0,0.0016966538969427347
640.0,0.00178989686537534
704.0,-0.00035439321072772145
768.0,0.0009587028180249035
832.0,0.0010273631196469069
896.0,-0.0010885336669161916
960.0,-0.0010026916861534119
1024.0,-0.0017535369843244553
1152.0,-0.0008907249430194497
1280.0,0.0014184145256876945
1408.0,0.0006401722203008831
1536.0,-0.0004568404983729124
1664.0,-0.0021631780546158552
1792.0,-0.00037786539178341627
1920.0,-2.1575957362074405e-05
2048.0,0.0008730826084502041
2304.0,4.727491977973841e-05
2560.0,0.0011334962910041213
2816.0,0.0018013215158134699
3072.0,-0.0013102416414767504
3328.0,0.0013178482186049223
3584.0,-0.0011231796815991402
3840.0,0.00015372218331322074
4096.0,0.00043273085611872375
4608.0,-0.0009442104492336512
5120.0,0.0007961750961840153
5632.0,-0.00032554002245888114
6144.0,-0.0013182356487959623
6656.0,0.00042971328366547823
7168.0,-0.0010051229037344456
7680.0,9.098236660065595e-06
8192.0,-0.00033717419137246907
9216.0,6.823056901339442e-05
10240.0,-0.00039563083555549383
11264.0,4.998930307920091e-05
12288.0,-0.00017346050299238414
13312.0,0.00011912416812265292
14336.0,-3.986225419794209e-05
end
