version,3.0
numOfCh,1
type,point
parent_name,10-cuts
ch_type,1_1
kcount,1
numberNandB,1
brightnessNandB,1
carpet pos,0
pc,0
Time (ms),CH1 Auto-Correlation
1.0,0.037114933133125305
2.0,0.03403055667877197
3.0,0.03129047155380249
4.0,0.028880057856440544
5.0,0.026784058660268784
6.0,0.024975454434752464
7.0,0.02332327701151371
8.0,0.021908767521381378
9.0,0.02059611864387989
10.0,0.01947454735636711
11.0,0.01838916912674904
12.0,0.01741126738488674
13.0,0.016554297879338264
14.0,0.01571754738688469
15.0,0.015049731358885765
16.0,0.01434331201016903
18.0,0.013077620416879654
20.0,0.012050073593854904
22.0,0.011106600053608418
24.0,0.01023141574114561
26.0,0.009428897872567177
28.0,0.008660421706736088
30.0,0.008081948384642601
32.0,0.007568323519080877
36.0,0.006442354992032051
40.0,0.005756974220275879
44.0,0.005443241447210312
48.0,0.004977823700755835
52.0,0.004599164705723524
56.0,0.004338121507316828
60.0,0.0037508730310946703
64.0,0.003088800236582756
72.0,0.002193233696743846
80.0,0.0008971067145466805
88.0,-0.00015608708781655878
96.0,-0.0007540740189142525
104.0,-0.00023909000447019935
112.0,-7.309731154236943e-05
120.0,-0.0003996945160906762
128.0,-0.0007173389312811196
144.0,-0.0009478786960244179
160.0,-0.00031425670022144914
176.0,0.0003796192177105695
192.0,0.0007172517944127321
208.0,0.0011933143250644207
224.0,0.0019727281760424376
240.0,0.0022726107854396105
256.0,0.002329539507627487
288.0,0.001986030489206314
320.0,0.0019978515338152647
352.0,0.0018076497362926602
384.0,0.0006831510690972209
416.0,-0.0007070070714689791
448.0,-0.000381254794774577
480.0,-0.0007535945042036474
512.0,-0.0010256083915010095
576.0,-0.0010005644289776683
640.0,-0.0007132655009627342
704.0,0.00034630001755431294
768.0,-0.0010635447688400745
832.0,-0.0023563248105347157
896.0,-0.0019396808929741383
960.0,-0.000319891725666821
1024.0,0.0019621432293206453
1152.0,-0.0004446549864951521
1280.0,-0.0012863040901720524
1408.0,0.0008367187110707164
1536.0,0.00017086123989429325
1664.0,-0.0015279545914381742
1792.0,2.574770405772142e-05
1920.0,0.0007366076461039484
2048.0,-6.966295768506825e-05
2304.0,-0.0007732340600341558
2560.0,-0.0014921041438356042
2816.0,-0.0012949928641319275
3072.0,0.0001412522397004068
3328.0,0.0009338115924037993
3584.0,-5.683307608705945e-05
3840.0,0.0004203188873361796
4096.0,0.0009644353995099664
4608.0,0.0012947177747264504
5120.0,-0.00033314101165160537
5632.0,-0.0011588812340050936
6144.0,-0.00017215684056282043
6656.0,-0.00024205211957450956
7168.0,-0.0010223505087196827
7680.0,0.0003151566197630018
8192.0,0.0010847382945939898
9216.0,-0.0002101334248436615
10240.0,-0.00034369848435744643
11264.0,8.923725545173511e-05
12288.0,0.0006416634423658252
13312.0,-0.0004091951122973114
14336.0,4.470466956263408e-05
end
