version,3.0
numOfCh,1
type,point
parent_name,10-cuts
ch_type,1_1
kcount,1
numberNandB,1
brightnessNandB,1
carpet pos,0
pc,0
Time (ms),CH1 Auto-Correlation
1.0,0.08369603753089905
2.0,0.07684639096260071
3.0,0.07097761332988739
4.0,0.06594093888998032
5.0,0.061337705701589584
6.0,0.057099588215351105
7.0,0.053464122116565704
8.0,0.05013639107346535
9.0,0.04733964428305626
10.0,0.04466749355196953
11.0,0.04241514950990677
12.0,0.04028383642435074
13.0,0.03824834153056145
14.0,0.03667274862527847
15.0,0.035297103226184845
16.0,0.03402011841535568
18.0,0.03156307712197304
20.0,0.02949502319097519
22.0,0.027929671108722687
24.0,0.02651352807879448
26.0,0.02492143027484417
28.0,0.02368466556072235
30.0,0.02238635905086994
32.0,0.020896416157484055
36.0,0.0185007955878973
40.0,0.016382072120904922
44.0,0.014958756975829601
48.0,0.013605695217847824
52.0,0.012053490616381168
56.0,0.010616696439683437
60.0,0.009568015113472939
64.0,0.008647165261209011
72.0,0.008555575273931026
80.0,0.007859700359404087
88.0,0.00731520215049386
96.0,0.007704498711973429
104.0,0.0065175737254321575
112.0,0.00535551505163312
120.0,0.004044177010655403
128.0,0.003137788502499461
144.0,0.0003344360156916082
160.0,-0.0016700922278687358
176.0,-0.0012666567927226424
192.0,0.0005265026120468974
208.0,0.002864302136003971
224.0,0.0018240722129121423
240.0,-0.00020736537408083677
256.0,-0.0016901582712307572
288.0,-0.0047892616130411625
320.0,-0.0038327595684677362
352.0,-0.002910474082455039
384.0,-0.0011997862020507455
416.0,-0.001559157739393413
448.0,-0.0008987010223791003
480.0,-0.00010675373050617054
512.0,-0.000238580527366139
576.0,-0.0020936063956469297
640.0,-0.003916365094482899
704.0,-0.0018399293767288327
768.0,0.0005070631741546094
832.0,0.00014068919699639082
896.0,0.004980655387043953
960.0,0.004273528233170509
1024.0,0.003257160075008869
1152.0,-0.002001532819122076
1280.0,-0.0012898007407784462
1408.0,0.0026657406706362963
1536.0,0.002356335986405611
1664.0,-0.0009428922203369439
1792.0,0.001779864076524973
1920.0,-0.002655359450727701
2048.0,-0.002315357094630599
2304.0,-0.0010061579523608088
2560.0,0.0006766811711713672
2816.0,0.002985424594953656
3072.0,-0.004993835464119911
3328.0,0.0010275261010974646
3584.0,0.003299223491922021
3840.0,-0.0007654392393305898
4096.0,-0.000646148226223886
4608.0,-0.0015546799404546618
5120.0,0.0010884939692914486
5632.0,0.0007399734458886087
6144.0,-0.0005157567211426795
6656.0,0.0015319206286221743
7168.0,0.0008753902511671185
7680.0,-0.0032763411290943623
8192.0,-0.0005644862540066242
9216.0,-0.0014265953795984387
10240.0,-0.0003379188128747046
11264.0,-0.0005867924774065614
12288.0,0.0020487941801548004
13312.0,-0.0013387969229370356
14336.0,-0.0014565651072189212
end
