version,3.0
numOfCh,1
type,point
parent_name,10-cuts
ch_type,1_1
kcount,1
numberNandB,1
brightnessNandB,1
carpet pos,0
pc,0
Time (ms),CH1 Auto-Correlation
1.0,0.04190705716609955
2.0,0.03886178508400917
3.0,0.03620997443795204
4.0,0.033842481672763824
5.0,0.031774286180734634
6.0,0.029865412041544914
7.0,0.028171459212899208
8.0,0.02666589990258217
9.0,0.025275513529777527
10.0,0.024047203361988068
11.0,0.022863270714879036
12.0,0.021780919283628464
13.0,0.0209062360227108
14.0,0.020083529874682426
15.0,0.019260868430137634
16.0,0.01859804056584835
18.0,0.01720857247710228
20.0,0.016153456643223763
22.0,0.01519326027482748
24.0,0.014230245724320412
26.0,0.013387411832809448
28.0,0.012500063516199589
30.0,0.011634519323706627
32.0,0.010972201824188232
36.0,0.00964242871850729
40.0,0.00811416283249855
44.0,0.00685235857963562
48.0,0.0060836817137897015
52.0,0.005788186099380255
56.0,0.005446154158562422
60.0,0.005006118211895227
64.0,0.0045425062999129295
72.0,0.0035756633151322603
80.0,0.0025299431290477514
88.0,0.0010918958578258753
96.0,0.0006645887042395771
104.0,0.0003306170692667365
112.0,-2.7396696168580092e-05
120.0,-0.00034237283398397267
128.0,-0.00042194160050712526
144.0,-0.0016045145457610488
160.0,-0.0021868732292205095
176.0,-0.0023337143938988447
192.0,-0.0012974335113540292
208.0,-0.000221322407014668
224.0,0.00045802895328961313
240.0,0.0018822175916284323
256.0,0.0022008363157510757
288.0,0.0020654969848692417
320.0,0.0017593462252989411
352.0,0.0014593484811484814
384.0,0.001269138534553349
416.0,-0.0009420895949006081
448.0,-0.0027144961059093475
480.0,-0.0005501559935510159
512.0,0.0012307456927374005
576.0,-0.0003859538119286299
640.0,0.0003430639626458287
704.0,0.0005810543079860508
768.0,0.0012594638392329216
832.0,0.0016173644689843059
896.0,0.001241307589225471
960.0,0.0011953699868172407
1024.0,0.0006250845617614686
1152.0,-0.000441753858467564
1280.0,0.000942032493185252
1408.0,-0.0013935230672359467
1536.0,-0.001469437382183969
1664.0,-0.0015274439938366413
1792.0,-0.00020277687872294337
1920.0,-6.299781671259552e-05
2048.0,-0.0007638866081833839
2304.0,-0.0009199452470056713
2560.0,-3.245344487368129e-05
2816.0,-0.0011356477625668049
3072.0,-8.43602538225241e-05
3328.0,-0.0007409150130115449
3584.0,-0.00023014105681795627
3840.0,8.432451431872323e-05
4096.0,-0.001950382487848401
4608.0,-0.0006958093727007508
5120.0,-0.0006589768454432487
5632.0,-0.0005204039625823498
6144.0,0.0003412736114114523
6656.0,0.0009624513913877308
7168.0,0.001301692216657102
7680.0,5.3127456340007484e-05
8192.0,0.00025581306545063853
9216.0,0.00017678752192296088
10240.0,1.6758722267695703e-05
11264.0,-0.0005550003261305392
12288.0,-0.0011209715157747269
13312.0,0.0006190338172018528
14336.0,-0.0005250280955806375
end
