version,3.0
numOfCh,1
type,point
parent_name,10-cuts
ch_type,1_1
kcount,1
numberNandB,1
brightnessNandB,1
carpet pos,0
pc,0
Time (ms),CH1 Auto-Correlation
1.0,0.029668886214494705
2.0,0.02737853117287159
3.0,0.025383297353982925
4.0,0.023678848519921303
5.0,0.022220861166715622
6.0,0.02096964418888092
7.0,0.019806375727057457
8.0,0.018709611147642136
9.0,0.017686346545815468
10.0,0.016789451241493225
11.0,0.015961717814207077
12.0,0.01518325600773096
13.0,0.014523007906973362
14.0,0.013893305324018002
15.0,0.013287755660712719
16.0,0.012740237638354301
18.0,0.0118778757750988
20.0,0.011075185611844063
22.0,0.010389073751866817
24.0,0.009777986444532871
26.0,0.009218163788318634
28.0,0.008737030439078808
30.0,0.008204082027077675
32.0,0.007809608709067106
36.0,0.007398543413728476
40.0,0.0070056919939816
44.0,0.0066474489867687225
48.0,0.0061177462339401245
52.0,0.0056923856027424335
56.0,0.0052400073036551476
60.0,0.004811852239072323
64.0,0.004419232718646526
72.0,0.003442618064582348
80.0,0.0026572744827717543
88.0,0.0021555719431489706
96.0,0.002142746467143297
104.0,0.002386238193139434
112.0,0.0025855491403490305
120.0,0.00262198643758893
128.0,0.0022618577349931
144.0,0.0024067042395472527
160.0,0.002605750225484371
176.0,0.00170231144875288
192.0,0.0019799682777374983
208.0,0.0022857552394270897
224.0,0.0015383496647700667
240.0,0.00191011605784297
256.0,0.0020192775409668684
288.0,0.0023031383752822876
320.0,0.0016812500543892384
352.0,-0.0001525167899671942
384.0,-0.00112356327008456
416.0,-0.0015018978156149387
448.0,-0.0018196066375821829
480.0,-0.0014961373526602983
512.0,-0.00042851525358855724
576.0,-0.0003146070521324873
640.0,-0.0022291706409305334
704.0,-0.0011232101824134588
768.0,-0.0016784805338829756
832.0,-0.0008301091729663312
896.0,-0.00036469034967012703
960.0,0.000457193935289979
1024.0,0.0012597519671544433
1152.0,0.0008295162697322667
1280.0,0.00046259749797172844
1408.0,0.0006739147356711328
1536.0,-0.0004180324322078377
1664.0,-0.0006150878616608679
1792.0,-0.0006342952838167548
1920.0,-0.000813301361631602
2048.0,-0.000690832850523293
2304.0,-6.822217983426526e-05
2560.0,0.0006911434466019273
2816.0,0.0003881526063196361
3072.0,-0.0005029860767535865
3328.0,-0.001592605491168797
3584.0,-0.0016362924361601472
3840.0,-0.0004070971626788378
4096.0,-0.0008615467813797295
4608.0,9.41984326345846e-05
5120.0,0.00031684007262811065
5632.0,-0.0009125411161221564
6144.0,7.419919711537659e-05
6656.0,0.0011217206483706832
7168.0,-0.0005296326708048582
7680.0,0.001270406530238688
8192.0,-0.0008513810462318361
9216.0,0.00040809830534271896
10240.0,-0.0004632977652363479
11264.0,-0.00039817552897147834
12288.0,0.0006547259399667382
13312.0,9.800680709304288e-05
14336.0,-0.0006193090812303126
end
