version,3.0
numOfCh,1
type,point
parent_name,10-cuts
ch_type,1_1
kcount,1
numberNandB,1
brightnessNandB,1
carpet pos,0
pc,0
Time (ms),CH1 Auto-Correlation
1.0,0.09187719225883484
2.0,0.08445359766483307
3.0,0.07810886949300766
4.0,0.0724506601691246
5.0,0.06769802421331406
6.0,0.06368190050125122
7.0,0.059997525066137314
8.0,0.05672548711299896
9.0,0.053940244019031525
10.0,0.05131590738892555
11.0,0.049075305461883545
12.0,0.04695679619908333
13.0,0.045048248022794724
14.0,0.04319694638252258
15.0,0.04171082749962807
16.0,0.04041176289319992
18.0,0.038138553500175476
20.0,0.036225393414497375
22.0,0.0342850387096405
24.0,0.03255702555179596
26.0,0.03140325844287872
28.0,0.030362803488969803
30.0,0.029085621237754822
32.0,0.02742220088839531
36.0,0.02328517660498619
40.0,0.020322216674685478
44.0,0.01833943836390972
48.0,0.016931386664509773
52.0,0.016027402132749557
56.0,0.01577509008347988
60.0,0.015279409475624561
64.0,0.01422320120036602
72.0,0.0111149363219738
80.0,0.009180210530757904
88.0,0.008408700115978718
96.0,0.006934471894055605
104.0,0.004898061044514179
112.0,0.004051759839057922
120.0,0.0039037081878632307
128.0,0.003135765204206109
144.0,0.003219751175493002
160.0,0.0035378700122237206
176.0,0.002024548128247261
192.0,0.00023663631873205304
208.0,-0.0018625181401148438
224.0,-0.003975846339017153
240.0,-0.0022542260121554136
256.0,-0.002524749608710408
288.0,-0.0030728201381862164
320.0,-0.004317487124353647
352.0,-0.004199524875730276
384.0,-0.005057200789451599
416.0,-0.003386267926543951
448.0,-0.004292733035981655
480.0,-0.0014359931228682399
512.0,-0.0027542219031602144
576.0,-0.002728450344875455
640.0,0.0001560515520395711
704.0,0.004369027446955442
768.0,-0.003699465887621045
832.0,-0.005618672352284193
896.0,-0.004529189318418503
960.0,-0.006481279619038105
1024.0,-0.0019981020595878363
1152.0,-0.0036925706081092358
1280.0,0.004353575874119997
1408.0,0.0029127635061740875
1536.0,0.002869834192097187
1664.0,0.0014519303804263473
1792.0,0.002858364023268223
1920.0,0.0044070761650800705
2048.0,0.0015919437864795327
2304.0,-0.0037075893487781286
2560.0,-0.003950414713472128
2816.0,0.0010202144039794803
3072.0,0.00045224218047223985
3328.0,0.003094925545156002
3584.0,-0.001212596078403294
3840.0,0.0016768149798735976
4096.0,-0.0032370456028729677
4608.0,0.0016034108120948076
5120.0,0.0021416018716990948
5632.0,-0.002394686220213771
6144.0,-0.00030195355066098273
6656.0,0.001012464053928852
7168.0,-0.0016574597684666514
7680.0,0.0009175558807328343
8192.0,0.001196450088173151
9216.0,0.000313823256874457
10240.0,-0.00025906809605658054
11264.0,-0.0005402432871051133
12288.0,-0.0010585287818685174
13312.0,-0.0007453486905433238
14336.0,0.000587467395234853
end
