version,3.0
numOfCh,1
type,point
parent_name,10-cuts
ch_type,1_1
kcount,1
numberNandB,1
brightnessNandB,1
carpet pos,0
pc,0
Time (ms),CH1 Auto-Correlation
1.0,0.09473542124032974
2.0,0.08781364560127258
3.0,0.08190204203128815
4.0,0.07645076513290405
5.0,0.07156379520893097
6.0,0.0673823282122612
7.0,0.06364977359771729
8.0,0.06030074879527092
9.0,0.05733836069703102
10.0,0.05455984175205231
11.0,0.05194802209734917
12.0,0.049559853971004486
13.0,0.04717187210917473
14.0,0.04512536898255348
15.0,0.0431460477411747
16.0,0.041267141699790955
18.0,0.03764732554554939
20.0,0.034043557941913605
22.0,0.030894920229911804
24.0,0.028245054185390472
26.0,0.025856763124465942
28.0,0.02356020174920559
30.0,0.021441081538796425
32.0,0.020158546045422554
36.0,0.019194254651665688
40.0,0.01763836108148098
44.0,0.015744157135486603
48.0,0.013900510035455227
52.0,0.012265477329492569
56.0,0.011720973066985607
60.0,0.011023134924471378
64.0,0.010195138864219189
72.0,0.008748944848775864
80.0,0.007474135607481003
88.0,0.007231798954308033
96.0,0.007053968496620655
104.0,0.005258910357952118
112.0,0.003993956837803125
120.0,0.002576131373643875
128.0,0.002146280137822032
144.0,0.0035595132503658533
160.0,0.0020313786808401346
176.0,0.0008838222711347044
192.0,0.0007933785673230886
208.0,0.003311635460704565
224.0,0.002545442432165146
240.0,0.0021948199719190598
256.0,0.0017628727946430445
288.0,0.0026091893669217825
320.0,0.0028258098755031824
352.0,0.006752091459929943
384.0,0.002659859135746956
416.0,0.002142260316759348
448.0,0.000684657075908035
480.0,0.0005171601660549641
512.0,0.0002151355001842603
576.0,-0.000982507597655058
640.0,-0.00046828819904476404
704.0,-0.0007605173741467297
768.0,-0.0008136783726513386
832.0,-0.0015786966541782022
896.0,-0.004497894085943699
960.0,0.0023890298325568438
1024.0,0.006452976260334253
1152.0,-0.0006107981316745281
1280.0,-0.0015289613511413336
1408.0,0.0015220728237181902
1536.0,-0.003466977970674634
1664.0,-0.005214537959545851
1792.0,-0.0016178905498236418
1920.0,-0.0033827784936875105
2048.0,-0.003564524697139859
2304.0,-0.002230956917628646
2560.0,0.0026259669102728367
2816.0,-0.0025925792288035154
3072.0,-0.0032001242507249117
3328.0,-0.003014019224792719
3584.0,-0.0004412799025885761
3840.0,0.0017533147474750876
4096.0,-0.000647957029286772
4608.0,-0.0021883267909288406
5120.0,-0.0007564250263385475
5632.0,0.0013588744914159179
6144.0,0.0020482942927628756
6656.0,0.0026092343032360077
7168.0,0.0018500243313610554
7680.0,0.0009583073551766574
8192.0,0.002257965039461851
9216.0,-0.004554228391498327
10240.0,-0.0021775849163532257
11264.0,0.0007534560863859951
12288.0,0.0017323567299172282
13312.0,0.003205807413905859
14336.0,-0.00047718704445287585
end
