version,3.0
numOfCh,1
type,point
parent_name,10-cuts
ch_type,1_1
kcount,1
numberNandB,1
brightnessNandB,1
carpet pos,0
pc,0
Time (ms),CH1 Auto-Correlation
1.0,0.084825798869133
2.0,0.07806775718927383
3.0,0.07229647785425186
4.0,0.06733464449644089
5.0,0.06314199417829514
6.0,0.059800758957862854
7.0,0.05695565417408943
8.0,0.05425717681646347
9.0,0.05164669081568718
10.0,0.04934562370181084
11.0,0.04725294187664986
12.0,0.045448459684848785
13.0,0.04373396188020706
14.0,0.04196661710739136
15.0,0.040320780128240585
16.0,0.03886735066771507
18.0,0.03662089630961418
20.0,0.03453613817691803
22.0,0.03247923031449318
24.0,0.030871905386447906
26.0,0.029291590675711632
28.0,0.027422530576586723
30.0,0.026023412123322487
32.0,0.024754025042057037
36.0,0.021857155486941338
40.0,0.01938633807003498
44.0,0.01781737431883812
48.0,0.016633829101920128
52.0,0.015615741722285748
56.0,0.014133414253592491
60.0,0.012689727358520031
64.0,0.0108707956969738
72.0,0.009642863646149635
80.0,0.009159746579825878
88.0,0.009395921602845192
96.0,0.01000170037150383
104.0,0.009332849644124508
112.0,0.00796426460146904
120.0,0.0073252273723483086
128.0,0.005829261615872383
144.0,0.004828365053981543
160.0,0.005015181843191385
176.0,0.004042101092636585
192.0,0.0019738469272851944
208.0,-0.0011647493811324239
224.0,-0.0011896472424268723
240.0,-0.00017481435497757047
256.0,0.0006736575160175562
288.0,0.0007931919535622001
320.0,-0.0013685731682926416
352.0,-0.003230151953175664
384.0,-0.0023923018015921116
416.0,4.820194953936152e-05
448.0,-0.0016185150016099215
480.0,-0.0009912344394251704
512.0,-0.000192090796190314
576.0,-0.00297859706915915
640.0,-0.007516639307141304
704.0,-0.005184715148061514
768.0,0.0002699590986594558
832.0,0.0018441823776811361
896.0,0.0026834297459572554
960.0,0.0017664895858615637
1024.0,0.004034093581140041
1152.0,-0.0009342569974251091
1280.0,-0.0011755303712561727
1408.0,-0.0005078515387140214
1536.0,0.0006738913943991065
1664.0,-0.0027209194377064705
1792.0,-0.002983906539157033
1920.0,0.0031507546082139015
2048.0,0.0010609807213768363
2304.0,0.0012805461883544922
2560.0,-0.00040581246139481664
2816.0,0.0015151422703638673
3072.0,0.0007790831150487065
3328.0,0.0009018164128065109
3584.0,0.0013798543950542808
3840.0,-0.0022433612029999495
4096.0,-0.004263556562364101
4608.0,0.002597844460979104
5120.0,0.0004206864396110177
5632.0,-0.0012266600970178843
6144.0,-0.001278992393054068
6656.0,-0.0007872345158830285
7168.0,-0.0018124451162293553
7680.0,-0.0011405681725591421
8192.0,-0.002802684437483549
9216.0,0.0016295831883326173
10240.0,-0.0023901218082755804
11264.0,-0.0004240533453412354
12288.0,-0.0018227442633360624
13312.0,-0.0024017971009016037
14336.0,0.00835478212684393
end
