version,3.0
numOfCh,1
type,point
parent_name,10-cuts
ch_type,1_1
kcount,1
numberNandB,1
brightnessNandB,1
carpet pos,0
pc,0
Time (ms),CH1 Auto-Correlation
1.0,0.02846362255513668
2.0,0.026342930272221565
3.0,0.02453158050775528
4.0,0.02300628460943699
5.0,0.021623976528644562
6.0,0.02044791355729103
7.0,0.01942957378923893
8.0,0.018548689782619476
9.0,0.017766723409295082
10.0,0.01705680415034294
11.0,0.016451695933938026
12.0,0.01585199125111103
13.0,0.015315564349293709
14.0,0.014752233400940895
15.0,0.01420491375029087
16.0,0.013658832758665085
18.0,0.012573406100273132
20.0,0.011558247730135918
22.0,0.010545818135142326
24.0,0.009645369835197926
26.0,0.008977992460131645
28.0,0.008501757867634296
30.0,0.008023385889828205
32.0,0.0076280441135168076
36.0,0.007063488010317087
40.0,0.006732254754751921
44.0,0.006386183202266693
48.0,0.005992444232106209
52.0,0.005630470812320709
56.0,0.005133120808750391
60.0,0.00485915457829833
64.0,0.0044847289100289345
72.0,0.003746175905689597
80.0,0.0031061728950589895
88.0,0.00261950446292758
96.0,0.002415665192529559
104.0,0.0018319616792723536
112.0,0.0015492053935304284
120.0,0.001653324463404715
128.0,0.001677080406807363
144.0,0.0011810626601800323
160.0,0.001322981552220881
176.0,0.001542772282846272
192.0,0.0006210682913661003
208.0,0.000253953825449571
224.0,0.00030283009982667863
240.0,0.00010869449033634737
256.0,0.00039389150333590806
288.0,-0.0004002327041234821
320.0,-0.0008162933518178761
352.0,-0.0008262119954451919
384.0,-0.0007245321176014841
416.0,-0.00011181566515006125
448.0,0.0004614728095475584
480.0,0.0006124856299720705
512.0,0.0005914921057410538
576.0,0.0007648791652172804
640.0,-4.458334296941757e-05
704.0,0.0007303869351744652
768.0,0.0006437551346607506
832.0,0.0013404429191723466
896.0,0.0016765971668064594
960.0,0.0008984837913885713
1024.0,-0.0001257404510397464
1152.0,-0.0004679469275288284
1280.0,0.0004481166834011674
1408.0,0.00040268318844027817
1536.0,-0.0011617901036515832
1664.0,-0.0006244349642656744
1792.0,-5.405899719335139e-05
1920.0,0.0004915929166600108
2048.0,0.00036012049531564116
2304.0,-0.0005381632363423705
2560.0,-0.00021776284847874194
2816.0,0.00013321773440111428
3072.0,-5.86670903430786e-05
3328.0,0.00021127398940734565
3584.0,0.00036239688051864505
3840.0,-0.0002586245827842504
4096.0,-0.000554187165107578
4608.0,-0.0002739334595389664
5120.0,0.0007595309289172292
5632.0,-0.0006025628536008298
6144.0,-0.0017875988269224763
6656.0,-0.0008068158058449626
7168.0,-0.00023474868794437498
7680.0,0.000310315954266116
8192.0,-0.00010203899000771344
9216.0,-0.0018401136621832848
10240.0,0.00032454411848448217
11264.0,0.0004640172701328993
12288.0,0.001464356784708798
13312.0,4.4701486331177875e-05
14336.0,-0.0020642047747969627
end
