version,3.0
numOfCh,1
type,point
parent_name,10-cuts
ch_type,1_1
kcount,1
numberNandB,1
brightnessNandB,1
carpet pos,0
pc,0
Time (ms),CH1 Auto-Correlation
1.0,0.028107674792408943
2.0,0.025944050401449203
3.0,0.02409582957625389
4.0,0.022443117573857307
5.0,0.020957909524440765
6.0,0.019681517034769058
7.0,0.01861122064292431
8.0,0.017603076994419098
9.0,0.01670088991522789
10.0,0.015928855165839195
11.0,0.015201871283352375
12.0,0.01459487620741129
13.0,0.013957612216472626
14.0,0.01342659629881382
15.0,0.012919418513774872
16.0,0.012397639453411102
18.0,0.011550407856702805
20.0,0.010647723451256752
22.0,0.009751967154443264
24.0,0.008927758783102036
26.0,0.008162127807736397
28.0,0.007627770304679871
30.0,0.007200178690254688
32.0,0.006850182544440031
36.0,0.006342386361211538
40.0,0.005832041148096323
44.0,0.0054469420574605465
48.0,0.005069271195679903
52.0,0.004899119958281517
56.0,0.004734296351671219
60.0,0.0043867421336472034
64.0,0.004184094723314047
72.0,0.0034846703056246042
80.0,0.0026118827518075705
88.0,0.0018936750711873174
96.0,0.0017627556808292866
104.0,0.0020465271081775427
112.0,0.002590285148471594
120.0,0.0028452316764742136
128.0,0.0028602543752640486
144.0,0.0020030296873301268
160.0,0.0011062098201364279
176.0,0.0011914866045117378
192.0,0.0019524269737303257
208.0,0.001998643158003688
224.0,0.0014182350132614374
240.0,0.0015885402681306005
256.0,0.0016597028588876128
288.0,0.00126193359028548
320.0,0.0020303060300648212
352.0,0.0016036382876336575
384.0,0.0008291369304060936
416.0,0.001354703214019537
448.0,0.0015775369247421622
480.0,0.001559943426400423
512.0,0.002230566693469882
576.0,-0.0005229807575233281
640.0,-0.0003233405004721135
704.0,-7.874742732383311e-05
768.0,0.00019823387265205383
832.0,0.00011792243458330631
896.0,0.0013180536916479468
960.0,0.0011294919531792402
1024.0,0.0011232518590986729
1152.0,1.663208422542084e-05
1280.0,0.0006023790338076651
1408.0,0.0005908565944992006
1536.0,0.0001690859062364325
1664.0,0.000513128936290741
1792.0,-6.408880290109664e-05
1920.0,0.0004995247581973672
2048.0,0.0015579363098368049
2304.0,0.0017830402357503772
2560.0,0.00016064042574726045
2816.0,-0.0004399155150167644
3072.0,-0.0008194511174224317
3328.0,8.428891305811703e-05
3584.0,-0.0003643727395683527
3840.0,-0.001576958573423326
4096.0,-0.0011095214867964387
4608.0,-0.0004246537573635578
5120.0,-0.00039498155820183456
5632.0,-0.000980796874500811
6144.0,-0.0016240667318925261
6656.0,-0.0011911956826224923
7168.0,-0.00045120157301425934
7680.0,-0.0008803796954452991
8192.0,-0.001773409778252244
9216.0,0.0010207458399236202
10240.0,-0.0013273590011522174
11264.0,0.0011667809449136257
12288.0,0.0013748425990343094
13312.0,-0.0004257796099409461
14336.0,0.004929570946842432
end
