version,3.0
numOfCh,1
type,point
parent_name,10-cuts
ch_type,1_1
kcount,1
numberNandB,1
brightnessNandB,1
carpet pos,0
pc,0
Time (ms),CH1 Auto-Correlation
1.0,0.024935679510235786
2.0,0.022733265534043312
3.0,0.02083119936287403
4.0,0.019158899784088135
5.0,0.017604675143957138
6.0,0.01630309782922268
7.0,0.015088175423443317
8.0,0.013992912136018276
9.0,0.013050206936895847
10.0,0.012163210660219193
11.0,0.011344215832650661
12.0,0.01059995498508215
13.0,0.009943085722625256
14.0,0.00938294269144535
15.0,0.008913738653063774
16.0,0.008535792119801044
18.0,0.007876865565776825
20.0,0.007285782136023045
22.0,0.006769632920622826
24.0,0.0063204532489180565
26.0,0.0059137409552931786
28.0,0.005577102303504944
30.0,0.005200477782636881
32.0,0.0049254922196269035
36.0,0.004533431492745876
40.0,0.0040164608508348465
44.0,0.0034338596742600203
48.0,0.0030324826948344707
52.0,0.002623204840347171
56.0,0.0022070284467190504
60.0,0.0019246934680268168
64.0,0.0017551970668137074
72.0,0.001997291808947921
80.0,0.0021032681688666344
88.0,0.0018337925430387259
96.0,0.0012832994107156992
104.0,0.0006369240581989288
112.0,0.0006089202361181378
120.0,0.0005435979110188782
128.0,0.000579712213948369
144.0,0.00043274532072246075
160.0,-0.0004279250279068947
176.0,-0.0014145859749987721
192.0,-0.0010533507447689772
208.0,-0.0008749571861699224
224.0,-0.000777434732299298
240.0,-0.00041478584171272814
256.0,-0.0008387604611925781
288.0,-0.0010150587186217308
320.0,-9.932547254720703e-05
352.0,0.0003816853859461844
384.0,-0.001091553014703095
416.0,-0.0007448888500221074
448.0,-0.0003064882184844464
480.0,0.0010305747855454683
512.0,-3.1619150831829756e-05
576.0,-0.00020746258087456226
640.0,-0.00017736283189151436
704.0,4.1312996472697705e-05
768.0,0.0009046701597981155
832.0,0.0001918870839290321
896.0,0.001279055722989142
960.0,0.0010734378593042493
1024.0,0.0006424214807339013
1152.0,-0.0006037623388692737
1280.0,-0.0011025405256077647
1408.0,-0.0008272725972346961
1536.0,-0.0003045503981411457
1664.0,0.00025978655321523547
1792.0,0.0004353349795565009
1920.0,-0.00047520649968646467
2048.0,0.00011509517935337499
2304.0,-0.000585848290938884
2560.0,0.0002131069777533412
2816.0,0.00030541271553374827
3072.0,-0.0002175488043576479
3328.0,-0.0003352358762640506
3584.0,0.0002992772788275033
3840.0,0.0005737240426242352
4096.0,-0.00042369402945041656
4608.0,0.0003004073223564774
5120.0,-0.0003490386880002916
5632.0,-0.00020544053404591978
6144.0,0.0003214080643374473
6656.0,-3.1269049941329286e-05
7168.0,0.00021808035671710968
7680.0,-0.0005469752941280603
8192.0,0.0003572223649825901
9216.0,0.0006273013423196971
10240.0,-0.0002595850673969835
11264.0,-0.0003466697526164353
12288.0,-0.0006174218724481761
13312.0,0.000588875962421298
14336.0,-0.0007410791586153209
end
