version,3.0
numOfCh,1
type,point
parent_name,10-cuts
ch_type,1_1
kcount,1
numberNandB,1
brightnessNandB,1
carpet pos,0
pc,0
Time (ms),CH1 Auto-Correlation
1.0,0.041485607624053955
2.0,0.038131341338157654
3.0,0.03526005521416664
4.0,0.032747503370046616
5.0,0.03056328371167183
6.0,0.028652889654040337
7.0,0.027022048830986023
8.0,0.02544589154422283
9.0,0.023979783058166504
10.0,0.022561678662896156
11.0,0.021312899887561798
12.0,0.02013476938009262
13.0,0.018953582271933556
14.0,0.01803170144557953
15.0,0.01711054891347885
16.0,0.01634630560874939
18.0,0.015175411477684975
20.0,0.013969909399747849
22.0,0.012842469848692417
24.0,0.011831059120595455
26.0,0.01122350338846445
28.0,0.01058935560286045
30.0,0.009804502129554749
32.0,0.008879478089511395
36.0,0.007484619040042162
40.0,0.006515315733850002
44.0,0.005415382795035839
48.0,0.004589051473885775
52.0,0.0037225987762212753
56.0,0.003245043568313122
60.0,0.003121234942227602
64.0,0.003102965420112014
72.0,0.002150988904759288
80.0,0.001712826662696898
88.0,0.0018069432117044926
96.0,0.002557991771027446
104.0,0.0033092161174863577
112.0,0.0033178150188177824
120.0,0.003402072936296463
128.0,0.0036286120302975178
144.0,0.0043030548840761185
160.0,0.0035949344746768475
176.0,0.002671367023140192
192.0,0.0016950705321505666
208.0,0.0014701976906508207
224.0,0.00014598046254832298
240.0,-0.00023006470291875303
256.0,-0.0014340267516672611
288.0,-0.0014007039135321975
320.0,-1.6323283489327878e-05
352.0,-0.00010705758904805407
384.0,-0.0008955783559940755
416.0,-0.001201608800329268
448.0,-0.0012530171079561114
480.0,-0.0005054253269918263
512.0,0.0006818925030529499
576.0,0.000927017186768353
640.0,0.0011727951932698488
704.0,0.0014429735019803047
768.0,-0.0002075413940474391
832.0,0.0006101905601099133
896.0,0.0015300338855013251
960.0,0.0015447954647243023
1024.0,0.0005445341230370104
1152.0,-0.00011468000593595207
1280.0,-0.0018479436403140426
1408.0,-0.0010409371461719275
1536.0,0.0007033617584966123
1664.0,0.001574939233250916
1792.0,-8.415201591560617e-05
1920.0,-0.001547243562527001
2048.0,-0.0012274872278794646
2304.0,-0.0006327113369479775
2560.0,-0.0017114272341132164
2816.0,-0.0004602906701620668
3072.0,-0.0005989751662127674
3328.0,-2.3211519874166697e-05
3584.0,-0.0007154066115617752
3840.0,0.0008146336185745895
4096.0,-0.00040338668623007834
4608.0,0.0007312122615985572
5120.0,-1.2977357073395979e-06
5632.0,-0.000638451601844281
6144.0,-0.0009055421105585992
6656.0,-0.0006929036462679505
7168.0,0.0004150722816120833
7680.0,-2.6768511816044338e-05
8192.0,-0.0005006763967685401
9216.0,0.0002708176907617599
10240.0,-0.0012545770732685924
11264.0,-0.0018654537852853537
12288.0,0.0012095019919797778
13312.0,0.0029963890556246042
14336.0,8.581959991715848e-05
end
