version,3.0
numOfCh,1
type,point
parent_name,10-cuts
ch_type,1_1
kcount,1
numberNandB,1
brightnessNandB,1
carpet pos,0
pc,0
Time (ms),CH1 Auto-Correlation
1.0,0.028007516637444496
2.0,0.025761974975466728
3.0,0.023846015334129333
4.0,0.02215409465134144
5.0,0.020675241947174072
6.0,0.019356729462742805
7.0,0.018292224034667015
8.0,0.017294157296419144
9.0,0.016300532966852188
10.0,0.0153488889336586
11.0,0.01450567040592432
12.0,0.013735155574977398
13.0,0.013099798932671547
14.0,0.012509528547525406
15.0,0.01201335247606039
16.0,0.01152842864394188
18.0,0.0108030429109931
20.0,0.010144740343093872
22.0,0.009452324360609055
24.0,0.008803142234683037
26.0,0.008262963965535164
28.0,0.007789523806422949
30.0,0.007264893967658281
32.0,0.006670815870165825
36.0,0.005472840275615454
40.0,0.00476758973672986
44.0,0.004106674809008837
48.0,0.003551808185875416
52.0,0.003119782777503133
56.0,0.0026092096231877804
60.0,0.0021366893779486418
64.0,0.0016282330034300685
72.0,0.0009341355762444437
80.0,0.0006822683499194682
88.0,0.0007223508437164128
96.0,0.0009215480531565845
104.0,0.0009226750116795301
112.0,0.0008058558451011777
120.0,0.0006196819012984633
128.0,0.0005015942151658237
144.0,0.0014688702067360282
160.0,0.0022054684814065695
176.0,0.0015618635807186365
192.0,0.0008937164093367755
208.0,-0.00040258478838950396
224.0,-0.00022835117124486715
240.0,-0.00010258323163725436
256.0,0.0002592900418676436
288.0,0.0003869722131639719
320.0,0.0005513113574124873
352.0,0.0006677216151729226
384.0,0.00028189457952976227
416.0,-0.0003815570380538702
448.0,-0.0007172775221988559
480.0,-0.0013332173693925142
512.0,-0.00026259516016580164
576.0,0.0005392872844822705
640.0,-0.00011935381917282939
704.0,0.00016188627341762185
768.0,0.0002739832561928779
832.0,-0.00023253414838109165
896.0,-8.669209637446329e-05
960.0,0.0002696361334528774
1024.0,-0.00021500754519365728
1152.0,4.992081812815741e-06
1280.0,0.0005370443686842918
1408.0,0.0006067887297831476
1536.0,0.00041607479215599597
1664.0,0.00037721567787230015
1792.0,0.0001203156789415516
1920.0,0.0006294036284089088
2048.0,0.00048567523481324315
2304.0,0.0006344338180497289
2560.0,-0.0014706248184666038
2816.0,-0.001341520925052464
3072.0,0.000740754185244441
3328.0,0.000306760601233691
3584.0,0.00014684803318232298
3840.0,7.963641110109165e-05
4096.0,-0.0012261776719242334
4608.0,-0.0007084452663548291
5120.0,-0.0007392830448225141
5632.0,2.709245563892182e-05
6144.0,-0.0011958287796005607
6656.0,0.00036077018012292683
7168.0,-0.0003976908337790519
7680.0,0.0008079425897449255
8192.0,0.0004276601830497384
9216.0,-0.0006452770321629941
10240.0,0.0007444379734806716
11264.0,-0.0004346285422798246
12288.0,-0.0008907378651201725
13312.0,-0.0004870683478657156
14336.0,1.7730469608068233e-06
end
