version,3.0
numOfCh,1
type,point
parent_name,10-cuts
ch_type,1_1
kcount,1
numberNandB,1
brightnessNandB,1
carpet pos,0
pc,0
Time (ms),CH1 Auto-Correlation
1.0,0.027152566239237785
2.0,0.025008827447891235
3.0,0.023190034553408623
4.0,0.02164161205291748
5.0,0.020209837704896927
6.0,0.019026001915335655
7.0,0.017975248396396637
8.0,0.016976231709122658
9.0,0.016073351725935936
10.0,0.015211067162454128
11.0,0.014404462650418282
12.0,0.013675648719072342
13.0,0.012976600788533688
14.0,0.012369556352496147
15.0,0.01178655494004488
16.0,0.01122431829571724
18.0,0.010264279320836067
20.0,0.00933186523616314
22.0,0.00849326141178608
24.0,0.007698856759816408
26.0,0.006903811823576689
28.0,0.006231284700334072
30.0,0.005776158533990383
32.0,0.005314870737493038
36.0,0.004430483561009169
40.0,0.0037314733490347862
44.0,0.0033811843022704124
48.0,0.003016366856172681
52.0,0.002357843331992626
56.0,0.0017790400888770819
60.0,0.0013347127242013812
64.0,0.0008217006688937545
72.0,0.00035174848744645715
80.0,0.0003254043112974614
88.0,0.00043157272739335895
96.0,0.0002572264347691089
104.0,0.000470013270387426
112.0,0.0006835806416347623
120.0,0.0006272366154007614
128.0,0.0005665067001245916
144.0,-0.00025083112996071577
160.0,-0.0005917130620218813
176.0,0.0001221288985107094
192.0,0.0003502666368149221
208.0,-0.00023645801411475986
224.0,4.7179131797747687e-05
240.0,0.000297934515401721
256.0,0.0003218635974917561
288.0,0.00019601867825258523
320.0,0.0005306315142661333
352.0,0.0003460849984548986
384.0,0.000136668371851556
416.0,0.00019109844288323075
448.0,0.000490184233058244
480.0,0.0015057960990816355
512.0,0.00186066550668329
576.0,0.0006361784762702882
640.0,0.0013223050627857447
704.0,0.0008920994587242603
768.0,0.0002900951949413866
832.0,0.0003348840109538287
896.0,0.0003934738924726844
960.0,-0.00035490308073349297
1024.0,0.00034597478224895895
1152.0,0.0008424097904935479
1280.0,0.0011047570733353496
1408.0,-0.0008544674492441118
1536.0,-0.0010171522153541446
1664.0,-0.0005702173220925033
1792.0,0.0010076536564156413
1920.0,0.0003038864233531058
2048.0,-0.0002804013201966882
2304.0,0.0005534543888643384
2560.0,-0.0005581763107329607
2816.0,0.0003921132592950016
3072.0,-0.0006395468371920288
3328.0,-0.00043908445513807237
3584.0,-8.926877490011975e-05
3840.0,-0.0009606365929357708
4096.0,0.00023167107428889722
4608.0,-4.464180892682634e-05
5120.0,-0.0005059261457063258
5632.0,-0.0006109196692705154
6144.0,-0.0006971717230044305
6656.0,-0.00020156170648988336
7168.0,7.260228449013084e-05
7680.0,5.48999469174305e-06
8192.0,-0.0005353887681849301
9216.0,0.0005660774186253548
10240.0,0.000718702794983983
11264.0,0.00019677104137372226
12288.0,-0.0009336195653304458
13312.0,-0.0005702861817553639
14336.0,0.0002759879280347377
end
