version,3.0
numOfCh,1
type,point
parent_name,10-cuts
ch_type,1_1
kcount,1
numberNandB,1
brightnessNandB,1
carpet pos,0
pc,0
Time (ms),CH1 Auto-Correlation
1.0,0.039974749088287354
2.0,0.03667910024523735
3.0,0.03385765850543976
4.0,0.0314553938806057
5.0,0.02930626831948757
6.0,0.02743212692439556
7.0,0.02577749639749527
8.0,0.024320920929312706
9.0,0.022913118824362755
10.0,0.02164921909570694
11.0,0.02055438421666622
12.0,0.01946907304227352
13.0,0.018523965030908585
14.0,0.01777898706495762
15.0,0.017252039164304733
16.0,0.016677169129252434
18.0,0.015577619895339012
20.0,0.014699283055961132
22.0,0.013914930634200573
24.0,0.013161282986402512
26.0,0.012534613721072674
28.0,0.012019512243568897
30.0,0.011460398323833942
32.0,0.010917863808572292
36.0,0.009653068147599697
40.0,0.008480719290673733
44.0,0.0076230959966778755
48.0,0.0070306723937392235
52.0,0.006563587114214897
56.0,0.006727948319166899
60.0,0.006214597728103399
64.0,0.005390476901084185
72.0,0.0046832747757434845
80.0,0.004707889631390572
88.0,0.004418975207954645
96.0,0.004019387997686863
104.0,0.003317574504762888
112.0,0.002932089613750577
120.0,0.0026685178745537996
128.0,0.002320029539987445
144.0,0.0013769801007583737
160.0,0.0015443377196788788
176.0,0.0015517650172114372
192.0,0.0012285294942557812
208.0,0.0013712237123399973
224.0,0.0007772517274133861
240.0,0.0009030885994434357
256.0,0.00010359859879827127
288.0,-0.001162352622486651
320.0,-0.0005348266568034887
352.0,-0.0004065980901941657
384.0,-0.00015958229778334498
416.0,0.0002393506292719394
448.0,0.0009255607146769762
480.0,0.0003798720135819167
512.0,0.0005642931209877133
576.0,0.0005019287928007543
640.0,-0.0009306143037974834
704.0,-0.001045029959641397
768.0,-0.0014685653150081635
832.0,-0.0018634868320077658
896.0,-0.0009604435763321817
960.0,0.001709847478196025
1024.0,0.001191222108900547
1152.0,0.0006922910106368363
1280.0,8.598046406405047e-05
1408.0,-0.00036429837928153574
1536.0,-0.0005539632984437048
1664.0,-0.0016061740461736917
1792.0,-0.0016564022516831756
1920.0,0.0005544477608054876
2048.0,-0.0017482113325968385
2304.0,-0.0018455885583534837
2560.0,-0.0007544655818492174
2816.0,-0.00039885329897515476
3072.0,-0.0003984534414485097
3328.0,-0.0010777382412925363
3584.0,-0.000879129336681217
3840.0,0.0011175789404660463
4096.0,0.0019007566152140498
4608.0,0.0008986491011455655
5120.0,0.00023225757468026131
5632.0,0.0005652076215483248
6144.0,-0.0004958303179591894
6656.0,-0.000924641324672848
7168.0,-0.0008128992631100118
7680.0,-0.0017725966172292829
8192.0,0.00047754228580743074
9216.0,0.0009459001012146473
10240.0,5.052981214248575e-05
11264.0,-0.0009004502207972109
12288.0,8.739891927689314e-05
13312.0,0.0006515661370940506
14336.0,-0.0015087032224982977
end
