version,3.0
numOfCh,1
type,point
parent_name,10-cuts
ch_type,1_1
kcount,1
numberNandB,1
brightnessNandB,1
carpet pos,0
pc,0
Time (ms),CH1 Auto-Correlation
1.0,0.04064304754137993
2.0,0.03730886057019234
3.0,0.03444279730319977
4.0,0.03202075511217117
5.0,0.02982426807284355
6.0,0.027875691652297974
7.0,0.026160188019275665
8.0,0.024649105966091156
9.0,0.023320568725466728
10.0,0.022168423980474472
11.0,0.02098856493830681
12.0,0.01996801048517227
13.0,0.019094545394182205
14.0,0.018385792151093483
15.0,0.017584670335054398
16.0,0.01668786257505417
18.0,0.015169386751949787
20.0,0.013915524818003178
22.0,0.012958758510649204
24.0,0.012113658711314201
26.0,0.011375827714800835
28.0,0.010623859241604805
30.0,0.010097756050527096
32.0,0.009546313434839249
36.0,0.008471098728477955
40.0,0.007810796145349741
44.0,0.007150379475206137
48.0,0.0063303629867732525
52.0,0.0056389011442661285
56.0,0.005316706374287605
60.0,0.004875181242823601
64.0,0.004507024772465229
72.0,0.004214641638100147
80.0,0.004089978523552418
88.0,0.004588525276631117
96.0,0.005245583597570658
104.0,0.005257825367152691
112.0,0.005550689995288849
120.0,0.004903578199446201
128.0,0.004389460198581219
144.0,0.0029645548202097416
160.0,0.0012781922705471516
176.0,0.0005812612362205982
192.0,0.0007797030848450959
208.0,-0.0003776762168854475
224.0,-0.0017859983490779996
240.0,-0.0010558106005191803
256.0,-0.0009134424617514014
288.0,-0.002032215939834714
320.0,-0.0020007286220788956
352.0,-0.0025067368987947702
384.0,-0.001528355060145259
416.0,-0.002184497192502022
448.0,-0.0010734731331467628
480.0,-0.000695432536303997
512.0,-0.0003186315589118749
576.0,0.001428528456017375
640.0,-0.0006498757284134626
704.0,-5.674941712641157e-05
768.0,0.00018437454127706587
832.0,-0.0013064725790172815
896.0,-0.0007904841913841665
960.0,-0.0018686313414946198
1024.0,-0.0009403672302141786
1152.0,-0.0009289584122598171
1280.0,-0.0005369398859329522
1408.0,-0.0009444791940040886
1536.0,-0.00023309147218242288
1664.0,-0.001557819778099656
1792.0,0.0007483960944227874
1920.0,0.0010738547425717115
2048.0,0.00029251433443278074
2304.0,0.001949860481545329
2560.0,-0.0014353475999087095
2816.0,-0.00040266328142024577
3072.0,0.000424807338276878
3328.0,-6.0030251916032284e-05
3584.0,-0.002174022840335965
3840.0,0.0006781152333132923
4096.0,-0.0005929381586611271
4608.0,-0.000330618437146768
5120.0,0.0003097628941759467
5632.0,0.0008393530151806772
6144.0,0.00043147135875187814
6656.0,-0.0015348782762885094
7168.0,-0.0002664436469785869
7680.0,0.0019376252312213182
8192.0,0.0011441223323345184
9216.0,-0.0004810146347153932
10240.0,-0.0005779568455182016
11264.0,0.0010565449483692646
12288.0,-0.0018177885795012116
13312.0,0.0027802393306046724
14336.0,-0.002438956405967474
end
