version,3.0
numOfCh,1
type,point
parent_name,10-cuts
ch_type,1_1
kcount,1
numberNandB,1
brightnessNandB,1
carpet pos,0
pc,0
Time (ms),CH1 Auto-Correlation
1.0,0.04093238338828087
2.0,0.0376226007938385
3.0,0.03475722670555115
4.0,0.03233519196510315
5.0,0.030150799080729485
6.0,0.028291963040828705
7.0,0.026784706860780716
8.0,0.02529146708548069
9.0,0.023835470899939537
10.0,0.022443803027272224
11.0,0.021285301074385643
12.0,0.020190542563796043
13.0,0.019301818683743477
14.0,0.01845462992787361
15.0,0.017593303695321083
16.0,0.016827378422021866
18.0,0.015667038038372993
20.0,0.014642634429037571
22.0,0.013595236465334892
24.0,0.012472168542444706
26.0,0.01142230536788702
28.0,0.010527689941227436
30.0,0.009939499199390411
32.0,0.009493165649473667
36.0,0.008714830502867699
40.0,0.007593974936753511
44.0,0.006525896955281496
48.0,0.006101745646446943
52.0,0.005839216988533735
56.0,0.005443513859063387
60.0,0.005039029289036989
64.0,0.004617577418684959
72.0,0.004325644113123417
80.0,0.00406513549387455
88.0,0.004341741092503071
96.0,0.004447071813046932
104.0,0.004147413186728954
112.0,0.003414726350456476
120.0,0.003350919811055064
128.0,0.0026842704974114895
144.0,0.0015015536919236183
160.0,-0.000340582977514714
176.0,-0.0010890292469412088
192.0,-0.000218921311898157
208.0,-0.0006182498764246702
224.0,-0.000314022385282442
240.0,-0.00037812558002769947
256.0,-0.00034319565747864544
288.0,-0.000719455536454916
320.0,5.5764030548743904e-05
352.0,-0.00011535826342878863
384.0,-0.0008740834891796112
416.0,-0.0011081666452810168
448.0,-0.0008432422182522714
480.0,-0.0012539856834337115
512.0,-0.0031751308124512434
576.0,-0.000496677472256124
640.0,0.00021212526189628989
704.0,-0.0005266640218906105
768.0,-0.0007399898022413254
832.0,-0.0005395939224399626
896.0,-0.001166326692327857
960.0,-0.0013554535107687116
1024.0,-0.0016864379867911339
1152.0,-0.0012331769103184342
1280.0,0.000996246701106429
1408.0,-0.0005515447119250894
1536.0,0.001477849786169827
1664.0,0.00019600990344770253
1792.0,-0.0019020764157176018
1920.0,0.0007209672476164997
2048.0,0.0011319660115987062
2304.0,-0.0007176330545917153
2560.0,-0.002231145976111293
2816.0,0.0006932998076081276
3072.0,-0.0001451491698389873
3328.0,0.00020220472651999444
3584.0,0.0018804591381922364
3840.0,-0.00021017630933783948
4096.0,0.00068611407186836
4608.0,-0.0004714044916909188
5120.0,0.00018402445130050182
5632.0,-2.2384185285773128e-05
6144.0,-0.00012255899491719902
6656.0,0.00028557967743836343
7168.0,-0.0004879740590695292
7680.0,0.00027905276510864496
8192.0,0.0010159765370190144
9216.0,-0.0003799200931098312
10240.0,-2.6175914172199555e-05
11264.0,4.118281594855944e-06
12288.0,-0.00019876108854077756
13312.0,-0.00013556363410316408
14336.0,-0.00037546257954090834
end
