version,3.0
numOfCh,1
type,point
parent_name,10-cuts
ch_type,1_1
kcount,1
numberNandB,1
brightnessNandB,1
carpet pos,0
pc,0
Time (ms),CH1 Auto-Correlation
1.0,0.08285859227180481
2.0,0.07619673758745193
3.0,0.07027985900640488
4.0,0.06516489386558533
5.0,0.060895953327417374
6.0,0.05683904513716698
7.0,0.05346260219812393
8.0,0.05030882731080055
9.0,0.04771701991558075
10.0,0.04542940482497215
11.0,0.04323248192667961
12.0,0.04131896793842316
13.0,0.03966040536761284
14.0,0.03828221932053566
15.0,0.03703976050019264
16.0,0.03581581264734268
18.0,0.03311806917190552
20.0,0.030794531106948853
22.0,0.02844531647861004
24.0,0.026596451178193092
26.0,0.024984216317534447
28.0,0.023388667032122612
30.0,0.021968260407447815
32.0,0.02079513669013977
36.0,0.018340151757001877
40.0,0.017077673226594925
44.0,0.016386566683650017
48.0,0.0161245409399271
52.0,0.015008682385087013
56.0,0.014048024080693722
60.0,0.013807224109768867
64.0,0.013585544191300869
72.0,0.01193987112492323
80.0,0.01120003405958414
88.0,0.009354757145047188
96.0,0.007824870757758617
104.0,0.0073753767646849155
112.0,0.00651343772187829
120.0,0.006872861180454493
128.0,0.006227638106793165
144.0,0.005790111143141985
160.0,0.0024470447096973658
176.0,-0.00046086322981864214
192.0,-0.002187430625781417
208.0,-0.0018278800416737795
224.0,-0.0004575000493787229
240.0,-0.00014718450256623328
256.0,-0.0008764447993598878
288.0,-0.00190127978567034
320.0,-0.0023780050687491894
352.0,-0.004246106371283531
384.0,-0.003017979208379984
416.0,-0.0021298853680491447
448.0,-0.0008140757563523948
480.0,-0.0026852975133806467
512.0,-0.002248028526082635
576.0,0.005153132602572441
640.0,0.006008747965097427
704.0,0.00447114510461688
768.0,0.00041032274020835757
832.0,-0.001783479587174952
896.0,-0.003994470462203026
960.0,-0.004271575249731541
1024.0,-0.00755586801096797
1152.0,-0.0007002119673416018
1280.0,0.003394949482753873
1408.0,-0.0023099789395928383
1536.0,-0.003525111358612776
1664.0,-0.0070434799417853355
1792.0,-0.004547224845737219
1920.0,0.004243990872055292
2048.0,0.0021439597476273775
2304.0,-0.005131770856678486
2560.0,0.0025310565251857042
2816.0,0.0004284979368094355
3072.0,7.110183651093394e-05
3328.0,0.0033175917342305183
3584.0,-0.003876914270222187
3840.0,0.004176565445959568
4096.0,0.0012317325454205275
4608.0,1.676389183558058e-05
5120.0,0.0008261097245849669
5632.0,-0.0027985249180346727
6144.0,-0.000837376865092665
6656.0,-0.0021752906031906605
7168.0,0.0038271944504231215
7680.0,0.0016787234926596284
8192.0,-0.0008384317043237388
9216.0,-0.0026068310253322124
10240.0,0.0031440977472811937
11264.0,-0.0008034411584958434
12288.0,-0.0019392012618482113
13312.0,0.0009688923018984497
14336.0,-0.0004840519104618579
end
