version,3.0
numOfCh,1
type,point
parent_name,10-cuts
ch_type,1_1
kcount,1
numberNandB,1
brightnessNandB,1
carpet pos,0
pc,0
Time (ms),CH1 Auto-Correlation
1.0,0.027483711019158363
2.0,0.025338945910334587
3.0,0.0234543289989233
4.0,0.02177773229777813
5.0,0.020303113386034966
6.0,0.0189544428139925
7.0,0.01774071343243122
8.0,0.016675321385264397
9.0,0.015705415979027748
10.0,0.014843491837382317
11.0,0.014018374495208263
12.0,0.013284653425216675
13.0,0.012662943452596664
14.0,0.012112769298255444
15.0,0.011548440903425217
16.0,0.011023363098502159
18.0,0.010008017532527447
20.0,0.009229017421603203
22.0,0.008527182042598724
24.0,0.007924921810626984
26.0,0.007364059332758188
28.0,0.0067640645429492
30.0,0.006203358061611652
32.0,0.005693409591913223
36.0,0.005098160356283188
40.0,0.004795370157808065
44.0,0.004402827005833387
48.0,0.003910238854587078
52.0,0.00337172020226717
56.0,0.003056548535823822
60.0,0.002560925669968128
64.0,0.0023125603329390287
72.0,0.0019198117079213262
80.0,0.0012946419883519411
88.0,0.0009788491297513247
96.0,0.0008698093588463962
104.0,0.0010245550656691194
112.0,0.001289732870645821
120.0,0.0018694817554205656
128.0,0.002363826148211956
144.0,0.001743570202961564
160.0,0.0006595724262297153
176.0,0.0004202069831080735
192.0,0.00021734857000410557
208.0,0.00020139322441536933
224.0,-0.0010047602700069547
240.0,-0.002065081615000963
256.0,-0.00200580433011055
288.0,-0.0011848303256556392
320.0,0.0002828574797604233
352.0,-0.0005356870824471116
384.0,-0.0009384382283315063
416.0,-0.0007169919554144144
448.0,0.000672260532155633
480.0,-0.0002446904545649886
512.0,-0.0005704223876819015
576.0,-0.0006979939062148333
640.0,0.0002625776978675276
704.0,-0.0009242662345059216
768.0,0.000779259018599987
832.0,-0.0005255094729363918
896.0,-0.00018237991025671363
960.0,3.7319907278288156e-05
1024.0,-0.0011023053666576743
1152.0,-0.0003444573958404362
1280.0,-0.0018279437208548188
1408.0,-0.0011061925906687975
1536.0,0.00011263017950113863
1664.0,0.0015358414966613054
1792.0,0.000202268929569982
1920.0,0.00029139616526663303
2048.0,-0.0001232763024745509
2304.0,0.0007697335677221417
2560.0,0.0007839751779101789
2816.0,-0.0003573838039301336
3072.0,0.00046445339103229344
3328.0,-0.00017451689927838743
3584.0,-0.0008165788603946567
3840.0,-0.00013865582877770066
4096.0,-0.0007307623163796961
4608.0,0.0001419728359906003
5120.0,-2.3747117666061968e-05
5632.0,-0.00017293189011979848
6144.0,-0.0006645909161306918
6656.0,-4.5961569412611425e-06
7168.0,0.00021520748850889504
7680.0,0.0002771588624455035
8192.0,-0.0004886920214630663
9216.0,-0.000371743633877486
10240.0,0.0002620321756694466
11264.0,-0.00022169348085299134
12288.0,0.000285829184576869
13312.0,-0.00021730262960772961
14336.0,0.0005927087622694671
end
