version,3.0
numOfCh,1
type,point
parent_name,10-cuts
ch_type,1_1
kcount,1
numberNandB,1
brightnessNandB,1
carpet pos,0
pc,0
Time (ms),CH1 Auto-Correlation
1.0,0.02674120105803013
2.0,0.024635396897792816
3.0,0.022831248119473457
4.0,0.02125045284628868
5.0,0.019803006201982498
6.0,0.01855551078915596
7.0,0.017453743144869804
8.0,0.016476450487971306
9.0,0.01558373961597681
10.0,0.014754794538021088
11.0,0.013936389237642288
12.0,0.013226954266428947
13.0,0.01257480401545763
14.0,0.011960800737142563
15.0,0.011413032189011574
16.0,0.010937992483377457
18.0,0.010119774378836155
20.0,0.009418821893632412
22.0,0.008841262198984623
24.0,0.00831158459186554
26.0,0.007758497726172209
28.0,0.007282704580575228
30.0,0.006996834184974432
32.0,0.006784460972994566
36.0,0.006327686831355095
40.0,0.006231175735592842
44.0,0.005996145308017731
48.0,0.005577556788921356
52.0,0.005026111379265785
56.0,0.004599818494170904
60.0,0.004137610550969839
64.0,0.0037880814634263515
72.0,0.0031663179397583008
80.0,0.002346118213608861
88.0,0.002093991730362177
96.0,0.002332383068278432
104.0,0.002322140149772167
112.0,0.001740610459819436
120.0,0.000891174073331058
128.0,0.00032110564643517137
144.0,0.0003650176804512739
160.0,8.341984357684851e-05
176.0,0.00015812167839612812
192.0,0.0008793013403192163
208.0,0.00101384986191988
224.0,0.00045391975436359644
240.0,-4.544617695501074e-05
256.0,-9.672703163232654e-05
288.0,-0.0005215049022808671
320.0,-0.00016267421597149223
352.0,2.1540772650041617e-05
384.0,0.0001980197848752141
416.0,0.0006735459319315851
448.0,0.0008795764297246933
480.0,0.0001201319246320054
512.0,-0.0008000938687473536
576.0,0.0004959448706358671
640.0,0.0006533341365866363
704.0,-0.0002656846190802753
768.0,-3.392693542991765e-05
832.0,0.0006876573897898197
896.0,0.0009648933773860335
960.0,-9.865190804703161e-06
1024.0,0.00042719513294287026
1152.0,-0.0003378522815182805
1280.0,0.00019887782400473952
1408.0,-8.704384526936337e-05
1536.0,0.0009730224264785647
1664.0,-0.0006636323523707688
1792.0,0.0020565700251609087
1920.0,0.00043186350376345217
2048.0,-0.00014855328481644392
2304.0,-1.5745405335110263e-06
2560.0,-0.0002442942641209811
2816.0,0.0009726954158395529
3072.0,0.0003877665149047971
3328.0,-0.0011475749779492617
3584.0,-1.5308291040128097e-05
3840.0,0.000450868159532547
4096.0,0.0012519914889708161
4608.0,-0.0006171117420308292
5120.0,-0.0007854190189391375
5632.0,6.853213562862948e-05
6144.0,-0.0007267814362421632
6656.0,-0.0013531078584492207
7168.0,-0.000499585410580039
7680.0,-0.0006303304107859731
8192.0,4.805668140761554e-06
9216.0,-0.0006296660867519677
10240.0,-0.0005941938725300133
11264.0,-5.54255057068076e-05
12288.0,0.000790924415923655
13312.0,0.0008327289833687246
14336.0,0.00044501174124889076
end
