version,3.0
numOfCh,1
type,point
parent_name,10-cuts
ch_type,1_1
kcount,1
numberNandB,1
brightnessNandB,1
carpet pos,0
pc,0
Time (ms),CH1 Auto-Correlation
1.0,0.028496043756604195
2.0,0.026404844596982002
3.0,0.024608632549643517
4.0,0.02305341325700283
5.0,0.021650759503245354
6.0,0.02039707824587822
7.0,0.01927011087536812
8.0,0.01828538440167904
9.0,0.017372900620102882
10.0,0.01660325936973095
11.0,0.015915343537926674
12.0,0.015252308920025826
13.0,0.014586549252271652
14.0,0.014041188172996044
15.0,0.013543098233640194
16.0,0.01302601769566536
18.0,0.012139427475631237
20.0,0.011440704576671124
22.0,0.010898686945438385
24.0,0.010483336634933949
26.0,0.010027553886175156
28.0,0.009551308117806911
30.0,0.00898395199328661
32.0,0.008363892324268818
36.0,0.0072789741680026054
40.0,0.006564322859048843
44.0,0.005930864717811346
48.0,0.005285225342959166
52.0,0.004834355786442757
56.0,0.004288474563509226
60.0,0.0036182443145662546
64.0,0.0031527699902653694
72.0,0.0029381464701145887
80.0,0.0030057323165237904
88.0,0.0031414353288710117
96.0,0.0026759926695376635
104.0,0.0023005828261375427
112.0,0.002023744862526655
120.0,0.0021322285756468773
128.0,0.0024206291418522596
144.0,0.002426911611109972
160.0,0.0018718881765380502
176.0,0.00138377514667809
192.0,0.0008436696953140199
208.0,0.001467634690925479
224.0,0.001622627954930067
240.0,0.001271342276595533
256.0,0.0016058391192927957
288.0,0.0022354205138981342
320.0,0.001853242632932961
352.0,0.0015043801395222545
384.0,0.0019140650983899832
416.0,0.0017890135059133172
448.0,0.0013280906714498997
480.0,4.082071973243728e-05
512.0,0.0011640796437859535
576.0,0.00039104092866182327
640.0,0.0018082609167322516
704.0,0.00025605657720007
768.0,-0.0008182972087524831
832.0,-0.0007267483742907643
896.0,-0.0009933472611010075
960.0,-0.0005656517460010946
1024.0,-0.0007497478509321809
1152.0,-0.000234996055951342
1280.0,-0.0006617426406592131
1408.0,-0.0016330390935763717
1536.0,-0.0015800136607140303
1664.0,-0.0004148268490098417
1792.0,-0.0008839198271743953
1920.0,7.33876004233025e-05
2048.0,0.0009345151484012604
2304.0,0.00012748458539135754
2560.0,-0.00013523244706448168
2816.0,0.0007880973862484097
3072.0,0.0005736949387937784
3328.0,0.0005507055902853608
3584.0,-0.0004329310904722661
3840.0,0.00046894734259694815
4096.0,0.0008245254866778851
4608.0,0.00012032769882353023
5120.0,-0.00011269612878095359
5632.0,-0.0010286394972354174
6144.0,-0.0010108047863468528
6656.0,0.00023621309082955122
7168.0,0.0006879970896989107
7680.0,0.00045892474008724093
8192.0,-0.0006578757893294096
9216.0,-0.00042994602699764073
10240.0,-0.0009543834021314979
11264.0,0.0002547401236370206
12288.0,-0.0005652738618664443
13312.0,-0.0004006159433629364
14336.0,0.0013060842175036669
end
