version,3.0
numOfCh,1
type,point
parent_name,10-cuts
ch_type,1_1
kcount,1
numberNandB,1
brightnessNandB,1
carpet pos,0
pc,0
Time (ms),CH1 Auto-Correlation
1.0,0.02858378179371357
2.0,0.026432620361447334
3.0,0.02456079050898552
4.0,0.022908583283424377
5.0,0.0214011799544096
6.0,0.020103545859456062
7.0,0.018931172788143158
8.0,0.017855200916528702
9.0,0.016899485141038895
10.0,0.01601579785346985
11.0,0.015223166905343533
12.0,0.01445692777633667
13.0,0.013762381859123707
14.0,0.013128258287906647
15.0,0.012535490095615387
16.0,0.011959592811763287
18.0,0.010894418694078922
20.0,0.009961246512830257
22.0,0.009082439355552197
24.0,0.008279523812234402
26.0,0.0076009058393538
28.0,0.007126220501959324
30.0,0.006812005303800106
32.0,0.006608020979911089
36.0,0.0062175351195037365
40.0,0.0056558395735919476
44.0,0.005030790343880653
48.0,0.004590821918100119
52.0,0.004179574549198151
56.0,0.0036973238456994295
60.0,0.0031125021632760763
64.0,0.0028760472778230906
72.0,0.002842486370354891
80.0,0.002788081532344222
88.0,0.003004775382578373
96.0,0.0030096368864178658
104.0,0.0027390059549361467
112.0,0.0024181760381907225
120.0,0.002193453023210168
128.0,0.002013399265706539
144.0,0.0012254439061507583
160.0,0.0015784220304340124
176.0,0.0012412149226292968
192.0,0.0006599585176445544
208.0,0.0003456521953921765
224.0,0.0001296472328249365
240.0,-0.0002580490836407989
256.0,0.0004013661528006196
288.0,0.00048482100828550756
320.0,0.0004487831029109657
352.0,0.00011787211406044662
384.0,-0.00022261144476942718
416.0,0.000539570115506649
448.0,-9.294047049479559e-05
480.0,0.0009038826101459563
512.0,0.0009938767179846764
576.0,0.0002586253103800118
640.0,-0.0003572559216991067
704.0,0.0004340129962656647
768.0,0.00018044417083729059
832.0,-0.00046970383846201
896.0,0.00022917242313269526
960.0,0.0005095115629956126
1024.0,-0.0003613711742218584
1152.0,-0.0006928112707100809
1280.0,0.0007899485062807798
1408.0,0.00023055265774019063
1536.0,-0.0015164114302024245
1664.0,-0.0005469817551784217
1792.0,-0.0008877326035872102
1920.0,-0.0009410519851371646
2048.0,-0.001002002856694162
2304.0,-0.0008944152505137026
2560.0,-0.0009780267719179392
2816.0,-0.0003615747846197337
3072.0,-0.00037425299524329603
3328.0,-0.0008406764827668667
3584.0,-0.0007477699546143413
3840.0,0.00021721456141676754
4096.0,0.00011300679761916399
4608.0,0.00026237586280331016
5120.0,0.0002500566770322621
5632.0,0.0008713857969269156
6144.0,-0.0005826352280564606
6656.0,0.00045886790030635893
7168.0,0.00017407932318747044
7680.0,-0.0003039906732738018
8192.0,0.00044247429468668997
9216.0,-4.653154974221252e-05
10240.0,0.0007963132229633629
11264.0,-0.0006548709934577346
12288.0,-0.00013840085011906922
13312.0,-0.0004870193952228874
14336.0,-0.0002228506637038663
end
