version,3.0
numOfCh,1
type,point
parent_name,10-cuts
ch_type,1_1
kcount,1
numberNandB,1
brightnessNandB,1
carpet pos,0
pc,0
Time (ms),CH1 Auto-Correlation
1.0,0.09750843048095703
2.0,0.09057854861021042
3.0,0.08466912806034088
4.0,0.07951593399047852
5.0,0.07523534446954727
6.0,0.07130736112594604
7.0,0.06778279691934586
8.0,0.06470244377851486
9.0,0.061782125383615494
10.0,0.05922733247280121
11.0,0.056770965456962585
12.0,0.05456117168068886
13.0,0.05245209485292435
14.0,0.05047539249062538
15.0,0.04863167554140091
16.0,0.04725571721792221
18.0,0.044597137719392776
20.0,0.04221661388874054
22.0,0.04030788317322731
24.0,0.03848734498023987
26.0,0.03661099076271057
28.0,0.03483397513628006
30.0,0.03299938514828682
32.0,0.0313556008040905
36.0,0.02825763076543808
40.0,0.025373222306370735
44.0,0.023489367216825485
48.0,0.022194169461727142
52.0,0.02128019370138645
56.0,0.020538944751024246
60.0,0.019835229963064194
64.0,0.019004689529538155
72.0,0.016422875225543976
80.0,0.01384732685983181
88.0,0.01207416970282793
96.0,0.010679187253117561
104.0,0.009716087020933628
112.0,0.009373804554343224
120.0,0.01025544572621584
128.0,0.0102859390899539
144.0,0.009337340481579304
160.0,0.008475776761770248
176.0,0.005751787219196558
192.0,0.0027386886067688465
208.0,0.0010124787222594023
224.0,0.0035997265949845314
240.0,0.004659745842218399
256.0,0.004436802119016647
288.0,0.0011378239141777158
320.0,0.0016169145237654448
352.0,0.0020146488677710295
384.0,-0.001593210967257619
416.0,0.0006452975212596357
448.0,0.0005475810612551868
480.0,0.002754121320322156
512.0,0.0020827706903219223
576.0,0.002728497376665473
640.0,1.123014953918755e-06
704.0,-0.0016506455140188336
768.0,0.0020155084785073996
832.0,-0.0007243182044476271
896.0,0.001916529261507094
960.0,0.0018802691483870149
1024.0,-0.0012332836631685495
1152.0,0.0009659547940827906
1280.0,-0.000867004506289959
1408.0,-0.002953161718323827
1536.0,-0.005370603874325752
1664.0,-0.0017428724095225334
1792.0,-0.0028204587288200855
1920.0,-0.0013131104642525315
2048.0,0.0006904809852130711
2304.0,0.001974380575120449
2560.0,0.001770799863152206
2816.0,-0.0029714112170040607
3072.0,-0.0016370777739211917
3328.0,-0.003327219747006893
3584.0,0.0015885088359937072
3840.0,0.005703454837203026
4096.0,0.005040299613028765
4608.0,-7.8105105785653e-05
5120.0,-0.003287890227511525
5632.0,-0.006084018386900425
6144.0,0.0019767838530242443
6656.0,0.0018161570187658072
7168.0,-0.001973873469978571
7680.0,-0.004918335005640984
8192.0,-0.004685248713940382
9216.0,0.00021681921498384327
10240.0,0.00458022253587842
11264.0,0.0005812672898173332
12288.0,-0.005415692459791899
13312.0,0.0035456030163913965
14336.0,0.0027562198229134083
end
