version,3.0
numOfCh,1
type,point
parent_name,10-cuts
ch_type,1_1
kcount,1
numberNandB,1
brightnessNandB,1
carpet pos,0
pc,0
Time (ms),CH1 Auto-Correlation
1.0,0.040196627378463745
2.0,0.03689712658524513
3.0,0.034040551632642746
4.0,0.03166971728205681
5.0,0.029587356373667717
6.0,0.02773078717291355
7.0,0.026036996394395828
8.0,0.024512268602848053
9.0,0.023177502676844597
10.0,0.021904651075601578
11.0,0.020813167095184326
12.0,0.019878968596458435
13.0,0.018931254744529724
14.0,0.018080811947584152
15.0,0.017295371741056442
16.0,0.01665547862648964
18.0,0.01552499458193779
20.0,0.014515755698084831
22.0,0.013543355278670788
24.0,0.012728691101074219
26.0,0.011988330632448196
28.0,0.011263346299529076
30.0,0.010500474832952023
32.0,0.009699160233139992
36.0,0.008419753983616829
40.0,0.007757361512631178
44.0,0.007409465033560991
48.0,0.006962147541344166
52.0,0.006629161071032286
56.0,0.0062323580496013165
60.0,0.005793021060526371
64.0,0.005550172179937363
72.0,0.005175334867089987
80.0,0.004148612730205059
88.0,0.00378808262757957
96.0,0.0033628419041633606
104.0,0.003082743613049388
112.0,0.00302072218619287
120.0,0.0027288475539535284
128.0,0.002785697113722563
144.0,0.0024892459623515606
160.0,0.0015359633835032582
176.0,4.7931574954418465e-05
192.0,4.797488509211689e-05
208.0,0.00012469914508983493
224.0,1.4723017557116691e-05
240.0,-0.00024335832858923823
256.0,0.0005146721377968788
288.0,0.0008126976317726076
320.0,0.0010027175303548574
352.0,0.001352461869828403
384.0,0.0019026938825845718
416.0,0.002147875726222992
448.0,0.0009320736862719059
480.0,-0.00016219243116211146
512.0,-0.0009144935174845159
576.0,-0.0003928195219486952
640.0,-0.0004017723258584738
704.0,0.0010112124728038907
768.0,0.000571894459426403
832.0,-0.0008017144864425063
896.0,-0.0009035905241034925
960.0,0.00014205073239281774
1024.0,0.000907345034647733
1152.0,0.0003163978981319815
1280.0,0.001111040823161602
1408.0,0.0004477316397242248
1536.0,3.294645648566075e-05
1664.0,-0.0012416783720254898
1792.0,-0.001617639441974461
1920.0,0.00035457799094729125
2048.0,-0.0015678058844059706
2304.0,-0.0010272733634337783
2560.0,-0.0004167487204540521
2816.0,-0.001755796023644507
3072.0,-0.0002519361150916666
3328.0,0.0013784097973257303
3584.0,0.000370322959497571
3840.0,-0.000181963958311826
4096.0,-0.00025160875520668924
4608.0,2.6977912057191133e-05
5120.0,0.0007858666940592229
5632.0,-0.00023261971364263445
6144.0,-0.00078211585059762
6656.0,1.8820446712197736e-05
7168.0,-0.001017495640553534
7680.0,0.0004641242849174887
8192.0,-0.00012811720080208033
9216.0,3.318422386655584e-05
10240.0,-0.0019341963343322277
11264.0,-0.0010532384039834142
12288.0,0.001931346021592617
13312.0,0.0006802970892749727
14336.0,-0.0005671503022313118
end
