version,3.0
numOfCh,1
type,point
parent_name,10-cuts
ch_type,1_1
kcount,1
numberNandB,1
brightnessNandB,1
carpet pos,0
pc,0
Time (ms),CH1 Auto-Correlation
1.0,0.027394363656640053
2.0,0.025205647572875023
3.0,0.023304514586925507
4.0,0.0216359943151474
5.0,0.020181087777018547
6.0,0.018958883360028267
7.0,0.01790669560432434
8.0,0.016974113881587982
9.0,0.016115203499794006
10.0,0.015332993119955063
11.0,0.014616776257753372
12.0,0.013918748125433922
13.0,0.013251234777271748
14.0,0.012653941288590431
15.0,0.012121661566197872
16.0,0.011584579013288021
18.0,0.010558675043284893
20.0,0.009671124629676342
22.0,0.009000726044178009
24.0,0.008343111723661423
26.0,0.007971419021487236
28.0,0.007704389747232199
30.0,0.007490618620067835
32.0,0.007214745506644249
36.0,0.006612375378608704
40.0,0.006245897151529789
44.0,0.006021555513143539
48.0,0.005782142747193575
52.0,0.005592945497483015
56.0,0.0052452534437179565
60.0,0.0050214482471346855
64.0,0.0047727832570672035
72.0,0.004172212909907103
80.0,0.0035740232560783625
88.0,0.0028563672676682472
96.0,0.002343131462112069
104.0,0.0021389066241681576
112.0,0.0019940559286624193
120.0,0.0015361555851995945
128.0,0.0017292523989453912
144.0,0.0016963699599727988
160.0,0.001044910866767168
176.0,0.0010774608235806227
192.0,0.0017428981373086572
208.0,0.0015736437635496259
224.0,0.0011785998940467834
240.0,0.0018401966663077474
256.0,0.0021560927852988243
288.0,0.0011741139460355043
320.0,0.0013389020459726453
352.0,0.0008312754216603935
384.0,0.0009302573744207621
416.0,0.0006528673693537712
448.0,0.0005993745289742947
480.0,0.0016056920867413282
512.0,0.0012216338654980063
576.0,0.0007288515334948897
640.0,0.0001455574674764648
704.0,-0.000494146253913641
768.0,-0.00018133244884666055
832.0,0.0007699234993197024
896.0,0.0010218886891379952
960.0,-0.0009703986579552293
1024.0,-0.001917390152812004
1152.0,-0.0007731782388873398
1280.0,-0.0012657132465392351
1408.0,-0.0006958807352930307
1536.0,-0.0006087379879318178
1664.0,-0.0006324285641312599
1792.0,-0.00045936493552289903
1920.0,-0.0006009305943734944
2048.0,-0.00022979950881563127
2304.0,-0.00013779688742943108
2560.0,6.453269452322274e-05
2816.0,-0.00017303461208939552
3072.0,-6.212058360688388e-05
3328.0,0.0009115349967032671
3584.0,0.001673543476499617
3840.0,0.0011176690459251404
4096.0,0.0006189584964886308
4608.0,-0.0003834834205918014
5120.0,-0.0011077329982072115
5632.0,-0.00031371391378343105
6144.0,-0.0001401547488057986
6656.0,-4.379634265205823e-05
7168.0,0.00042119796853512526
7680.0,-0.00030449841869995
8192.0,-0.00023914487974252552
9216.0,-0.00047138595255091786
10240.0,5.702296402887441e-05
11264.0,-7.431241101585329e-05
12288.0,-0.002040423918515444
13312.0,-0.00012150583643233404
14336.0,0.003867139108479023
end
