version,3.0
numOfCh,1
type,point
parent_name,10-cuts
ch_type,1_1
kcount,1
numberNandB,1
brightnessNandB,1
carpet pos,0
pc,0
Time (ms),CH1 Auto-Correlation
1.0,0.02917950600385666
2.0,0.027067534625530243
3.0,0.02526845410466194
4.0,0.023710237815976143
5.0,0.02236332558095455
6.0,0.021191315725445747
7.0,0.020070232450962067
8.0,0.019146312028169632
9.0,0.018238946795463562
10.0,0.01740519516170025
11.0,0.016683774068951607
12.0,0.016021601855754852
13.0,0.015463459305465221
14.0,0.014936292544007301
15.0,0.014413907192647457
16.0,0.01402417290955782
18.0,0.013367954641580582
20.0,0.012933212332427502
22.0,0.012509522959589958
24.0,0.011975430883467197
26.0,0.011463513597846031
28.0,0.01096443459391594
30.0,0.010411921888589859
32.0,0.009862015955150127
36.0,0.008639234118163586
40.0,0.007674485445022583
44.0,0.007018731907010078
48.0,0.006636598613113165
52.0,0.006147381383925676
56.0,0.005645252298563719
60.0,0.005303823389112949
64.0,0.005022348836064339
72.0,0.004456713795661926
80.0,0.003975008614361286
88.0,0.0032359077595174313
96.0,0.0029557235538959503
104.0,0.003206222550943494
112.0,0.0028967526741325855
120.0,0.0029926165007054806
128.0,0.003053960856050253
144.0,0.002338438294827938
160.0,0.0018312305910512805
176.0,0.000552015146240592
192.0,0.0002054188953479752
208.0,0.0007833134732209146
224.0,0.000998002476990223
240.0,0.0013415309367701411
256.0,0.0014912898186594248
288.0,0.0015348640736192465
320.0,0.0007347206119447947
352.0,0.00019120039360132068
384.0,-0.0015055391704663634
416.0,-0.0009109260281547904
448.0,-0.001438782550394535
480.0,-0.0016196947544813156
512.0,-0.0014895317144691944
576.0,-0.0008524250006303191
640.0,0.000366716441931203
704.0,0.0009610202978365123
768.0,0.0016037345631048083
832.0,0.0014284503413364291
896.0,0.0025724421720951796
960.0,0.001924618729390204
1024.0,0.002865425543859601
1152.0,0.000388022162951529
1280.0,-0.0017398750642314553
1408.0,0.0004935991019010544
1536.0,0.0005762134678661823
1664.0,0.0019416899885982275
1792.0,0.0026983029674738646
1920.0,0.00042335010948590934
2048.0,0.0003093469422310591
2304.0,-0.0012180034536868334
2560.0,-9.594922448741272e-05
2816.0,-0.0007689116755500436
3072.0,-0.0012254819739609957
3328.0,0.00045422694529406726
3584.0,-0.0005217439029365778
3840.0,-0.0011687271762639284
4096.0,-0.0016448753885924816
4608.0,-0.0011410239385440946
5120.0,-0.00013398120063357055
5632.0,-0.0008580335415899754
6144.0,-0.0009071773383766413
6656.0,-0.00011040588287869468
7168.0,0.0005089101614430547
7680.0,-0.0017054937779903412
8192.0,0.001245807739906013
9216.0,0.0002879140665754676
10240.0,0.00021612235286738724
11264.0,0.00019402259204071015
12288.0,0.0002789419377222657
13312.0,0.00022979096684139222
14336.0,-4.118102151551284e-05
end
