version,3.0
numOfCh,1
type,point
parent_name,10-cuts
ch_type,1_1
kcount,1
numberNandB,1
brightnessNandB,1
carpet pos,0
pc,0
Time (ms),CH1 Auto-Correlation
1.0,0.028477836400270462
2.0,0.026371976360678673
3.0,0.024534011259675026
4.0,0.022862764075398445
5.0,0.021402426064014435
6.0,0.020170750096440315
7.0,0.019076146185398102
8.0,0.01810345984995365
9.0,0.017140299081802368
10.0,0.016227902844548225
11.0,0.015405094251036644
12.0,0.014660271815955639
13.0,0.014049738645553589
14.0,0.01344397384673357
15.0,0.012878739275038242
16.0,0.012415331788361073
18.0,0.011658528819680214
20.0,0.010994908399879932
22.0,0.010489318519830704
24.0,0.009943372569978237
26.0,0.00934578850865364
28.0,0.008764316327869892
30.0,0.008161104284226894
32.0,0.007750275079160929
36.0,0.007010996341705322
40.0,0.006657138932496309
44.0,0.006482838653028011
48.0,0.00611739931628108
52.0,0.005625131540000439
56.0,0.005354689434170723
60.0,0.005009794142097235
64.0,0.004692923743277788
72.0,0.004357563331723213
80.0,0.003801703220233321
88.0,0.002866283291950822
96.0,0.002241495531052351
104.0,0.0016993831377476454
112.0,0.0019942710641771555
120.0,0.002250830177217722
128.0,0.001972243655472994
144.0,0.0015694239409640431
160.0,0.0011467637959867716
176.0,0.0009845022577792406
192.0,0.00025450100656598806
208.0,-0.0006779296672903001
224.0,-0.0008961227140389383
240.0,-0.001059679314494133
256.0,-0.0012500167358666658
288.0,-0.0018561629112809896
320.0,-0.0019739321433007717
352.0,-0.0021064048632979393
384.0,-0.0026802346110343933
416.0,-0.0023576205130666494
448.0,-0.001388133387081325
480.0,-0.00017677572031971067
512.0,0.0009055014816112816
576.0,-0.00019407353829592466
640.0,-9.108723315875977e-05
704.0,0.0009624621598049998
768.0,-0.000290725554805249
832.0,-0.0013069490669295192
896.0,9.119034075411037e-06
960.0,0.00047333567636087537
1024.0,0.0006238476489670575
1152.0,0.0006152496207505465
1280.0,0.0019260251428931952
1408.0,0.001169108203612268
1536.0,-0.0003161802305839956
1664.0,-0.000521317939274013
1792.0,-0.0002982399892061949
1920.0,0.00032102857949212193
2048.0,-0.00115431088488549
2304.0,0.0012196407187730074
2560.0,0.0005043087876401842
2816.0,0.0004304350586608052
3072.0,-0.00039332613232545555
3328.0,-0.0010385012719780207
3584.0,0.00047263989108614624
3840.0,0.001489725662395358
4096.0,-0.0003865269245579839
4608.0,-0.0005192910321056843
5120.0,0.0006744893616996706
5632.0,-0.0005462482222355902
6144.0,0.0002976377436425537
6656.0,-0.0004397236043587327
7168.0,-0.0006005461909808218
7680.0,2.261051304230932e-05
8192.0,-0.0005476935766637325
9216.0,-0.0004727324703708291
10240.0,0.00011150642239954323
11264.0,-0.00015186832752078772
12288.0,-0.0004480431671254337
13312.0,-0.0009846743196249008
14336.0,-0.0006867500487715006
end
