version,3.0
numOfCh,1
type,point
parent_name,10-cuts
ch_type,1_1
kcount,1
numberNandB,1
brightnessNandB,1
carpet pos,0
pc,0
Time (ms),CH1 Auto-Correlation
1.0,0.0810241848230362
2.0,0.0741489976644516
3.0,0.06819602102041245
4.0,0.06305139511823654
5.0,0.05856320261955261
6.0,0.05469613894820213
7.0,0.05102960765361786
8.0,0.04753146320581436
9.0,0.04469707980751991
10.0,0.04212614521384239
11.0,0.03982255235314369
12.0,0.03748377040028572
13.0,0.035612840205430984
14.0,0.03406522050499916
15.0,0.03280593827366829
16.0,0.03163953498005867
18.0,0.02936217002570629
20.0,0.027651384472846985
22.0,0.026403896510601044
24.0,0.02482464350759983
26.0,0.023173436522483826
28.0,0.02158099040389061
30.0,0.020192615687847137
32.0,0.019058911129832268
36.0,0.017451001331210136
40.0,0.015967829152941704
44.0,0.014301145449280739
48.0,0.01295020803809166
52.0,0.012055527418851852
56.0,0.01113217044621706
60.0,0.010735245421528816
64.0,0.010461370460689068
72.0,0.00990306306630373
80.0,0.008241956122219563
88.0,0.006741412449628115
96.0,0.006618846207857132
104.0,0.007238073740154505
112.0,0.00747931282967329
120.0,0.007570510730147362
128.0,0.008248157799243927
144.0,0.009623550809919834
160.0,0.00868977140635252
176.0,0.007673717103898525
192.0,0.004834078252315521
208.0,0.004224381409585476
224.0,0.0033721376676112413
240.0,0.0038331937976181507
256.0,0.004784681368619204
288.0,0.004591916222125292
320.0,0.006429302506148815
352.0,0.0057317111641168594
384.0,0.004277849569916725
416.0,0.0005900167161598802
448.0,0.0017099814722314477
480.0,0.0039019412361085415
512.0,0.0014637181302532554
576.0,0.0003710973833221942
640.0,-0.0016545477556064725
704.0,-0.002110412809997797
768.0,-0.0010777096031233668
832.0,0.0005777373444288969
896.0,0.001591139123775065
960.0,0.0015571907861158252
1024.0,-5.730610791943036e-05
1152.0,1.775093551259488e-05
1280.0,0.0008479779935441911
1408.0,0.004154095891863108
1536.0,0.003558632219210267
1664.0,-0.001737496117129922
1792.0,0.0015055850381031632
1920.0,0.0020332499407231808
2048.0,-0.0007786089554429054
2304.0,-0.00072602613363415
2560.0,-0.0014891686150804162
2816.0,-0.004490080755203962
3072.0,-0.003970052115619183
3328.0,-0.0021062095183879137
3584.0,0.003204621374607086
3840.0,0.0033129488583654165
4096.0,0.0022053292486816645
4608.0,-0.0035695421975106
5120.0,-0.0016957013867795467
5632.0,-3.240560181438923e-05
6144.0,-0.0005673691630363464
6656.0,-0.006139954552054405
7168.0,-0.00405511911958456
7680.0,-0.0017473766347393394
8192.0,-0.004265829920768738
9216.0,0.0003672871389426291
10240.0,0.0013682502321898937
11264.0,-0.0005523455329239368
12288.0,0.002989345695823431
13312.0,0.0023701798636466265
14336.0,-0.0009996108710765839
end
