version,3.0
numOfCh,1
type,point
parent_name,10-cuts
ch_type,1_1
kcount,1
numberNandB,1
brightnessNandB,1
carpet pos,0
pc,0
Time (ms),CH1 Auto-Correlation
1.0,0.04201587662100792
2.0,0.03877105563879013
3.0,0.03603096678853035
4.0,0.03364846855401993
5.0,0.031590357422828674
6.0,0.029748860746622086
7.0,0.028220178559422493
8.0,0.02680196799337864
9.0,0.025522060692310333
10.0,0.024423815310001373
11.0,0.023405112326145172
12.0,0.022486109286546707
13.0,0.021603602916002274
14.0,0.020850054919719696
15.0,0.020024588331580162
16.0,0.019205041229724884
18.0,0.017575176432728767
20.0,0.016103530302643776
22.0,0.01497324276715517
24.0,0.01414888259023428
26.0,0.013393927365541458
28.0,0.012454635463654995
30.0,0.011617607437074184
32.0,0.010798214003443718
36.0,0.009370844811201096
40.0,0.008433257229626179
44.0,0.007752994541078806
48.0,0.006720071192830801
52.0,0.005722620524466038
56.0,0.004928292240947485
60.0,0.0040474883280694485
64.0,0.003316467860713601
72.0,0.003075912594795227
80.0,0.003028666600584984
88.0,0.0035872203297913074
96.0,0.003934426698833704
104.0,0.0038782358169555664
112.0,0.003068173537030816
120.0,0.002053322270512581
128.0,0.0015965664060786366
144.0,0.0007319531869143248
160.0,0.0003677722706925124
176.0,0.0006758818635717034
192.0,0.001157809398137033
208.0,0.0007602608529850841
224.0,1.908944614115171e-05
240.0,-0.0003215154283680022
256.0,-2.0477958969422616e-05
288.0,0.00010933259181911126
320.0,-0.001193020842038095
352.0,-0.0007222528802230954
384.0,0.0013324458850547671
416.0,0.0006533840205520391
448.0,0.0005723339272662997
480.0,0.00089309859322384
512.0,0.0015670518623664975
576.0,0.0025101779028773308
640.0,0.00010766163904918358
704.0,-0.0005445751594379544
768.0,-0.0032938451040536165
832.0,-0.002693356014788151
896.0,-0.00027756800409406424
960.0,-0.0007787963259033859
1024.0,-0.00029631005600094795
1152.0,-0.0005417309585027397
1280.0,0.00023363306536339223
1408.0,-0.002094269497320056
1536.0,-0.0024413904175162315
1664.0,0.0005662365583702922
1792.0,0.0006992164417169988
1920.0,-0.0007095416658557951
2048.0,-0.00016290326311718673
2304.0,3.5607110476121306e-05
2560.0,0.00032134848879650235
2816.0,0.0002803937823045999
3072.0,0.00042756961192935705
3328.0,0.0006052418611943722
3584.0,0.00029449828434735537
3840.0,0.001447078655473888
4096.0,0.001037797424942255
4608.0,-0.0005546823958866298
5120.0,-0.0014641116140410304
5632.0,0.0003317203663755208
6144.0,-0.00026091336621902883
6656.0,0.00025069195544347167
7168.0,-0.0005991397774778306
7680.0,4.5538228732766584e-05
8192.0,-0.00021512412058655173
9216.0,-0.0004344372428022325
10240.0,-0.0006742242840118706
11264.0,-0.0005673453561030328
12288.0,0.0002649530360940844
13312.0,-0.0011069024913012981
14336.0,0.0009810477495193481
end
