version,3.0
numOfCh,1
type,point
parent_name,10-cuts
ch_type,1_1
kcount,1
numberNandB,1
brightnessNandB,1
carpet pos,0
pc,0
Time (ms),CH1 Auto-Correlation
1.0,0.09104195982217789
2.0,0.08418920636177063
3.0,0.07844812422990799
4.0,0.07344979047775269
5.0,0.06913653016090393
6.0,0.06502800434827805
7.0,0.061251334846019745
8.0,0.057816486805677414
9.0,0.0548471175134182
10.0,0.052034080028533936
11.0,0.04936334490776062
12.0,0.04709727689623833
13.0,0.044789619743824005
14.0,0.04263681545853615
15.0,0.04066167026758194
16.0,0.03888009861111641
18.0,0.03550863265991211
20.0,0.03243309259414673
22.0,0.029897185042500496
24.0,0.028021138161420822
26.0,0.026511628180742264
28.0,0.025104794651269913
30.0,0.023837462067604065
32.0,0.022790435701608658
36.0,0.020968357101082802
40.0,0.019307339563965797
44.0,0.01771221123635769
48.0,0.016214070841670036
52.0,0.015888726338744164
56.0,0.015939880162477493
60.0,0.016086334362626076
64.0,0.01617208868265152
72.0,0.015222967602312565
80.0,0.013117779046297073
88.0,0.011327358894050121
96.0,0.01117242593318224
104.0,0.011008230037987232
112.0,0.010106031782925129
120.0,0.009891594760119915
128.0,0.010105019435286522
144.0,0.007781275548040867
160.0,0.005048241466283798
176.0,0.004329177085310221
192.0,0.005440101493149996
208.0,0.004374781623482704
224.0,0.003797106212005019
240.0,0.004052350297570229
256.0,0.0039178309962153435
288.0,0.003955530934035778
320.0,0.0017564775189384818
352.0,-0.00037407505442388356
384.0,-0.000181854804395698
416.0,0.0017769432161003351
448.0,0.0021935717668384314
480.0,-0.0010360267478972673
512.0,0.0005477478844113648
576.0,-0.0033808532170951366
640.0,-0.0044877673499286175
704.0,-0.007155099418014288
768.0,-0.0049536824226379395
832.0,-0.0061347330920398235
896.0,-0.006987733766436577
960.0,-0.00023679366859141737
1024.0,-0.0007451836718246341
1152.0,-0.0021776945795863867
1280.0,0.003798768389970064
1408.0,0.0017276678700000048
1536.0,0.002161953132599592
1664.0,-0.002540042158216238
1792.0,-0.0012308161240071058
1920.0,0.0010006447555497289
2048.0,-0.003893705550581217
2304.0,4.572794568957761e-05
2560.0,-0.001523517887108028
2816.0,-0.0029040081426501274
3072.0,-0.001635053544305265
3328.0,-0.0008784225792624056
3584.0,0.001987350406125188
3840.0,0.0014116299571469426
4096.0,0.0008262148476205766
4608.0,0.0006450189976021647
5120.0,-0.0039208452217280865
5632.0,0.0030163004994392395
6144.0,-0.0008147944463416934
6656.0,-0.005581048782914877
7168.0,0.0017936623189598322
7680.0,-0.004373096860945225
8192.0,0.0038567238952964544
9216.0,-0.000779696914833039
10240.0,0.0018258605850860476
11264.0,-5.359399438020773e-05
12288.0,-0.0014632005477324128
13312.0,0.007702555973082781
14336.0,-0.0028530072886496782
end
