version,3.0
numOfCh,1
type,point
parent_name,10-cuts
ch_type,1_1
kcount,1
numberNandB,1
brightnessNandB,1
carpet pos,0
pc,0
Time (ms),CH1 Auto-Correlation
1.0,0.08258409798145294
2.0,0.07597825676202774
3.0,0.07023502886295319
4.0,0.06539086997509003
5.0,0.06135586276650429
6.0,0.05780782550573349
7.0,0.05446659028530121
8.0,0.051358215510845184
9.0,0.04868156090378761
10.0,0.0461224801838398
11.0,0.043862782418727875
12.0,0.04158630222082138
13.0,0.03932490572333336
14.0,0.03745538741350174
15.0,0.03566685691475868
16.0,0.03418467193841934
18.0,0.031126804649829865
20.0,0.02867797203361988
22.0,0.02656797505915165
24.0,0.024650994688272476
26.0,0.02282738871872425
28.0,0.021471597254276276
30.0,0.020049067214131355
32.0,0.018894609063863754
36.0,0.01728578843176365
40.0,0.015699967741966248
44.0,0.013884365558624268
48.0,0.011854726821184158
52.0,0.010524610057473183
56.0,0.009836583398282528
60.0,0.008917154744267464
64.0,0.00820901244878769
72.0,0.0072495597414672375
80.0,0.0076706320978701115
88.0,0.007506446912884712
96.0,0.008456322364509106
104.0,0.008783514611423016
112.0,0.009722388349473476
120.0,0.009769312106072903
128.0,0.008200719952583313
144.0,0.005765469744801521
160.0,0.004102122504264116
176.0,0.00339907337911427
192.0,0.0024028224870562553
208.0,0.0026891487650573254
224.0,0.002146936021745205
240.0,0.0006941840401850641
256.0,0.002594736870378256
288.0,0.005107408855110407
320.0,0.0076521034352481365
352.0,0.004984243772923946
384.0,0.004487489815801382
416.0,0.004513032268732786
448.0,0.004840227775275707
480.0,0.0037251960020512342
512.0,-8.697846351424232e-05
576.0,-0.0005195874255150557
640.0,0.0014034813502803445
704.0,-0.0024545127525925636
768.0,0.003969458397477865
832.0,0.0029745339415967464
896.0,0.0014493282651528716
960.0,-0.0020832002628594637
1024.0,0.0006333825294859707
1152.0,-0.000526576244737953
1280.0,-0.0010901312343776226
1408.0,-0.0009081296157091856
1536.0,0.0010620231041684747
1664.0,0.001190942246466875
1792.0,-0.004161025397479534
1920.0,-0.0029936833307147026
2048.0,-0.004024866037070751
2304.0,-0.003248652210459113
2560.0,0.001011585001833737
2816.0,0.0029149348847568035
3072.0,-0.001958653796464205
3328.0,-0.0005529316840693355
3584.0,-0.002533698221668601
3840.0,-0.004823892842978239
4096.0,-0.0022807130590081215
4608.0,-0.0008290914702229202
5120.0,0.0012783698039129376
5632.0,0.0006486352649517357
6144.0,0.0032791653648018837
6656.0,0.0017758377362042665
7168.0,0.0005984057206660509
7680.0,-0.0023940950632095337
8192.0,-0.005312587600201368
9216.0,-0.001982326153665781
10240.0,0.0030135056003928185
11264.0,0.0006845731986686587
12288.0,0.0023642871528863907
13312.0,0.00012572984269354492
14336.0,-0.005150082055479288
end
