version,3.0
numOfCh,1
type,point
parent_name,10-cuts
ch_type,1_1
kcount,1
numberNandB,1
brightnessNandB,1
carpet pos,0
pc,0
Time (ms),CH1 Auto-Correlation
1.0,0.04261034354567528
2.0,0.039431650191545486
3.0,0.036672405898571014
4.0,0.03424125909805298
5.0,0.032106149941682816
6.0,0.030181260779500008
7.0,0.028478244319558144
8.0,0.026915235444903374
9.0,0.025601467117667198
10.0,0.024349361658096313
11.0,0.023131487891077995
12.0,0.02200952358543873
13.0,0.020993854850530624
14.0,0.01999773271381855
15.0,0.019098304212093353
16.0,0.01828850992023945
18.0,0.016976017504930496
20.0,0.015895646065473557
22.0,0.01516558788716793
24.0,0.014564253389835358
26.0,0.013760436326265335
28.0,0.012808007188141346
30.0,0.011990092694759369
32.0,0.0112180570140481
36.0,0.010142548941075802
40.0,0.00938320904970169
44.0,0.009010868147015572
48.0,0.00875033624470234
52.0,0.00855321902781725
56.0,0.00834017526358366
60.0,0.007973513565957546
64.0,0.007390286307781935
72.0,0.00722940918058157
80.0,0.006893014535307884
88.0,0.0060193585231900215
96.0,0.005196261219680309
104.0,0.004552165977656841
112.0,0.004216040950268507
120.0,0.004356568679213524
128.0,0.0035872990265488625
144.0,0.0018045721808448434
160.0,0.0010364387417212129
176.0,-0.0002630305243656039
192.0,-0.0012702454114332795
208.0,-0.0008697352022863925
224.0,-0.0009294639457948506
240.0,-0.0008254650165326893
256.0,-0.001323036034591496
288.0,-0.001312969601713121
320.0,-0.0013174369232729077
352.0,-0.0002891297044698149
384.0,-0.000436219823313877
416.0,5.878330921404995e-05
448.0,0.0010675996309146285
480.0,0.0016141332453116775
512.0,0.0010745796607807279
576.0,0.0010143008548766375
640.0,0.0003067665675189346
704.0,-0.00039512949297204614
768.0,-0.0019848309457302094
832.0,-0.0007858268800191581
896.0,-0.002578894142061472
960.0,-0.0025968325790017843
1024.0,-0.0016962778754532337
1152.0,-0.00020585405582096428
1280.0,-0.0002466754522174597
1408.0,-0.0004346482455730438
1536.0,0.0002486226730979979
1664.0,0.0022399937734007835
1792.0,-0.0004891077405773103
1920.0,-0.002735487185418606
2048.0,0.0007312510279007256
2304.0,0.0030418550595641136
2560.0,-0.000465055403765291
2816.0,0.0009063942707143724
3072.0,-0.0001567589642945677
3328.0,-0.00022805425396654755
3584.0,0.001793820527382195
3840.0,-0.00048615835839882493
4096.0,5.3749616199638695e-05
4608.0,-0.0012066293274983764
5120.0,9.814514487516135e-05
5632.0,0.0010808869265019894
6144.0,0.0015857743564993143
6656.0,-0.0018181523773819208
7168.0,-0.0015651575522497296
7680.0,0.00036186404759064317
8192.0,0.001859944430179894
9216.0,-0.0010712973307818174
10240.0,-0.0009936821879819036
11264.0,0.0008612438687123358
12288.0,-0.0029047944117337465
13312.0,0.001839431351982057
14336.0,-0.0017969270702451468
end
