version,3.0
numOfCh,1
type,point
parent_name,10-cuts
ch_type,1_1
kcount,1
numberNandB,1
brightnessNandB,1
carpet pos,0
pc,0
Time (ms),CH1 Auto-Correlation
1.0,0.03859049826860428
2.0,0.035357777029275894
3.0,0.03260357677936554
4.0,0.030223852023482323
5.0,0.028173713013529778
6.0,0.0263074841350317
7.0,0.02467477321624756
8.0,0.02316974103450775
9.0,0.021794063970446587
10.0,0.020497504621744156
11.0,0.019358091056346893
12.0,0.01832781359553337
13.0,0.017303094267845154
14.0,0.01644078828394413
15.0,0.015616266056895256
16.0,0.014811569824814796
18.0,0.013447831384837627
20.0,0.01228749006986618
22.0,0.01134051475673914
24.0,0.01047698874026537
26.0,0.00958286877721548
28.0,0.00873414147645235
30.0,0.008008548989892006
32.0,0.007484048139303923
36.0,0.006895425729453564
40.0,0.006026076152920723
44.0,0.0055484469048678875
48.0,0.005668218247592449
52.0,0.005302006378769875
56.0,0.004782977048307657
60.0,0.004306512884795666
64.0,0.0038956087082624435
72.0,0.003049862338230014
80.0,0.0027527641505002975
88.0,0.002019736682996154
96.0,0.0014136522077023983
104.0,0.0011908132582902908
112.0,0.0007665862212888896
120.0,0.001021557836793363
128.0,0.0011399679351598024
144.0,0.0005505180452018976
160.0,0.00112119410187006
176.0,0.0015368495369330049
192.0,0.0004944750689901412
208.0,-0.0007910490385256708
224.0,-0.0005310284323059022
240.0,-0.0013881586492061615
256.0,-0.00150163727812469
288.0,-0.001975861145183444
320.0,-0.001347006531432271
352.0,1.658708970353473e-05
384.0,0.0008319588378071785
416.0,0.0016641158144921064
448.0,0.0014046651776880026
480.0,0.0008491555927321315
512.0,0.0006451609078794718
576.0,0.0012784337159246206
640.0,0.0005667704972438514
704.0,-0.000150986947119236
768.0,-0.0005885462742298841
832.0,-0.000821727910079062
896.0,-0.0015680283540859818
960.0,-0.0009094077977351844
1024.0,-0.00018104072660207748
1152.0,0.0002427415020065382
1280.0,-0.0006350266630761325
1408.0,-0.0005416945205070078
1536.0,-0.000793352082837373
1664.0,0.0001662728755036369
1792.0,0.00023831678845454007
1920.0,-0.0006329492316581309
2048.0,-0.0008417617063969374
2304.0,0.0008285761578008533
2560.0,0.0003926829667761922
2816.0,-0.00036538828862830997
3072.0,-0.0006238349596969783
3328.0,-0.0011662044562399387
3584.0,-6.744156416971236e-05
3840.0,-0.0007478069746866822
4096.0,0.0007712970254942775
4608.0,-0.0003560979967005551
5120.0,0.0002838551881723106
5632.0,-3.490320887067355e-05
6144.0,0.0005583540187217295
6656.0,0.00043228769209235907
7168.0,-0.00011054934293497354
7680.0,0.0005151282530277967
8192.0,-0.00066488201264292
9216.0,-0.0003232420713175088
10240.0,-0.000450253690360114
11264.0,-0.0013413296546787024
12288.0,0.00043487577931955457
13312.0,8.993950177682564e-05
14336.0,-0.00018180454208049923
end
