version,3.0
numOfCh,1
type,point
parent_name,10-cuts
ch_type,1_1
kcount,1
numberNandB,1
brightnessNandB,1
carpet pos,0
pc,0
Time (ms),CH1 Auto-Correlation
1.0,0.02703043818473816
2.0,0.024880720302462578
3.0,0.023056700825691223
4.0,0.021432960405945778
5.0,0.020041750743985176
6.0,0.01878710463643074
7.0,0.01771952025592327
8.0,0.016780713573098183
9.0,0.015922972932457924
10.0,0.015163592994213104
11.0,0.014433816075325012
12.0,0.013779805041849613
13.0,0.01322696078568697
14.0,0.012724357657134533
15.0,0.012277904897928238
16.0,0.011861305683851242
18.0,0.011066896840929985
20.0,0.010466608218848705
22.0,0.00995220709592104
24.0,0.009534954093396664
26.0,0.009081140160560608
28.0,0.008699466474354267
30.0,0.00823938101530075
32.0,0.007710498757660389
36.0,0.006863234099000692
40.0,0.006505594588816166
44.0,0.00646202964708209
48.0,0.006244172342121601
52.0,0.005615506321191788
56.0,0.004927361849695444
60.0,0.0042805178090929985
64.0,0.0037326524034142494
72.0,0.002842783695086837
80.0,0.002905282424762845
88.0,0.0033153146505355835
96.0,0.002606520662084222
104.0,0.0015882733277976513
112.0,0.0011694327695295215
120.0,0.0011926910374313593
128.0,0.0012300113448873162
144.0,0.0012076030252501369
160.0,0.0006908017094247043
176.0,0.0010682031279429793
192.0,0.0009886831976473331
208.0,0.0007745625334791839
224.0,0.0009244999382644892
240.0,0.0009490313241258264
256.0,0.0008133961237035692
288.0,0.0012038357090204954
320.0,0.0013620577519759536
352.0,0.0011537199607118964
384.0,0.0004903107765130699
416.0,0.0006342337001115084
448.0,0.00016745884204283357
480.0,0.00017737812595441937
512.0,-0.0007481490029022098
576.0,-0.0014418470673263073
640.0,-0.0007201557164080441
704.0,0.00026803146465681493
768.0,0.0011890241876244545
832.0,0.0011060584802180529
896.0,-0.00031823961762711406
960.0,-0.0016454729484394193
1024.0,-0.0010462593054398894
1152.0,0.00021921354345977306
1280.0,0.0006761656841263175
1408.0,-0.0006981086335144937
1536.0,0.0009369049803353846
1664.0,-0.0005157816922292113
1792.0,-0.0008645288762636483
1920.0,-0.0005661834147758782
2048.0,-0.0007469748379662633
2304.0,-0.0001344438933301717
2560.0,0.0001540863886475563
2816.0,-0.00026781970518641174
3072.0,0.0008827431011013687
3328.0,0.0008664863416925073
3584.0,-0.0010595483472570777
3840.0,-9.261669038096443e-05
4096.0,0.000491125974804163
4608.0,3.565660153981298e-05
5120.0,-0.0016204355051741004
5632.0,-0.0004278153064660728
6144.0,-6.152503192424774e-05
6656.0,-2.6550007532932796e-05
7168.0,0.0016614369815215468
7680.0,0.00038705559563823044
8192.0,-0.00037744847941212356
9216.0,-0.0007627563900314271
10240.0,0.0006596235907636583
11264.0,0.00015932656242512167
12288.0,-0.0013549551367759705
13312.0,-0.002369444817304611
14336.0,0.0018606449011713266
end
