version,3.0
numOfCh,1
type,point
parent_name,10-cuts
ch_type,1_1
kcount,1
numberNandB,1
brightnessNandB,1
carpet pos,0
pc,0
Time (ms),CH1 Auto-Correlation
1.0,0.02918640710413456
2.0,0.027069449424743652
3.0,0.02525550127029419
4.0,0.02365991659462452
5.0,0.022246643900871277
6.0,0.02100236527621746
7.0,0.019838381558656693
8.0,0.018737802281975746
9.0,0.017769278958439827
10.0,0.01689235121011734
11.0,0.016113685443997383
12.0,0.01544200163334608
13.0,0.014824243262410164
14.0,0.014280651696026325
15.0,0.013821241445839405
16.0,0.013405927456915379
18.0,0.01257192064076662
20.0,0.011733653955161572
22.0,0.011116866953670979
24.0,0.010522709228098392
26.0,0.009997781366109848
28.0,0.009501059539616108
30.0,0.009037506766617298
32.0,0.008679111488163471
36.0,0.008366953581571579
40.0,0.007813933305442333
44.0,0.007088504731655121
48.0,0.006439001299440861
52.0,0.005877082236111164
56.0,0.00545502919703722
60.0,0.005097952205687761
64.0,0.0047782184556126595
72.0,0.004102382343262434
80.0,0.0033772638998925686
88.0,0.0032148247119039297
96.0,0.003222533967345953
104.0,0.003333487780764699
112.0,0.0032220466528087854
120.0,0.003135253209620714
128.0,0.0021206464152783155
144.0,0.0014724773354828358
160.0,0.0020438656210899353
176.0,0.001218344084918499
192.0,0.0005115570966154337
208.0,3.720628228620626e-05
224.0,-0.0008769307751208544
240.0,-0.001441302360035479
256.0,-0.001130829332396388
288.0,-0.00023552963102702051
320.0,-0.00012168745161034167
352.0,-0.000825042778160423
384.0,-0.0007159064407460392
416.0,-2.43389195020427e-06
448.0,0.0001503310922998935
480.0,0.0011561188148334622
512.0,0.0011290607508271933
576.0,-0.0003411804500501603
640.0,-0.0008756520110182464
704.0,-0.0005391967133618891
768.0,-0.000970464083366096
832.0,-0.0009791780030354857
896.0,-0.0010383538901805878
960.0,0.0007327480125240982
1024.0,0.0025508301332592964
1152.0,0.001984366914257407
1280.0,0.0006663023377768695
1408.0,-5.435474668047391e-05
1536.0,-0.00047541921958327293
1664.0,-0.0016186110442504287
1792.0,-0.0014432884054258466
1920.0,-0.0018792329356074333
2048.0,0.00040126542444340885
2304.0,0.00021681874932255596
2560.0,0.00016937778855208308
2816.0,-0.0014871291350573301
3072.0,-0.001640549162402749
3328.0,-0.00031172155286185443
3584.0,-0.0004029589472338557
3840.0,-0.0007906476384960115
4096.0,-0.0003347411984577775
4608.0,-0.0006284040282480419
5120.0,-0.00042510227649472654
5632.0,0.0004235669912304729
6144.0,0.0005019157542847097
6656.0,0.0019222248811274767
7168.0,0.0004425606457516551
7680.0,-0.00028932542772963643
8192.0,0.00011806264956248924
9216.0,-0.0009516336140222847
10240.0,-0.0006112429546192288
11264.0,0.0002587827038951218
12288.0,0.0009649856947362423
13312.0,0.00014914991334080696
14336.0,-0.0006571428384631872
end
