version,3.0
numOfCh,1
type,point
parent_name,10-cuts
ch_type,1_1
kcount,1
numberNandB,1
brightnessNandB,1
carpet pos,0
pc,0
Time (ms),CH1 Auto-Correlation
1.0,0.040111806243658066
2.0,0.03694339096546173
3.0,0.03415354713797569
4.0,0.0316854752600193
5.0,0.029570946469902992
6.0,0.02766631543636322
7.0,0.026020195335149765
8.0,0.024612687528133392
9.0,0.023358134552836418
10.0,0.022172460332512856
11.0,0.02112782932817936
12.0,0.020209044218063354
13.0,0.019370928406715393
14.0,0.018696997314691544
15.0,0.01798667386174202
16.0,0.017347965389490128
18.0,0.016194676980376244
20.0,0.015068874694406986
22.0,0.01397627592086792
24.0,0.013011363334953785
26.0,0.012101913802325726
28.0,0.011244529858231544
30.0,0.010501787066459656
32.0,0.01008223183453083
36.0,0.00936291553080082
40.0,0.00805683620274067
44.0,0.007092910818755627
48.0,0.006622436922043562
52.0,0.0060386648401618
56.0,0.005246354267001152
60.0,0.004623994696885347
64.0,0.004357646219432354
72.0,0.00361035019159317
80.0,0.0031825655605643988
88.0,0.003051368286833167
96.0,0.0027385689318180084
104.0,0.0020321703050285578
112.0,0.0016609187005087733
120.0,0.001978322397917509
128.0,0.002019209088757634
144.0,0.002907225862145424
160.0,0.0019680545665323734
176.0,0.0016024995129555464
192.0,0.0008122497820295393
208.0,0.0008782816003076732
224.0,0.0013188180746510625
240.0,0.0017238216241821647
256.0,0.0011013334151357412
288.0,0.002385322703048587
320.0,0.0013181711547076702
352.0,0.0005497682723216712
384.0,0.0008825309341773391
416.0,-0.0005746379611082375
448.0,-0.00158971908967942
480.0,-0.0032639934215694666
512.0,-0.004248162731528282
576.0,-0.003277005162090063
640.0,-0.0018726293928921223
704.0,-0.001601613243110478
768.0,-0.0019924105145037174
832.0,-0.002397388219833374
896.0,-0.0018566616345196962
960.0,3.9786347770132124e-05
1024.0,0.0002861053799279034
1152.0,0.0007141135283745825
1280.0,0.0011861567618325353
1408.0,0.0008355878526344895
1536.0,-7.437889144057408e-05
1664.0,-0.0009749213932082057
1792.0,-0.0010872932616621256
1920.0,-8.699210593476892e-05
2048.0,0.0026022985111922026
2304.0,0.0008417472126893699
2560.0,-0.0016900630434975028
2816.0,-0.0011922301491722465
3072.0,0.0014675671700388193
3328.0,0.0009689964936114848
3584.0,-0.0018478577258065343
3840.0,-0.002187862526625395
4096.0,2.3881326342234388e-05
4608.0,0.00047958592767827213
5120.0,-0.00012774222705047578
5632.0,-0.0013956768671050668
6144.0,0.0008744918159209192
6656.0,0.00013216504885349423
7168.0,-0.0007388558587990701
7680.0,0.0009582712664268911
8192.0,-0.0008862314280122519
9216.0,0.0004633261705748737
10240.0,-0.00029643537709489465
11264.0,-0.0015539403539150953
12288.0,0.000906872097402811
13312.0,0.0004840774927288294
14336.0,-0.00035841832868754864
end
