version,3.0
numOfCh,1
type,point
parent_name,10-cuts
ch_type,1_1
kcount,1
numberNandB,1
brightnessNandB,1
carpet pos,0
pc,0
Time (ms),CH1 Auto-Correlation
1.0,0.029466459527611732
2.0,0.027307232841849327
3.0,0.025506576523184776
4.0,0.023949990049004555
5.0,0.022607192397117615
6.0,0.021415505558252335
7.0,0.020282823592424393
8.0,0.019315533339977264
9.0,0.018482554703950882
10.0,0.01778045855462551
11.0,0.017178282141685486
12.0,0.016657400876283646
13.0,0.016167104244232178
14.0,0.015728874132037163
15.0,0.015234601683914661
16.0,0.014812786132097244
18.0,0.014020032249391079
20.0,0.01327016856521368
22.0,0.012573429383337498
24.0,0.011958524584770203
26.0,0.011360500939190388
28.0,0.010881352238357067
30.0,0.010453928261995316
32.0,0.0101820332929492
36.0,0.00982250552624464
40.0,0.00942585151642561
44.0,0.008989325724542141
48.0,0.008792754262685776
52.0,0.008355101570487022
56.0,0.008043571375310421
60.0,0.00774013064801693
64.0,0.0072929211892187595
72.0,0.006219599395990372
80.0,0.005615240428596735
88.0,0.00521419383585453
96.0,0.00488530145958066
104.0,0.004192342981696129
112.0,0.003375058528035879
120.0,0.0028311011847108603
128.0,0.002298567909747362
144.0,0.002059729304164648
160.0,0.0019172347383573651
176.0,0.0018694919999688864
192.0,0.0016290800413116813
208.0,0.0009894717950373888
224.0,0.000575676211155951
240.0,0.0004398445598781109
256.0,0.00036913392250426114
288.0,-0.0006465843180194497
320.0,-0.00035857094917446375
352.0,0.0005023308331146836
384.0,0.0007859058678150177
416.0,0.0011296675074845552
448.0,0.0012508867075666785
480.0,0.0018765713321045041
512.0,0.0020950420293956995
576.0,0.0017936477670446038
640.0,0.0020115214865654707
704.0,0.00047791266115382314
768.0,-0.0005341441719792783
832.0,-0.0007462924695573747
896.0,-0.0012162057682871819
960.0,-0.002406296320259571
1024.0,-0.0019308464834466577
1152.0,-0.002757764421403408
1280.0,0.00010398963058833033
1408.0,0.0005268964450806379
1536.0,-0.0024388758465647697
1664.0,-0.0029746885411441326
1792.0,-0.0019471863051876426
1920.0,-0.0014010949525982141
2048.0,-0.000844951078761369
2304.0,-0.001449297764338553
2560.0,0.0005538203986361623
2816.0,0.0011481926776468754
3072.0,-6.203573138918728e-05
3328.0,0.0017530989134684205
3584.0,0.0003845974861178547
3840.0,-0.0001911872677737847
4096.0,0.0007605779683217406
4608.0,-0.0012139840982854366
5120.0,-0.001108550583012402
5632.0,0.00045105101889930665
6144.0,0.0013641496188938618
6656.0,0.0014346773969009519
7168.0,7.81193666625768e-05
7680.0,-0.0010817324509844184
8192.0,-0.0013363334583118558
9216.0,-0.0001060155700542964
10240.0,0.0006720256060361862
11264.0,-0.0006707949214614928
12288.0,0.0011828489368781447
13312.0,-0.00033680969499982893
14336.0,-0.000438700953964144
end
