version,3.0
numOfCh,1
type,point
parent_name,10-cuts
ch_type,1_1
kcount,1
numberNandB,1
brightnessNandB,1
carpet pos,0
pc,0
Time (ms),CH1 Auto-Correlation
1.0,0.041265666484832764
2.0,0.03809957578778267
3.0,0.03545137867331505
4.0,0.03311007097363472
5.0,0.03104906529188156
6.0,0.029220202937722206
7.0,0.027580540627241135
8.0,0.02618679217994213
9.0,0.024880636483430862
10.0,0.02369517646729946
11.0,0.02257322520017624
12.0,0.021486898884177208
13.0,0.020485563203692436
14.0,0.019575495272874832
15.0,0.018697964027523994
16.0,0.01789426989853382
18.0,0.016700100153684616
20.0,0.015604314394295216
22.0,0.014497380703687668
24.0,0.013621988706290722
26.0,0.012774517759680748
28.0,0.012162749655544758
30.0,0.011630717664957047
32.0,0.011202167719602585
36.0,0.010720565915107727
40.0,0.010320207104086876
44.0,0.009980880655348301
48.0,0.009282511658966541
52.0,0.008929991163313389
56.0,0.008562080562114716
60.0,0.008068873547017574
64.0,0.007757257204502821
72.0,0.007165288086980581
80.0,0.006722595542669296
88.0,0.006280270405113697
96.0,0.0055357059463858604
104.0,0.0046286070719361305
112.0,0.004402557387948036
120.0,0.00432315981015563
128.0,0.003752483054995537
144.0,0.0037751495838165283
160.0,0.003261759178712964
176.0,0.0037702328991144896
192.0,0.0028207218274474144
208.0,0.0022244814317673445
224.0,0.0020796069875359535
240.0,0.002103120321407914
256.0,0.0019751645158976316
288.0,0.001971892546862364
320.0,0.0015384547878056765
352.0,0.0011023905826732516
384.0,0.00044622120913118124
416.0,0.0004994124756194651
448.0,0.001045249868184328
480.0,0.001532175694592297
512.0,0.0015583678614348173
576.0,-4.473045555641875e-05
640.0,-0.0009301497484557331
704.0,-0.0011489023454487324
768.0,-0.000841983244754374
832.0,-0.001008642022497952
896.0,-0.0026052319444715977
960.0,-0.0011304030194878578
1024.0,1.2187001630081795e-06
1152.0,0.0007923682569526136
1280.0,0.0005483111017383635
1408.0,-0.0018429090268909931
1536.0,-0.0028512722346931696
1664.0,-0.0010673730866983533
1792.0,-0.0012964210473001003
1920.0,-0.002218334237113595
2048.0,-0.0019375849515199661
2304.0,-0.002033569850027561
2560.0,-0.0011926837032660842
2816.0,-0.00017383618978783488
3072.0,-0.0005219399463385344
3328.0,-0.00011597094999160618
3584.0,0.0010008729295805097
3840.0,0.0014354221057146788
4096.0,0.0029000944923609495
4608.0,-0.000855801859870553
5120.0,-0.0005061501869931817
5632.0,0.000338025507517159
6144.0,-0.0008663844782859087
6656.0,0.0007770289084874094
7168.0,-0.0015496860723942518
7680.0,0.0002019521634792909
8192.0,0.00014174160605762154
9216.0,0.0003899762232322246
10240.0,0.00011442972754593939
11264.0,0.0013903274666517973
12288.0,-6.024623871780932e-05
13312.0,-0.0007162912515923381
14336.0,4.519363301369594e-06
end
