version,3.0
numOfCh,1
type,point
parent_name,34a6d_3dot0-0dot01
ch_type,1_1
kcount,1
numberNandB,1
brightnessNandB,1
carpet pos,0
pc,0
Time (ms),CH1 Auto-Correlation
1.0,0.02650083415210247
2.0,0.02154969610273838
3.0,0.018172847107052803
4.0,0.01569448783993721
5.0,0.01374141126871109
6.0,0.012204956263303757
7.0,0.01111457496881485
8.0,0.010158492252230644
9.0,0.009136833250522614
10.0,0.008416358381509781
11.0,0.007755294907838106
12.0,0.0070755756460130215
13.0,0.0066306390799582005
14.0,0.00624132389202714
15.0,0.005859974306076765
16.0,0.005519638769328594
18.0,0.005012248642742634
20.0,0.004534516017884016
22.0,0.004153765272349119
24.0,0.003861582139506936
26.0,0.003511517308652401
28.0,0.0032420128118246794
30.0,0.00318134855479002
32.0,0.003212418407201767
36.0,0.0032230427023023367
40.0,0.0028624157421290874
44.0,0.002542586997151375
48.0,0.002229399746283889
52.0,0.0017777460161596537
56.0,0.0014349736738950014
60.0,0.0016149686416611075
64.0,0.0014986664755269885
72.0,0.0013908410910516977
80.0,0.0011446482967585325
88.0,0.00016890684491954744
96.0,0.0004443924699444324
104.0,0.0001030878847814165
112.0,0.00038821474299766123
120.0,0.00031644024420529604
128.0,0.0005692557315342128
144.0,0.0009956570575013757
160.0,0.0003241923695895821
176.0,0.00030817315564490855
192.0,0.00023309608513955027
208.0,0.0008187315543182194
224.0,0.0009021272417157888
240.0,0.0007585628191009164
256.0,0.00035462441155686975
288.0,0.0008898779051378369
320.0,0.0006657821941189468
352.0,3.7274727219482884e-05
384.0,-0.0005390872829593718
416.0,-0.00015906154294498265
448.0,0.00025543500669300556
480.0,0.00024328305153176188
512.0,-0.00010708262561820447
576.0,-0.0009570717811584473
640.0,-7.79472102294676e-05
704.0,0.0004129347507841885
768.0,0.0006087255897000432
832.0,0.0001078213972505182
896.0,-8.270455873571336e-05
960.0,9.543795749777928e-05
1024.0,-0.00040469825034961104
1152.0,0.0001601391559233889
1280.0,-0.0007929647690616548
1408.0,0.0005875941133126616
1536.0,-0.000819508743006736
1664.0,-0.00022707396419718862
1792.0,0.00020267738727852702
1920.0,0.00046436741831712425
2048.0,-0.00015534050180576742
2304.0,0.00034471071558073163
2560.0,-7.010791887296364e-05
2816.0,-0.00031739554833620787
3072.0,-0.0004351780517026782
3328.0,-0.0005633684922941029
3584.0,-0.001045730197802186
3840.0,-0.00045167680946178734
4096.0,-7.716393156442791e-06
4608.0,-4.5915399823570624e-05
5120.0,-0.00017080255202017725
5632.0,-7.852252019802108e-05
6144.0,0.0002717976167332381
6656.0,0.0007143450202420354
7168.0,0.0002410050801699981
7680.0,2.873757875931915e-05
8192.0,8.865774361765943e-06
9216.0,0.00010331726662116125
10240.0,-0.0006820717826485634
11264.0,-0.000220493006054312
12288.0,-0.00038217788096517324
13312.0,0.00021160143660381436
14336.0,0.0009285478154197335
end
