version,3.0
numOfCh,1
type,point
parent_name,34a6d_3dot0-0dot01
ch_type,1_1
kcount,1
numberNandB,1
brightnessNandB,1
carpet pos,0
pc,0
Time (ms),CH1 Auto-Correlation
1.0,0.028162579983472824
2.0,0.023338427767157555
3.0,0.019965004175901413
4.0,0.0174156054854393
5.0,0.0151825537905097
6.0,0.013590257614850998
7.0,0.012417626567184925
8.0,0.011422521434724331
9.0,0.010614771395921707
10.0,0.00985387247055769
11.0,0.009283788502216339
12.0,0.00890403613448143
13.0,0.008468368090689182
14.0,0.00817145872861147
15.0,0.007696544751524925
16.0,0.007391802966594696
18.0,0.006844181567430496
20.0,0.006273014470934868
22.0,0.005924636963754892
24.0,0.005639506038278341
26.0,0.005311290733516216
28.0,0.004882513545453548
30.0,0.004566817544400692
32.0,0.0045584929175674915
36.0,0.004259863868355751
40.0,0.0031668730080127716
44.0,0.002550197299569845
48.0,0.0019333538366481662
52.0,0.0016727934125810862
56.0,0.0016675809165462852
60.0,0.0022799132857471704
64.0,0.0024578887969255447
72.0,0.0012785532744601369
80.0,0.00116348743904382
88.0,0.0018594547873362899
96.0,0.0016022482886910439
104.0,0.0013057332253083587
112.0,0.0016080521745607257
120.0,0.0008772214641794562
128.0,0.0010849694954231381
144.0,0.0005715404986403883
160.0,-0.0001451480493415147
176.0,4.171090495219687e-06
192.0,0.00021924084285274148
208.0,0.0005918200477026403
224.0,-1.313633856625529e-05
240.0,-0.00014082460256759077
256.0,0.00015452982916031033
288.0,0.0003349817416165024
320.0,-4.790452294400893e-05
352.0,-0.0003571842680685222
384.0,0.0006284682312980294
416.0,0.0006656228215433657
448.0,-0.00018943025497719646
480.0,-0.0003241210652049631
512.0,0.000234450344578363
576.0,-0.0002304733352502808
640.0,0.00013593502808362246
704.0,-0.0007921287906356156
768.0,-0.0007705801981501281
832.0,-0.0004456916940398514
896.0,0.0005455116624943912
960.0,-0.00014543802535627037
1024.0,-0.00023041025269776583
1152.0,0.00042602565372362733
1280.0,0.0005058524548076093
1408.0,3.145861774100922e-05
1536.0,0.0005386689445003867
1664.0,6.114138523116708e-05
1792.0,8.574822277296335e-05
1920.0,-0.0004304767644498497
2048.0,0.000156532070832327
2304.0,-0.0005432736361399293
2560.0,-5.151003279024735e-05
2816.0,8.129465277306736e-05
3072.0,-0.0004921351210214198
3328.0,0.000358251592842862
3584.0,1.2500008779170457e-05
3840.0,-0.0002733156434260309
4096.0,-0.00022166968847159296
4608.0,-4.241234273649752e-05
5120.0,0.00021352012117858976
5632.0,-0.0005073117790743709
6144.0,-5.284958388074301e-05
6656.0,-0.0004461250500753522
7168.0,0.00024903687881305814
7680.0,-0.00031371787190437317
8192.0,-0.00020799007324967533
end
