version,3.0
numOfCh,1
type,point
parent_name,34a6d_3dot0-0dot01
ch_type,1_1
kcount,1
numberNandB,1
brightnessNandB,1
carpet pos,0
pc,0
Time (ms),CH1 Auto-Correlation
1.0,0.2658858299255371
2.0,0.26211225986480713
3.0,0.25905540585517883
4.0,0.2565772533416748
5.0,0.25432464480400085
6.0,0.25216180086135864
7.0,0.2502816319465637
8.0,0.2484094351530075
9.0,0.2464575171470642
10.0,0.24460165202617645
11.0,0.2427390068769455
12.0,0.24107106029987335
13.0,0.23943936824798584
14.0,0.23799236118793488
15.0,0.23630255460739136
16.0,0.23463177680969238
18.0,0.23165187239646912
20.0,0.2285241037607193
22.0,0.22576108574867249
24.0,0.22281968593597412
26.0,0.21971218287944794
28.0,0.21668760478496552
30.0,0.21364642679691315
32.0,0.21074707806110382
36.0,0.20563560724258423
40.0,0.20133846998214722
44.0,0.19688093662261963
48.0,0.19249872863292694
52.0,0.18808633089065552
56.0,0.18387818336486816
60.0,0.17898902297019958
64.0,0.17416787147521973
72.0,0.16745075583457947
80.0,0.16182808578014374
88.0,0.15472197532653809
96.0,0.14658991992473602
104.0,0.13868193328380585
112.0,0.12997032701969147
120.0,0.1207023561000824
128.0,0.1118323802947998
144.0,0.09692218154668808
160.0,0.08433070033788681
176.0,0.0717923566699028
192.0,0.05789721757173538
208.0,0.045374833047389984
224.0,0.03563036024570465
240.0,0.02587106265127659
256.0,0.016510413959622383
288.0,-0.009740435518324375
320.0,-0.02933722548186779
352.0,-0.0427919402718544
384.0,-0.04393412545323372
416.0,-0.042993880808353424
448.0,-0.03944700211286545
480.0,-0.03812972456216812
512.0,-0.0339684896171093
576.0,-0.022477373480796814
640.0,-0.012381883338093758
704.0,-0.004188294522464275
768.0,0.005136838648468256
832.0,0.0169585682451725
896.0,0.0221328753978014
960.0,0.018350154161453247
1024.0,0.008789371699094772
1152.0,-0.000509382807649672
1280.0,0.007913744077086449
1408.0,0.004897803068161011
1536.0,-0.025930503383278847
1664.0,-0.05734186992049217
1792.0,-0.06717279553413391
1920.0,-0.04440995678305626
2048.0,0.030826501548290253
2304.0,0.07281386852264404
2560.0,-0.04642661660909653
2816.0,-0.05539203807711601
3072.0,-0.038845039904117584
3328.0,-0.04305947571992874
3584.0,-0.039347194135189056
3840.0,-0.028697609901428223
4096.0,-0.026425419375300407
end
