version,3.0
numOfCh,1
type,point
parent_name,34a6d_3dot0-0dot01
ch_type,1_1
kcount,1
numberNandB,1
brightnessNandB,1
carpet pos,0
pc,0
Time (ms),CH1 Auto-Correlation
1.0,0.027865923941135406
2.0,0.023025456815958023
3.0,0.019697537645697594
4.0,0.017308423295617104
5.0,0.015361843630671501
6.0,0.013957494869828224
7.0,0.012915477156639099
8.0,0.011906775645911694
9.0,0.011091911233961582
10.0,0.010140972211956978
11.0,0.009449424222111702
12.0,0.008974721655249596
13.0,0.008558944799005985
14.0,0.008188451640307903
15.0,0.00784602202475071
16.0,0.007536232937127352
18.0,0.007031015120446682
20.0,0.0066268607042729855
22.0,0.00648796372115612
24.0,0.006341163534671068
26.0,0.00610968517139554
28.0,0.005590489599853754
30.0,0.0053638010285794735
32.0,0.004947499372065067
36.0,0.004328241106122732
40.0,0.004402980208396912
44.0,0.004011916927993298
48.0,0.0033639436587691307
52.0,0.0033646977972239256
56.0,0.003729085670784116
60.0,0.0037340472918003798
64.0,0.0033251300919800997
72.0,0.0030349818989634514
80.0,0.0027280128560960293
88.0,0.0024668427649885416
96.0,0.0021472633816301823
104.0,0.0020805606618523598
112.0,0.0017414067406207323
120.0,0.0015780573012307286
128.0,0.0018976177088916302
144.0,0.001725849462673068
160.0,0.0013322466984391212
176.0,0.0015976467402651906
192.0,0.0016948245465755463
208.0,0.0007700637797825038
224.0,0.0014228344662114978
240.0,0.0017958469688892365
256.0,0.0014355467865243554
288.0,0.0011569258058443666
320.0,0.0007139687659218907
352.0,0.0007090054568834603
384.0,0.001654060441069305
416.0,0.0013023936189711094
448.0,0.0006201914511620998
480.0,0.0007520090439356863
512.0,0.0003869927313644439
576.0,0.001318258000537753
640.0,0.0009155534789897501
704.0,0.000218415298149921
768.0,-3.9966878830455244e-05
832.0,-0.0006199174677021801
896.0,0.000461534975329414
960.0,0.0010246260790154338
1024.0,0.00026491223252378404
1152.0,-0.0007785588968545198
1280.0,-0.0003727169241756201
1408.0,-0.0010125729022547603
1536.0,-0.0014610033249482512
1664.0,-0.0014543558936566114
1792.0,0.000507890887092799
1920.0,-2.3031165255815722e-05
2048.0,-0.00013534704339690506
2304.0,-0.0002127234183717519
2560.0,0.0004604527784977108
2816.0,0.0006356679950840771
3072.0,0.0004244478477630764
3328.0,0.000767792749684304
3584.0,0.00037854223046451807
3840.0,0.001066330703906715
4096.0,0.0004947187844663858
4608.0,-6.554133142344654e-05
5120.0,-0.0008083307184278965
5632.0,-0.0006574201979674399
6144.0,-0.0005184196634218097
6656.0,5.4333322623278946e-05
7168.0,0.0006297727813944221
7680.0,0.0011413745814934373
8192.0,0.0007983067771419883
end
