version,3.0
numOfCh,1
type,point
parent_name,34a6d_3dot0-0dot01
ch_type,1_1
kcount,1
numberNandB,1
brightnessNandB,1
carpet pos,0
pc,0
Time (ms),CH1 Auto-Correlation
1.0,0.02720634452998638
2.0,0.022438038140535355
3.0,0.01909792050719261
4.0,0.01654941402375698
5.0,0.01458314061164856
6.0,0.013052194379270077
7.0,0.011771949008107185
8.0,0.01068648137152195
9.0,0.009793694131076336
10.0,0.008983743377029896
11.0,0.008355076424777508
12.0,0.007721591740846634
13.0,0.007075991481542587
14.0,0.006516757421195507
15.0,0.006065578665584326
16.0,0.00568697415292263
18.0,0.0050180405378341675
20.0,0.004752798471599817
22.0,0.004708284046500921
24.0,0.004298718646168709
26.0,0.004080015234649181
28.0,0.003712583566084504
30.0,0.003416656283661723
32.0,0.0031993191223591566
36.0,0.003031838918104768
40.0,0.002680107019841671
44.0,0.002490601036697626
48.0,0.00197618268430233
52.0,0.0011918360833078623
56.0,0.0005569543573074043
60.0,0.000387361942557618
64.0,0.00017325201770290732
72.0,-4.0774521039566025e-05
80.0,-0.0002924790605902672
88.0,-0.00023202197917271405
96.0,-0.0004249743069522083
104.0,-2.069175025098957e-05
112.0,4.1634513763710856e-05
120.0,7.847751112421975e-05
128.0,0.0006541023030877113
144.0,0.0008378081256523728
160.0,0.0003175844030920416
176.0,0.0006908092764206231
192.0,0.00029479540535248816
208.0,0.00016942061483860016
224.0,0.00011963464930886403
240.0,-0.0004907592083327472
256.0,-0.0006834808154962957
288.0,-0.0004390607646200806
320.0,-0.0005317280301824212
352.0,-0.0003163195797242224
384.0,-0.00039284807280637324
416.0,3.0538525606971234e-05
448.0,0.00020837044576182961
480.0,0.0012512258253991604
512.0,0.0014415420591831207
576.0,-0.00010380102321505547
640.0,0.0010483721271157265
704.0,0.000619121827185154
768.0,-0.00021457696857396513
832.0,-7.363326585618779e-05
896.0,-0.0002088566980091855
960.0,-0.0007212578202597797
1024.0,0.0006133620045147836
1152.0,0.00023280967434402555
1280.0,-0.0003227951528970152
1408.0,-0.0003831063804682344
1536.0,-0.0006652341689914465
1664.0,-0.0008442734833806753
1792.0,-0.00013283493171911687
1920.0,0.00028465065406635404
2048.0,3.2702293538022786e-05
2304.0,-0.0004822500632144511
2560.0,0.0005056452355347574
2816.0,0.000539949513040483
3072.0,0.0003712231991812587
3328.0,0.000311756826704368
3584.0,0.00011056134098907933
3840.0,0.00021489833306986839
4096.0,-0.00016888551181182265
4608.0,-0.00033922248985618353
5120.0,-2.9681192245334387e-05
5632.0,-0.0002569977950770408
6144.0,-0.00016377362771891057
6656.0,-0.0002720157790463418
7168.0,-7.88466877565952e-06
7680.0,-5.0909180572489277e-05
8192.0,0.0007745514158159494
end
