version,3.0
numOfCh,1
type,point
parent_name,34a6d_3dot0-0dot01
ch_type,1_1
kcount,1
numberNandB,1
brightnessNandB,1
carpet pos,0
pc,0
Time (ms),CH1 Auto-Correlation
1.0,0.04116752743721008
2.0,0.03648833557963371
3.0,0.032979436218738556
4.0,0.0304750744253397
5.0,0.028564130887389183
6.0,0.027234960347414017
7.0,0.026136308908462524
8.0,0.02529321052134037
9.0,0.024359827861189842
10.0,0.023391863331198692
11.0,0.022386211901903152
12.0,0.02150711789727211
13.0,0.020859351381659508
14.0,0.020285120233893394
15.0,0.019934147596359253
16.0,0.019803214818239212
18.0,0.018946602940559387
20.0,0.017887642607092857
22.0,0.016783062368631363
24.0,0.01614198461174965
26.0,0.0158028993755579
28.0,0.015258466824889183
30.0,0.014590783044695854
32.0,0.013755668886005878
36.0,0.013204691000282764
40.0,0.01316357497125864
44.0,0.012662967666983604
48.0,0.01196946483105421
52.0,0.01167245302349329
56.0,0.010890734381973743
60.0,0.010092717595398426
64.0,0.00967384222894907
72.0,0.009613366797566414
80.0,0.008776440285146236
88.0,0.00841737911105156
96.0,0.008183110505342484
104.0,0.0067556314170360565
112.0,0.006531402003020048
120.0,0.006353232078254223
128.0,0.006102094892412424
144.0,0.0050482070073485374
160.0,0.0033059974666684866
176.0,0.002558694453909993
192.0,0.0013454186264425516
208.0,3.3246062230318785e-05
224.0,0.000209080521017313
240.0,0.0004525228578131646
256.0,0.0008992738439701498
288.0,0.0002074522926704958
320.0,-0.00027985559427179396
352.0,-0.000506382726598531
384.0,-0.000615728204138577
416.0,-0.0007847682572901249
448.0,-0.00013928407861385494
480.0,0.001437479630112648
512.0,0.0018608473474159837
576.0,0.0017441166564822197
640.0,0.0005185548798181117
704.0,4.199601607979275e-05
768.0,-0.00032031364389695227
832.0,-0.0007096176850609481
896.0,-0.000902226660400629
960.0,0.0002908378664869815
1024.0,6.695083720842376e-05
1152.0,-0.001484070555306971
1280.0,-0.0021561391185969114
1408.0,-0.0010935739846900105
1536.0,-0.0011095749214291573
1664.0,0.0009724893025122583
1792.0,0.000539863423909992
1920.0,-0.0020294261630624533
2048.0,-0.001072321436367929
2304.0,-0.00030113098910078406
2560.0,-0.0017211830709129572
2816.0,0.00040912823169492185
3072.0,-0.000631425529718399
3328.0,-0.000361538928700611
3584.0,-0.000188435340533033
3840.0,-0.0004534487088676542
4096.0,-0.0006338080856949091
4608.0,0.0004478954942896962
5120.0,0.0001495087635703385
5632.0,-0.0010417922167107463
6144.0,-0.00044727057684212923
6656.0,0.00046528730308637023
7168.0,0.001030194922350347
7680.0,0.0010856006992980838
8192.0,0.0018294195178896189
end
