version,3.0
numOfCh,1
type,point
parent_name,34a6d_3dot0-0dot01
ch_type,1_1
kcount,1
numberNandB,1
brightnessNandB,1
carpet pos,0
pc,0
Time (ms),CH1 Auto-Correlation
1.0,0.029051680117845535
2.0,0.02438860572874546
3.0,0.021095117554068565
4.0,0.018719006329774857
5.0,0.016852516680955887
6.0,0.015283728018403053
7.0,0.013848821632564068
8.0,0.012661946937441826
9.0,0.011706370860338211
10.0,0.010996799916028976
11.0,0.01037114579230547
12.0,0.009900172241032124
13.0,0.009330938570201397
14.0,0.00876834336668253
15.0,0.008407757617533207
16.0,0.008017895743250847
18.0,0.007395777385681868
20.0,0.007044932339340448
22.0,0.006663705687969923
24.0,0.00600998941808939
26.0,0.005312332883477211
28.0,0.004752344451844692
30.0,0.0044214753434062
32.0,0.00446665333583951
36.0,0.004068502224981785
40.0,0.0038449689745903015
44.0,0.003842176403850317
48.0,0.0037853880785405636
52.0,0.003851066343486309
56.0,0.0036437027156352997
60.0,0.00330555927939713
64.0,0.0030609669629484415
72.0,0.002705502090975642
80.0,0.002064183820039034
88.0,0.0018630840349942446
96.0,0.001531889894977212
104.0,0.0008832815801724792
112.0,0.0008182538440451026
120.0,0.0012077378341928124
128.0,0.0017124194419011474
144.0,0.002113509923219681
160.0,0.001730029471218586
176.0,0.0012690749717876315
192.0,0.001634308136999607
208.0,0.0021010469645261765
224.0,0.002085828222334385
240.0,0.0007571776513941586
256.0,0.00039378981455229223
288.0,0.00019016570877283812
320.0,-0.00023801469069439918
352.0,-0.00011150176578667015
384.0,-0.0006025685579515994
416.0,-0.00018716971680987626
448.0,0.00038838369073346257
480.0,0.00032100765383802354
512.0,-0.0003273852344136685
576.0,-0.0001519993384135887
640.0,0.00017716284492053092
704.0,-1.8902946976595558e-05
768.0,8.126159809762612e-05
832.0,-0.00019330394570715725
896.0,0.000803861184976995
960.0,0.00019492226419970393
1024.0,-0.00016762669838499278
1152.0,0.00026765457005240023
1280.0,0.0003872182860504836
1408.0,0.0006052495446056128
1536.0,-0.0002689680550247431
1664.0,-0.0009239056380465627
1792.0,-0.0007590072927996516
1920.0,0.00024765607668086886
2048.0,0.0009243653621524572
2304.0,-0.00010686259338399395
2560.0,-0.00045731887803412974
2816.0,0.00010785370250232518
3072.0,0.00039404036942869425
3328.0,-0.000606328307185322
3584.0,-0.0004045354435220361
3840.0,-2.6243222237098962e-05
4096.0,-0.0005598644493147731
4608.0,0.00020225030311848968
5120.0,0.0003733222547452897
5632.0,-0.0016210224712267518
6144.0,0.0007272675284184515
6656.0,-0.0003393013321328908
7168.0,-9.897106792777777e-05
7680.0,0.0003060604794882238
8192.0,-6.208115519257262e-05
end
