version,3.0
numOfCh,1
type,point
parent_name,34a6d_3dot0-0dot01
ch_type,1_1
kcount,1
numberNandB,1
brightnessNandB,1
carpet pos,0
pc,0
Time (ms),CH1 Auto-Correlation
1.0,0.033732760697603226
2.0,0.029109269380569458
3.0,0.0258396714925766
4.0,0.023438652977347374
5.0,0.021476496011018753
6.0,0.019800474867224693
7.0,0.018336549401283264
8.0,0.017206205055117607
9.0,0.01622978411614895
10.0,0.0154076237231493
11.0,0.014731591567397118
12.0,0.014194215647876263
13.0,0.013760412111878395
14.0,0.013294500298798084
15.0,0.012897654436528683
16.0,0.012587284669280052
18.0,0.011817953549325466
20.0,0.011302255094051361
22.0,0.010835984721779823
24.0,0.010256287641823292
26.0,0.009976592846214771
28.0,0.010101476684212685
30.0,0.009968522936105728
32.0,0.009814244695007801
36.0,0.009628313593566418
40.0,0.009609679691493511
44.0,0.009395729750394821
48.0,0.00950248446315527
52.0,0.009325115010142326
56.0,0.008787245489656925
60.0,0.008385013788938522
64.0,0.008179296739399433
72.0,0.008369632065296173
80.0,0.0072986106388270855
88.0,0.006221996620297432
96.0,0.006464580073952675
104.0,0.006568113807588816
112.0,0.006499323062598705
120.0,0.006810513325035572
128.0,0.006438111420720816
144.0,0.004996353294700384
160.0,0.0044860499911010265
176.0,0.0051159183494746685
192.0,0.005121818743646145
208.0,0.005269621033221483
224.0,0.004548269789665937
240.0,0.004809186328202486
256.0,0.004916036501526833
288.0,0.004700075834989548
320.0,0.003859585616737604
352.0,0.003843883750960231
384.0,0.002847058465704322
416.0,0.0034328377805650234
448.0,0.003151501528918743
480.0,0.0028057254385203123
512.0,0.00257328269071877
576.0,0.002873671008273959
640.0,0.0025425695348531008
704.0,0.0028143199160695076
768.0,0.003069082507863641
832.0,0.001968252705410123
896.0,0.00026435236213728786
960.0,0.0007867856184020638
1024.0,0.00021674364688806236
1152.0,0.0004666826280299574
1280.0,-0.00025641624233685434
1408.0,-0.0010510849533602595
1536.0,-0.0008173810783773661
1664.0,-0.001958091277629137
1792.0,-0.0008140882709994912
1920.0,-0.00011722694034688175
2048.0,-6.5551544139452744e-06
2304.0,0.001063226256519556
2560.0,0.0018816582160070539
2816.0,0.00035075494088232517
3072.0,0.0006618298939429224
3328.0,-0.0007302333251573145
3584.0,-0.0015117558650672436
3840.0,-0.0015731614548712969
4096.0,-0.004296243190765381
4608.0,-0.0012816967209801078
5120.0,3.289275991846807e-05
5632.0,0.0006035079713910818
6144.0,0.0023052124306559563
6656.0,-0.0009948058286681771
7168.0,-0.0022763048764318228
7680.0,-0.0029589906334877014
8192.0,-0.0018258187919855118
end
