version,3.0
numOfCh,1
type,point
parent_name,34a6d_3dot0-0dot01
ch_type,1_1
kcount,1
numberNandB,1
brightnessNandB,1
carpet pos,0
pc,0
Time (ms),CH1 Auto-Correlation
1.0,0.45133036375045776
2.0,0.44794464111328125
3.0,0.4448785185813904
4.0,0.44223013520240784
5.0,0.43976953625679016
6.0,0.4375956356525421
7.0,0.4355909824371338
8.0,0.433742493391037
9.0,0.43194928765296936
10.0,0.4302309453487396
11.0,0.42854759097099304
12.0,0.4268103241920471
13.0,0.42522674798965454
14.0,0.4236084818840027
15.0,0.4221716821193695
16.0,0.4206346273422241
18.0,0.41777485609054565
20.0,0.41496288776397705
22.0,0.4123186469078064
24.0,0.41001784801483154
26.0,0.4075208008289337
28.0,0.4053052067756653
30.0,0.4026613235473633
32.0,0.4003128409385681
36.0,0.39646628499031067
40.0,0.39320215582847595
44.0,0.38945549726486206
48.0,0.3875424265861511
52.0,0.385269433259964
56.0,0.38168907165527344
60.0,0.37745311856269836
64.0,0.37313151359558105
72.0,0.3660549819469452
80.0,0.36083438992500305
88.0,0.35609713196754456
96.0,0.3500974774360657
104.0,0.34323030710220337
112.0,0.33525702357292175
120.0,0.3271631598472595
128.0,0.3195076882839203
144.0,0.30626997351646423
160.0,0.29297053813934326
176.0,0.28128647804260254
192.0,0.27047380805015564
208.0,0.2597646117210388
224.0,0.24924007058143616
240.0,0.24142500758171082
256.0,0.23642602562904358
288.0,0.22742138803005219
320.0,0.22041325271129608
352.0,0.2139425128698349
384.0,0.2045300006866455
416.0,0.19954264163970947
448.0,0.20163516700267792
480.0,0.19801999628543854
512.0,0.19474457204341888
576.0,0.19402334094047546
640.0,0.18122920393943787
704.0,0.15679238736629486
768.0,0.1362837702035904
832.0,0.11507073789834976
896.0,0.09848557412624359
960.0,0.08547133952379227
1024.0,0.06832817941904068
1152.0,0.037180520594120026
1280.0,0.007461089640855789
1408.0,-0.013934984803199768
1536.0,-0.033001214265823364
1664.0,-0.041636187583208084
1792.0,-0.05402544140815735
1920.0,-0.07530071586370468
2048.0,-0.09477795660495758
2304.0,-0.10361012816429138
2560.0,-0.10201285779476166
2816.0,-0.09066259115934372
3072.0,-0.08284048736095428
3328.0,-0.09522038698196411
3584.0,-0.05294053629040718
3840.0,0.052100762724876404
4096.0,0.08411704003810883
4608.0,0.08414823561906815
5120.0,-0.03980410471558571
5632.0,-0.16079594194889069
6144.0,-0.30105188488960266
6656.0,-0.258872926235199
7168.0,-0.17286784946918488
end
