version,3.0
numOfCh,1
type,point
parent_name,34a6d_3dot0-0dot01
ch_type,1_1
kcount,1
numberNandB,1
brightnessNandB,1
carpet pos,0
pc,0
Time (ms),CH1 Auto-Correlation
1.0,0.06893392652273178
2.0,0.06517572700977325
3.0,0.06244313716888428
4.0,0.06040094420313835
5.0,0.0587482824921608
6.0,0.057514432817697525
7.0,0.05625007301568985
8.0,0.05500084161758423
9.0,0.053945574909448624
10.0,0.05305415019392967
11.0,0.05237068235874176
12.0,0.05179287865757942
13.0,0.05116647854447365
14.0,0.05055185407400131
15.0,0.04990103095769882
16.0,0.04932493343949318
18.0,0.04832269996404648
20.0,0.04717179015278816
22.0,0.04625590890645981
24.0,0.045683056116104126
26.0,0.04514702782034874
28.0,0.04461143538355827
30.0,0.04421340301632881
32.0,0.04355534538626671
36.0,0.042443666607141495
40.0,0.04170280694961548
44.0,0.04111310467123985
48.0,0.04093437269330025
52.0,0.04033256322145462
56.0,0.03995969891548157
60.0,0.039544302970170975
64.0,0.038823943585157394
72.0,0.03678489848971367
80.0,0.035900574177503586
88.0,0.034626856446266174
96.0,0.03341861814260483
104.0,0.03222120180726051
112.0,0.03146500140428543
120.0,0.030903633683919907
128.0,0.030750568956136703
144.0,0.029339080676436424
160.0,0.027596015483140945
176.0,0.025963034480810165
192.0,0.02509538270533085
208.0,0.02306787483394146
224.0,0.020787851884961128
240.0,0.018393250182271004
256.0,0.01703285053372383
288.0,0.014281250536441803
320.0,0.013037644326686859
352.0,0.013541544787585735
384.0,0.013188819400966167
416.0,0.012171398848295212
448.0,0.012462137266993523
480.0,0.01206053327769041
512.0,0.012163647450506687
576.0,0.010761727578938007
640.0,0.00815910566598177
704.0,0.005042380653321743
768.0,0.00037104624789208174
832.0,-0.0016779792495071888
896.0,-0.002105827210471034
960.0,-0.0024760097730904818
1024.0,-0.002755869412794709
1152.0,0.0009150294354185462
1280.0,-0.0003583778452593833
1408.0,-0.00245932606048882
1536.0,-0.0033701735083013773
1664.0,-0.007622653152793646
1792.0,-0.00853997003287077
1920.0,-0.010648668743669987
2048.0,-0.01374955102801323
2304.0,-0.017238138243556023
2560.0,-0.013590649701654911
2816.0,-0.011236839927732944
3072.0,-0.010324422270059586
3328.0,-0.006392437499016523
3584.0,-0.006489377934485674
3840.0,0.0005409888690337539
4096.0,0.00668979762122035
4608.0,0.008112791925668716
5120.0,0.00329744815826416
5632.0,0.008739580400288105
6144.0,0.005729537922888994
6656.0,-0.001800354104489088
7168.0,-0.009444520808756351
7680.0,-0.012793500907719135
8192.0,-0.006422483362257481
end
