version,3.0
numOfCh,1
type,point
parent_name,34a6d_3dot0-0dot01
ch_type,1_1
kcount,1
numberNandB,1
brightnessNandB,1
carpet pos,0
pc,0
Time (ms),CH1 Auto-Correlation
1.0,0.02671482227742672
2.0,0.021954482421278954
3.0,0.018465882167220116
4.0,0.01590782217681408
5.0,0.014169128611683846
6.0,0.012909657321870327
7.0,0.01192130334675312
8.0,0.010955224744975567
9.0,0.01019658800214529
10.0,0.009479742497205734
11.0,0.008858928456902504
12.0,0.008070425130426884
13.0,0.007284208666533232
14.0,0.0067552560940384865
15.0,0.006309610791504383
16.0,0.006036023609340191
18.0,0.005558935459703207
20.0,0.00495106028392911
22.0,0.004214908462017775
24.0,0.00382797047495842
26.0,0.0038120995741337538
28.0,0.003646228462457657
30.0,0.003514222800731659
32.0,0.0033184492494910955
36.0,0.002995912916958332
40.0,0.0028375249821692705
44.0,0.0026073111221194267
48.0,0.002224172931164503
52.0,0.0019385580671951175
56.0,0.0014273985289037228
60.0,0.001203572959639132
64.0,0.0008679154561832547
72.0,0.0003848523774649948
80.0,0.0003376249806024134
88.0,0.00044579734094440937
96.0,0.0003464160254225135
104.0,0.0002631445531733334
112.0,0.0006889404030516744
120.0,0.0011034398339688778
128.0,0.0006827163160778582
144.0,-0.00023916977806948125
160.0,-0.000595085381064564
176.0,-0.00048062694258987904
192.0,-0.0007795581477694213
208.0,-0.0007601589895784855
224.0,-0.0005968508194200695
240.0,-0.000891141826286912
256.0,-0.0011908439919352531
288.0,-0.0006876599509268999
320.0,-0.00040983830695040524
352.0,0.0005231951363384724
384.0,0.0004267653275746852
416.0,-0.0001115071281674318
448.0,-0.00012222766235936433
480.0,0.00046933532576076686
512.0,-9.762963600223884e-05
576.0,-0.00045574322575703263
640.0,-0.000873503100592643
704.0,-0.0006056550773791969
768.0,0.0003375673550181091
832.0,0.0002760056231636554
896.0,-0.0006160447956062853
960.0,-0.0005787423579022288
1024.0,-0.0006741231773048639
1152.0,0.0005833087489008904
1280.0,0.0008106174063868821
1408.0,-0.000459804548881948
1536.0,-0.0003771472838707268
1664.0,-0.00043519921018742025
1792.0,-0.0009224656969308853
1920.0,-0.00016584855620749295
2048.0,0.000325885193888098
2304.0,0.00012570427497848868
2560.0,-0.00013654596114065498
2816.0,-0.0005703324568457901
3072.0,0.00013677487731911242
3328.0,0.0005210032104514539
3584.0,0.0002819372166413814
3840.0,-0.0003943715419154614
4096.0,-0.0001097529093385674
4608.0,0.00022946180251892656
5120.0,-0.00011506088776513934
5632.0,0.00017810241843108088
6144.0,-0.0003132771817035973
6656.0,-0.0002349609276279807
7168.0,-6.20547734797583e-06
7680.0,-0.00029040081426501274
8192.0,0.00013470246631186455
end
