version,3.0
numOfCh,1
type,point
parent_name,34a6d_3dot0-0dot01
ch_type,1_1
kcount,1
numberNandB,1
brightnessNandB,1
carpet pos,0
pc,0
Time (ms),CH1 Auto-Correlation
1.0,0.236895352602005
2.0,0.23362968862056732
3.0,0.2310662716627121
4.0,0.22898991405963898
5.0,0.2270568609237671
6.0,0.22527112066745758
7.0,0.22370509803295135
8.0,0.222198486328125
9.0,0.22072643041610718
10.0,0.2193775773048401
11.0,0.21812954545021057
12.0,0.21699918806552887
13.0,0.21606500446796417
14.0,0.21524029970169067
15.0,0.21425677835941315
16.0,0.2131645530462265
18.0,0.21115663647651672
20.0,0.20922313630580902
22.0,0.20729155838489532
24.0,0.20551125705242157
26.0,0.20367760956287384
28.0,0.20195136964321136
30.0,0.1998622715473175
32.0,0.1975904405117035
36.0,0.19386805593967438
40.0,0.19098010659217834
44.0,0.18815255165100098
48.0,0.1854712814092636
52.0,0.18312056362628937
56.0,0.18137173354625702
60.0,0.1800622045993805
64.0,0.1788213700056076
72.0,0.17667630314826965
80.0,0.17562207579612732
88.0,0.1735832840204239
96.0,0.17061085999011993
104.0,0.1678875833749771
112.0,0.16636121273040771
120.0,0.1647404134273529
128.0,0.16379719972610474
144.0,0.16225701570510864
160.0,0.15874558687210083
176.0,0.15421420335769653
192.0,0.14838369190692902
208.0,0.14273034036159515
224.0,0.13597935438156128
240.0,0.1306675374507904
256.0,0.127984881401062
288.0,0.1301058828830719
320.0,0.12869177758693695
352.0,0.1229366734623909
384.0,0.11099431663751602
416.0,0.10099317133426666
448.0,0.09570139646530151
480.0,0.09107974916696548
512.0,0.08671386539936066
576.0,0.07597087323665619
640.0,0.07750877737998962
704.0,0.07212967425584793
768.0,0.06496726721525192
832.0,0.05852053314447403
896.0,0.05188249796628952
960.0,0.05662354826927185
1024.0,0.05971226468682289
1152.0,0.05768612399697304
1280.0,0.047784045338630676
1408.0,0.043472371995449066
1536.0,0.021817181259393692
1664.0,-0.007356408052146435
1792.0,-0.02341390959918499
1920.0,-0.04491860419511795
2048.0,-0.06531465798616409
2304.0,-0.0979321226477623
2560.0,-0.08257319033145905
2816.0,-0.08172285556793213
3072.0,-0.1079474687576294
3328.0,-0.10735121369361877
3584.0,-0.101214200258255
3840.0,-0.08979737013578415
4096.0,-0.06780131161212921
4608.0,-0.029959416016936302
5120.0,0.029865004122257233
5632.0,0.046753447502851486
6144.0,0.04329664632678032
6656.0,0.053492434322834015
7168.0,0.05202445387840271
end
