version,3.0
numOfCh,1
type,point
parent_name,34a6d_3dot0-0dot01
ch_type,1_1
kcount,1
numberNandB,1
brightnessNandB,1
carpet pos,0
pc,0
Time (ms),CH1 Auto-Correlation
1.0,0.05205749720335007
2.0,0.04783010482788086
3.0,0.044934894889593124
4.0,0.042814258486032486
5.0,0.04105758294463158
6.0,0.039700545370578766
7.0,0.038484830409288406
8.0,0.03757242113351822
9.0,0.03657333925366402
10.0,0.03567453473806381
11.0,0.034988924860954285
12.0,0.03436587378382683
13.0,0.033568255603313446
14.0,0.03282182663679123
15.0,0.032452572137117386
16.0,0.03184346854686737
18.0,0.031224897131323814
20.0,0.030195944011211395
22.0,0.029219919815659523
24.0,0.028455335646867752
26.0,0.027845993638038635
28.0,0.027277212589979172
30.0,0.027122648432850838
32.0,0.026593854650855064
36.0,0.026461554691195488
40.0,0.026116536930203438
44.0,0.02567639946937561
48.0,0.025127360597252846
52.0,0.024669405072927475
56.0,0.023930903524160385
60.0,0.022754861041903496
64.0,0.02183004468679428
72.0,0.021104231476783752
80.0,0.020758170634508133
88.0,0.020434433594346046
96.0,0.019714761525392532
104.0,0.018461281433701515
112.0,0.017531108111143112
120.0,0.017040874809026718
128.0,0.017976347357034683
144.0,0.016743946820497513
160.0,0.015401952899992466
176.0,0.015717515721917152
192.0,0.015546473674476147
208.0,0.014029813930392265
224.0,0.012438866309821606
240.0,0.011881816200911999
256.0,0.01065922249108553
288.0,0.009920495562255383
320.0,0.009039834141731262
352.0,0.008588006719946861
384.0,0.00792804267257452
416.0,0.007177770137786865
448.0,0.006236119661480188
480.0,0.005905325524508953
512.0,0.005916864611208439
576.0,0.005636595189571381
640.0,0.005530277267098427
704.0,0.006598329171538353
768.0,0.0066098966635763645
832.0,0.006669111084192991
896.0,0.006112953182309866
960.0,0.006063736975193024
1024.0,0.005767391994595528
1152.0,0.003563093254342675
1280.0,-0.0017279142048209906
1408.0,-0.0025228809099644423
1536.0,-0.0010993258329108357
1664.0,0.0012539845192804933
1792.0,-0.001223372295498848
1920.0,-0.00330340676009655
2048.0,-0.003973646089434624
2304.0,-0.006992140784859657
2560.0,-0.007410601247102022
2816.0,-0.004325795918703079
3072.0,-0.004949270281940699
3328.0,-0.004245977383106947
3584.0,-0.006209897808730602
3840.0,-0.004106138367205858
4096.0,-0.002850843360647559
4608.0,-0.0027652722783386707
5120.0,-0.0048493812792003155
5632.0,-0.008358661085367203
6144.0,-0.0007771624950692058
6656.0,0.0033463339786976576
7168.0,0.004650678485631943
7680.0,0.007060809060931206
8192.0,0.0041584777645766735
end
