version,3.0
numOfCh,1
type,point
parent_name,34a6d_3dot0-0dot01
ch_type,1_1
kcount,1
numberNandB,1
brightnessNandB,1
carpet pos,0
pc,0
Time (ms),CH1 Auto-Correlation
1.0,0.14636027812957764
2.0,0.1421581655740738
3.0,0.1388731598854065
4.0,0.13607905805110931
5.0,0.13371451199054718
6.0,0.1315689980983734
7.0,0.12978129088878632
8.0,0.12829585373401642
9.0,0.12681306898593903
10.0,0.12546497583389282
11.0,0.12412084639072418
12.0,0.12262634932994843
13.0,0.12118077278137207
14.0,0.11997188627719879
15.0,0.11901301145553589
16.0,0.1181885376572609
18.0,0.11618752032518387
20.0,0.11438825726509094
22.0,0.11214049905538559
24.0,0.11000129580497742
26.0,0.10833396762609482
28.0,0.10648602992296219
30.0,0.10415788739919662
32.0,0.10182566195726395
36.0,0.09703509509563446
40.0,0.09327717125415802
44.0,0.0901365801692009
48.0,0.08667085319757462
52.0,0.0830642506480217
56.0,0.07953383028507233
60.0,0.07607375830411911
64.0,0.07274676859378815
72.0,0.06801977008581161
80.0,0.06479235738515854
88.0,0.061738841235637665
96.0,0.05949849262833595
104.0,0.057926468551158905
112.0,0.05759800598025322
120.0,0.05860263109207153
128.0,0.058430422097444534
144.0,0.057956308126449585
160.0,0.05654120445251465
176.0,0.050872448831796646
192.0,0.04308561235666275
208.0,0.03786623105406761
224.0,0.03378938511013985
240.0,0.031139440834522247
256.0,0.030651982873678207
288.0,0.03203805163502693
320.0,0.027643637731671333
352.0,0.02570611797273159
384.0,0.02445886842906475
416.0,0.02238544262945652
448.0,0.02040228620171547
480.0,0.014759349636733532
512.0,0.012217781506478786
576.0,0.01470878254622221
640.0,0.016812138259410858
704.0,0.03128889203071594
768.0,0.04169856011867523
832.0,0.03741530701518059
896.0,0.0335579477250576
960.0,0.03062337264418602
1024.0,0.016908997669816017
1152.0,0.006438686978071928
1280.0,-0.0007627140148542821
1408.0,-0.008258328773081303
1536.0,-0.009904846549034119
1664.0,-0.008324268274009228
1792.0,-0.009751931764185429
1920.0,-0.014525932259857655
2048.0,-0.01957469992339611
2304.0,-0.019243506714701653
2560.0,-0.019525041803717613
2816.0,-0.021265050396323204
3072.0,-0.020955514162778854
3328.0,-0.022296905517578125
3584.0,-0.021881725639104843
3840.0,-0.0222461000084877
4096.0,-0.02679380401968956
4608.0,-0.014041992835700512
5120.0,0.0015625875676050782
5632.0,0.008829073049128056
6144.0,0.03921760991215706
6656.0,0.04869075492024422
7168.0,0.016636408865451813
7680.0,-0.02334984764456749
8192.0,-0.05630151182413101
end
