version,3.0
numOfCh,1
type,point
parent_name,34a6d_3dot0-0dot01
ch_type,1_1
kcount,1
numberNandB,1
brightnessNandB,1
carpet pos,0
pc,0
Time (ms),CH1 Auto-Correlation
1.0,0.29200559854507446
2.0,0.28823646903038025
3.0,0.28526145219802856
4.0,0.2826421558856964
5.0,0.2803742587566376
6.0,0.2784403860569
7.0,0.2766140103340149
8.0,0.2749049961566925
9.0,0.2733372151851654
10.0,0.2717321515083313
11.0,0.2701898515224457
12.0,0.2687963545322418
13.0,0.2675231099128723
14.0,0.26627638936042786
15.0,0.2649054229259491
16.0,0.26385927200317383
18.0,0.2619335651397705
20.0,0.25990596413612366
22.0,0.2579534649848938
24.0,0.25638511776924133
26.0,0.254983127117157
28.0,0.253783643245697
30.0,0.2524981200695038
32.0,0.25106027722358704
36.0,0.24844977259635925
40.0,0.24542643129825592
44.0,0.2425408661365509
48.0,0.2402810901403427
52.0,0.23857681453227997
56.0,0.23732401430606842
60.0,0.23628270626068115
64.0,0.23491327464580536
72.0,0.23231591284275055
80.0,0.23014432191848755
88.0,0.2279847413301468
96.0,0.2262394279241562
104.0,0.22589081525802612
112.0,0.22654271125793457
120.0,0.2262471318244934
128.0,0.22528629004955292
144.0,0.22171659767627716
160.0,0.21651588380336761
176.0,0.2091621309518814
192.0,0.20124438405036926
208.0,0.19621627032756805
224.0,0.19282810389995575
240.0,0.18703001737594604
256.0,0.18049441277980804
288.0,0.17254111170768738
320.0,0.16314207017421722
352.0,0.1499222218990326
384.0,0.1429869830608368
416.0,0.14092983305454254
448.0,0.139388769865036
480.0,0.1340462565422058
512.0,0.1235918253660202
576.0,0.11707112193107605
640.0,0.10397616773843765
704.0,0.09697043150663376
768.0,0.0861208364367485
832.0,0.08335865288972855
896.0,0.07985962182283401
960.0,0.08658989518880844
1024.0,0.09648652374744415
1152.0,0.10627859085798264
1280.0,0.09879666566848755
1408.0,0.07617979496717453
1536.0,0.058298509567976
1664.0,0.034612275660037994
1792.0,0.0115580465644598
1920.0,-0.010825540870428085
2048.0,-0.022517865523695946
2304.0,-0.03582550212740898
2560.0,-0.03721892088651657
2816.0,-0.03268834203481674
3072.0,-0.03322029113769531
3328.0,-0.036611855030059814
3584.0,-0.0380680225789547
3840.0,-0.044062305241823196
4096.0,-0.05307945981621742
4608.0,-0.07163262367248535
5120.0,-0.08833964914083481
5632.0,-0.11628729104995728
6144.0,-0.14372560381889343
6656.0,-0.1552765965461731
7168.0,-0.13128739595413208
7680.0,-0.14433734118938446
8192.0,-0.05314754694700241
end
