version,3.0
numOfCh,1
type,point
parent_name,34a6d_3dot0-0dot01
ch_type,1_1
kcount,1
numberNandB,1
brightnessNandB,1
carpet pos,0
pc,0
Time (ms),CH1 Auto-Correlation
1.0,0.02698754332959652
2.0,0.02222784422338009
3.0,0.018834425136446953
4.0,0.016272801905870438
5.0,0.01411402877420187
6.0,0.01243558619171381
7.0,0.011154050007462502
8.0,0.01021158043295145
9.0,0.00923221092671156
10.0,0.008297623135149479
11.0,0.00741942273452878
12.0,0.006762173492461443
13.0,0.006418976467102766
14.0,0.005993216298520565
15.0,0.0057068574242293835
16.0,0.0055971527472138405
18.0,0.00523696793243289
20.0,0.00485148886218667
22.0,0.004410312976688147
24.0,0.003988380543887615
26.0,0.003685933304950595
28.0,0.0031936250161379576
30.0,0.0029205617029219866
32.0,0.002708381973206997
36.0,0.0025521847419440746
40.0,0.0022940661292523146
44.0,0.002303863177075982
48.0,0.002663510153070092
52.0,0.0027817569207400084
56.0,0.002774229273200035
60.0,0.0024159273598343134
64.0,0.0020465406123548746
72.0,0.002120995195582509
80.0,0.0018136497819796205
88.0,0.0014265646459534764
96.0,0.0017053630435839295
104.0,0.0017056510550901294
112.0,0.001820249599404633
120.0,0.0018763099797070026
128.0,0.001376048312522471
144.0,0.0012071052333340049
160.0,0.0018156495643779635
176.0,0.000620715320110321
192.0,0.00019404977501835674
208.0,0.0005298443720676005
224.0,0.0009604024817235768
240.0,0.0012242697412148118
256.0,0.0010034013539552689
288.0,0.00021240419300738722
320.0,0.0004343530163168907
352.0,0.0004022349021397531
384.0,-0.00033105892362073064
416.0,0.0004493613087106496
448.0,0.0002929249603766948
480.0,0.0005541689461097121
512.0,0.0007880608318373561
576.0,0.0005983844166621566
640.0,0.00024055931135080755
704.0,-0.0003446896735113114
768.0,-0.0006815913948230445
832.0,0.0002999166026711464
896.0,-0.00041422550566494465
960.0,-0.0006108966772444546
1024.0,-0.0009105502394959331
1152.0,-1.7160680727101862e-05
1280.0,-0.00042800771188922226
1408.0,0.00017787906108424067
1536.0,-0.00013582230894826353
1664.0,0.00031616268097423017
1792.0,-0.0005719664040952921
1920.0,0.00018247099069412798
2048.0,0.00023079376842360944
2304.0,0.0003650123835541308
2560.0,-0.00032017994089983404
2816.0,-0.0012245310936123133
3072.0,-0.000612123403698206
3328.0,0.00044617534149438143
3584.0,0.0006369817419908941
3840.0,0.0007215430377982557
4096.0,-0.0003077256551478058
4608.0,0.0002001348475459963
5120.0,-0.0006170956185087562
5632.0,-0.0002102256112266332
6144.0,0.00010769519576570019
6656.0,0.00014851817104499787
7168.0,-0.00045727845281362534
7680.0,-0.0003828116459771991
8192.0,0.0006376762758009136
end
