version,3.0
numOfCh,1
type,point
parent_name,34a6d_3dot0-0dot01
ch_type,1_1
kcount,1
numberNandB,1
brightnessNandB,1
carpet pos,0
pc,0
Time (ms),CH1 Auto-Correlation
1.0,0.040753237903118134
2.0,0.03609410673379898
3.0,0.032748136669397354
4.0,0.030354144051671028
5.0,0.028563179075717926
6.0,0.027019700035452843
7.0,0.025679927319288254
8.0,0.024722790345549583
9.0,0.023991310968995094
10.0,0.023187877610325813
11.0,0.022324617952108383
12.0,0.021430477499961853
13.0,0.020558597519993782
14.0,0.020028797909617424
15.0,0.019381297752261162
16.0,0.018809163942933083
18.0,0.01785907708108425
20.0,0.01717710681259632
22.0,0.016581524163484573
24.0,0.016220247372984886
26.0,0.015607082284986973
28.0,0.014900807291269302
30.0,0.014205518178641796
32.0,0.013903053477406502
36.0,0.013315320014953613
40.0,0.01303387712687254
44.0,0.01236884668469429
48.0,0.011666533537209034
52.0,0.011496899649500847
56.0,0.011291827075183392
60.0,0.010711096227169037
64.0,0.010352442041039467
72.0,0.009915892034769058
80.0,0.009329707361757755
88.0,0.009605875238776207
96.0,0.009952431544661522
104.0,0.010610004886984825
112.0,0.011226527392864227
120.0,0.01124945841729641
128.0,0.010235664434731007
144.0,0.00958570372313261
160.0,0.008574068546295166
176.0,0.008400595746934414
192.0,0.007572124246507883
208.0,0.006721553858369589
224.0,0.00582187669351697
240.0,0.005192420445382595
256.0,0.005528756882995367
288.0,0.0057197813875973225
320.0,0.005550076719373465
352.0,0.004130675923079252
384.0,0.0033882500138133764
416.0,0.0019636210054159164
448.0,0.0016039230395108461
480.0,-0.0001534277107566595
512.0,-0.001018717885017395
576.0,-0.0009027379564940929
640.0,-0.0007188698509708047
704.0,-8.967966277850792e-05
768.0,-0.0005729958647862077
832.0,-0.0003447783528827131
896.0,0.0011796122416853905
960.0,0.0019828311633318663
1024.0,0.0017121437704190612
1152.0,0.0015253402525559068
1280.0,0.004321803338825703
1408.0,0.003950624726712704
1536.0,0.002024976769462228
1664.0,0.0015447174664586782
1792.0,0.0016440770123153925
1920.0,-0.0006950911483727396
2048.0,0.00020003716053906828
2304.0,-0.0003355244698468596
2560.0,-0.00027753872564062476
2816.0,-0.0007084353710524738
3072.0,-5.1033122872468084e-05
3328.0,-0.0023069684393703938
3584.0,-0.0023702015168964863
3840.0,-0.000831221230328083
4096.0,4.586683280649595e-05
4608.0,-0.0014713825657963753
5120.0,-0.00035780007601715624
5632.0,0.0012273676693439484
6144.0,0.0008711026166565716
6656.0,-0.0015522444155067205
7168.0,-0.001576053909957409
7680.0,-0.004674132447689772
8192.0,-0.003970128949731588
end
