version,3.0
numOfCh,1
type,point
parent_name,34a6d_3dot0-0dot01
ch_type,1_1
kcount,1
numberNandB,1
brightnessNandB,1
carpet pos,0
pc,0
Time (ms),CH1 Auto-Correlation
1.0,0.026957416906952858
2.0,0.021962959319353104
3.0,0.018414167687296867
4.0,0.015727801248431206
5.0,0.013700943440198898
6.0,0.012099074199795723
7.0,0.010869728401303291
8.0,0.00980267021805048
9.0,0.00894659012556076
10.0,0.00820915587246418
11.0,0.00755224609747529
12.0,0.007033513393253088
13.0,0.006423482671380043
14.0,0.0059239305555820465
15.0,0.005607223603874445
16.0,0.0053560142405331135
18.0,0.005151772405952215
20.0,0.005077498033642769
22.0,0.004902081098407507
24.0,0.0047956607304513454
26.0,0.004664990585297346
28.0,0.004587523639202118
30.0,0.004290761426091194
32.0,0.0038193368818610907
36.0,0.0027439577970653772
40.0,0.0022315115202218294
44.0,0.00200314586982131
48.0,0.001823761616833508
52.0,0.0019508476834744215
56.0,0.0018613686552271247
60.0,0.0014251148095354438
64.0,0.0008979406557045877
72.0,0.001186551060527563
80.0,0.0011487152660265565
88.0,0.0009431905345991254
96.0,0.0002868034061975777
104.0,0.00021569232922047377
112.0,0.0007916367030702531
120.0,0.0006956383585929871
128.0,-0.0003458513238001615
144.0,-0.00021289719734340906
160.0,0.00030650178086943924
176.0,-0.0005841300589963794
192.0,-0.0005632721004076302
208.0,-0.00027287070406600833
224.0,-0.0003806446911767125
240.0,-0.0004132023605052382
256.0,-0.000846519076731056
288.0,-0.0006912171957083046
320.0,-0.0008126695756800473
352.0,-0.0001472210424253717
384.0,1.3880837286706083e-05
416.0,-0.0008300798363052309
448.0,-0.000581703323405236
480.0,7.151803401939105e-06
512.0,0.0005019004456698895
576.0,0.00015581939078401774
640.0,-0.0003757156082428992
704.0,0.0004034694575238973
768.0,0.0004729810170829296
832.0,0.000818565022200346
896.0,-7.835186806914862e-06
960.0,-0.0006187295657582581
1024.0,-0.0003657581692095846
1152.0,-0.0006111562834121287
1280.0,-0.0005616486305370927
1408.0,0.0008494563517160714
1536.0,0.00027950515504926443
1664.0,-7.404236839647638e-06
1792.0,0.0001281494041904807
1920.0,-0.00021941939485259354
2048.0,-0.0007235397933982313
2304.0,0.00036899943370372057
2560.0,-0.0006421536090783775
2816.0,-0.0003903869946952909
3072.0,0.00015399754920508713
3328.0,-0.00039096837281249464
3584.0,1.905048338812776e-05
3840.0,0.0001359433081233874
4096.0,-1.817330667108763e-05
4608.0,0.0002699349424801767
5120.0,6.314351776381955e-05
5632.0,0.00016209982277359813
6144.0,0.0002629702794365585
6656.0,5.3963035497872625e-06
7168.0,-0.0003154114237986505
7680.0,-0.0004381196922622621
8192.0,0.0003483846376184374
end
