version,3.0
numOfCh,1
type,point
parent_name,34a6d_3dot0-0dot01
ch_type,1_1
kcount,1
numberNandB,1
brightnessNandB,1
carpet pos,0
pc,0
Time (ms),CH1 Auto-Correlation
1.0,0.1302371621131897
2.0,0.12666569650173187
3.0,0.12410198152065277
4.0,0.12215524911880493
5.0,0.12087774276733398
6.0,0.11977455019950867
7.0,0.11857078224420547
8.0,0.11761445552110672
9.0,0.11661649495363235
10.0,0.11587454378604889
11.0,0.11508431285619736
12.0,0.11445370316505432
13.0,0.11394288390874863
14.0,0.113395556807518
15.0,0.11282573640346527
16.0,0.11237557977437973
18.0,0.11144653707742691
20.0,0.11033101379871368
22.0,0.10927984118461609
24.0,0.10834335535764694
26.0,0.1075439602136612
28.0,0.10696442425251007
30.0,0.10620874911546707
32.0,0.10563358664512634
36.0,0.1042054295539856
40.0,0.10303843766450882
44.0,0.10193977504968643
48.0,0.10063792765140533
52.0,0.0995384082198143
56.0,0.09863939881324768
60.0,0.09776636958122253
64.0,0.09722413867712021
72.0,0.09685716032981873
80.0,0.095749132335186
88.0,0.09532850235700607
96.0,0.09500480443239212
104.0,0.09444434195756912
112.0,0.09366364032030106
120.0,0.09176748245954514
128.0,0.09043998271226883
144.0,0.08875226974487305
160.0,0.08783029019832611
176.0,0.08746370673179626
192.0,0.08662612736225128
208.0,0.08540072292089462
224.0,0.08357425034046173
240.0,0.08086525648832321
256.0,0.07874119281768799
288.0,0.07370640337467194
320.0,0.06719896197319031
352.0,0.06328395009040833
384.0,0.057292915880680084
416.0,0.05151645466685295
448.0,0.046589817851781845
480.0,0.04104092717170715
512.0,0.03627614304423332
576.0,0.028261356055736542
640.0,0.019713569432497025
704.0,0.009304555132985115
768.0,0.0026110687758773565
832.0,-0.0022127609699964523
896.0,-0.004052996635437012
960.0,-0.010069272480905056
1024.0,-0.014686958864331245
1152.0,-0.01492759957909584
1280.0,-0.01846320927143097
1408.0,-0.0188611950725317
1536.0,-0.01629282534122467
1664.0,-0.014680931344628334
1792.0,-0.008883974514901638
1920.0,-0.010345101356506348
2048.0,-0.013383411802351475
2304.0,-0.015747621655464172
2560.0,-0.019735315814614296
2816.0,-0.0235162191092968
3072.0,-0.028568126261234283
3328.0,-0.0230566393584013
3584.0,-0.005165452603250742
3840.0,0.013590547256171703
4096.0,0.030389908701181412
4608.0,0.007370022125542164
5120.0,-0.03031887672841549
5632.0,-0.023097535595297813
6144.0,-0.008900935761630535
6656.0,-0.0029420172795653343
7168.0,0.0033833172637969255
7680.0,0.007722122594714165
8192.0,-0.003477423219010234
end
