version,3.0
numOfCh,1
type,point
parent_name,34a6d_3dot0-0dot01
ch_type,1_1
kcount,1
numberNandB,1
brightnessNandB,1
carpet pos,0
pc,0
Time (ms),CH1 Auto-Correlation
1.0,0.07981283217668533
2.0,0.07503185421228409
3.0,0.07136663794517517
4.0,0.06857629120349884
5.0,0.06648652255535126
6.0,0.06467726826667786
7.0,0.06287261843681335
8.0,0.06134546920657158
9.0,0.059957172721624374
10.0,0.05873716250061989
11.0,0.05780857056379318
12.0,0.057017650455236435
13.0,0.05623653531074524
14.0,0.05555287003517151
15.0,0.054715633392333984
16.0,0.05406634882092476
18.0,0.052847784012556076
20.0,0.051882848143577576
22.0,0.05091328173875809
24.0,0.050130944699048996
26.0,0.049243416637182236
28.0,0.04839342087507248
30.0,0.047659266740083694
32.0,0.04688269644975662
36.0,0.04544143006205559
40.0,0.044858526438474655
44.0,0.04394257441163063
48.0,0.0434943288564682
52.0,0.043720703572034836
56.0,0.043090224266052246
60.0,0.041748546063899994
64.0,0.040131691843271255
72.0,0.038244541734457016
80.0,0.03692551329731941
88.0,0.03542309254407883
96.0,0.03408496081829071
104.0,0.030856138095259666
112.0,0.028103958815336227
120.0,0.027739914134144783
128.0,0.027206122875213623
144.0,0.026698924601078033
160.0,0.023616643622517586
176.0,0.021392595022916794
192.0,0.021758195012807846
208.0,0.018763840198516846
224.0,0.01666565053164959
240.0,0.013764262199401855
256.0,0.010821990668773651
288.0,0.004735052585601807
320.0,0.003951702266931534
352.0,0.0030324282124638557
384.0,0.002896988997235894
416.0,0.001855699229054153
448.0,-0.0005137326661497355
480.0,-0.000351741851773113
512.0,0.0007475180318579078
576.0,0.0006400580168701708
640.0,0.002017834223806858
704.0,0.004879650194197893
768.0,0.007127115037292242
832.0,0.0075030336156487465
896.0,0.005125729832798243
960.0,0.003113748738542199
1024.0,0.0024611225817352533
1152.0,0.0020350636914372444
1280.0,0.0010639349929988384
1408.0,0.0034618766512721777
1536.0,0.0120970094576478
1664.0,0.010486472398042679
1792.0,0.008962326683104038
1920.0,0.007681999821215868
2048.0,0.00085568887880072
2304.0,0.0014363967347890139
2560.0,0.0035436965990811586
2816.0,0.002201563911512494
3072.0,0.002118173521012068
3328.0,0.001522726844996214
3584.0,0.0010821082396432757
3840.0,-4.869092663284391e-05
4096.0,-0.0002876117068808526
4608.0,-0.0020479594822973013
5120.0,-0.0038150472100824118
5632.0,-0.004851704463362694
6144.0,-0.004811104852706194
6656.0,-0.00161952362395823
7168.0,-0.002455768408253789
7680.0,-0.00757875619456172
8192.0,-0.007295725867152214
end
