version,3.0
numOfCh,1
type,point
parent_name,34a6d_3dot0-0dot01
ch_type,1_1
kcount,1
numberNandB,1
brightnessNandB,1
carpet pos,0
pc,0
Time (ms),CH1 Auto-Correlation
1.0,0.03486097976565361
2.0,0.03018733114004135
3.0,0.026849649846553802
4.0,0.024285288527607918
5.0,0.022527681663632393
6.0,0.02105708047747612
7.0,0.019759565591812134
8.0,0.01868591643869877
9.0,0.01783495768904686
10.0,0.01700618490576744
11.0,0.01640414074063301
12.0,0.015813618898391724
13.0,0.015112718567252159
14.0,0.014501864090561867
15.0,0.014202967286109924
16.0,0.013815773651003838
18.0,0.013044179417192936
20.0,0.01239711418747902
22.0,0.012203099206089973
24.0,0.011896760202944279
26.0,0.01153636071830988
28.0,0.010951003059744835
30.0,0.010485874488949776
32.0,0.010373666882514954
36.0,0.009936278685927391
40.0,0.009588133543729782
44.0,0.008871668018400669
48.0,0.008453872986137867
52.0,0.00790555588901043
56.0,0.007992211729288101
60.0,0.007785653695464134
64.0,0.007649371866136789
72.0,0.006914349272847176
80.0,0.006453962065279484
88.0,0.006143190898001194
96.0,0.005897401366382837
104.0,0.00525063369423151
112.0,0.004769810475409031
120.0,0.004494476597756147
128.0,0.004066189751029015
144.0,0.00497397081926465
160.0,0.004607615061104298
176.0,0.004100720398128033
192.0,0.0045540425926446915
208.0,0.004796551074832678
224.0,0.005102145951241255
240.0,0.004858327563852072
256.0,0.0051081134006381035
288.0,0.004869088996201754
320.0,0.004325065761804581
352.0,0.004087994806468487
384.0,0.003946205601096153
416.0,0.00344090536236763
448.0,0.0025766827166080475
480.0,0.003657989203929901
512.0,0.004313795827329159
576.0,0.002962996019050479
640.0,0.0025059713516384363
704.0,0.0025937119498848915
768.0,0.0015379047254100442
832.0,0.001832446432672441
896.0,0.0017100205877795815
960.0,0.00111460592597723
1024.0,0.0022508047986775637
1152.0,0.00024763718829490244
1280.0,0.0004323866742197424
1408.0,-3.63783365173731e-05
1536.0,-0.0005801679217256606
1664.0,0.0005329130217432976
1792.0,-0.000767972378525883
1920.0,-0.0006113947601988912
2048.0,-0.001431789482012391
2304.0,-0.001163981854915619
2560.0,-0.0006110478425398469
2816.0,-0.0024536787532269955
3072.0,-0.0009297403739765286
3328.0,-0.0007077877526171505
3584.0,-0.0005251646507531404
3840.0,0.0005510548944585025
4096.0,0.0011804455425590277
4608.0,0.0006302358815446496
5120.0,0.00032155532971955836
5632.0,-0.0004787233774550259
6144.0,-0.0007087508565746248
6656.0,-0.0005557473632507026
7168.0,-0.0009296665084548295
7680.0,-0.0006292257457971573
8192.0,-0.0008191926754079759
end
