version,3.0
numOfCh,1
type,point
parent_name,34a6d_3dot0-0dot01
ch_type,1_1
kcount,1
numberNandB,1
brightnessNandB,1
carpet pos,0
pc,0
Time (ms),CH1 Auto-Correlation
1.0,0.027442967519164085
2.0,0.022580768913030624
3.0,0.019337553530931473
4.0,0.016881711781024933
5.0,0.015051289461553097
6.0,0.013472381047904491
7.0,0.012058664113283157
8.0,0.010833070613443851
9.0,0.00988234207034111
10.0,0.009142359718680382
11.0,0.00858656968921423
12.0,0.008232674561440945
13.0,0.007840761914849281
14.0,0.0074026077054440975
15.0,0.006919634062796831
16.0,0.0066776457242667675
18.0,0.006424573715776205
20.0,0.006080827210098505
22.0,0.00548981549218297
24.0,0.0051496271044015884
26.0,0.004699478391557932
28.0,0.004384313710033894
30.0,0.0042272950522601604
32.0,0.004081277176737785
36.0,0.003405163064599037
40.0,0.0032716665882617235
44.0,0.0032948392909020185
48.0,0.0030948505736887455
52.0,0.002718516392633319
56.0,0.0025657974183559418
60.0,0.0023861697409301996
64.0,0.0021959261503070593
72.0,0.0019670671317726374
80.0,0.001074739615432918
88.0,0.001365869422443211
96.0,0.0011061272816732526
104.0,0.0012161723570898175
112.0,0.001131658791564405
120.0,0.000765992677770555
128.0,0.00028662008116953075
144.0,0.00030555197736248374
160.0,-0.00012376930681057274
176.0,0.0005228645168244839
192.0,0.0007335106492973864
208.0,0.0005184159381315112
224.0,0.0006839893176220357
240.0,9.24899650271982e-05
256.0,0.0004760481824632734
288.0,0.000749884988181293
320.0,0.0008191893575713038
352.0,0.0009567452943883836
384.0,0.000445064710220322
416.0,-5.989376950310543e-05
448.0,-0.00013119478535372764
480.0,-0.0007578098447993398
512.0,-0.00036077341064810753
576.0,-0.0001395322469761595
640.0,0.0002751316933427006
704.0,0.0005193699616938829
768.0,-0.0001243451697519049
832.0,-0.000806904979981482
896.0,3.8208225305425e-05
960.0,-0.00046200421638786793
1024.0,-0.0009671483421698213
1152.0,-0.0004918760969303548
1280.0,7.325236947508529e-05
1408.0,4.3747226300183684e-05
1536.0,-0.00039855996146798134
1664.0,-0.00041469326242804527
1792.0,-0.00032078177900984883
1920.0,1.8516258933232166e-05
2048.0,6.836128159193322e-05
2304.0,6.847153417766094e-05
2560.0,-0.00043950110557489097
2816.0,-0.0002772685547824949
3072.0,-0.00030074676033109426
3328.0,3.0088821745266614e-07
3584.0,0.0009041905868798494
3840.0,0.0005711068515665829
4096.0,-0.00026440125657245517
4608.0,-0.00016117107588797808
5120.0,-0.0004223799624014646
5632.0,-0.00047220400301739573
6144.0,-0.0005404112744145095
6656.0,-0.0006196919130161405
7168.0,0.0005126707837916911
7680.0,0.0004346111381892115
8192.0,0.0004123199905734509
end
