version,3.0
numOfCh,1
type,point
parent_name,34a6d_3dot0-0dot01
ch_type,1_1
kcount,1
numberNandB,1
brightnessNandB,1
carpet pos,0
pc,0
Time (ms),CH1 Auto-Correlation
1.0,0.1074332743883133
2.0,0.1034027710556984
3.0,0.10028553009033203
4.0,0.09793216735124588
5.0,0.09581515192985535
6.0,0.09406496584415436
7.0,0.0924435704946518
8.0,0.09092895686626434
9.0,0.08959556370973587
10.0,0.08868470788002014
11.0,0.08779557049274445
12.0,0.08702840656042099
13.0,0.08626094460487366
14.0,0.0856897309422493
15.0,0.08519306033849716
16.0,0.0847226232290268
18.0,0.08345923572778702
20.0,0.08254697173833847
22.0,0.08151064813137054
24.0,0.08048462122678757
26.0,0.07967717200517654
28.0,0.07907441258430481
30.0,0.07850531488656998
32.0,0.07789397239685059
36.0,0.07743122428655624
40.0,0.07712188363075256
44.0,0.07673202455043793
48.0,0.07589828968048096
52.0,0.0752830058336258
56.0,0.07453706115484238
60.0,0.07394259423017502
64.0,0.07370645552873611
72.0,0.07238836586475372
80.0,0.07064446806907654
88.0,0.06861311942338943
96.0,0.06656460464000702
104.0,0.06574330478906631
112.0,0.06506405770778656
120.0,0.06391162425279617
128.0,0.06265228241682053
144.0,0.058687444776296616
160.0,0.05621558055281639
176.0,0.05525224655866623
192.0,0.05408652871847153
208.0,0.050642404705286026
224.0,0.046708978712558746
240.0,0.04436959698796272
256.0,0.0429091602563858
288.0,0.03762343153357506
320.0,0.034607235342264175
352.0,0.029168719425797462
384.0,0.02580302022397518
416.0,0.024385804310441017
448.0,0.023120271041989326
480.0,0.023508615791797638
512.0,0.023682301864027977
576.0,0.02571413852274418
640.0,0.03008430451154709
704.0,0.034827545285224915
768.0,0.039605431258678436
832.0,0.04355378821492195
896.0,0.04335504770278931
960.0,0.04263077676296234
1024.0,0.04159696400165558
1152.0,0.03291365131735802
1280.0,0.029043687507510185
1408.0,0.020446525886654854
1536.0,0.015309597365558147
1664.0,0.009775054641067982
1792.0,0.005939349066466093
1920.0,0.0062963692471385
2048.0,0.006242060102522373
2304.0,0.010076476261019707
2560.0,0.004791600629687309
2816.0,0.00039660464972257614
3072.0,-0.004224124830216169
3328.0,-0.003862131619825959
3584.0,0.002678251126781106
3840.0,-0.0011109748156741261
4096.0,-0.005241681821644306
4608.0,-0.0036930448841303587
5120.0,-0.012430123053491116
5632.0,-0.015279428102076054
6144.0,-0.01918618194758892
6656.0,-0.020307887345552444
7168.0,-0.0256862323731184
7680.0,-0.03119475021958351
8192.0,-0.04554324969649315
end
