version,3.0
numOfCh,1
type,point
parent_name,34a6d_3dot0-0dot01
ch_type,1_1
kcount,1
numberNandB,1
brightnessNandB,1
carpet pos,0
pc,0
Time (ms),CH1 Auto-Correlation
1.0,0.14280854165554047
2.0,0.13863235712051392
3.0,0.13543632626533508
4.0,0.1328912228345871
5.0,0.1308356672525406
6.0,0.12889382243156433
7.0,0.12719911336898804
8.0,0.12580884993076324
9.0,0.12466944754123688
10.0,0.12335221469402313
11.0,0.12210065126419067
12.0,0.12087217718362808
13.0,0.11967205256223679
14.0,0.11867794394493103
15.0,0.11785496026277542
16.0,0.1168222427368164
18.0,0.11500535905361176
20.0,0.11355815082788467
22.0,0.11186539381742477
24.0,0.11017275601625443
26.0,0.10860680043697357
28.0,0.10699338465929031
30.0,0.10557708889245987
32.0,0.10423443466424942
36.0,0.10145685821771622
40.0,0.09916671365499496
44.0,0.09733232110738754
48.0,0.09560466557741165
52.0,0.09399857372045517
56.0,0.09279415756464005
60.0,0.09102186560630798
64.0,0.08978985995054245
72.0,0.08709689974784851
80.0,0.08443159610033035
88.0,0.0820382833480835
96.0,0.08146003633737564
104.0,0.08260226249694824
112.0,0.08372168987989426
120.0,0.08525411039590836
128.0,0.08601216971874237
144.0,0.0867149755358696
160.0,0.08562444150447845
176.0,0.08486936241388321
192.0,0.0841144397854805
208.0,0.08226846158504486
224.0,0.08093936741352081
240.0,0.08072259277105331
256.0,0.08292512595653534
288.0,0.086769700050354
320.0,0.0826926976442337
352.0,0.07613017410039902
384.0,0.07067801058292389
416.0,0.06845540553331375
448.0,0.06668072938919067
480.0,0.06548234820365906
512.0,0.06577995419502258
576.0,0.06313632428646088
640.0,0.061007771641016006
704.0,0.054310787469148636
768.0,0.04953213036060333
832.0,0.04940277710556984
896.0,0.04859297350049019
960.0,0.04142128676176071
1024.0,0.03673968464136124
1152.0,0.029249146580696106
1280.0,0.023203590884804726
1408.0,0.011106478050351143
1536.0,0.0032350486144423485
1664.0,-0.0034182784147560596
1792.0,-0.005386072676628828
1920.0,-0.0059208981692790985
2048.0,-0.00627552205696702
2304.0,-0.009215337224304676
2560.0,-0.011541133746504784
2816.0,-0.011475698091089725
3072.0,-0.011794119141995907
3328.0,-0.011741118505597115
3584.0,-0.010952177457511425
3840.0,-0.009474839083850384
4096.0,-0.005367266479879618
4608.0,-0.004236676264554262
5120.0,-0.00377808534540236
5632.0,-0.0011896727373823524
6144.0,-0.014027769677340984
6656.0,-0.013396773487329483
7168.0,-0.023500967770814896
7680.0,-0.028439437970519066
8192.0,-0.05304768681526184
end
