version,3.0
numOfCh,1
type,point
parent_name,34a6d_3dot0-0dot01
ch_type,1_1
kcount,1
numberNandB,1
brightnessNandB,1
carpet pos,0
pc,0
Time (ms),CH1 Auto-Correlation
1.0,0.2929003834724426
2.0,0.29025012254714966
3.0,0.2880423367023468
4.0,0.2860277593135834
5.0,0.28428637981414795
6.0,0.2826438844203949
7.0,0.28125807642936707
8.0,0.27976688742637634
9.0,0.2783242464065552
10.0,0.2769864499568939
11.0,0.27558791637420654
12.0,0.27416911721229553
13.0,0.2728631794452667
14.0,0.2715034484863281
15.0,0.27013519406318665
16.0,0.2689078152179718
18.0,0.2664361894130707
20.0,0.26414626836776733
22.0,0.262190043926239
24.0,0.2603262960910797
26.0,0.2583693265914917
28.0,0.2563876807689667
30.0,0.2544361650943756
32.0,0.25288185477256775
36.0,0.24970556795597076
40.0,0.24601493775844574
44.0,0.2420830875635147
48.0,0.23826873302459717
52.0,0.2346610277891159
56.0,0.23097878694534302
60.0,0.22758401930332184
64.0,0.2241775542497635
72.0,0.218614861369133
80.0,0.21237505972385406
88.0,0.207161545753479
96.0,0.20247848331928253
104.0,0.19810689985752106
112.0,0.1941864937543869
120.0,0.19008107483386993
128.0,0.18802307546138763
144.0,0.1820991039276123
160.0,0.17965167760849
176.0,0.18108190596103668
192.0,0.18009626865386963
208.0,0.17923249304294586
224.0,0.17554843425750732
240.0,0.1710367649793625
256.0,0.16642403602600098
288.0,0.15586113929748535
320.0,0.1458495855331421
352.0,0.1382032036781311
384.0,0.1354909986257553
416.0,0.12859323620796204
448.0,0.11894852668046951
480.0,0.103903628885746
512.0,0.08614040166139603
576.0,0.06682105362415314
640.0,0.05506044626235962
704.0,0.044719088822603226
768.0,0.02518799528479576
832.0,0.0021369021851569414
896.0,-0.02443971112370491
960.0,-0.04257846251130104
1024.0,-0.05204819515347481
1152.0,-0.08118053525686264
1280.0,-0.09108496457338333
1408.0,-0.08930358290672302
1536.0,-0.08711015433073044
1664.0,-0.07856915146112442
1792.0,-0.06720249354839325
1920.0,-0.057759277522563934
2048.0,-0.0480063259601593
2304.0,-0.03813672810792923
2560.0,-0.03498246148228645
2816.0,-0.008321894332766533
3072.0,0.006607792805880308
3328.0,-0.004264778457581997
3584.0,-0.01646530069410801
3840.0,-0.06926268339157104
4096.0,-0.12726888060569763
end
