version,3.0
numOfCh,1
type,point
parent_name,34a6d_3dot0-0dot01
ch_type,1_1
kcount,1
numberNandB,1
brightnessNandB,1
carpet pos,0
pc,0
Time (ms),CH1 Auto-Correlation
1.0,0.02610483020544052
2.0,0.020987462252378464
3.0,0.01736634597182274
4.0,0.01471875049173832
5.0,0.012716793455183506
6.0,0.01106969453394413
7.0,0.009802469052374363
8.0,0.00879150815308094
9.0,0.008145894855260849
10.0,0.007498699706047773
11.0,0.0071522826328873634
12.0,0.006752930581569672
13.0,0.0064759571105241776
14.0,0.006188496947288513
15.0,0.005894303787499666
16.0,0.005504779051989317
18.0,0.004997702315449715
20.0,0.004386709537357092
22.0,0.0036784133408218622
24.0,0.00304389838129282
26.0,0.002718360396102071
28.0,0.002484116004779935
30.0,0.0024351414758712053
32.0,0.002280613873153925
36.0,0.002252042293548584
40.0,0.0020130854099988937
44.0,0.0018607261590659618
48.0,0.0024041314609348774
52.0,0.002599598839879036
56.0,0.0021145420614629984
60.0,0.001889914507046342
64.0,0.0018977001309394836
72.0,0.0015695166075602174
80.0,0.0015679590869694948
88.0,0.0014510401524603367
96.0,0.0015674594324082136
104.0,0.0013860937906429172
112.0,0.0006768376915715635
120.0,0.0008962698630057275
128.0,0.001010349253192544
144.0,0.0003569131076801568
160.0,0.0003474252007436007
176.0,0.00047465728130191565
192.0,-0.00027306308038532734
208.0,-0.0002655202697496861
224.0,0.0008100899285636842
240.0,0.0010154024930670857
256.0,0.0016637537628412247
288.0,0.00029996014200150967
320.0,0.0008772439905442297
352.0,3.541049954947084e-05
384.0,0.0005128938937559724
416.0,0.00032569299219176173
448.0,-0.0003622380900196731
480.0,0.00032941048266366124
512.0,-0.0006180070340633392
576.0,-0.0001266554172616452
640.0,0.0006235525943338871
704.0,-2.790806865959894e-05
768.0,0.0003514121926855296
832.0,0.0007449421100318432
896.0,0.0009568993118591607
960.0,0.0008091656491160393
1024.0,0.00039268683758564293
1152.0,0.00043771497439593077
1280.0,0.0003968505479861051
1408.0,0.00029789595282636583
1536.0,-3.849212225759402e-05
1664.0,-0.0004622963606379926
1792.0,0.00022210960742086172
1920.0,-0.00056887895334512
2048.0,0.00013419761671684682
2304.0,0.0009753344347700477
2560.0,-3.0682564101880416e-05
2816.0,-0.0006842334987595677
3072.0,-0.00019767580670304596
3328.0,0.0005435214843600988
3584.0,0.00034981436328962445
3840.0,0.00012855083332397044
4096.0,6.201489304658026e-05
4608.0,0.00010999130608979613
5120.0,3.6527947031572694e-06
5632.0,-0.00019641159451566637
6144.0,-0.0005198485450819135
6656.0,-0.00047065265243873
7168.0,-0.00014026941789779812
7680.0,-0.0009440055582672358
8192.0,3.402199217816815e-05
end
