version,3.0
numOfCh,1
type,point
parent_name,34a6d_3dot0-0dot01
ch_type,1_1
kcount,1
numberNandB,1
brightnessNandB,1
carpet pos,0
pc,0
Time (ms),CH1 Auto-Correlation
1.0,0.07901620864868164
2.0,0.07490894198417664
3.0,0.0719132274389267
4.0,0.06948060542345047
5.0,0.06767813861370087
6.0,0.06623221933841705
7.0,0.06490249186754227
8.0,0.06368398666381836
9.0,0.06253332644701004
10.0,0.06173233315348625
11.0,0.06076926365494728
12.0,0.0598829984664917
13.0,0.059084225445985794
14.0,0.05829240381717682
15.0,0.057475458830595016
16.0,0.05666119605302811
18.0,0.0553043857216835
20.0,0.05402003601193428
22.0,0.05303894355893135
24.0,0.0519733801484108
26.0,0.050920531153678894
28.0,0.04993308708071709
30.0,0.048920150846242905
32.0,0.047909632325172424
36.0,0.04567645117640495
40.0,0.04405369237065315
44.0,0.04258563369512558
48.0,0.041300538927316666
52.0,0.03982850909233093
56.0,0.03807472065091133
60.0,0.03701699152588844
64.0,0.03584744781255722
72.0,0.033843785524368286
80.0,0.03282180428504944
88.0,0.03141377121210098
96.0,0.02997232973575592
104.0,0.027894102036952972
112.0,0.026140399277210236
120.0,0.02526783011853695
128.0,0.024307269603013992
144.0,0.02197163924574852
160.0,0.020461922511458397
176.0,0.01914951391518116
192.0,0.017831675708293915
208.0,0.01796192303299904
224.0,0.018820708617568016
240.0,0.018828369677066803
256.0,0.019121361896395683
288.0,0.020323995500802994
320.0,0.020190218463540077
352.0,0.014732730574905872
384.0,0.011938630603253841
416.0,0.011804099194705486
448.0,0.009614657610654831
480.0,0.011336123570799828
512.0,0.01278891321271658
576.0,0.006222630385309458
640.0,0.004627108108252287
704.0,0.0083324508741498
768.0,0.014151869341731071
832.0,0.01714172773063183
896.0,0.01136185321956873
960.0,0.008339352905750275
1024.0,0.00708507327362895
1152.0,0.005213724449276924
1280.0,2.7214775855100015e-06
1408.0,-0.005474376957863569
1536.0,-0.010088490322232246
1664.0,-0.011547832749783993
1792.0,-0.010172686539590359
1920.0,-0.009781519882380962
2048.0,-0.009145638905465603
2304.0,-0.015403441153466702
2560.0,-0.013287955895066261
2816.0,-0.00909668579697609
3072.0,-0.004124823026359081
3328.0,-0.006575840059667826
3584.0,0.0014604378957301378
3840.0,0.015334664843976498
4096.0,0.004761420655995607
4608.0,0.006136401556432247
5120.0,0.007579188793897629
5632.0,-0.0010095004690811038
6144.0,-0.0030354177579283714
6656.0,-0.008394374512135983
7168.0,-0.012639936059713364
7680.0,-0.015183576382696629
8192.0,-0.019415028393268585
end
