version,3.0
numOfCh,1
type,point
parent_name,34a6d_3dot0-0dot01
ch_type,1_1
kcount,1
numberNandB,1
brightnessNandB,1
carpet pos,0
pc,0
Time (ms),CH1 Auto-Correlation
1.0,0.030133964493870735
2.0,0.0255475752055645
3.0,0.02215959131717682
4.0,0.01959610916674137
5.0,0.017635956406593323
6.0,0.01611819490790367
7.0,0.014817873947322369
8.0,0.013984483666718006
9.0,0.01309781614691019
10.0,0.01242762804031372
11.0,0.011968628503382206
12.0,0.011308703571557999
13.0,0.01079119835048914
14.0,0.010464781895279884
15.0,0.010082176886498928
16.0,0.009697521105408669
18.0,0.008815552107989788
20.0,0.008155877701938152
22.0,0.00781100383028388
24.0,0.007617202587425709
26.0,0.0071830288507044315
28.0,0.00659872917458415
30.0,0.006149481516331434
32.0,0.00612729974091053
36.0,0.0056574079208076
40.0,0.005043732933700085
44.0,0.004564400762319565
48.0,0.00433230260387063
52.0,0.004272941034287214
56.0,0.004375081975013018
60.0,0.004445814061909914
64.0,0.004608410410583019
72.0,0.00449936930090189
80.0,0.0033964859321713448
88.0,0.0026846500113606453
96.0,0.0022476078011095524
104.0,0.0014933764468878508
112.0,0.0016595268389210105
120.0,0.0013087065890431404
128.0,0.0010872952407225966
144.0,0.0004144000122323632
160.0,0.00020376971224322915
176.0,0.0005822381353937089
192.0,-7.199872197816148e-05
208.0,0.00024035546812228858
224.0,0.0007648596656508744
240.0,0.0008364728419110179
256.0,0.0013641089899465442
288.0,0.001252879505045712
320.0,0.0007884127553552389
352.0,0.0013110266299918294
384.0,-2.416958704998251e-05
416.0,-0.00027283650706522167
448.0,-0.0007215952500700951
480.0,-0.00042348587885499
512.0,-8.742443606024608e-05
576.0,-0.00012391942436806858
640.0,4.332649041316472e-05
704.0,0.0002911740739364177
768.0,-0.0002802344097290188
832.0,-0.0007131408201530576
896.0,-0.0012826862512156367
960.0,0.0002614694240037352
1024.0,0.0005943524884060025
1152.0,0.00018421554705128074
1280.0,-0.00037970434641465545
1408.0,-0.0005317482864484191
1536.0,-0.0011467508738860488
1664.0,0.0005548915360122919
1792.0,0.0002454198547638953
1920.0,0.00034813612001016736
2048.0,-0.0015290991868823767
2304.0,-0.00028668728191405535
2560.0,-0.0006944540655240417
2816.0,-5.6983280956046656e-05
3072.0,0.0008421432576142251
3328.0,0.0009671308216638863
3584.0,0.0001102864189306274
3840.0,-0.0004285721224732697
4096.0,0.000527849595528096
4608.0,-0.0008815524633973837
5120.0,5.4902120609767735e-05
5632.0,-0.00011880134115926921
6144.0,0.0008075560326687992
6656.0,0.0011921754339709878
7168.0,-0.00011831877782242373
7680.0,-4.838331733481027e-05
8192.0,-0.0004929180140607059
end
