version,3.0
numOfCh,1
type,point
parent_name,34a6d_3dot0-0dot01
ch_type,1_1
kcount,1
numberNandB,1
brightnessNandB,1
carpet pos,0
pc,0
Time (ms),CH1 Auto-Correlation
1.0,0.025680894032120705
2.0,0.020840371027588844
3.0,0.017523232847452164
4.0,0.014934058301150799
5.0,0.013158670626580715
6.0,0.011701520532369614
7.0,0.010535878129303455
8.0,0.00955264363437891
9.0,0.008651156909763813
10.0,0.007958817295730114
11.0,0.007510078605264425
12.0,0.007187243085354567
13.0,0.0069922166876494884
14.0,0.006763921119272709
15.0,0.006343302316963673
16.0,0.0059084962122142315
18.0,0.005208937451243401
20.0,0.004373679403215647
22.0,0.0037026498466730118
24.0,0.003429265459999442
26.0,0.003227885812520981
28.0,0.0031840610317885876
30.0,0.0032629866618663073
32.0,0.002879587933421135
36.0,0.0024003046564757824
40.0,0.0021571582183241844
44.0,0.0020461855456233025
48.0,0.001672718906775117
52.0,0.001483548549003899
56.0,0.0011742464266717434
60.0,0.0012130147079005837
64.0,0.0010675509693101048
72.0,0.0007233069045469165
80.0,0.0007848436362110078
88.0,0.0010655150981619954
96.0,0.0006673227762803435
104.0,0.0010376025456935167
112.0,0.0009113181149587035
120.0,0.0005835211486555636
128.0,0.0007736324332654476
144.0,0.00034062162740156054
160.0,1.1293940588075202e-05
176.0,-0.0003813695511780679
192.0,-0.0013217628002166748
208.0,-0.0007118826033547521
224.0,-0.00021831387130077928
240.0,-0.0001760530285537243
256.0,-0.00020328139362391084
288.0,4.080081271240488e-05
320.0,0.0007237045210786164
352.0,0.00043003237806260586
384.0,0.0005054902285337448
416.0,0.001178433420136571
448.0,-2.9620021450682543e-05
480.0,-0.0002979446144308895
512.0,-9.814197255764157e-05
576.0,-0.00041324057383462787
640.0,-0.0002032132470048964
704.0,0.00021875671518500894
768.0,-0.0003742859116755426
832.0,0.00033036459353752434
896.0,-0.0006797134410589933
960.0,-0.0008456361247226596
1024.0,9.745833813212812e-05
1152.0,-0.0001841034390963614
1280.0,-0.0011590776266530156
1408.0,-0.0007339207222685218
1536.0,-0.00016492056602146477
1664.0,-0.00025072108837775886
1792.0,-0.00016415055142715573
1920.0,0.00011094767978647724
2048.0,6.491807289421558e-05
2304.0,0.00020140601554885507
2560.0,0.00011126722529297695
2816.0,0.00025509396800771356
3072.0,-0.00022960061323828995
3328.0,0.00022629777959082276
3584.0,-0.0001624498690944165
3840.0,0.0002446075086481869
4096.0,0.0002298097388120368
4608.0,-0.00011443140829214826
5120.0,3.530169487930834e-05
5632.0,-0.0004895314923487604
6144.0,0.0001703403249848634
6656.0,2.4619066607556306e-05
7168.0,0.00034479727037250996
7680.0,-0.00011641760647762567
8192.0,-0.0007806288194842637
end
