version,3.0
numOfCh,1
type,point
parent_name,34a6d_3dot0-0dot01
ch_type,1_1
kcount,1
numberNandB,1
brightnessNandB,1
carpet pos,0
pc,0
Time (ms),CH1 Auto-Correlation
1.0,0.060620397329330444
2.0,0.055639464408159256
3.0,0.05214459449052811
4.0,0.04952055960893631
5.0,0.0473242849111557
6.0,0.04549004137516022
7.0,0.04392523318529129
8.0,0.04260871559381485
9.0,0.04145800322294235
10.0,0.040511395782232285
11.0,0.03948427736759186
12.0,0.03854455426335335
13.0,0.03762461617588997
14.0,0.0370485745370388
15.0,0.036406975239515305
16.0,0.03588278964161873
18.0,0.0346074216067791
20.0,0.03386521711945534
22.0,0.03335865959525108
24.0,0.03241764381527901
26.0,0.0314798504114151
28.0,0.031170418485999107
30.0,0.031067857518792152
32.0,0.0309348963201046
36.0,0.02968575432896614
40.0,0.029208548367023468
44.0,0.028452591970562935
48.0,0.027169138193130493
52.0,0.02610507421195507
56.0,0.02566017396748066
60.0,0.025356311351060867
64.0,0.024905802682042122
72.0,0.023309098556637764
80.0,0.022062527015805244
88.0,0.0215179231017828
96.0,0.021568574011325836
104.0,0.021605616435408592
112.0,0.021232163533568382
120.0,0.019966447725892067
128.0,0.01819198578596115
144.0,0.017070630565285683
160.0,0.016512012109160423
176.0,0.01672964356839657
192.0,0.01523163914680481
208.0,0.016568437218666077
224.0,0.017699765041470528
240.0,0.017078643664717674
256.0,0.015573502518236637
288.0,0.012945733033120632
320.0,0.012475746683776379
352.0,0.010631807148456573
384.0,0.0068364315666258335
416.0,0.004200435243546963
448.0,0.003531533991917968
480.0,0.002814659383147955
512.0,0.0031113321892917156
576.0,0.0007159851957112551
640.0,7.381083560176194e-05
704.0,-0.0006388903129845858
768.0,-0.0014536670641973615
832.0,-0.002286817179992795
896.0,-0.0012271986342966557
960.0,-0.0008872466278262436
1024.0,-0.0015333956107497215
1152.0,-7.639368413947523e-05
1280.0,0.001160220941528678
1408.0,0.0010267337784171104
1536.0,0.0006484010373242199
1664.0,0.0004517236666288227
1792.0,7.274273229995742e-05
1920.0,-0.000593715813010931
2048.0,0.00036616186844184995
2304.0,-0.0005047412705607712
2560.0,0.0002601810556370765
2816.0,-0.0015655865427106619
3072.0,-0.0034080040641129017
3328.0,-0.0023176432587206364
3584.0,-0.0012929034419357777
3840.0,1.2641153261938598e-05
4096.0,0.00023084276472218335
4608.0,-0.0005729582044295967
5120.0,0.001964333700016141
5632.0,-0.00019260610861238092
6144.0,0.0007648049504496157
6656.0,-0.0018861788557842374
7168.0,0.0008847418357618153
7680.0,0.0018824569415301085
8192.0,0.0010580876842141151
end
