version,3.0
numOfCh,1
type,point
parent_name,34a6d_3dot0-0dot01
ch_type,1_1
kcount,1
numberNandB,1
brightnessNandB,1
carpet pos,0
pc,0
Time (ms),CH1 Auto-Correlation
1.0,0.030921727418899536
2.0,0.026470329612493515
3.0,0.023351136595010757
4.0,0.02092478983104229
5.0,0.019114432856440544
6.0,0.017622964456677437
7.0,0.016368525102734566
8.0,0.015368068590760231
9.0,0.014292660169303417
10.0,0.013478277251124382
11.0,0.012676390819251537
12.0,0.012210124172270298
13.0,0.011713370680809021
14.0,0.011149244382977486
15.0,0.010839061811566353
16.0,0.010543707758188248
18.0,0.00975891575217247
20.0,0.009050142019987106
22.0,0.008430646732449532
24.0,0.008098438382148743
26.0,0.007637924049049616
28.0,0.00729618314653635
30.0,0.007079389411956072
32.0,0.007097854744642973
36.0,0.0068861814215779305
40.0,0.006509729195386171
44.0,0.0058621373027563095
48.0,0.006045001558959484
52.0,0.006005711853504181
56.0,0.005573292728513479
60.0,0.005220351740717888
64.0,0.005309063475579023
72.0,0.005090042948722839
80.0,0.0047294204123318195
88.0,0.00442725932225585
96.0,0.003932069521397352
104.0,0.0037075686268508434
112.0,0.004370701499283314
120.0,0.004093435127288103
128.0,0.004122699610888958
144.0,0.004607740323990583
160.0,0.0040711453184485435
176.0,0.003420222084969282
192.0,0.002932413015514612
208.0,0.0034281595144420862
224.0,0.0037398936692625284
240.0,0.003099866444244981
256.0,0.0032107122242450714
288.0,0.0024791699834167957
320.0,0.002472192281857133
352.0,0.002111906185746193
384.0,0.002550226403400302
416.0,0.0020347721874713898
448.0,0.0015355173964053392
480.0,6.691516318824142e-05
512.0,-3.3714797609718516e-05
576.0,0.0015428345650434494
640.0,0.0013898112811148167
704.0,0.001242924015969038
768.0,0.0015628824476152658
832.0,0.0021163264755159616
896.0,0.002102295635268092
960.0,0.0030251818243414164
1024.0,0.001099676126614213
1152.0,0.0015536771388724446
1280.0,0.0006942703039385378
1408.0,-1.554066147946287e-05
1536.0,0.0004161405668128282
1664.0,0.0006580124027095735
1792.0,0.0007057240582071245
1920.0,0.0009289738954976201
2048.0,7.415188156301156e-05
2304.0,-2.9657860068255104e-05
2560.0,1.3407769074547105e-05
2816.0,0.0005292854038998485
3072.0,0.00020108376338612288
3328.0,0.0004832585109397769
3584.0,-0.001017920090816915
3840.0,-0.0018672692822292447
4096.0,-0.0009361110860481858
4608.0,-0.0017142845317721367
5120.0,-0.002219785936176777
5632.0,-0.002660048194229603
6144.0,-0.0014093205099925399
6656.0,-0.001206067856401205
7168.0,-0.0007067610276862979
7680.0,-0.0009228110429830849
8192.0,-0.0021557759027928114
end
