version,3.0
numOfCh,1
type,point
parent_name,34a6d_3dot0-0dot01
ch_type,1_1
kcount,1
numberNandB,1
brightnessNandB,1
carpet pos,0
pc,0
Time (ms),CH1 Auto-Correlation
1.0,0.2187814861536026
2.0,0.21568401157855988
3.0,0.21321219205856323
4.0,0.2111276537179947
5.0,0.2093144953250885
6.0,0.20780780911445618
7.0,0.20634116232395172
8.0,0.20492175221443176
9.0,0.2036791443824768
10.0,0.2024465799331665
11.0,0.20144321024417877
12.0,0.20049381256103516
13.0,0.19955985248088837
14.0,0.1986677199602127
15.0,0.19770732522010803
16.0,0.1967889815568924
18.0,0.19523489475250244
20.0,0.19368048012256622
22.0,0.19212289154529572
24.0,0.19047294557094574
26.0,0.18891817331314087
28.0,0.18777093291282654
30.0,0.18668495118618011
32.0,0.185387521982193
36.0,0.183066725730896
40.0,0.18107673525810242
44.0,0.1788673996925354
48.0,0.17688661813735962
52.0,0.1752912551164627
56.0,0.17368052899837494
60.0,0.17185382544994354
64.0,0.17032144963741302
72.0,0.1668073832988739
80.0,0.16387182474136353
88.0,0.1617453694343567
96.0,0.1592445820569992
104.0,0.1561901867389679
112.0,0.1537451297044754
120.0,0.1521831452846527
128.0,0.15057989954948425
144.0,0.1499168872833252
160.0,0.15210863947868347
176.0,0.15433059632778168
192.0,0.15421441197395325
208.0,0.15317721664905548
224.0,0.15070223808288574
240.0,0.14782391488552094
256.0,0.1450565755367279
288.0,0.14069797098636627
320.0,0.13506050407886505
352.0,0.13016729056835175
384.0,0.12710613012313843
416.0,0.12540966272354126
448.0,0.12619253993034363
480.0,0.12288845330476761
512.0,0.11795083433389664
576.0,0.10542184859514236
640.0,0.10187764465808868
704.0,0.09540266543626785
768.0,0.08216913789510727
832.0,0.07035943120718002
896.0,0.06181851029396057
960.0,0.048687584698200226
1024.0,0.03851325809955597
1152.0,0.028765639290213585
1280.0,0.012356216087937355
1408.0,0.002378889825195074
1536.0,-0.01320203673094511
1664.0,-0.017891420051455498
1792.0,-0.025567375123500824
1920.0,-0.03004917874932289
2048.0,-0.0322800949215889
2304.0,-0.04449576884508133
2560.0,-0.050816599279642105
2816.0,-0.046152789145708084
3072.0,-0.043325964361429214
3328.0,-0.05258876830339432
3584.0,-0.048049699515104294
3840.0,-0.05381635203957558
4096.0,-0.05035759508609772
4608.0,-0.039639201015233994
5120.0,-0.002358917845413089
5632.0,0.046200498938560486
6144.0,0.065353624522686
6656.0,0.04022720828652382
7168.0,-0.031133238226175308
7680.0,-0.21376769244670868
8192.0,-0.3394460678100586
end
