version,3.0
numOfCh,1
type,point
parent_name,714af_0dot069-0dot1
ch_type,1_1
kcount,1
numberNandB,1
brightnessNandB,1
carpet pos,0
pc,0
Time (ms),CH1 Auto-Correlation
1.0,0.058755286037921906
2.0,0.05817641690373421
3.0,0.05763978883624077
4.0,0.057120196521282196
5.0,0.05662354826927185
6.0,0.05612919479608536
7.0,0.05565602704882622
8.0,0.05519909784197807
9.0,0.05473922938108444
10.0,0.05430926755070686
11.0,0.05389554426074028
12.0,0.05347301810979843
13.0,0.053081728518009186
14.0,0.05270753800868988
15.0,0.05235913768410683
16.0,0.05200646445155144
18.0,0.051321469247341156
20.0,0.05067405849695206
22.0,0.05009498447179794
24.0,0.04953853413462639
26.0,0.048989783972501755
28.0,0.04845188930630684
30.0,0.0479205846786499
32.0,0.04741964489221573
36.0,0.046424057334661484
40.0,0.045402102172374725
44.0,0.04442821815609932
48.0,0.04346977919340134
52.0,0.04252014681696892
56.0,0.04161949083209038
60.0,0.04075712338089943
64.0,0.03992326557636261
72.0,0.03855622187256813
80.0,0.037318963557481766
88.0,0.036002252250909805
96.0,0.03487354516983032
104.0,0.03394358977675438
112.0,0.033120542764663696
120.0,0.0323164239525795
128.0,0.03160173073410988
144.0,0.030339499935507774
160.0,0.028430838137865067
176.0,0.026275916025042534
192.0,0.024228131398558617
208.0,0.022010862827301025
224.0,0.019805364310741425
240.0,0.01754758693277836
256.0,0.015982208773493767
288.0,0.013598363846540451
320.0,0.01245999988168478
352.0,0.011927670799195766
384.0,0.011001886799931526
416.0,0.010685191489756107
448.0,0.010729527100920677
480.0,0.010737136006355286
512.0,0.010305153205990791
576.0,0.012352230027318
640.0,0.014305184595286846
704.0,0.01638147607445717
768.0,0.017082786187529564
832.0,0.016164064407348633
896.0,0.014711004681885242
960.0,0.00967289786785841
1024.0,0.007117278408259153
1152.0,0.001945696072652936
1280.0,0.00025708245811983943
1408.0,-0.002414299175143242
1536.0,-0.004576126113533974
1664.0,-0.0068831429816782475
1792.0,-0.008190670050680637
1920.0,-0.007439182605594397
2048.0,-0.008588582277297974
2304.0,-0.013737107627093792
2560.0,-0.005265045445412397
2816.0,-0.005355665925890207
3072.0,-0.008032160811126232
3328.0,-0.0046933600679039955
3584.0,0.0020878876093775034
3840.0,0.0003643758245743811
4096.0,-0.0004284685419406742
4608.0,-0.007349359802901745
5120.0,-0.010582557879388332
5632.0,-0.01804281212389469
6144.0,-0.014717033132910728
6656.0,-0.004721309058368206
7168.0,0.0049543315544724464
7680.0,0.020040437579154968
8192.0,0.013524954207241535
end
