version,3.0
numOfCh,1
type,point
parent_name,714af_0dot069-0dot1
ch_type,1_1
kcount,1
numberNandB,1
brightnessNandB,1
carpet pos,0
pc,0
Time (ms),CH1 Auto-Correlation
1.0,0.05043155699968338
2.0,0.04996837303042412
3.0,0.049514804035425186
4.0,0.049063898622989655
5.0,0.048631701618433
6.0,0.0482034794986248
7.0,0.04779348894953728
8.0,0.04740021750330925
9.0,0.047012344002723694
10.0,0.04662083461880684
11.0,0.04624192789196968
12.0,0.045874740928411484
13.0,0.04550391063094139
14.0,0.0451350063085556
15.0,0.04477114975452423
16.0,0.04441472142934799
18.0,0.043750569224357605
20.0,0.043114203959703445
22.0,0.04248611256480217
24.0,0.04186781123280525
26.0,0.041288819164037704
28.0,0.04072452709078789
30.0,0.04016600921750069
32.0,0.03960103169083595
36.0,0.038549210876226425
40.0,0.0375819131731987
44.0,0.03671075776219368
48.0,0.03583994135260582
52.0,0.03502664342522621
56.0,0.03430340439081192
60.0,0.03360193967819214
64.0,0.03291134163737297
72.0,0.03145461529493332
80.0,0.029981425032019615
88.0,0.0285846795886755
96.0,0.027190707623958588
104.0,0.02580585516989231
112.0,0.02455369383096695
120.0,0.023450713604688644
128.0,0.022434845566749573
144.0,0.02085573785007
160.0,0.019777316600084305
176.0,0.018584715202450752
192.0,0.017233900725841522
208.0,0.015562035143375397
224.0,0.014096243306994438
240.0,0.013269973918795586
256.0,0.013096307404339314
288.0,0.011951257474720478
320.0,0.009598766453564167
352.0,0.007592173758894205
384.0,0.005463383626192808
416.0,0.004829739220440388
448.0,0.0049445233307778835
480.0,0.004475122317671776
512.0,0.003265251172706485
576.0,0.0034720669500529766
640.0,0.0038227178156375885
704.0,0.002676404081285
768.0,0.0036679210606962442
832.0,0.0034930012188851833
896.0,0.0013947916449978948
960.0,-0.0018737665377557278
1024.0,-0.0034281546249985695
1152.0,-0.003905672114342451
1280.0,-0.004273742903023958
1408.0,-0.004349978640675545
1536.0,-0.002437447663396597
1664.0,-0.0024898159317672253
1792.0,-0.006972526665776968
1920.0,-0.005793677642941475
2048.0,-0.0008193888934329152
2304.0,-0.003531720954924822
2560.0,-0.002826604526489973
2816.0,0.006589436903595924
3072.0,0.004843437112867832
3328.0,0.0024231451097875834
3584.0,0.009000392630696297
3840.0,0.00777861662209034
4096.0,-0.002251880243420601
4608.0,-0.010415012016892433
5120.0,-0.014698599465191364
5632.0,-0.015200392343103886
6144.0,-0.0013795652193948627
6656.0,0.008780088275671005
7168.0,-0.0022359893191605806
7680.0,-0.003611968830227852
8192.0,0.0034045949578285217
end
