version,3.0
numOfCh,1
type,point
parent_name,714af_0dot069-0dot1
ch_type,1_1
kcount,1
numberNandB,1
brightnessNandB,1
carpet pos,0
pc,0
Time (ms),CH1 Auto-Correlation
1.0,0.06868772208690643
2.0,0.06823442131280899
3.0,0.06778991967439651
4.0,0.0673583596944809
5.0,0.06692418456077576
6.0,0.06648693978786469
7.0,0.06608547270298004
8.0,0.06569875031709671
9.0,0.06533007323741913
10.0,0.06496242433786392
11.0,0.06460726261138916
12.0,0.06422822922468185
13.0,0.06385695189237595
14.0,0.06348858028650284
15.0,0.06311555206775665
16.0,0.06272754818201065
18.0,0.06199456751346588
20.0,0.061302993446588516
22.0,0.06064844876527786
24.0,0.059976812452077866
26.0,0.05931639298796654
28.0,0.058685552328825
30.0,0.058033689856529236
32.0,0.05739725008606911
36.0,0.056180454790592194
40.0,0.05503594130277634
44.0,0.05389443784952164
48.0,0.05278116092085838
52.0,0.05172136798501015
56.0,0.050670232623815536
60.0,0.04969159513711929
64.0,0.0487324558198452
72.0,0.04690583422780037
80.0,0.0452558659017086
88.0,0.04378131777048111
96.0,0.04240147024393082
104.0,0.04117167368531227
112.0,0.040112290531396866
120.0,0.03920253738760948
128.0,0.03852052986621857
144.0,0.03698832169175148
160.0,0.03569672256708145
176.0,0.034784380346536636
192.0,0.034357279539108276
208.0,0.0340740941464901
224.0,0.033959921449422836
240.0,0.03376391530036926
256.0,0.03349420428276062
288.0,0.03174912557005882
320.0,0.02877412736415863
352.0,0.025963157415390015
384.0,0.02475750260055065
416.0,0.02396865375339985
448.0,0.024070408195257187
480.0,0.024753883481025696
512.0,0.024794187396764755
576.0,0.023433556780219078
640.0,0.019314922392368317
704.0,0.01652991957962513
768.0,0.015891527757048607
832.0,0.014378798194229603
896.0,0.010915260761976242
960.0,0.008635839447379112
1024.0,0.007813903503119946
1152.0,0.009363886900246143
1280.0,0.008212237618863583
1408.0,0.009818254970014095
1536.0,0.009410449303686619
1664.0,0.0112455477938056
1792.0,0.013453062623739243
1920.0,0.013114714995026588
2048.0,0.0075519694946706295
2304.0,0.006565457209944725
2560.0,0.0011859784135594964
2816.0,-0.0040415553376078606
3072.0,-0.004766441415995359
3328.0,-0.005776928272098303
3584.0,-0.008261321112513542
3840.0,-0.0068741487339138985
4096.0,-0.011966940946877003
4608.0,-0.010012170299887657
5120.0,-0.013390936888754368
5632.0,-0.0172048881649971
6144.0,-0.024308646097779274
6656.0,-0.0258609801530838
7168.0,-0.006494201719760895
7680.0,0.0007450109696947038
8192.0,-0.004323363769799471
end
