version,3.0
numOfCh,1
type,point
parent_name,714af_0dot069-0dot1
ch_type,1_1
kcount,1
numberNandB,1
brightnessNandB,1
carpet pos,0
pc,0
Time (ms),CH1 Auto-Correlation
1.0,0.07715071737766266
2.0,0.07642006129026413
3.0,0.0757642537355423
4.0,0.07510971277952194
5.0,0.07449569553136826
6.0,0.07392343878746033
7.0,0.07335813343524933
8.0,0.07280002534389496
9.0,0.07225814461708069
10.0,0.07168054580688477
11.0,0.07108201831579208
12.0,0.07049616426229477
13.0,0.0699724555015564
14.0,0.06944920867681503
15.0,0.06895381957292557
16.0,0.0684632956981659
18.0,0.0674518346786499
20.0,0.0665140226483345
22.0,0.06557494401931763
24.0,0.06465097516775131
26.0,0.06375306844711304
28.0,0.06289549171924591
30.0,0.062042661011219025
32.0,0.061162322759628296
36.0,0.05928422510623932
40.0,0.057451874017715454
44.0,0.05562736839056015
48.0,0.05393017828464508
52.0,0.05217611789703369
56.0,0.050572339445352554
60.0,0.04908819869160652
64.0,0.04770595207810402
72.0,0.04528927803039551
80.0,0.04295322671532631
88.0,0.04084649309515953
96.0,0.039061591029167175
104.0,0.037306733429431915
112.0,0.03565375879406929
120.0,0.03401198238134384
128.0,0.0326114147901535
144.0,0.030101340264081955
160.0,0.028809720650315285
176.0,0.02809898741543293
192.0,0.02688646875321865
208.0,0.024913370609283447
224.0,0.023283138871192932
240.0,0.021934127435088158
256.0,0.020102951675653458
288.0,0.018986022099852562
320.0,0.018585631623864174
352.0,0.017854828387498856
384.0,0.016571473330259323
416.0,0.017290515825152397
448.0,0.019053660333156586
480.0,0.019997593015432358
512.0,0.01972401887178421
576.0,0.01801961101591587
640.0,0.01726486161351204
704.0,0.01509688887745142
768.0,0.01314597949385643
832.0,0.01099000871181488
896.0,0.008158673532307148
960.0,0.005995801649987698
1024.0,0.003809756599366665
1152.0,0.006354033946990967
1280.0,0.0002774214663077146
1408.0,-0.001961211673915386
1536.0,-0.008065999485552311
1664.0,-0.004846369847655296
1792.0,-0.008204026147723198
1920.0,-0.008083011955022812
2048.0,-0.009199528023600578
2304.0,-0.0034346359316259623
2560.0,0.005687420256435871
2816.0,0.007660069037228823
3072.0,0.007904400117695332
3328.0,0.01773810014128685
3584.0,0.011806500144302845
3840.0,0.004102780949324369
4096.0,-0.004128807224333286
4608.0,-0.017145326361060143
5120.0,-0.02767345681786537
5632.0,-0.015586785972118378
6144.0,-0.005261820740997791
6656.0,-0.004042762331664562
7168.0,0.004986365791410208
7680.0,-0.009290175512433052
8192.0,-0.011544954963028431
end
