version,3.0
numOfCh,1
type,point
parent_name,714af_0dot069-0dot1
ch_type,1_1
kcount,1
numberNandB,1
brightnessNandB,1
carpet pos,0
pc,0
Time (ms),CH1 Auto-Correlation
1.0,0.048884738236665726
2.0,0.0483972504734993
3.0,0.04793161526322365
4.0,0.04747520014643669
5.0,0.04702087491750717
6.0,0.04656956344842911
7.0,0.04616674780845642
8.0,0.045769888907670975
9.0,0.04537270963191986
10.0,0.04499232396483421
11.0,0.04461660608649254
12.0,0.04426136985421181
13.0,0.04388020187616348
14.0,0.043509405106306076
15.0,0.043168190866708755
16.0,0.04282515123486519
18.0,0.04214932397007942
20.0,0.04148988798260689
22.0,0.04084061086177826
24.0,0.04023215174674988
26.0,0.039666831493377686
28.0,0.03912844508886337
30.0,0.03860342502593994
32.0,0.03809511661529541
36.0,0.0371742844581604
40.0,0.036286208778619766
44.0,0.035444628447294235
48.0,0.03464047983288765
52.0,0.033799611032009125
56.0,0.032967329025268555
60.0,0.032171670347452164
64.0,0.03141327202320099
72.0,0.030079174786806107
80.0,0.028881723061203957
88.0,0.02777770720422268
96.0,0.02687137760221958
104.0,0.026049498468637466
112.0,0.025263627991080284
120.0,0.02430543676018715
128.0,0.02338661439716816
144.0,0.021973468363285065
160.0,0.02074461430311203
176.0,0.019155211746692657
192.0,0.01759914867579937
208.0,0.016303783282637596
224.0,0.01498706266283989
240.0,0.01366132777184248
256.0,0.012431412003934383
288.0,0.010784716345369816
320.0,0.00843865517526865
352.0,0.006628993432968855
384.0,0.006479755975306034
416.0,0.006280539091676474
448.0,0.005742610432207584
480.0,0.005084022879600525
512.0,0.004593675956130028
576.0,0.00510774739086628
640.0,0.0075539047829806805
704.0,0.012533511035144329
768.0,0.01420803926885128
832.0,0.01254997868090868
896.0,0.010535293258726597
960.0,0.009443891234695911
1024.0,0.008176419883966446
1152.0,0.006241429131478071
1280.0,0.0015514176338911057
1408.0,8.371124567929655e-05
1536.0,0.0033357718493789434
1664.0,0.0027375149074941874
1792.0,0.0016360839363187551
1920.0,0.0010959790088236332
2048.0,0.0015476769767701626
2304.0,-0.0010059043997898698
2560.0,-0.0101720429956913
2816.0,-0.009269985370337963
3072.0,-0.0027935965918004513
3328.0,-0.006499115377664566
3584.0,-0.01547166332602501
3840.0,-0.00564051466062665
4096.0,-0.005400414578616619
4608.0,-0.005855609197169542
5120.0,-0.0002474331995472312
5632.0,-0.0041876849718391895
6144.0,0.00041376755689270794
6656.0,-0.005471427459269762
7168.0,0.0025673501659184694
7680.0,0.005674351472407579
8192.0,0.01282336562871933
end
