version,3.0
numOfCh,1
type,point
parent_name,714af_0dot069-0dot1
ch_type,1_1
kcount,1
numberNandB,1
brightnessNandB,1
carpet pos,0
pc,0
Time (ms),CH1 Auto-Correlation
1.0,0.05061154067516327
2.0,0.05018024519085884
3.0,0.04975586012005806
4.0,0.049342695623636246
5.0,0.04893040657043457
6.0,0.04852534458041191
7.0,0.048116788268089294
8.0,0.04769924283027649
9.0,0.04729214683175087
10.0,0.04688644781708717
11.0,0.046480823308229446
12.0,0.04608152061700821
13.0,0.04569815844297409
14.0,0.045324720442295074
15.0,0.04496150091290474
16.0,0.044604770839214325
18.0,0.04390307888388634
20.0,0.04319671541452408
22.0,0.042508576065301895
24.0,0.04185377433896065
26.0,0.04119160771369934
28.0,0.04054100811481476
30.0,0.03992394730448723
32.0,0.0393211804330349
36.0,0.03824382647871971
40.0,0.03717655688524246
44.0,0.03616369143128395
48.0,0.035164300352334976
52.0,0.034156545996665955
56.0,0.033274825662374496
60.0,0.03245566785335541
64.0,0.03166249766945839
72.0,0.030076995491981506
80.0,0.02861516736447811
88.0,0.02746831439435482
96.0,0.0265592522919178
104.0,0.02572673000395298
112.0,0.024986283853650093
120.0,0.024216970428824425
128.0,0.023244617506861687
144.0,0.021250400692224503
160.0,0.019511636346578598
176.0,0.018341301009058952
192.0,0.018111776560544968
208.0,0.018233945593237877
224.0,0.018083959817886353
240.0,0.017914442345499992
256.0,0.017855575308203697
288.0,0.017396846786141396
320.0,0.016856621950864792
352.0,0.0167409498244524
384.0,0.01628471538424492
416.0,0.015498670749366283
448.0,0.014681828208267689
480.0,0.01277601532638073
512.0,0.009977422654628754
576.0,0.003930217586457729
640.0,0.0003657943452708423
704.0,-0.00017794959421735257
768.0,-8.462817277177237e-06
832.0,0.00047171235200949013
896.0,0.00014758050383534282
960.0,-0.0015319028170779347
1024.0,-0.0012711085146293044
1152.0,-0.0008230159874074161
1280.0,0.0010679801926016808
1408.0,0.005641458556056023
1536.0,0.006727893836796284
1664.0,0.0044439551420509815
1792.0,0.01075505930930376
1920.0,0.010995950549840927
2048.0,0.00946641992777586
2304.0,0.00555084552615881
2560.0,0.001474896795116365
2816.0,0.0010202188277617097
3072.0,0.004204737022519112
3328.0,0.007851752452552319
3584.0,0.004065764136612415
3840.0,-0.00409705750644207
4096.0,-0.00831957720220089
4608.0,-0.002137372735887766
5120.0,0.00105429464019835
5632.0,-0.0018577099544927478
6144.0,-0.005430716089904308
6656.0,-6.0875921917613596e-05
7168.0,-0.014273376204073429
7680.0,-0.013019010424613953
8192.0,-0.0037361434660851955
end
