version,3.0
numOfCh,1
type,point
parent_name,714af_0dot069-0dot1
ch_type,1_1
kcount,1
numberNandB,1
brightnessNandB,1
carpet pos,0
pc,0
Time (ms),CH1 Auto-Correlation
1.0,0.04745859280228615
2.0,0.0469495989382267
3.0,0.04644376039505005
4.0,0.045950599014759064
5.0,0.04547126591205597
6.0,0.045008447021245956
7.0,0.044566769152879715
8.0,0.04413416609168053
9.0,0.04370603710412979
10.0,0.04326156899333
11.0,0.042831726372241974
12.0,0.04240686446428299
13.0,0.04197872802615166
14.0,0.04156322404742241
15.0,0.04115157946944237
16.0,0.04073110595345497
18.0,0.03993988782167435
20.0,0.039215125143527985
22.0,0.03853003308176994
24.0,0.03784949332475662
26.0,0.03714079037308693
28.0,0.036448657512664795
30.0,0.035749923437833786
32.0,0.035034485161304474
36.0,0.033633556216955185
40.0,0.03224640339612961
44.0,0.030868342146277428
48.0,0.029629087075591087
52.0,0.028484134003520012
56.0,0.027377119287848473
60.0,0.026362009346485138
64.0,0.0254080630838871
72.0,0.023588361218571663
80.0,0.021766668185591698
88.0,0.020049680024385452
96.0,0.01842857152223587
104.0,0.016908446326851845
112.0,0.015402943827211857
120.0,0.01399841159582138
128.0,0.012595913372933865
144.0,0.010150027461349964
160.0,0.00863564107567072
176.0,0.00778616638854146
192.0,0.007911263965070248
208.0,0.008442767895758152
224.0,0.008942811749875546
240.0,0.009053133428096771
256.0,0.008986309170722961
288.0,0.007576699834316969
320.0,0.005988673772662878
352.0,0.004398745018988848
384.0,0.0024272194132208824
416.0,0.0012375658843666315
448.0,0.0004570724559016526
480.0,0.0005737913306802511
512.0,0.0005769012495875359
576.0,-0.0012726662680506706
640.0,-0.003048962913453579
704.0,-0.004383416846394539
768.0,-0.004885409492999315
832.0,-0.0037374556995928288
896.0,-0.003893535118550062
960.0,-0.005479071754962206
1024.0,-0.004555853083729744
1152.0,-0.0018769711023196578
1280.0,-0.008210963569581509
1408.0,-0.006732149515300989
1536.0,-0.0032808869145810604
1664.0,-0.000562309636734426
1792.0,-0.001011221087537706
1920.0,0.0037488271482288837
2048.0,0.00401579774916172
2304.0,0.005691401194781065
2560.0,-0.0004414041468407959
2816.0,-0.0017938331002369523
3072.0,-0.006051335483789444
3328.0,-0.007427283562719822
3584.0,-0.005824461579322815
3840.0,-0.00545782083645463
4096.0,0.0030452520586550236
4608.0,0.0010784493060782552
5120.0,0.002392443595454097
5632.0,-0.005818386096507311
6144.0,0.009697049856185913
6656.0,0.00707233464345336
7168.0,-0.0024783143308013678
7680.0,-0.006924574263393879
8192.0,-0.0024248044937849045
end
