version,3.0
numOfCh,1
type,point
parent_name,714af_0dot069-0dot1
ch_type,1_1
kcount,1
numberNandB,1
brightnessNandB,1
carpet pos,0
pc,0
Time (ms),CH1 Auto-Correlation
1.0,0.08083539456129074
2.0,0.08032744377851486
3.0,0.07983563840389252
4.0,0.07934848964214325
5.0,0.07886845618486404
6.0,0.07839261740446091
7.0,0.077907495200634
8.0,0.07742775976657867
9.0,0.07694431394338608
10.0,0.07648251950740814
11.0,0.07603588700294495
12.0,0.07557962834835052
13.0,0.07514020055532455
14.0,0.07470829784870148
15.0,0.07428182661533356
16.0,0.0738644152879715
18.0,0.07302816212177277
20.0,0.07220527529716492
22.0,0.07143672555685043
24.0,0.07069531083106995
26.0,0.0699743926525116
28.0,0.0692749172449112
30.0,0.06857577711343765
32.0,0.06788596510887146
36.0,0.06658052653074265
40.0,0.065302275121212
44.0,0.06407132744789124
48.0,0.06281878054141998
52.0,0.06153559312224388
56.0,0.060374803841114044
60.0,0.059297773987054825
64.0,0.058327533304691315
72.0,0.05645227059721947
80.0,0.05469658225774765
88.0,0.05305309593677521
96.0,0.051578957587480545
104.0,0.05022358149290085
112.0,0.049003954976797104
120.0,0.04787733778357506
128.0,0.04682032763957977
144.0,0.04512525722384453
160.0,0.04350316897034645
176.0,0.04231402650475502
192.0,0.041562262922525406
208.0,0.04059389606118202
224.0,0.039665281772613525
240.0,0.039060499519109726
256.0,0.03878799080848694
288.0,0.03802921622991562
320.0,0.03633742779493332
352.0,0.03477327153086662
384.0,0.033256955444812775
416.0,0.031292498111724854
448.0,0.028173210099339485
480.0,0.025789080187678337
512.0,0.02354251593351364
576.0,0.021618308499455452
640.0,0.020169220864772797
704.0,0.015586776658892632
768.0,0.01029126439243555
832.0,0.009218609891831875
896.0,0.009103027172386646
960.0,0.008929194882512093
1024.0,0.009713591076433659
1152.0,0.004992963746190071
1280.0,0.004345485474914312
1408.0,0.0035792151466012
1536.0,0.007072451524436474
1664.0,0.006144837476313114
1792.0,0.003905462333932519
1920.0,0.004757142625749111
2048.0,0.0033840155228972435
2304.0,0.0043675098568201065
2560.0,0.0038503464311361313
2816.0,-0.0022955448366701603
3072.0,-0.01292814314365387
3328.0,-0.023666977882385254
3584.0,-0.03054038994014263
3840.0,-0.035119131207466125
4096.0,-0.03516555204987526
4608.0,-0.025440458208322525
5120.0,-0.015816200524568558
5632.0,-0.016365649178624153
6144.0,-0.007940971292555332
6656.0,0.0032416568137705326
7168.0,0.009858944453299046
7680.0,0.017512034624814987
8192.0,0.025193875655531883
end
