version,3.0
numOfCh,1
type,point
parent_name,714af_0dot069-0dot1
ch_type,1_1
kcount,1
numberNandB,1
brightnessNandB,1
carpet pos,0
pc,0
Time (ms),CH1 Auto-Correlation
1.0,0.08647987991571426
2.0,0.08598772436380386
3.0,0.085499107837677
4.0,0.08502701669931412
5.0,0.08457378298044205
6.0,0.08413716405630112
7.0,0.08368982374668121
8.0,0.08325391262769699
9.0,0.08283691853284836
10.0,0.08242683112621307
11.0,0.08202383667230606
12.0,0.08161884546279907
13.0,0.08122003078460693
14.0,0.08083061873912811
15.0,0.08044634014368057
16.0,0.08006725460290909
18.0,0.07928037643432617
20.0,0.07850296795368195
22.0,0.07776195555925369
24.0,0.07701973617076874
26.0,0.07630066573619843
28.0,0.07560403645038605
30.0,0.07493646442890167
32.0,0.07428085803985596
36.0,0.07299689203500748
40.0,0.07173623889684677
44.0,0.07048582285642624
48.0,0.06927714496850967
52.0,0.06815829873085022
56.0,0.06709425896406174
60.0,0.06602597236633301
64.0,0.06506183743476868
72.0,0.06317165493965149
80.0,0.06135009601712227
88.0,0.059635646641254425
96.0,0.05812771990895271
104.0,0.05687972158193588
112.0,0.05575772002339363
120.0,0.05474212393164635
128.0,0.053754765540361404
144.0,0.05183841288089752
160.0,0.050193797796964645
176.0,0.048847101628780365
192.0,0.04787350818514824
208.0,0.04692510887980461
224.0,0.04585791751742363
240.0,0.04483109712600708
256.0,0.044053059071302414
288.0,0.0414302796125412
320.0,0.03840005397796631
352.0,0.03652099147439003
384.0,0.036295074969530106
416.0,0.03611749783158302
448.0,0.03533799573779106
480.0,0.03489883989095688
512.0,0.03406021371483803
576.0,0.031231246888637543
640.0,0.03256215527653694
704.0,0.03364076092839241
768.0,0.03245335817337036
832.0,0.029644643887877464
896.0,0.026546884328126907
960.0,0.025503456592559814
1024.0,0.023156382143497467
1152.0,0.015250391326844692
1280.0,0.005845214705914259
1408.0,0.0010531856678426266
1536.0,0.0008209998486563563
1664.0,0.003343495773151517
1792.0,0.003907416015863419
1920.0,-0.0030405009165406227
2048.0,-0.005719584878534079
2304.0,-0.0024381885305047035
2560.0,-0.003747261594980955
2816.0,0.003098195418715477
3072.0,0.002075130818411708
3328.0,0.007401561364531517
3584.0,0.003552441019564867
3840.0,-0.0019198372028768063
4096.0,-0.0004978699143975973
4608.0,-0.009193853475153446
5120.0,-0.01655321568250656
5632.0,-0.026800040155649185
6144.0,-0.030083464458584785
6656.0,-0.022427672520279884
7168.0,-0.007401282899081707
7680.0,0.011133208870887756
8192.0,0.01755477674305439
end
