version,3.0
numOfCh,1
type,point
parent_name,714af_0dot069-0dot1
ch_type,1_1
kcount,1
numberNandB,1
brightnessNandB,1
carpet pos,0
pc,0
Time (ms),CH1 Auto-Correlation
1.0,0.0819486752152443
2.0,0.08131594210863113
3.0,0.0807112455368042
4.0,0.08011198788881302
5.0,0.07953766733407974
6.0,0.07896438241004944
7.0,0.07839222252368927
8.0,0.07784488052129745
9.0,0.07728680223226547
10.0,0.07672053575515747
11.0,0.07620645314455032
12.0,0.07572095096111298
13.0,0.07525773346424103
14.0,0.07482252269983292
15.0,0.07436887174844742
16.0,0.07395458221435547
18.0,0.0730552226305008
20.0,0.07216736674308777
22.0,0.07128427177667618
24.0,0.07041089981794357
26.0,0.06954830139875412
28.0,0.06872930377721786
30.0,0.06791064143180847
32.0,0.0671343058347702
36.0,0.06570570915937424
40.0,0.06455077975988388
44.0,0.0635460764169693
48.0,0.06246538460254669
52.0,0.061362817883491516
56.0,0.06033771112561226
60.0,0.05931222811341286
64.0,0.058340199291706085
72.0,0.05662182718515396
80.0,0.0549270361661911
88.0,0.053097035735845566
96.0,0.0513802245259285
104.0,0.04965144768357277
112.0,0.04798107221722603
120.0,0.04634484648704529
128.0,0.04503731057047844
144.0,0.04280243068933487
160.0,0.03967239707708359
176.0,0.03662120923399925
192.0,0.034103479236364365
208.0,0.0322866216301918
224.0,0.030746959149837494
240.0,0.028742635622620583
256.0,0.02675044722855091
288.0,0.024605905637145042
320.0,0.024022910743951797
352.0,0.023765016347169876
384.0,0.02464108355343342
416.0,0.0249172430485487
448.0,0.025021519511938095
480.0,0.026014812290668488
512.0,0.026344364508986473
576.0,0.023282594978809357
640.0,0.019476795569062233
704.0,0.01718767173588276
768.0,0.016340358182787895
832.0,0.01506918203085661
896.0,0.014745480380952358
960.0,0.01571337878704071
1024.0,0.016183417290449142
1152.0,0.017840612679719925
1280.0,0.015906060114502907
1408.0,0.01304564531892538
1536.0,0.005379880778491497
1664.0,0.002793585881590843
1792.0,0.0023099947720766068
1920.0,-0.004586009308695793
2048.0,-0.009668396785855293
2304.0,-0.01300677191466093
2560.0,-0.00983529631048441
2816.0,-0.012932581827044487
3072.0,-0.007445730734616518
3328.0,-0.010863159783184528
3584.0,-0.0029876851476728916
3840.0,-0.004923033062368631
4096.0,-0.010028143413364887
4608.0,-0.0033029227051883936
5120.0,-0.0045559341087937355
5632.0,-0.013235305435955524
6144.0,-0.0034375686664134264
6656.0,-0.0065979198552668095
7168.0,-0.01034846343100071
7680.0,-0.0008415885386057198
8192.0,0.0015586350345984101
end
