version,3.0
numOfCh,1
type,point
parent_name,714af_0dot069-0dot1
ch_type,1_1
kcount,1
numberNandB,1
brightnessNandB,1
carpet pos,0
pc,0
Time (ms),CH1 Auto-Correlation
1.0,0.07987236231565475
2.0,0.07911496609449387
3.0,0.07841101288795471
4.0,0.0777096226811409
5.0,0.07698915153741837
6.0,0.07629615813493729
7.0,0.07560398429632187
8.0,0.07495711743831635
9.0,0.0743534192442894
10.0,0.07376529276371002
11.0,0.07318925112485886
12.0,0.07263042032718658
13.0,0.07210347801446915
14.0,0.07162849605083466
15.0,0.07114677131175995
16.0,0.07064848393201828
18.0,0.06966254115104675
20.0,0.0686950758099556
22.0,0.06778445094823837
24.0,0.06696734577417374
26.0,0.06622333079576492
28.0,0.0655682384967804
30.0,0.06490610539913177
32.0,0.06422410160303116
36.0,0.06307192146778107
40.0,0.0621776357293129
44.0,0.061373271048069
48.0,0.06056845188140869
52.0,0.05977621674537659
56.0,0.059036221355199814
60.0,0.05834776535630226
64.0,0.057587187737226486
72.0,0.056100714951753616
80.0,0.054602235555648804
88.0,0.05298175662755966
96.0,0.05142232030630112
104.0,0.0499761588871479
112.0,0.04865054413676262
120.0,0.0475144200026989
128.0,0.046464841812849045
144.0,0.044700946658849716
160.0,0.042931366711854935
176.0,0.04121566191315651
192.0,0.03864870220422745
208.0,0.03589579463005066
224.0,0.03309836611151695
240.0,0.030524181202054024
256.0,0.028406897559762
288.0,0.02487531490623951
320.0,0.02014198899269104
352.0,0.016551949083805084
384.0,0.01477474719285965
416.0,0.011677957139909267
448.0,0.010834467597305775
480.0,0.009818993508815765
512.0,0.008339527063071728
576.0,0.007235928904265165
640.0,0.00571606308221817
704.0,0.0028498447500169277
768.0,0.003728568786755204
832.0,0.004565544426441193
896.0,0.005233586300164461
960.0,0.0042728520929813385
1024.0,0.0022997381165623665
1152.0,-0.002656041644513607
1280.0,-0.003673340193927288
1408.0,0.003792423289269209
1536.0,0.005293552298098803
1664.0,0.006838520988821983
1792.0,0.008274341002106667
1920.0,0.011757826432585716
2048.0,0.01108667254447937
2304.0,0.004095431417226791
2560.0,-0.003194364719092846
2816.0,-0.007974324747920036
3072.0,-0.0014282857300713658
3328.0,0.0055278451181948185
3584.0,-0.0016906956443563104
3840.0,-0.009620487689971924
4096.0,-0.010836314409971237
4608.0,-0.016523921862244606
5120.0,-0.02156202308833599
5632.0,-0.005145281553268433
6144.0,-0.00011570504284463823
6656.0,-0.011921817436814308
7168.0,-0.02139749377965927
7680.0,-0.005113475956022739
8192.0,0.009347911924123764
end
