version,3.0
numOfCh,1
type,point
parent_name,714af_0dot069-0dot1
ch_type,1_1
kcount,1
numberNandB,1
brightnessNandB,1
carpet pos,0
pc,0
Time (ms),CH1 Auto-Correlation
1.0,0.06943181157112122
2.0,0.06868640333414078
3.0,0.06798654794692993
4.0,0.06733191013336182
5.0,0.06674657762050629
6.0,0.06616495549678802
7.0,0.06552053987979889
8.0,0.06485851109027863
9.0,0.06417637318372726
10.0,0.06355034559965134
11.0,0.06294385343790054
12.0,0.06235214322805405
13.0,0.061810821294784546
14.0,0.06120920926332474
15.0,0.06057976558804512
16.0,0.05984874069690704
18.0,0.05892714112997055
20.0,0.05805535614490509
22.0,0.05719730257987976
24.0,0.0564112588763237
26.0,0.05560312047600746
28.0,0.05479443445801735
30.0,0.05400291085243225
32.0,0.053191591054201126
36.0,0.05164961516857147
40.0,0.05024821683764458
44.0,0.04879307001829147
48.0,0.04726109653711319
52.0,0.0458141565322876
56.0,0.04455066844820976
60.0,0.04332728311419487
64.0,0.04222157970070839
72.0,0.04011515900492668
80.0,0.037974316626787186
88.0,0.035961396992206573
96.0,0.034107424318790436
104.0,0.032208070158958435
112.0,0.030397363007068634
120.0,0.028689857572317123
128.0,0.027093246579170227
144.0,0.024624256417155266
160.0,0.022041024640202522
176.0,0.020001433789730072
192.0,0.01863284222781658
208.0,0.017388956621289253
224.0,0.016672657802700996
240.0,0.016007333993911743
256.0,0.015899227932095528
288.0,0.015345506370067596
320.0,0.01521840039640665
352.0,0.01404501311480999
384.0,0.013120750896632671
416.0,0.0133562246337533
448.0,0.013096571899950504
480.0,0.011679788120090961
512.0,0.009569979272782803
576.0,0.005698876921087503
640.0,0.002571200719103217
704.0,-0.0019295327365398407
768.0,-0.005870066583156586
832.0,-0.006320082116872072
896.0,-0.006740684155374765
960.0,-0.0069813975133001804
1024.0,-0.008271349593997002
1152.0,-0.012332072481513023
1280.0,-0.015130475163459778
1408.0,-0.014902785420417786
1536.0,-0.016413040459156036
1664.0,-0.012097260914742947
1792.0,-0.004732943139970303
1920.0,-0.004761974792927504
2048.0,-0.0024729189462959766
2304.0,0.0029399003833532333
2560.0,0.007961479015648365
2816.0,0.009089273400604725
3072.0,0.007971742190420628
3328.0,0.004250944126397371
3584.0,-0.00297322659753263
3840.0,-0.005169441923499107
4096.0,-0.010211543180048466
4608.0,-0.009742401540279388
5120.0,0.006354563403874636
5632.0,0.00846177339553833
6144.0,0.0010940924985334277
6656.0,-0.01108922716230154
7168.0,-0.009964052587747574
7680.0,0.002721221651881933
8192.0,0.006074688863009214
end
