version,3.0
numOfCh,1
type,point
parent_name,714af_0dot069-0dot1
ch_type,1_1
kcount,1
numberNandB,1
brightnessNandB,1
carpet pos,0
pc,0
Time (ms),CH1 Auto-Correlation
1.0,0.06386373937129974
2.0,0.0634351298213005
3.0,0.06299140304327011
4.0,0.06255510449409485
5.0,0.062126725912094116
6.0,0.06171204894781113
7.0,0.06130523607134819
8.0,0.060908347368240356
9.0,0.06052154675126076
10.0,0.06015176326036453
11.0,0.05980139225721359
12.0,0.059455160051584244
13.0,0.05912453681230545
14.0,0.058796290308237076
15.0,0.05846952274441719
16.0,0.05815325304865837
18.0,0.05754287913441658
20.0,0.05693859979510307
22.0,0.05635562911629677
24.0,0.055781785398721695
26.0,0.05522790178656578
28.0,0.054700471460819244
30.0,0.054162297397851944
32.0,0.05363214388489723
36.0,0.052622150629758835
40.0,0.05170077085494995
44.0,0.050821222364902496
48.0,0.0499865859746933
52.0,0.049222417175769806
56.0,0.048464082181453705
60.0,0.04768780246376991
64.0,0.046928562223911285
72.0,0.045519307255744934
80.0,0.044135887175798416
88.0,0.04302100092172623
96.0,0.0421573631465435
104.0,0.041667599231004715
112.0,0.04131132364273071
120.0,0.040874820202589035
128.0,0.04032024368643761
144.0,0.03934168070554733
160.0,0.038465775549411774
176.0,0.03724290803074837
192.0,0.03584632650017738
208.0,0.034598879516124725
224.0,0.03357606753706932
240.0,0.03287600353360176
256.0,0.0325503945350647
288.0,0.031416155397892
320.0,0.029253430664539337
352.0,0.02657889761030674
384.0,0.02479667030274868
416.0,0.024201584979891777
448.0,0.024380959570407867
480.0,0.024850642308592796
512.0,0.02530105784535408
576.0,0.02650325372815132
640.0,0.025966109707951546
704.0,0.02556176483631134
768.0,0.02400320954620838
832.0,0.02301076240837574
896.0,0.02005586586892605
960.0,0.018163403496146202
1024.0,0.015742473304271698
1152.0,0.012343617156147957
1280.0,0.012114066630601883
1408.0,0.011326528154313564
1536.0,0.010439599864184856
1664.0,0.009066243655979633
1792.0,0.00670608039945364
1920.0,0.002515131374821067
2048.0,-0.002057899720966816
2304.0,-0.008398245088756084
2560.0,-0.012483636848628521
2816.0,-0.014246155507862568
3072.0,-0.017166316509246826
3328.0,-0.014468077570199966
3584.0,-0.010334860533475876
3840.0,-0.009672693908214569
4096.0,-0.012176434509456158
4608.0,-0.0014648499200120568
5120.0,0.008690161630511284
5632.0,0.01171694416552782
6144.0,0.012814676389098167
6656.0,0.016329476609826088
7168.0,0.009091327898204327
7680.0,-0.002524141687899828
8192.0,-0.015350009314715862
end
