version,3.0
numOfCh,1
type,point
parent_name,714af_0dot069-0dot1
ch_type,1_1
kcount,1
numberNandB,1
brightnessNandB,1
carpet pos,0
pc,0
Time (ms),CH1 Auto-Correlation
1.0,0.07251660525798798
2.0,0.07173345983028412
3.0,0.07098807394504547
4.0,0.07031192630529404
5.0,0.06963247060775757
6.0,0.06901555508375168
7.0,0.06842269003391266
8.0,0.06789491325616837
9.0,0.06738250702619553
10.0,0.06692561507225037
11.0,0.06646391749382019
12.0,0.06606093794107437
13.0,0.06569329649209976
14.0,0.06531413644552231
15.0,0.0649232342839241
16.0,0.0645679458975792
18.0,0.0638350248336792
20.0,0.06306107342243195
22.0,0.062291469424963
24.0,0.06154831498861313
26.0,0.06082967668771744
28.0,0.06009416654706001
30.0,0.059304893016815186
32.0,0.058559201657772064
36.0,0.05729798227548599
40.0,0.056163638830184937
44.0,0.05500339716672897
48.0,0.05375448614358902
52.0,0.052600614726543427
56.0,0.05174080282449722
60.0,0.05096312612295151
64.0,0.0500592365860939
72.0,0.048344213515520096
80.0,0.04680774733424187
88.0,0.04523167386651039
96.0,0.04376719892024994
104.0,0.04234330728650093
112.0,0.040979743003845215
120.0,0.03965647518634796
128.0,0.038516972213983536
144.0,0.036235347390174866
160.0,0.033565226942300797
176.0,0.031197277829051018
192.0,0.028334863483905792
208.0,0.02519914321601391
224.0,0.02171698957681656
240.0,0.018286317586898804
256.0,0.015739206224679947
288.0,0.011805800721049309
320.0,0.009578423574566841
352.0,0.007958246394991875
384.0,0.005588212050497532
416.0,0.004462307319045067
448.0,0.004353125113993883
480.0,0.0037029923405498266
512.0,0.0030423433054238558
576.0,0.00047165571595542133
640.0,-0.004129783250391483
704.0,-0.0075492458418011665
768.0,-0.010248907841742039
832.0,-0.010642949491739273
896.0,-0.008771950379014015
960.0,-0.005029536783695221
1024.0,-0.0019019084284082055
1152.0,0.0007914113230071962
1280.0,-0.0003287798026576638
1408.0,-0.007107136305421591
1536.0,-0.016306135803461075
1664.0,-0.022636625915765762
1792.0,-0.023059094324707985
1920.0,-0.01797901652753353
2048.0,-0.011531663127243519
2304.0,0.004444548394531012
2560.0,0.00821211002767086
2816.0,0.004580910317599773
3072.0,0.008574821054935455
3328.0,0.010848972015082836
3584.0,0.0028323885053396225
3840.0,-0.002217924455180764
4096.0,-0.008326546289026737
4608.0,-0.005125549156218767
5120.0,0.0011039780220016837
5632.0,0.005235358141362667
6144.0,-0.007412847131490707
6656.0,-0.004658968653529882
7168.0,-0.010787785984575748
7680.0,2.3580798369948752e-05
8192.0,0.005979870446026325
end
