version,3.0
numOfCh,1
type,point
parent_name,714af_0dot069-0dot1
ch_type,1_1
kcount,1
numberNandB,1
brightnessNandB,1
carpet pos,0
pc,0
Time (ms),CH1 Auto-Correlation
1.0,0.04567672312259674
2.0,0.04511488229036331
3.0,0.04457616060972214
4.0,0.04405428096652031
5.0,0.043543681502342224
6.0,0.04305005818605423
7.0,0.042591676115989685
8.0,0.04213117063045502
9.0,0.04169171303510666
10.0,0.04125092178583145
11.0,0.040811728686094284
12.0,0.040397755801677704
13.0,0.03999931365251541
14.0,0.03960725665092468
15.0,0.03922758996486664
16.0,0.038885559886693954
18.0,0.03817048296332359
20.0,0.03751551732420921
22.0,0.036855630576610565
24.0,0.036218032240867615
26.0,0.03563832491636276
28.0,0.03503911942243576
30.0,0.034431155771017075
32.0,0.03384983539581299
36.0,0.03278388828039169
40.0,0.03180868923664093
44.0,0.03088337369263172
48.0,0.0299506988376379
52.0,0.029039788991212845
56.0,0.028162997215986252
60.0,0.02734662964940071
64.0,0.026566281914711
72.0,0.025206973776221275
80.0,0.024044502526521683
88.0,0.02318626455962658
96.0,0.022460879758000374
104.0,0.021809756755828857
112.0,0.02114442177116871
120.0,0.020310739055275917
128.0,0.019596507772803307
144.0,0.017926789820194244
160.0,0.01606079190969467
176.0,0.014758097007870674
192.0,0.014328538440167904
208.0,0.013724671676754951
224.0,0.012948082759976387
240.0,0.01241685077548027
256.0,0.012344422750175
288.0,0.011529078707098961
320.0,0.010343071073293686
352.0,0.0089762844145298
384.0,0.006999504286795855
416.0,0.005519895348697901
448.0,0.005217812489718199
480.0,0.0050814030691981316
512.0,0.005313664209097624
576.0,0.007366454694420099
640.0,0.0066164350137114525
704.0,0.0048293014988303185
768.0,0.002907285001128912
832.0,0.002918592421337962
896.0,0.0032118905801326036
960.0,0.0015313421608880162
1024.0,-8.183189493138343e-05
1152.0,-0.0021179886534810066
1280.0,-0.006542658433318138
1408.0,-0.008294173516333103
1536.0,-0.0038203492294996977
1664.0,-0.004918382503092289
1792.0,-0.0043658181093633175
1920.0,-0.005584588274359703
2048.0,-0.008643032051622868
2304.0,-0.007754044607281685
2560.0,-0.001854396890848875
2816.0,-0.004897287581115961
3072.0,-0.0018974883714690804
3328.0,-0.002371536334976554
3584.0,0.0012926493072882295
3840.0,0.005217037629336119
4096.0,0.0053672343492507935
4608.0,0.003363590221852064
5120.0,-0.001701703411526978
5632.0,-0.00854275468736887
6144.0,-0.013229165226221085
6656.0,-0.011577671393752098
7168.0,-0.00018115885904990137
7680.0,0.006430586334317923
8192.0,0.012590602971613407
end
