version,3.0
numOfCh,1
type,point
parent_name,714af_0dot069-0dot1
ch_type,1_1
kcount,1
numberNandB,1
brightnessNandB,1
carpet pos,0
pc,0
Time (ms),CH1 Auto-Correlation
1.0,0.05946478992700577
2.0,0.05880485847592354
3.0,0.05815191939473152
4.0,0.05753757059574127
5.0,0.05695471540093422
6.0,0.056399617344141006
7.0,0.055877309292554855
8.0,0.055363886058330536
9.0,0.0548543818295002
10.0,0.054341644048690796
11.0,0.053814589977264404
12.0,0.05329389125108719
13.0,0.0528026819229126
14.0,0.05233047157526016
15.0,0.051875945180654526
16.0,0.0514216274023056
18.0,0.050526876002550125
20.0,0.049626924097537994
22.0,0.048741649836301804
24.0,0.047868870198726654
26.0,0.04699188470840454
28.0,0.04607595130801201
30.0,0.04517694190144539
32.0,0.0443926565349102
36.0,0.04281787946820259
40.0,0.04122855141758919
44.0,0.03968103602528572
48.0,0.038189709186553955
52.0,0.036862537264823914
56.0,0.03569869324564934
60.0,0.03475261852145195
64.0,0.03392261639237404
72.0,0.032548170536756516
80.0,0.03119143471121788
88.0,0.02986256778240204
96.0,0.028825240209698677
104.0,0.02785700000822544
112.0,0.026837175711989403
120.0,0.025720365345478058
128.0,0.02466253750026226
144.0,0.02312605082988739
160.0,0.02125219628214836
176.0,0.019649088382720947
192.0,0.01788613572716713
208.0,0.016209131106734276
224.0,0.01493257749825716
240.0,0.01371432188898325
256.0,0.012093734927475452
288.0,0.009520177729427814
320.0,0.007923907600343227
352.0,0.006188581231981516
384.0,0.0043877181597054005
416.0,0.00388137879781425
448.0,0.003916458692401648
480.0,0.003273405134677887
512.0,0.004347063601016998
576.0,0.004940519575029612
640.0,0.002278897911310196
704.0,0.0013734139502048492
768.0,-0.0005180861335247755
832.0,-2.9413118681986816e-05
896.0,0.001669950783252716
960.0,0.0036677417811006308
1024.0,0.0063941339030861855
1152.0,0.0047439709305763245
1280.0,0.005932535044848919
1408.0,0.004803777206689119
1536.0,0.004727442283183336
1664.0,0.005246365442872047
1792.0,0.0015188788529485464
1920.0,0.0010647258022800088
2048.0,0.003166844369843602
2304.0,-0.006354298908263445
2560.0,-0.00889971386641264
2816.0,-0.006255629472434521
3072.0,-0.0066016786731779575
3328.0,-0.007249569054692984
3584.0,-0.006084698252379894
3840.0,-0.006675053853541613
4096.0,-0.00782602746039629
4608.0,-0.007414849940687418
5120.0,-0.004722766578197479
5632.0,-0.0020570552442222834
6144.0,-0.003951522056013346
6656.0,0.00507692527025938
7168.0,0.007300787605345249
7680.0,0.007780604064464569
8192.0,0.0080766212195158
end
