version,3.0
numOfCh,1
type,point
parent_name,714af_0dot069-0dot1
ch_type,1_1
kcount,1
numberNandB,1
brightnessNandB,1
carpet pos,0
pc,0
Time (ms),CH1 Auto-Correlation
1.0,0.06264100223779678
2.0,0.06196427345275879
3.0,0.061354659497737885
4.0,0.06079498678445816
5.0,0.060268886387348175
6.0,0.05976593866944313
7.0,0.05926116183400154
8.0,0.058755744248628616
9.0,0.0582757294178009
10.0,0.05783979967236519
11.0,0.05743173137307167
12.0,0.05701049044728279
13.0,0.05660141631960869
14.0,0.056198135018348694
15.0,0.055784519761800766
16.0,0.0553949810564518
18.0,0.054677609354257584
20.0,0.05395158380270004
22.0,0.05322234705090523
24.0,0.05247753486037254
26.0,0.05178588256239891
28.0,0.05112733691930771
30.0,0.05043841898441315
32.0,0.0498194620013237
36.0,0.04866931587457657
40.0,0.04770168662071228
44.0,0.046788278967142105
48.0,0.045890700072050095
52.0,0.045096930116415024
56.0,0.044313788414001465
60.0,0.043557535856962204
64.0,0.04284956678748131
72.0,0.04159591346979141
80.0,0.04043653607368469
88.0,0.039305999875068665
96.0,0.038080956786870956
104.0,0.0366022065281868
112.0,0.0348728708922863
120.0,0.03303415700793266
128.0,0.03134781867265701
144.0,0.028156019747257233
160.0,0.025246474891901016
176.0,0.022105567157268524
192.0,0.01960311084985733
208.0,0.017980676144361496
224.0,0.016312696039676666
240.0,0.01403482723981142
256.0,0.011458327993750572
288.0,0.006818833295255899
320.0,0.003399021690711379
352.0,6.536950240842998e-05
384.0,-0.002104676328599453
416.0,-0.002474455162882805
448.0,-0.0018102595349773765
480.0,-0.000560203508939594
512.0,0.001801744569092989
576.0,0.00689978851005435
640.0,0.010980729945003986
704.0,0.014642174355685711
768.0,0.015586849302053452
832.0,0.013632836751639843
896.0,0.007193374913185835
960.0,0.0024925293400883675
1024.0,-0.0033368635922670364
1152.0,-0.008683155290782452
1280.0,-0.00749831460416317
1408.0,-0.004194734618067741
1536.0,-0.0018341309623792768
1664.0,-0.003212528768926859
1792.0,-0.007239756640046835
1920.0,-0.006323893554508686
2048.0,-0.00637532165274024
2304.0,-0.010129908099770546
2560.0,-0.006400615442544222
2816.0,-0.0029260653536766768
3072.0,-0.0037787221372127533
3328.0,-0.0043531195260584354
3584.0,-0.0006714811315760016
3840.0,-0.0041383313946425915
4096.0,-0.0031662879046052694
4608.0,0.0011139576090499759
5120.0,0.016857871785759926
5632.0,0.007122271694242954
6144.0,-0.0013447728706523776
6656.0,-0.005299509037286043
7168.0,-0.0049368031322956085
7680.0,-0.01049765758216381
8192.0,-0.008755343966186047
end
