version,3.0
numOfCh,1
type,point
parent_name,714af_0dot069-0dot1
ch_type,1_1
kcount,1
numberNandB,1
brightnessNandB,1
carpet pos,0
pc,0
Time (ms),CH1 Auto-Correlation
1.0,0.07085432857275009
2.0,0.07030227035284042
3.0,0.06977510452270508
4.0,0.06927143037319183
5.0,0.06877637654542923
6.0,0.06827644258737564
7.0,0.06776905804872513
8.0,0.06725841015577316
9.0,0.06677817553281784
10.0,0.06630708277225494
11.0,0.0658462792634964
12.0,0.06539396941661835
13.0,0.06493709981441498
14.0,0.06448788195848465
15.0,0.06403233855962753
16.0,0.06358110904693604
18.0,0.06271626800298691
20.0,0.061868324875831604
22.0,0.06105268374085426
24.0,0.060290370136499405
26.0,0.059578340500593185
28.0,0.05893377214670181
30.0,0.05832295119762421
32.0,0.05772675201296806
36.0,0.05660353600978851
40.0,0.055524833500385284
44.0,0.054526813328266144
48.0,0.053572461009025574
52.0,0.05267864838242531
56.0,0.05179249495267868
60.0,0.051001161336898804
64.0,0.050309035927057266
72.0,0.048938263207674026
80.0,0.04763391986489296
88.0,0.046457208693027496
96.0,0.04515838995575905
104.0,0.04392721503973007
112.0,0.04272889345884323
120.0,0.04141693562269211
128.0,0.04013002663850784
144.0,0.037883516401052475
160.0,0.03600231930613518
176.0,0.03431863337755203
192.0,0.032744280993938446
208.0,0.031317759305238724
224.0,0.029670029878616333
240.0,0.02802909165620804
256.0,0.026526276022195816
288.0,0.024235056713223457
320.0,0.022648558020591736
352.0,0.021000126376748085
384.0,0.01964464597404003
416.0,0.0180025827139616
448.0,0.016351325437426567
480.0,0.013968909159302711
512.0,0.012019912712275982
576.0,0.009891368448734283
640.0,0.0089320819824934
704.0,0.009424944408237934
768.0,0.01042187213897705
832.0,0.011918437667191029
896.0,0.012306095100939274
960.0,0.009614457376301289
1024.0,0.0051056076772511005
1152.0,0.003562085796147585
1280.0,0.002803765470162034
1408.0,2.2280773919192143e-05
1536.0,0.0006983319763094187
1664.0,0.002256308449432254
1792.0,0.0026553438510745764
1920.0,0.0021617363672703505
2048.0,-0.0006247216369956732
2304.0,-0.0017234478145837784
2560.0,-0.004038929007947445
2816.0,-0.00905530620366335
3072.0,-0.009493953548371792
3328.0,-0.004255397245287895
3584.0,-0.0007801344036124647
3840.0,-0.0045739575289189816
4096.0,0.0019843210466206074
4608.0,-0.005488671362400055
5120.0,-0.016331080347299576
5632.0,-0.010862729512155056
6144.0,-0.012750770896673203
6656.0,-0.0022002109326422215
7168.0,-0.0035447992850095034
7680.0,-0.0008983061998151243
8192.0,-0.0008200735901482403
end
