version,3.0
numOfCh,1
type,point
parent_name,714af_0dot069-0dot1
ch_type,1_1
kcount,1
numberNandB,1
brightnessNandB,1
carpet pos,0
pc,0
Time (ms),CH1 Auto-Correlation
1.0,0.06196809932589531
2.0,0.06145143508911133
3.0,0.060949284583330154
4.0,0.06044335290789604
5.0,0.05996965244412422
6.0,0.05949735641479492
7.0,0.05905357003211975
8.0,0.05862422287464142
9.0,0.05818863585591316
10.0,0.057764165103435516
11.0,0.05735165998339653
12.0,0.0569450818002224
13.0,0.05655347928404808
14.0,0.05615819990634918
15.0,0.05577769875526428
16.0,0.0554005429148674
18.0,0.054638054221868515
20.0,0.05391155183315277
22.0,0.05323094502091408
24.0,0.05257556214928627
26.0,0.05196017399430275
28.0,0.05137071758508682
30.0,0.050802331417798996
32.0,0.050251416862010956
36.0,0.049190908670425415
40.0,0.048183903098106384
44.0,0.04721089452505112
48.0,0.046334847807884216
52.0,0.04542800039052963
56.0,0.04447637125849724
60.0,0.04356558620929718
64.0,0.042691923677921295
72.0,0.04111818969249725
80.0,0.03966199979186058
88.0,0.03830112889409065
96.0,0.03714687377214432
104.0,0.03592650219798088
112.0,0.03449174016714096
120.0,0.0329863503575325
128.0,0.03170401230454445
144.0,0.02920001558959484
160.0,0.02662627026438713
176.0,0.02425297722220421
192.0,0.02263658307492733
208.0,0.021714160218834877
224.0,0.02103603258728981
240.0,0.02053428255021572
256.0,0.01997949369251728
288.0,0.019001120701432228
320.0,0.018538355827331543
352.0,0.0171677079051733
384.0,0.01495257206261158
416.0,0.01213722862303257
448.0,0.00943401176482439
480.0,0.007350700907409191
512.0,0.005730411969125271
576.0,0.006720012053847313
640.0,0.007586248684674501
704.0,0.006548777222633362
768.0,0.0023014938924461603
832.0,-0.0009208412375301123
896.0,-0.000589478004258126
960.0,0.0009459915454499424
1024.0,0.0008751408313401043
1152.0,-0.0034010023809969425
1280.0,-0.004346674308180809
1408.0,-0.00580725958570838
1536.0,-0.00888150930404663
1664.0,-0.006681331433355808
1792.0,-0.004680147860199213
1920.0,-0.005545154679566622
2048.0,-0.006029163021594286
2304.0,-0.008162003941833973
2560.0,-0.004680114798247814
2816.0,-0.0037784287706017494
3072.0,0.0028285228181630373
3328.0,0.0016826777718961239
3584.0,0.0033336891792714596
3840.0,0.0027485559694468975
4096.0,0.0017580135026946664
4608.0,0.0031912236008793116
5120.0,-0.008809741586446762
5632.0,-0.00252737570554018
6144.0,0.0021720374934375286
6656.0,-0.004192200023680925
7168.0,-0.01338734570890665
7680.0,-0.018034832552075386
8192.0,0.00023825322568882257
end
