version,3.0
numOfCh,1
type,point
parent_name,714af_0dot069-0dot1
ch_type,1_1
kcount,1
numberNandB,1
brightnessNandB,1
carpet pos,0
pc,0
Time (ms),CH1 Auto-Correlation
1.0,0.051922693848609924
2.0,0.05140296742320061
3.0,0.05088699236512184
4.0,0.050363942980766296
5.0,0.04983275383710861
6.0,0.04931933060288429
7.0,0.048820219933986664
8.0,0.048354849219322205
9.0,0.04791978374123573
10.0,0.04748500883579254
11.0,0.047066036611795425
12.0,0.046651918441057205
13.0,0.04624262824654579
14.0,0.045850709080696106
15.0,0.04545816779136658
16.0,0.04507724940776825
18.0,0.04432916268706322
20.0,0.0435933992266655
22.0,0.04283250495791435
24.0,0.04209873452782631
26.0,0.04141014441847801
28.0,0.04079863429069519
30.0,0.04020308703184128
32.0,0.03959514573216438
36.0,0.038345739245414734
40.0,0.03717395290732384
44.0,0.035989873111248016
48.0,0.03484863415360451
52.0,0.03378068655729294
56.0,0.03280642256140709
60.0,0.031920045614242554
64.0,0.03104984760284424
72.0,0.029362253844738007
80.0,0.027818923816084862
88.0,0.026383640244603157
96.0,0.025096029043197632
104.0,0.02399781532585621
112.0,0.02301112934947014
120.0,0.02213720604777336
128.0,0.02113042026758194
144.0,0.018976960331201553
160.0,0.017246054485440254
176.0,0.015148441307246685
192.0,0.012965512461960316
208.0,0.011521154083311558
224.0,0.01020197756588459
240.0,0.00965453963726759
256.0,0.009363804943859577
288.0,0.007846328429877758
320.0,0.007175692822784185
352.0,0.006797458976507187
384.0,0.006372086238116026
416.0,0.005521418992429972
448.0,0.00402819411829114
480.0,0.0033986521884799004
512.0,0.002822139533236623
576.0,0.00045030558248981833
640.0,-0.00034439779119566083
704.0,0.0008329811389558017
768.0,0.003291135188192129
832.0,0.005076775327324867
896.0,0.00530769070610404
960.0,0.0034364608582109213
1024.0,0.0016110739670693874
1152.0,0.0021199786569923162
1280.0,0.0032986297737807035
1408.0,0.0018068471690639853
1536.0,0.0002947257598862052
1664.0,-0.00029255705885589123
1792.0,-0.0016415214631706476
1920.0,-0.00010553229367360473
2048.0,-0.00019275846716482192
2304.0,0.003639240749180317
2560.0,0.0058828056789934635
2816.0,0.0013401262694969773
3072.0,-0.0036757716443389654
3328.0,0.00031805349863134325
3584.0,0.004074968863278627
3840.0,0.0001653070648899302
4096.0,0.0029800983611494303
4608.0,-0.0051658423617482185
5120.0,0.00014374920283444226
5632.0,-0.009737561456859112
6144.0,-0.005897631403058767
6656.0,-0.006601039320230484
7168.0,-0.007514414377510548
7680.0,-0.00544015783816576
8192.0,-0.01430907566100359
end
