version,3.0
numOfCh,1
type,point
parent_name,400-cuts
ch_type,1_1
kcount,1
numberNandB,1
brightnessNandB,1
carpet pos,0
pc,0
Time (ms),CH1 Auto-Correlation
1.0,0.03834918141365051
2.0,0.034393589943647385
3.0,0.03101537749171257
4.0,0.028080223128199577
5.0,0.025587620213627815
6.0,0.023524651303887367
7.0,0.021543322131037712
8.0,0.01970854587852955
9.0,0.018129870295524597
10.0,0.016686568036675453
11.0,0.015490145422518253
12.0,0.014459341764450073
13.0,0.01362163107842207
14.0,0.012882852926850319
15.0,0.012138579040765762
16.0,0.011510374955832958
18.0,0.01029391773045063
20.0,0.009177719242870808
22.0,0.008082155138254166
24.0,0.007349622435867786
26.0,0.006800172850489616
28.0,0.006260865367949009
30.0,0.005728944670408964
32.0,0.005190405063331127
36.0,0.004044367931783199
40.0,0.0028266343288123608
44.0,0.0020460369996726513
48.0,0.0015562792541459203
52.0,0.0015940330922603607
56.0,0.00172909302636981
60.0,0.002122791949659586
64.0,0.0020219290163367987
72.0,0.0010391034884378314
80.0,0.00018270839063916355
88.0,8.028007141547278e-05
96.0,0.00028075516456738114
104.0,0.00017512886552140117
112.0,0.0007858021999709308
120.0,0.000837328436318785
128.0,0.0009917370043694973
144.0,0.0014740288024768233
160.0,0.0012503380421549082
176.0,0.0003457489365246147
192.0,-0.0005842460668645799
208.0,-0.0005852413596585393
224.0,-0.000889004732016474
240.0,-0.0009874218376353383
256.0,-0.0010475862072780728
288.0,-0.001509082387201488
320.0,-0.0023298230953514576
352.0,-0.001771455630660057
384.0,6.757539085811004e-05
416.0,0.0012441574363037944
448.0,0.0011320632183924317
480.0,0.0003036795824300498
512.0,-2.0797919205506332e-05
576.0,0.0011321705533191562
640.0,0.00030049303313717246
704.0,-0.0009295380441471934
768.0,-0.001120260450989008
832.0,-5.1633818657137454e-05
896.0,0.0002732838911470026
960.0,0.0010523871751502156
1024.0,0.0009896402480080724
1152.0,-6.682318780804053e-05
1280.0,-9.915341797750443e-05
1408.0,0.0006098062731325626
1536.0,0.0003446646733209491
1664.0,0.00011717323650373146
1792.0,-0.0006338448147289455
1920.0,-0.00038292957469820976
2048.0,0.00035522980033420026
2304.0,-0.00030734360916540027
2560.0,-9.184150985674933e-05
2816.0,-0.0012820230331271887
3072.0,0.0002775351458694786
3328.0,-0.0003532067930791527
3584.0,-4.1268658605986275e-06
3840.0,-0.000360607635229826
4096.0,0.0003738033410627395
4608.0,0.00018955927225761116
5120.0,0.00042413410847075284
5632.0,0.0003372477658558637
6144.0,7.732627409495763e-07
6656.0,-0.00046388834016397595
7168.0,-8.744384831516072e-05
7680.0,-0.0008628065115772188
8192.0,-0.0007550164009444416
9216.0,0.00041199129191227257
10240.0,0.000366526423022151
11264.0,-0.00013923668302595615
12288.0,-0.000558003201149404
13312.0,-0.0008533176151104271
14336.0,0.0006545905489474535
end
