version,3.0
numOfCh,1
type,point
parent_name,400-cuts
ch_type,1_1
kcount,1
numberNandB,1
brightnessNandB,1
carpet pos,0
pc,0
Time (ms),CH1 Auto-Correlation
1.0,0.03734869137406349
2.0,0.03342626616358757
3.0,0.03012096881866455
4.0,0.02733108587563038
5.0,0.024956464767456055
6.0,0.022825445979833603
7.0,0.0209385696798563
8.0,0.019216034561395645
9.0,0.017749758437275887
10.0,0.016478437930345535
11.0,0.015195805579423904
12.0,0.014035409316420555
13.0,0.013052954338490963
14.0,0.012145034037530422
15.0,0.011264258995652199
16.0,0.010504979640245438
18.0,0.009225786663591862
20.0,0.00812086183577776
22.0,0.007292984053492546
24.0,0.006627785973250866
26.0,0.005997902248054743
28.0,0.005217310506850481
30.0,0.004699889570474625
32.0,0.004399356432259083
36.0,0.0036788771394640207
40.0,0.002785608870908618
44.0,0.0021398256067186594
48.0,0.0017710331594571471
52.0,0.001121638109907508
56.0,0.0006351204356178641
60.0,-0.00020394839521031827
64.0,-0.0006111364928074181
72.0,-0.000804292387329042
80.0,-0.00041959970258176327
88.0,-3.303606717963703e-05
96.0,6.0973932704655454e-05
104.0,2.3066126232151873e-05
112.0,0.00045727097312919796
120.0,0.0008535182569175959
128.0,0.0007334805559366941
144.0,0.002354700118303299
160.0,0.001971624093130231
176.0,0.0006160353659652174
192.0,-0.000811031146440655
208.0,-0.0010014029685407877
224.0,-0.001083787647075951
240.0,-0.0015298500657081604
256.0,-0.0019006876973435283
288.0,-0.0007888053078204393
320.0,-0.0005826757405884564
352.0,-0.00046177691547200084
384.0,0.00020121881971135736
416.0,7.808447844581679e-05
448.0,7.627584272995591e-05
480.0,-8.647829235997051e-05
512.0,9.333652269560844e-05
576.0,0.000506468815729022
640.0,-0.0007973764440976083
704.0,-3.111881960649043e-05
768.0,-0.0004507484845817089
832.0,0.00028103971271775663
896.0,-0.0013716780813410878
960.0,-0.001120622269809246
1024.0,-0.00037790180067531765
1152.0,-0.00019332426018081605
1280.0,0.0010979707585647702
1408.0,-0.0002563416783232242
1536.0,0.0010614647762849927
1664.0,-4.615232683136128e-05
1792.0,-0.0010457440512254834
1920.0,0.0002942181017715484
2048.0,0.0004446957027539611
2304.0,0.00021275960898492485
2560.0,-0.0004227900644764304
2816.0,-0.0002970072964671999
3072.0,-0.0005727526149712503
3328.0,-0.00010315756662748754
3584.0,0.0006644694367423654
3840.0,0.00025944405933842063
4096.0,-0.000697357056196779
4608.0,-0.0007644451688975096
5120.0,0.0005177001585252583
5632.0,-0.0002990415378008038
6144.0,-0.0005053569911979139
6656.0,0.0005472437478601933
7168.0,-0.00017392495647072792
7680.0,-0.0004479158378671855
8192.0,0.00025606690905988216
9216.0,0.00012452621012926102
10240.0,0.000328858062857762
11264.0,-5.587728810496628e-05
12288.0,-6.233878957573324e-05
13312.0,0.00020499802485574037
14336.0,-0.0006926809437572956
end
