version,3.0
numOfCh,1
type,point
parent_name,400-cuts
ch_type,1_1
kcount,1
numberNandB,1
brightnessNandB,1
carpet pos,0
pc,0
Time (ms),CH1 Auto-Correlation
1.0,0.037810783833265305
2.0,0.0338146835565567
3.0,0.03046276979148388
4.0,0.027504069730639458
5.0,0.02494383230805397
6.0,0.02264728583395481
7.0,0.020533312112092972
8.0,0.01863744854927063
9.0,0.016915054991841316
10.0,0.015546994283795357
11.0,0.014257402159273624
12.0,0.013206236995756626
13.0,0.012278053909540176
14.0,0.011518038809299469
15.0,0.010851013474166393
16.0,0.010169311426579952
18.0,0.00909463595598936
20.0,0.008119308389723301
22.0,0.007346802391111851
24.0,0.0068588037975132465
26.0,0.006372862495481968
28.0,0.006086129229515791
30.0,0.005790930241346359
32.0,0.005501330364495516
36.0,0.00437457300722599
40.0,0.003318007104098797
44.0,0.0025336043909192085
48.0,0.0019163687247782946
52.0,0.001302041462622583
56.0,0.0013641511322930455
60.0,0.0010932640871033072
64.0,0.0007531117298640311
72.0,0.0009947656653821468
80.0,0.0017095468938350677
88.0,0.0013113815803080797
96.0,0.0002042047563008964
104.0,-0.0004811571561731398
112.0,8.222613541875035e-05
120.0,6.306214345386252e-05
128.0,-0.00042154372204095125
144.0,-0.000548581825569272
160.0,-0.0006710065063089132
176.0,-0.000459455419331789
192.0,4.802836338058114e-05
208.0,-0.00014135219680611044
224.0,0.0008649778319522738
240.0,0.0015719314105808735
256.0,0.0005221347091719508
288.0,0.0011967208702117205
320.0,0.0003971303813159466
352.0,-0.00036369499866850674
384.0,-0.0009281127713620663
416.0,0.00011136176181025803
448.0,-0.00033909911871887743
480.0,-0.0001742130989441648
512.0,3.287988874944858e-05
576.0,-0.0014415998011827469
640.0,-0.00104033132083714
704.0,-0.000810770783573389
768.0,-0.0001707693882053718
832.0,-0.0009103070478886366
896.0,-0.0011697257868945599
960.0,0.0003346928860992193
1024.0,-0.000987289589829743
1152.0,-1.7543712601764128e-05
1280.0,0.0004301748122088611
1408.0,0.00029034289764240384
1536.0,-0.0003373272775206715
1664.0,-0.0003015175461769104
1792.0,-0.0009660659125074744
1920.0,4.211593113723211e-05
2048.0,0.0007957741618156433
2304.0,0.0008758069016039371
2560.0,-0.00033640803303569555
2816.0,-8.174611139111221e-05
3072.0,-0.0008549037738703191
3328.0,-0.00010741003643488511
3584.0,0.00059788633370772
3840.0,-0.0003938363224733621
4096.0,-0.0001574599591549486
4608.0,0.0002719938929658383
5120.0,0.0001402733032591641
5632.0,-0.001036771573126316
6144.0,0.00010228442260995507
6656.0,0.0011973815271630883
7168.0,7.637209637323394e-05
7680.0,-0.000573548604734242
8192.0,-0.0005472395569086075
9216.0,-0.00010117031342815608
10240.0,-0.0003122058988083154
11264.0,-0.0001641540293348953
12288.0,-2.0828838387387805e-06
13312.0,0.00018486400949768722
14336.0,0.00020379232591949403
end
