version,3.0
numOfCh,1
type,point
parent_name,400-cuts
ch_type,1_1
kcount,1
numberNandB,1
brightnessNandB,1
carpet pos,0
pc,0
Time (ms),CH1 Auto-Correlation
1.0,0.026044953614473343
2.0,0.023423584178090096
3.0,0.02122267708182335
4.0,0.019357236102223396
5.0,0.017702147364616394
6.0,0.016256846487522125
7.0,0.015037035569548607
8.0,0.013936513103544712
9.0,0.012979387305676937
10.0,0.01204404141753912
11.0,0.011205708608031273
12.0,0.010448985733091831
13.0,0.009753519669175148
14.0,0.009214970283210278
15.0,0.008711234666407108
16.0,0.008210467174649239
18.0,0.007471506949514151
20.0,0.006840701214969158
22.0,0.0061721582897007465
24.0,0.005492891184985638
26.0,0.004976271186023951
28.0,0.004485149867832661
30.0,0.00404771976172924
32.0,0.003571299836039543
36.0,0.0029788147658109665
40.0,0.0022944114170968533
44.0,0.0018510863883420825
48.0,0.0015460028080269694
52.0,0.0007415437721647322
56.0,0.00022708548931404948
60.0,7.00467498973012e-05
64.0,0.0001895067689474672
72.0,0.00034399665310047567
80.0,0.00024412925995420665
88.0,4.0812625229591504e-05
96.0,0.00019861799955833703
104.0,0.0004355788114480674
112.0,0.0008132972870953381
120.0,0.0007416385924443603
128.0,0.0005522810970433056
144.0,0.0004849139368161559
160.0,0.0005675471620634198
176.0,0.0005085229640826583
192.0,0.00011474207713035867
208.0,0.00011828954302472994
224.0,0.00043300920515321195
240.0,-7.931075379019603e-05
256.0,-0.000354490039171651
288.0,-0.0007957761990837753
320.0,-0.0002127973857568577
352.0,0.00017939289682544768
384.0,0.0006728986045345664
416.0,0.00046256589121185243
448.0,-8.29743075883016e-05
480.0,0.0001478998747188598
512.0,-0.0002853974874597043
576.0,0.0007977203349582851
640.0,0.0005723351496271789
704.0,3.95671850128565e-05
768.0,4.065189204993658e-05
832.0,0.0006741721881553531
896.0,8.775255992077291e-05
960.0,0.0007398546440526843
1024.0,0.0002368510904489085
1152.0,-0.00011620304576354101
1280.0,0.0004540429508779198
1408.0,-0.00034082247293554246
1536.0,0.00012380660336930305
1664.0,-0.00020209325884934515
1792.0,-0.0004981562378816307
1920.0,0.0004780168237630278
2048.0,0.00018170008843299001
2304.0,1.149473973782733e-05
2560.0,0.0004767223435919732
2816.0,0.000134717469336465
3072.0,0.0008493495988659561
3328.0,-0.0003148858668282628
3584.0,-0.0003110698307864368
3840.0,-0.0008672671392560005
4096.0,-0.00038166114245541394
4608.0,-7.756254490232095e-05
5120.0,-0.00013583603140432388
5632.0,0.00043379433918744326
6144.0,0.00024299960932694376
6656.0,-0.0006130767287686467
7168.0,-9.586688247509301e-05
7680.0,-0.00025743909645825624
8192.0,-4.913333395961672e-05
9216.0,-0.00035649759229272604
10240.0,6.385227607097477e-05
11264.0,0.0002978206903208047
12288.0,-0.0003855900722555816
13312.0,-0.0008448711014352739
14336.0,-0.000926462234929204
end
