version,3.0
numOfCh,1
type,point
parent_name,400-cuts
ch_type,1_1
kcount,1
numberNandB,1
brightnessNandB,1
carpet pos,0
pc,0
Time (ms),CH1 Auto-Correlation
1.0,0.0924665555357933
2.0,0.08372765779495239
3.0,0.0761774405837059
4.0,0.06980527192354202
5.0,0.06406833231449127
6.0,0.059053145349025726
7.0,0.05476520210504532
8.0,0.05081350356340408
9.0,0.04710879549384117
10.0,0.0437183603644371
11.0,0.0405423566699028
12.0,0.0373670719563961
13.0,0.03463975712656975
14.0,0.032414305955171585
15.0,0.030354954302310944
16.0,0.02849142998456955
18.0,0.024958010762929916
20.0,0.021399272605776787
22.0,0.01888389140367508
24.0,0.017109697684645653
26.0,0.015582059510052204
28.0,0.014254831708967686
30.0,0.013248606584966183
32.0,0.012559372931718826
36.0,0.010152960196137428
40.0,0.007747863885015249
44.0,0.006382866762578487
48.0,0.00536740105599165
52.0,0.00450932327657938
56.0,0.0038993502967059612
60.0,0.0031496419105678797
64.0,0.002261509420350194
72.0,0.0023013981990516186
80.0,0.002998706419020891
88.0,0.0022958610206842422
96.0,0.0013259851839393377
104.0,0.0008774352609179914
112.0,0.00019371982489246875
120.0,-0.0008034465136006474
128.0,-0.0013807223876938224
144.0,-0.0035880273208022118
160.0,-0.0028837500140070915
176.0,-0.001818595570512116
192.0,0.00020211694936733693
208.0,0.0032534466590732336
224.0,0.005247360561043024
240.0,0.0042114099487662315
256.0,0.003886085469275713
288.0,0.002674719085916877
320.0,-0.0015956880524754524
352.0,-0.0031021905597299337
384.0,-0.001993967220187187
416.0,-0.004096792545169592
448.0,-0.00612288573756814
480.0,-0.0036918434780091047
512.0,-0.0027917411644011736
576.0,-0.00394565612077713
640.0,-0.0020009141881018877
704.0,-0.0010923205409199
768.0,8.56363185448572e-05
832.0,0.001533985836431384
896.0,-0.0006352381315082312
960.0,0.0016901198541745543
1024.0,2.6518138838582672e-05
1152.0,-0.00014446975546889007
1280.0,-0.0011250212555751204
1408.0,-0.0030749994330108166
1536.0,0.0025074488949030638
1664.0,-0.00036171471583656967
1792.0,0.00314186024479568
1920.0,0.0010131095768883824
2048.0,-0.0019592917524278164
2304.0,-0.002269758377224207
2560.0,0.0007141612004488707
2816.0,0.000939053890760988
3072.0,-0.0007768603973090649
3328.0,0.0016086662653833628
3584.0,0.0016830250388011336
3840.0,-0.0029543337877839804
4096.0,-0.0019173163454979658
4608.0,0.0023973286151885986
5120.0,-0.0007192635093815625
5632.0,-0.0019445231882855296
6144.0,0.0006492293323390186
6656.0,-0.0006945214699953794
7168.0,-0.0006061213789507747
7680.0,0.0006485852063633502
8192.0,-0.00024312714231200516
9216.0,0.00022333674132823944
10240.0,-0.0012671591248363256
11264.0,0.00021199478942435235
12288.0,0.0012781384866684675
13312.0,-0.0005736228777095675
14336.0,-0.0006954623968340456
end
