version,3.0
numOfCh,1
type,point
parent_name,400-cuts
ch_type,1_1
kcount,1
numberNandB,1
brightnessNandB,1
carpet pos,0
pc,0
Time (ms),CH1 Auto-Correlation
1.0,0.0413547046482563
2.0,0.03721458837389946
3.0,0.03360675275325775
4.0,0.030583735555410385
5.0,0.027961580082774162
6.0,0.02567235752940178
7.0,0.023782556876540184
8.0,0.022171691060066223
9.0,0.020591141656041145
10.0,0.019176745787262917
11.0,0.017806945368647575
12.0,0.016653243452310562
13.0,0.01547361258417368
14.0,0.014560692943632603
15.0,0.013811333104968071
16.0,0.013056089170277119
18.0,0.01180337369441986
20.0,0.010816624388098717
22.0,0.009875050745904446
24.0,0.009011473506689072
26.0,0.007936534471809864
28.0,0.006870295852422714
30.0,0.005958059802651405
32.0,0.005342667456716299
36.0,0.0047743478789925575
40.0,0.0044177197851240635
44.0,0.003958897199481726
48.0,0.003400019835680723
52.0,0.0027150623500347137
56.0,0.002209707396104932
60.0,0.001774500124156475
64.0,0.0015735842753201723
72.0,0.0011804630048573017
80.0,0.0003128700191155076
88.0,0.00012326103751547635
96.0,0.0009044829639606178
104.0,0.0007512194570153952
112.0,-0.00020951422629877925
120.0,-0.0005525836604647338
128.0,-0.0005956406239420176
144.0,-0.00020720042812172323
160.0,-0.00028301082784309983
176.0,2.028559538302943e-05
192.0,-0.0009523826884105802
208.0,-0.0012160228798165917
224.0,-0.0015356658259406686
240.0,-0.0017537522362545133
256.0,-0.001653000945225358
288.0,-0.00022108390112407506
320.0,-7.34854256734252e-05
352.0,-0.001597550348378718
384.0,-0.0015229854034259915
416.0,-0.0012982344487681985
448.0,-0.0012200316414237022
480.0,-0.0016104098176583648
512.0,-0.0017713448032736778
576.0,0.00011573071242310107
640.0,-0.0006446196348406374
704.0,-0.00018657131295185536
768.0,0.0014195323456078768
832.0,-4.1757491999305785e-05
896.0,0.00022593702306039631
960.0,0.0013671191409230232
1024.0,-0.00039384470437653363
1152.0,-0.0009954874403774738
1280.0,-0.0014755410375073552
1408.0,-0.00022842519683763385
1536.0,1.603970304131508e-05
1664.0,-0.001303114928305149
1792.0,0.0006083077751100063
1920.0,0.00041637345566414297
2048.0,-3.069144440814853e-05
2304.0,0.0005751585122197866
2560.0,0.00014541886048391461
2816.0,0.0004951172741129994
3072.0,0.00017431314336135983
3328.0,-0.0009484326001256704
3584.0,-0.0006643526721745729
3840.0,0.0007071130676195025
4096.0,-0.0006409313646145165
4608.0,3.613812805269845e-05
5120.0,4.071256989846006e-05
5632.0,0.0003323997952975333
6144.0,-0.00018195100710727274
6656.0,-0.0003945743665099144
7168.0,-3.0428567697526887e-05
7680.0,0.0002736733003985137
8192.0,0.00011003219697158784
9216.0,-0.0003352742351125926
10240.0,0.00025346953771077096
11264.0,-0.00010945622489089146
12288.0,7.4153853347525e-05
13312.0,7.647609163541347e-05
14336.0,-0.0001748009235598147
end
