version,3.0
numOfCh,1
type,point
parent_name,400-cuts
ch_type,1_1
kcount,1
numberNandB,1
brightnessNandB,1
carpet pos,0
pc,0
Time (ms),CH1 Auto-Correlation
1.0,0.08598998188972473
2.0,0.07746685296297073
3.0,0.07030746340751648
4.0,0.06415244936943054
5.0,0.05863393098115921
6.0,0.05361166596412659
7.0,0.04905105382204056
8.0,0.044856905937194824
9.0,0.04109955579042435
10.0,0.03777096047997475
11.0,0.03461845591664314
12.0,0.03200084716081619
13.0,0.029608821496367455
14.0,0.027664829045534134
15.0,0.02576580084860325
16.0,0.02369827963411808
18.0,0.019878163933753967
20.0,0.01704137958586216
22.0,0.014381314627826214
24.0,0.012441957369446754
26.0,0.01162754837423563
28.0,0.010930932126939297
30.0,0.010641788132488728
32.0,0.009922920726239681
36.0,0.00881075207144022
40.0,0.008384165354073048
44.0,0.007610978092998266
48.0,0.006254152860492468
52.0,0.004996572621166706
56.0,0.004167716950178146
60.0,0.003764992579817772
64.0,0.002607873175293207
72.0,0.0019995863549411297
80.0,0.000893343414645642
88.0,0.00031227568979375064
96.0,0.00037647312274202704
104.0,-0.0017725976649671793
112.0,-0.003901093266904354
120.0,-0.0035755294375121593
128.0,-0.004179110750555992
144.0,-0.004375684540718794
160.0,-0.004744460806250572
176.0,-0.005448295269161463
192.0,-0.0015183064388111234
208.0,-0.0012329680612310767
224.0,-0.0003110803954768926
240.0,-0.003656112588942051
256.0,-0.004131412599235773
288.0,-0.002062931191176176
320.0,-0.00281722960062325
352.0,-0.0015462434384971857
384.0,0.0011488751042634249
416.0,0.0017965440638363361
448.0,0.0038882119115442038
480.0,0.001615971908904612
512.0,0.0001772740070009604
576.0,-0.0024139860179275274
640.0,-0.00027688051341101527
704.0,0.001044447417370975
768.0,-0.001944759744219482
832.0,-0.001905629294924438
896.0,-0.0008401208324357867
960.0,0.0017438847571611404
1024.0,0.0008264851057901978
1152.0,0.00292840413749218
1280.0,-0.001525074359960854
1408.0,0.0007924055680632591
1536.0,-0.0005055009387433529
1664.0,0.00012789107859134674
1792.0,-0.0012785331346094608
1920.0,0.0005673174164257944
2048.0,-0.00038354506250470877
2304.0,0.0002295152225997299
2560.0,-0.002204015152528882
2816.0,0.0005839542718604207
3072.0,0.0015122732147574425
3328.0,-0.0015970978420227766
3584.0,-0.0016601614188402891
3840.0,0.001064092037267983
4096.0,-0.00012658322521019727
4608.0,-0.0008660576422698796
5120.0,0.0012171481503173709
5632.0,-0.000709514191839844
6144.0,0.0009499802254140377
6656.0,-0.0008183126337826252
7168.0,0.0004939333302900195
7680.0,-0.0005094987573102117
8192.0,0.0006876397528685629
9216.0,0.00023175532987806946
10240.0,-4.1846204112516716e-05
11264.0,-7.532221206929535e-05
12288.0,-0.0007561429520137608
13312.0,-0.0001317533024121076
14336.0,-0.0022105909883975983
end
