version,3.0
numOfCh,1
type,point
parent_name,400-cuts
ch_type,1_1
kcount,1
numberNandB,1
brightnessNandB,1
carpet pos,0
pc,0
Time (ms),CH1 Auto-Correlation
1.0,0.02735498733818531
2.0,0.02474053017795086
3.0,0.022473784163594246
4.0,0.020467203110456467
5.0,0.018754061311483383
6.0,0.017293166369199753
7.0,0.016033830121159554
8.0,0.01496245339512825
9.0,0.01396262738853693
10.0,0.012992841191589832
11.0,0.012088018469512463
12.0,0.011288043111562729
13.0,0.010550018399953842
14.0,0.009871304966509342
15.0,0.009252249263226986
16.0,0.008720980025827885
18.0,0.007844901643693447
20.0,0.0068566566333174706
22.0,0.00585327809676528
24.0,0.005109390709549189
26.0,0.004704547114670277
28.0,0.00430023018270731
30.0,0.003935000393539667
32.0,0.003585565835237503
36.0,0.0029348258394747972
40.0,0.002356096403673291
44.0,0.0019429572857916355
48.0,0.0017791582504287362
52.0,0.0019739700946956873
56.0,0.0018701048102229834
60.0,0.00158774689771235
64.0,0.0011984865413978696
72.0,0.0006187830003909767
80.0,0.000780927948653698
88.0,0.0008817534544505179
96.0,0.0010952752782031894
104.0,0.000803773058578372
112.0,0.00036758161149919033
120.0,0.00014472863404080272
128.0,0.00024003339058253914
144.0,0.0002236374421045184
160.0,0.0002251985133625567
176.0,0.00016440998297184706
192.0,0.00015365199942607433
208.0,-0.00047281867591664195
224.0,-0.00087773147970438
240.0,-0.001277538831345737
256.0,-0.0005256906151771545
288.0,-0.0002883713459596038
320.0,-0.000905897468328476
352.0,-0.0001635603402974084
384.0,0.00046106992522254586
416.0,-7.211455795186339e-06
448.0,-6.259250949369743e-05
480.0,0.0014444271801039577
512.0,0.0013066573301330209
576.0,0.0008431063615716994
640.0,0.00020907758153043687
704.0,-0.00010471122368471697
768.0,-0.0016045267693698406
832.0,-0.0007236519595608115
896.0,6.153042340883985e-05
960.0,-0.0007322891033254564
1024.0,-0.0003828436601907015
1152.0,-0.0003859504358842969
1280.0,-0.0005422477843239903
1408.0,1.0465216291777324e-05
1536.0,0.0006700822850689292
1664.0,0.0001351563259959221
1792.0,-0.00022206279390957206
1920.0,0.0002072915667667985
2048.0,0.00022902672935742885
2304.0,-0.00019356278062332422
2560.0,0.0002124117163475603
2816.0,-0.0005929910694248974
3072.0,8.072864875430241e-05
3328.0,-0.0008329832344315946
3584.0,-6.905695045134053e-05
3840.0,-6.394708907464519e-05
4096.0,-0.0005940022529102862
4608.0,9.64045466389507e-05
5120.0,0.00023763328499626368
5632.0,0.00013928746921010315
6144.0,-0.00011329518747515976
6656.0,0.0004893430741503835
7168.0,0.0002940770355053246
7680.0,0.00015722538228146732
8192.0,-0.00042003169073723257
9216.0,-2.9484974220395088e-05
10240.0,-0.00046312855556607246
11264.0,0.00017137934628408402
12288.0,-0.000279334926744923
13312.0,-0.00021294158068485558
14336.0,0.0001951303129317239
end
