version,3.0
numOfCh,1
type,point
parent_name,400-cuts
ch_type,1_1
kcount,1
numberNandB,1
brightnessNandB,1
carpet pos,0
pc,0
Time (ms),CH1 Auto-Correlation
1.0,0.08272619545459747
2.0,0.07423572242259979
3.0,0.06700954586267471
4.0,0.06083393096923828
5.0,0.05550309270620346
6.0,0.050809454172849655
7.0,0.04672445356845856
8.0,0.043006207793951035
9.0,0.039861056953668594
10.0,0.03689227253198624
11.0,0.034362565726041794
12.0,0.03203829750418663
13.0,0.02981625497341156
14.0,0.027987023815512657
15.0,0.02608201839029789
16.0,0.024283137172460556
18.0,0.022020477801561356
20.0,0.019825877621769905
22.0,0.01790008507668972
24.0,0.01578211970627308
26.0,0.01419701799750328
28.0,0.012820536270737648
30.0,0.011880123987793922
32.0,0.011206038296222687
36.0,0.010519128292798996
40.0,0.009661936201155186
44.0,0.007738745771348476
48.0,0.0063620274886488914
52.0,0.005536306649446487
56.0,0.004487043246626854
60.0,0.004374421201646328
64.0,0.003666735254228115
72.0,0.003633711487054825
80.0,0.0038099191151559353
88.0,0.003978341817855835
96.0,0.00378240249119699
104.0,0.004511632025241852
112.0,0.005261440761387348
120.0,0.004985521547496319
128.0,0.004932967945933342
144.0,0.003273030975833535
160.0,0.005457524675875902
176.0,0.004638594575226307
192.0,0.004920786712318659
208.0,0.0072575402446091175
224.0,0.006242068950086832
240.0,0.0033662114292383194
256.0,0.0022680023685097694
288.0,0.002680977573618293
320.0,0.00033730981522239745
352.0,-0.002653971314430237
384.0,-0.0009366127196699381
416.0,-0.0008201180025935173
448.0,-0.002651567803695798
480.0,0.0008497326052747667
512.0,-0.004134512506425381
576.0,-0.003342784009873867
640.0,-0.002491947030648589
704.0,-0.001396049396134913
768.0,-0.004177795723080635
832.0,-0.002850423799827695
896.0,-0.0018506483174860477
960.0,-0.0025270353071391582
1024.0,-0.0010974910110235214
1152.0,0.00042290324927307665
1280.0,-0.0004559664521366358
1408.0,-0.00130726199131459
1536.0,-0.0006791669875383377
1664.0,0.0007076628389768302
1792.0,0.0009435125975869596
1920.0,0.0002866463619284332
2048.0,0.0002824380644597113
2304.0,6.756211951142177e-05
2560.0,0.0022679856047034264
2816.0,0.0009766279254108667
3072.0,-0.00044764336780644953
3328.0,-0.001150587690062821
3584.0,-0.00021094268595334142
3840.0,0.0008723043138161302
4096.0,-0.0009173054713755846
4608.0,0.0021373273339122534
5120.0,0.00018123954941984266
5632.0,-0.00042312126606702805
6144.0,-0.0014376335311681032
6656.0,0.0002435453498037532
7168.0,-0.0005338765913620591
7680.0,0.0010969743598252535
8192.0,0.0009861842263489962
9216.0,0.0014567198231816292
10240.0,-0.0011914062779396772
11264.0,-0.0023465859703719616
12288.0,0.0020198021084070206
13312.0,-0.001688089338131249
14336.0,-0.0019847527146339417
end
