version,3.0
numOfCh,1
type,point
parent_name,400-cuts
ch_type,1_1
kcount,1
numberNandB,1
brightnessNandB,1
carpet pos,0
pc,0
Time (ms),CH1 Auto-Correlation
1.0,0.026070881634950638
2.0,0.023391718044877052
3.0,0.02111520990729332
4.0,0.01912098191678524
5.0,0.017316795885562897
6.0,0.015753645449876785
7.0,0.01438218355178833
8.0,0.013153431937098503
9.0,0.012075384147465229
10.0,0.011091945692896843
11.0,0.01010547112673521
12.0,0.009285268373787403
13.0,0.008477137424051762
14.0,0.007699951529502869
15.0,0.007061137352138758
16.0,0.006551341153681278
18.0,0.005783151835203171
20.0,0.0051312921568751335
22.0,0.004555274732410908
24.0,0.004024674650281668
26.0,0.003490123664960265
28.0,0.0030185342766344547
30.0,0.0027153620030730963
32.0,0.002533192513510585
36.0,0.0021030076313763857
40.0,0.001843010075390339
44.0,0.001723468885757029
48.0,0.0015072319656610489
52.0,0.0009400556446053088
56.0,0.0002481108531355858
60.0,-6.258958455873653e-05
64.0,-5.572009467869066e-05
72.0,0.0008147374610416591
80.0,0.0012962825130671263
88.0,0.001099106390029192
96.0,0.0010384534252807498
104.0,0.0015492752427235246
112.0,0.0017440739320591092
120.0,0.0014011476887390018
128.0,0.000570344680454582
144.0,-0.00020675121049862355
160.0,-0.0006189398118294775
176.0,-0.0005815654876641929
192.0,-0.0009482605382800102
208.0,-0.0003427279007155448
224.0,0.00032788317184895277
240.0,-0.0008136141113936901
256.0,-0.0004982113605365157
288.0,-0.00039687094977125525
320.0,0.0003688059514388442
352.0,0.000728676444850862
384.0,0.0002205515920650214
416.0,0.00037318593240343034
448.0,-0.0009494597907178104
480.0,-0.002061354462057352
512.0,-0.0012942350003868341
576.0,-0.0007725675823166966
640.0,0.00019990037253592163
704.0,0.0008032884215936065
768.0,0.000570779899135232
832.0,0.0005493297358043492
896.0,0.0001970057637663558
960.0,0.000864181260112673
1024.0,0.00042629262316040695
1152.0,-0.0006153681315481663
1280.0,0.00020413384481798857
1408.0,8.334477024618536e-05
1536.0,0.0007311830413527787
1664.0,0.0008395680342800915
1792.0,-0.0013663263525813818
1920.0,0.00021558372827712446
2048.0,0.0003219938662368804
2304.0,-5.1773855375358835e-05
2560.0,-0.0007704049930907786
2816.0,8.406054257648066e-05
3072.0,0.0014280123868957162
3328.0,-0.0008381005609408021
3584.0,-0.0005673349951393902
3840.0,0.0007570390007458627
4096.0,-0.000292747572530061
4608.0,-5.029090607422404e-05
5120.0,-4.510951112024486e-05
5632.0,0.00012614234583452344
6144.0,-0.00011928285675821826
6656.0,-2.979523196700029e-05
7168.0,0.00017303621280007064
7680.0,-0.0004796600842382759
8192.0,-0.00013852740812581033
9216.0,-0.0001739958388498053
10240.0,0.0001660876296227798
11264.0,-0.0001269145868718624
12288.0,-0.00014750269474461675
13312.0,0.0001306096964981407
14336.0,-0.0005219142185524106
end
