version,3.0
numOfCh,1
type,point
parent_name,400-cuts
ch_type,1_1
kcount,1
numberNandB,1
brightnessNandB,1
carpet pos,0
pc,0
Time (ms),CH1 Auto-Correlation
1.0,0.04629842936992645
2.0,0.042026106268167496
3.0,0.03837665915489197
4.0,0.035166312009096146
5.0,0.03239141032099724
6.0,0.0298976618796587
7.0,0.027847956866025925
8.0,0.025918297469615936
9.0,0.024176543578505516
10.0,0.022587891668081284
11.0,0.021000895649194717
12.0,0.01960304006934166
13.0,0.018283717334270477
14.0,0.016948774456977844
15.0,0.015828782692551613
16.0,0.014711687341332436
18.0,0.013033521361649036
20.0,0.011713122949004173
22.0,0.010596217587590218
24.0,0.009536518715322018
26.0,0.008465099148452282
28.0,0.00760984793305397
30.0,0.00684031005948782
32.0,0.006261663045734167
36.0,0.005009261891245842
40.0,0.004241229500621557
44.0,0.004051233641803265
48.0,0.003509374801069498
52.0,0.0027230563573539257
56.0,0.001592601416632533
60.0,0.00043138692853972316
64.0,-2.251350633741822e-05
72.0,-3.2798678148537874e-05
80.0,0.0008046855800785124
88.0,0.0012639492051675916
96.0,0.002091133501380682
104.0,0.0019817885477095842
112.0,0.0010132330935448408
120.0,0.00111096550244838
128.0,0.0014936780789867043
144.0,0.0010322595480829477
160.0,0.00021353161719162017
176.0,0.0001699229032965377
192.0,0.0007960834191180766
208.0,0.0017510937759652734
224.0,0.0004567751020658761
240.0,-0.0007303972379304469
256.0,-0.0008130993228405714
288.0,-0.0009807111928239465
320.0,-0.0009303888655267656
352.0,-0.0019854996353387833
384.0,-0.003493198426440358
416.0,-0.0019525816896930337
448.0,-0.000535949831828475
480.0,0.00017563723667990416
512.0,-0.00047406827798113227
576.0,3.2476833439432085e-05
640.0,0.001317724003456533
704.0,-0.0006358404643833637
768.0,0.00043842222657985985
832.0,0.00026904387050308287
896.0,-0.0010359520092606544
960.0,0.001699922257103026
1024.0,0.0006408988847397268
1152.0,-0.00106899777892977
1280.0,-0.0017994244117289782
1408.0,-0.0004030221316497773
1536.0,0.0015504577895626426
1664.0,0.0013224560534581542
1792.0,0.00012219946074765176
1920.0,0.00027135355048812926
2048.0,1.7111444321926683e-05
2304.0,-0.0006341299158520997
2560.0,0.00038954662159085274
2816.0,0.0006421979051083326
3072.0,-5.23012931807898e-05
3328.0,-0.0011232872493565083
3584.0,-0.0005648986552841961
3840.0,0.0005158223793841898
4096.0,-3.4522756322985515e-05
4608.0,1.4217128409654833e-05
5120.0,2.146071710740216e-05
5632.0,-0.00031140734790824354
6144.0,-0.0006286341813392937
6656.0,0.000824184506200254
7168.0,-0.0002580588043201715
7680.0,0.0005836816853843629
8192.0,8.686305955052376e-05
9216.0,0.0008030711906030774
10240.0,-0.0003828433982562274
11264.0,-0.00010445660882396623
12288.0,-0.00042063239379785955
13312.0,-0.0019255775259807706
14336.0,-0.000603183638304472
end
