version,3.0
numOfCh,1
type,point
parent_name,400-cuts
ch_type,1_1
kcount,1
numberNandB,1
brightnessNandB,1
carpet pos,0
pc,0
Time (ms),CH1 Auto-Correlation
1.0,0.04225386679172516
2.0,0.03821519762277603
3.0,0.034833475947380066
4.0,0.03198498860001564
5.0,0.029567530378699303
6.0,0.02729935571551323
7.0,0.025107799097895622
8.0,0.023197844624519348
9.0,0.02142583578824997
10.0,0.01992364414036274
11.0,0.0186148751527071
12.0,0.017308956012129784
13.0,0.016117921099066734
14.0,0.015109903179109097
15.0,0.014241566881537437
16.0,0.013432426378130913
18.0,0.011919759213924408
20.0,0.010531125590205193
22.0,0.009289060719311237
24.0,0.008393894881010056
26.0,0.00785863772034645
28.0,0.007154006510972977
30.0,0.006243125535547733
32.0,0.0053740330040454865
36.0,0.003756440943107009
40.0,0.002646542154252529
44.0,0.001646142452955246
48.0,0.0008418407524004579
52.0,0.0005368632264435291
56.0,0.0008658556616865098
60.0,0.0008861403330229223
64.0,0.0011631525121629238
72.0,0.0015729478327557445
80.0,0.0019313822267577052
88.0,0.0025368183851242065
96.0,0.002102220430970192
104.0,0.0026404394302517176
112.0,0.002577903913334012
120.0,0.0019347370835021138
128.0,0.0015695880865678191
144.0,0.0010354401310905814
160.0,8.610558870714158e-05
176.0,0.0006613023579120636
192.0,0.00109720672480762
208.0,0.0018569750245660543
224.0,8.740775228943676e-06
240.0,0.00027618801686912775
256.0,0.0006337505765259266
288.0,0.0006732745096087456
320.0,0.0005438818479888141
352.0,-0.0014961225679144263
384.0,-0.0011009069858118892
416.0,-0.0009407534962520003
448.0,-0.0020863597746938467
480.0,-0.00098989752586931
512.0,-0.001155689125880599
576.0,-0.0007640399853698909
640.0,-0.0009666414698585868
704.0,-0.0017471974715590477
768.0,-0.0015648551052436233
832.0,-0.0006445640465244651
896.0,-0.0008872034377418458
960.0,0.0010003295028582215
1024.0,-0.0002455140056554228
1152.0,-0.0005521468119695783
1280.0,-8.084898581728339e-05
1408.0,-0.00020044892153237015
1536.0,-0.00025068491231650114
1664.0,-0.0002102245925925672
1792.0,-0.00012484693434089422
1920.0,0.0005367143894545734
2048.0,0.0014193583047017455
2304.0,0.00014353454753290862
2560.0,-0.0013661455595865846
2816.0,-0.0006203019875101745
3072.0,0.0006158420001156628
3328.0,0.0004579254309646785
3584.0,0.0002570634242147207
3840.0,-0.00010125405970029533
4096.0,0.00020197949197608978
4608.0,-7.410909165628254e-05
5120.0,-0.00034457724541425705
5632.0,1.2169160072517116e-05
6144.0,-0.00010448442480992526
6656.0,0.0013437371235340834
7168.0,-0.0007881528581492603
7680.0,0.00011189170618308708
8192.0,1.3361943274503574e-05
9216.0,2.3468786821467802e-05
10240.0,8.175716357072815e-05
11264.0,-0.0006058902363292873
12288.0,0.0006103305495344102
13312.0,0.0007696133689023554
14336.0,-0.0010896731400862336
end
