version,3.0
numOfCh,1
type,point
parent_name,400-cuts
ch_type,1_1
kcount,1
numberNandB,1
brightnessNandB,1
carpet pos,0
pc,0
Time (ms),CH1 Auto-Correlation
1.0,0.028961509466171265
2.0,0.02610209956765175
3.0,0.023646632209420204
4.0,0.021598104387521744
5.0,0.0198562890291214
6.0,0.018329907208681107
7.0,0.016987400129437447
8.0,0.01577405445277691
9.0,0.01468748040497303
10.0,0.013703633099794388
11.0,0.01276878360658884
12.0,0.011886282823979855
13.0,0.011109811253845692
14.0,0.010432099923491478
15.0,0.009736903943121433
16.0,0.009069599211215973
18.0,0.008007807657122612
20.0,0.007146820425987244
22.0,0.006326619535684586
24.0,0.005538856610655785
26.0,0.0047786785289645195
28.0,0.004128503147512674
30.0,0.003632973413914442
32.0,0.003322003874927759
36.0,0.002734474139288068
40.0,0.002234116429463029
44.0,0.0017681462923064828
48.0,0.0011502181878313422
52.0,0.0009086212376132607
56.0,0.0009398108231835067
60.0,0.0010864617070183158
64.0,0.0013175387866795063
72.0,0.0012946896022185683
80.0,0.0013162930263206363
88.0,0.0009592584101483226
96.0,0.0003477998834569007
104.0,0.0003958260640501976
112.0,0.0008444568375125527
120.0,0.000681587727740407
128.0,0.0005757423350587487
144.0,0.001324792392551899
160.0,0.001040506991557777
176.0,0.0015671795699745417
192.0,0.0022198434453457594
208.0,0.0021417096722871065
224.0,0.0009109050733968616
240.0,-0.0005062332493253052
256.0,-0.000923964602407068
288.0,0.0007697435794398189
320.0,-0.000513674458488822
352.0,-0.0002654223353601992
384.0,-0.0006236302433535457
416.0,-0.00048386293929070234
448.0,-0.0010677233804017305
480.0,0.0004587321018334478
512.0,-0.0005645120400004089
576.0,-0.0008894770871847868
640.0,-0.00012890255311504006
704.0,0.0014191819354891777
768.0,-0.00048326447722502053
832.0,0.0014008164871484041
896.0,0.001795757096260786
960.0,0.0005331063293851912
1024.0,0.0010050706332549453
1152.0,0.0003062901378143579
1280.0,0.0002712125424295664
1408.0,0.0006207306869328022
1536.0,-0.00023839363711886108
1664.0,-0.0009762413101270795
1792.0,-0.00038668306660838425
1920.0,0.0005490331095643342
2048.0,0.0010688689071685076
2304.0,0.0005602212622761726
2560.0,-0.0004810231039300561
2816.0,-0.00037755942321382463
3072.0,0.0010936075123026967
3328.0,0.0005666660727001727
3584.0,-0.00016927524120546877
3840.0,-0.00044538360089063644
4096.0,-0.00034919477184303105
4608.0,-5.06105825479608e-05
5120.0,-0.0004879248153883964
5632.0,-0.0003926582867279649
6144.0,-0.00047355826245620847
6656.0,-0.0006241543451324105
7168.0,-0.0002638764271978289
7680.0,-0.0004906774265691638
8192.0,0.0001155698555521667
9216.0,-0.00033149661612696946
10240.0,-0.0004888848052360117
11264.0,-0.00010178631782764569
12288.0,-1.9826613879558863e-06
13312.0,-0.0004491730942390859
14336.0,0.0002474731008987874
end
