version,3.0
numOfCh,1
type,point
parent_name,400-cuts
ch_type,1_1
kcount,1
numberNandB,1
brightnessNandB,1
carpet pos,0
pc,0
Time (ms),CH1 Auto-Correlation
1.0,0.026677114889025688
2.0,0.02381855435669422
3.0,0.021392757073044777
4.0,0.019225141033530235
5.0,0.017403624951839447
6.0,0.015811964869499207
7.0,0.014362642541527748
8.0,0.013140170834958553
9.0,0.012093783356249332
10.0,0.011171876452863216
11.0,0.01035862136632204
12.0,0.00969051942229271
13.0,0.009020769037306309
14.0,0.008415927179157734
15.0,0.007803821004927158
16.0,0.007237341720610857
18.0,0.006296643055975437
20.0,0.005540149286389351
22.0,0.004863965790718794
24.0,0.004456905648112297
26.0,0.004080571234226227
28.0,0.003810547525063157
30.0,0.003543518716469407
32.0,0.0032351408153772354
36.0,0.0026580719277262688
40.0,0.0017296496080234647
44.0,0.0010278960689902306
48.0,0.0005829395377077162
52.0,0.0003765090659726411
56.0,0.0004956214688718319
60.0,0.0005122766015119851
64.0,0.00019409472588449717
72.0,0.0002216418506577611
80.0,0.00044038830674253404
88.0,0.0009132343111559749
96.0,0.001114779501222074
104.0,0.0008313666912727058
112.0,0.0006272202590480447
120.0,0.0004011492128483951
128.0,-0.0002428411680739373
144.0,-0.0006455128896050155
160.0,-0.0007275285315699875
176.0,8.402831736020744e-05
192.0,-0.0006703651743009686
208.0,-0.0007903336663730443
224.0,-0.0008038809173740447
240.0,-0.0012124745408073068
256.0,-0.0006524772616103292
288.0,-0.00036194827407598495
320.0,-0.0007574994815513492
352.0,0.00028176826890558004
384.0,0.0009019211283884943
416.0,0.00028706094599328935
448.0,-0.0008013668702915311
480.0,-0.0005200475570745766
512.0,-0.00039845218998380005
576.0,-0.0005683070630766451
640.0,-0.0002648394147399813
704.0,0.00017160849529318511
768.0,8.290103141916916e-05
832.0,0.00014421726518776268
896.0,0.00027799548115581274
960.0,0.0004886479000560939
1024.0,5.5364293984894175e-06
1152.0,0.0003614432062022388
1280.0,-0.00045445177238434553
1408.0,-0.00015855523815844208
1536.0,0.0006528920494019985
1664.0,-0.0002468604361638427
1792.0,-4.957415512762964e-06
1920.0,0.0012418057303875685
2048.0,0.00018139751045964658
2304.0,-0.0006658711354248226
2560.0,5.348962440621108e-05
2816.0,0.0003402475267648697
3072.0,-0.00023990499903447926
3328.0,-0.0004129341687075794
3584.0,-0.000627006171271205
3840.0,0.0005029567983001471
4096.0,-0.000544116657692939
4608.0,-0.00018765752611216158
5120.0,-0.0006955867866054177
5632.0,0.000250789598794654
6144.0,-0.00022268109023571014
6656.0,6.718061922583729e-05
7168.0,0.0001569347659824416
7680.0,0.00019413676636759192
8192.0,0.00046101180487312376
9216.0,9.772208431968465e-05
10240.0,-0.00010189223394263536
11264.0,-5.275147486827336e-06
12288.0,-0.0001282163430005312
13312.0,-0.0003639512287918478
14336.0,-9.475428669247776e-06
end
