version,3.0
numOfCh,1
type,point
parent_name,400-cuts
ch_type,1_1
kcount,1
numberNandB,1
brightnessNandB,1
carpet pos,0
pc,0
Time (ms),CH1 Auto-Correlation
1.0,0.09223005175590515
2.0,0.0833098515868187
3.0,0.0755455493927002
4.0,0.06852932274341583
5.0,0.06251881271600723
6.0,0.05747847631573677
7.0,0.053306613117456436
8.0,0.04980283975601196
9.0,0.04671047627925873
10.0,0.04384642466902733
11.0,0.04138738289475441
12.0,0.039343271404504776
13.0,0.037540215998888016
14.0,0.03590509667992592
15.0,0.034384824335575104
16.0,0.03292207047343254
18.0,0.02991199493408203
20.0,0.027398735284805298
22.0,0.025597557425498962
24.0,0.02448621578514576
26.0,0.023004688322544098
28.0,0.021038776263594627
30.0,0.0187933761626482
32.0,0.016465382650494576
36.0,0.012393910437822342
40.0,0.010893002152442932
44.0,0.009938514791429043
48.0,0.00825338251888752
52.0,0.007228539790958166
56.0,0.007087303325533867
60.0,0.006513823289424181
64.0,0.006586493458598852
72.0,0.004513133782893419
80.0,0.003489780705422163
88.0,0.003427271032705903
96.0,0.003759523620828986
104.0,0.002615345409139991
112.0,0.0027139184530824423
120.0,0.0020942508708685637
128.0,0.0010350613156333566
144.0,-0.0014310877304524183
160.0,-0.0020885500125586987
176.0,0.00034631602466106415
192.0,0.0023563264403492212
208.0,0.0005457173101603985
224.0,-0.0015597478486597538
240.0,-0.0016568709397688508
256.0,-0.0019155355403199792
288.0,-0.0021941172890365124
320.0,-0.0028254033531993628
352.0,-0.0028596511110663414
384.0,-0.0011859341757372022
416.0,-0.003102383576333523
448.0,-0.004690063651651144
480.0,0.0008732042042538524
512.0,0.0026319583412259817
576.0,-0.0025637326762080193
640.0,0.00048396660713478923
704.0,0.0011273884447291493
768.0,0.0016640707617625594
832.0,-0.0009608640102669597
896.0,-0.0023003360256552696
960.0,-0.006532861385494471
1024.0,-0.0015123483026400208
1152.0,0.0006351211341097951
1280.0,-0.000632153358310461
1408.0,-0.0015859527047723532
1536.0,-0.002095575677230954
1664.0,-8.346439426532015e-05
1792.0,0.000763686082791537
1920.0,0.0037067027296870947
2048.0,0.0016698406543582678
2304.0,-0.0018159403698518872
2560.0,-0.0006407206528820097
2816.0,0.0006727469153702259
3072.0,0.0018329289741814137
3328.0,-0.0011840092483907938
3584.0,-0.0003775105287786573
3840.0,-0.0014949553878977895
4096.0,-0.0017290277173742652
4608.0,-0.00034254774800501764
5120.0,0.0020942105911672115
5632.0,-0.00036577339051291347
6144.0,-0.0003921285388059914
6656.0,0.0001590198080521077
7168.0,-0.0003735221107490361
7680.0,-0.00027576039428822696
8192.0,0.0002042273699771613
9216.0,0.0011981917778030038
10240.0,-0.0023703945335000753
11264.0,0.0019503491930663586
12288.0,-0.0012197215110063553
13312.0,0.00020890765881631523
14336.0,-5.803195381304249e-05
end
