version,3.0
numOfCh,1
type,point
parent_name,400-cuts
ch_type,1_1
kcount,1
numberNandB,1
brightnessNandB,1
carpet pos,0
pc,0
Time (ms),CH1 Auto-Correlation
1.0,0.027816379442811012
2.0,0.025133321061730385
3.0,0.022786786779761314
4.0,0.02068762108683586
5.0,0.018959609791636467
6.0,0.017503974959254265
7.0,0.016270238906145096
8.0,0.01514444313943386
9.0,0.014077660627663136
10.0,0.013110644184052944
11.0,0.012159215286374092
12.0,0.011258709244430065
13.0,0.010535119101405144
14.0,0.009904022328555584
15.0,0.009312518872320652
16.0,0.008853957988321781
18.0,0.007932551205158234
20.0,0.006925283931195736
22.0,0.00606241449713707
24.0,0.005334171000868082
26.0,0.004559070337563753
28.0,0.003783063031733036
30.0,0.003063860349357128
32.0,0.0025282413698732853
36.0,0.0017733573913574219
40.0,0.0012871139915660024
44.0,0.0009103974443860352
48.0,0.00033008516766130924
52.0,-0.0001143918780144304
56.0,-0.000426235405029729
60.0,-0.0005577399278990924
64.0,-0.000825559429358691
72.0,-0.0013023472856730223
80.0,-0.0012950923992320895
88.0,-0.0013510779244825244
96.0,-0.0013481962960213423
104.0,-0.0008195780101232231
112.0,-0.0008799749775789678
120.0,-0.0009546239743940532
128.0,-0.0008431556052528322
144.0,-0.0007063521770760417
160.0,-0.0003313850611448288
176.0,-0.0008600319852121174
192.0,-0.0009001409052871168
208.0,-0.0002686595544219017
224.0,-0.0001786155189620331
240.0,-0.0006519421585835516
256.0,-0.0005330152343958616
288.0,0.000313198019284755
320.0,0.0003616379399318248
352.0,-0.000765644246712327
384.0,5.750864511355758e-05
416.0,0.00060699024470523
448.0,0.000640382117126137
480.0,0.0006873059319332242
512.0,-0.0001031606225296855
576.0,0.00011745021038223058
640.0,0.00042127209599129856
704.0,0.0008234047563746572
768.0,0.00032996622030623257
832.0,0.0010630741016939282
896.0,-0.000283981382381171
960.0,-0.0006513440748676658
1024.0,0.0005130473873578012
1152.0,7.557854405604303e-05
1280.0,0.0002786823606584221
1408.0,0.00019907856767531484
1536.0,-0.00016376862186007202
1664.0,-7.7761709690094e-05
1792.0,0.0007777601131238043
1920.0,-0.00018524928600527346
2048.0,-0.00040590332355350256
2304.0,-0.0001585654536029324
2560.0,0.0005831879680044949
2816.0,-2.220362875959836e-05
3072.0,3.711092722369358e-05
3328.0,0.0007689211633987725
3584.0,-0.00026562463608570397
3840.0,0.0004454911104403436
4096.0,-0.0003042806638404727
4608.0,-0.0001581225369591266
5120.0,-1.734071884129662e-05
5632.0,-0.00038745158235542476
6144.0,-0.00025617811479605734
6656.0,-0.00013190985191613436
7168.0,-1.6346490156138316e-05
7680.0,-0.00015385739970952272
8192.0,-0.0004340710584074259
9216.0,-0.0004112158203497529
10240.0,0.0003574597940314561
11264.0,-0.000377697084331885
12288.0,6.855570973129943e-05
13312.0,0.00035915212356485426
14336.0,-0.000474239670438692
end
