version,3.0
numOfCh,1
type,point
parent_name,400-cuts
ch_type,1_1
kcount,1
numberNandB,1
brightnessNandB,1
carpet pos,0
pc,0
Time (ms),CH1 Auto-Correlation
1.0,0.039939895272254944
2.0,0.035964615643024445
3.0,0.03268719092011452
4.0,0.02979642152786255
5.0,0.027381692081689835
6.0,0.025330565869808197
7.0,0.023401902988553047
8.0,0.021633753553032875
9.0,0.020082086324691772
10.0,0.01868733949959278
11.0,0.017470184713602066
12.0,0.01628570817410946
13.0,0.015170830301940441
14.0,0.014228812418878078
15.0,0.013402794487774372
16.0,0.012668711133301258
18.0,0.011501624248921871
20.0,0.010397233068943024
22.0,0.009553552605211735
24.0,0.0087911831215024
26.0,0.008001773618161678
28.0,0.007189472205936909
30.0,0.006493507884442806
32.0,0.005827007815241814
36.0,0.004960821010172367
40.0,0.004250664729624987
44.0,0.0035316599532961845
48.0,0.002673034556210041
52.0,0.001868204097263515
56.0,0.0008678148151375353
60.0,0.00022021488985046744
64.0,-0.000103139434941113
72.0,-0.0004612138436641544
80.0,-0.000826617528218776
88.0,-0.0009846837492659688
96.0,-0.0007171194883994758
104.0,-7.693524821661413e-05
112.0,0.0005537165561690927
120.0,0.0005053601344116032
128.0,0.0005100301932543516
144.0,0.0013903622748330235
160.0,0.0027364378329366446
176.0,0.000880504259839654
192.0,1.7572150682099164e-05
208.0,-0.00022105127573013306
224.0,-5.3158251830609515e-05
240.0,-0.00033789430744946003
256.0,-0.001071518287062645
288.0,-0.0013160966336727142
320.0,0.0009986741933971643
352.0,0.0009685136610642076
384.0,-0.0008192956447601318
416.0,-0.0028600601945072412
448.0,-0.0012665430549532175
480.0,-0.0006553593557327986
512.0,-0.001507635461166501
576.0,-0.000302124914014712
640.0,-0.0002953053917735815
704.0,0.001445398316718638
768.0,-0.001590677653439343
832.0,-0.0012049510842189193
896.0,-0.00020355082233436406
960.0,0.00018083142640534788
1024.0,0.0006001555593684316
1152.0,0.00020244582265149802
1280.0,0.0002963741135317832
1408.0,-0.0010426230728626251
1536.0,-0.0013904161751270294
1664.0,-0.001414984348230064
1792.0,-0.00016973487799987197
1920.0,0.00027331942692399025
2048.0,-0.00027626389055512846
2304.0,0.0004147092695347965
2560.0,0.0002154910034732893
2816.0,-0.0006644377717748284
3072.0,0.00029828681726939976
3328.0,0.0008034282946027815
3584.0,7.20823445590213e-05
3840.0,0.00030873072682879865
4096.0,-0.0007531406008638442
4608.0,0.0006204670062288642
5120.0,-0.0010357907740399241
5632.0,0.0005828714347444475
6144.0,-0.0009657208574935794
6656.0,0.0012788663152605295
7168.0,0.0009614416630938649
7680.0,-0.0012862810399383307
8192.0,0.00016554640023969114
9216.0,0.0001252243237104267
10240.0,0.00015717327187303454
11264.0,-0.0002531261707190424
12288.0,3.7272096960805357e-05
13312.0,-0.00034370474168099463
14336.0,0.0007605815771967173
end
