version,3.0
numOfCh,1
type,point
parent_name,400-cuts
ch_type,1_1
kcount,1
numberNandB,1
brightnessNandB,1
carpet pos,0
pc,0
Time (ms),CH1 Auto-Correlation
1.0,0.028072115033864975
2.0,0.025264130905270576
3.0,0.022876352071762085
4.0,0.020840860903263092
5.0,0.01908363774418831
6.0,0.017539488151669502
7.0,0.0162130706012249
8.0,0.015004070475697517
9.0,0.013928192667663097
10.0,0.01297803781926632
11.0,0.012088880874216557
12.0,0.011239927262067795
13.0,0.010478892363607883
14.0,0.00972503237426281
15.0,0.009052032604813576
16.0,0.008452950045466423
18.0,0.0073128798976540565
20.0,0.00641274731606245
22.0,0.005792644806206226
24.0,0.00532131502404809
26.0,0.004830494057387114
28.0,0.004263319540768862
30.0,0.004115158226341009
32.0,0.003996306098997593
36.0,0.0035030881408602
40.0,0.0029104650020599365
44.0,0.0022707220632582903
48.0,0.0015164854703471065
52.0,0.0007576908101327717
56.0,-3.1811209737497848e-06
60.0,-0.00039808385190553963
64.0,-0.0006826314493082464
72.0,-0.0010680947452783585
80.0,-0.0010654221987351775
88.0,-0.0008103378931991756
96.0,-0.0002556636754889041
104.0,-1.2812372915504966e-05
112.0,-0.00018497335258871317
120.0,-0.0003193347074557096
128.0,-0.0005966927274130285
144.0,-0.00037239931407384574
160.0,-0.00026590065681375563
176.0,-0.0007342635071836412
192.0,0.0002860463864635676
208.0,0.0003063105687033385
224.0,-8.181150406016968e-06
240.0,0.00014230702072381973
256.0,-3.260459197917953e-05
288.0,-0.0005179875297471881
320.0,0.0003125012735836208
352.0,8.288980461657047e-05
384.0,-0.00019955277093686163
416.0,9.631766442907974e-05
448.0,-0.00042365308036096394
480.0,-0.0009883604943752289
512.0,-0.000792221340816468
576.0,0.0003569461405277252
640.0,0.00041612019413150847
704.0,-0.0010900107445195317
768.0,-0.0006984180072322488
832.0,-0.0008979328558780253
896.0,-0.000644391926471144
960.0,-6.690659211017191e-05
1024.0,-0.0008513314533047378
1152.0,-9.663849050411955e-05
1280.0,0.00040761553100310266
1408.0,-0.0008995421812869608
1536.0,0.000784164818469435
1664.0,-0.00012025429168716073
1792.0,0.0005361298681236804
1920.0,-0.00044748885557055473
2048.0,4.2947787733282894e-05
2304.0,-5.957335088169202e-05
2560.0,-7.293287490028888e-05
2816.0,-0.0003585642552934587
3072.0,0.00016587779100518674
3328.0,1.3016260709264316e-05
3584.0,-0.0003410769859328866
3840.0,0.0002222948824055493
4096.0,9.922680328600109e-05
4608.0,-0.0006676501361653209
5120.0,6.580239278264344e-05
5632.0,0.00034766411408782005
6144.0,-9.168378710455727e-06
6656.0,-0.00014233874389901757
7168.0,0.00010208230378339067
7680.0,0.0004610426549334079
8192.0,-0.0001667127653490752
9216.0,-0.0003732129989657551
10240.0,0.00014899518282618374
11264.0,1.384031475026859e-05
12288.0,-0.000267901603365317
13312.0,0.0003221529768779874
14336.0,-0.0001570965541759506
end
