version,3.0
numOfCh,1
type,point
parent_name,400-cuts
ch_type,1_1
kcount,1
numberNandB,1
brightnessNandB,1
carpet pos,0
pc,0
Time (ms),CH1 Auto-Correlation
1.0,0.0892324224114418
2.0,0.08080701529979706
3.0,0.07329308241605759
4.0,0.06700267642736435
5.0,0.061480384320020676
6.0,0.05654619261622429
7.0,0.052063509821891785
8.0,0.048203080892562866
9.0,0.044851481914520264
10.0,0.041675105690956116
11.0,0.03889734297990799
12.0,0.03645240515470505
13.0,0.03411218896508217
14.0,0.032172396779060364
15.0,0.030364278703927994
16.0,0.028738917782902718
18.0,0.026057874783873558
20.0,0.02389897219836712
22.0,0.02203121967613697
24.0,0.020496536046266556
26.0,0.018829112872481346
28.0,0.016535494476556778
30.0,0.01465396024286747
32.0,0.01339414156973362
36.0,0.01097902748733759
40.0,0.009637750685214996
44.0,0.009040682576596737
48.0,0.008138136006891727
52.0,0.007694269064813852
56.0,0.006881305016577244
60.0,0.005387440323829651
64.0,0.004549582488834858
72.0,0.0024074786342680454
80.0,0.002573134610429406
88.0,0.002788693644106388
96.0,0.0016946680843830109
104.0,0.0012245086254552007
112.0,0.0005878079682588577
120.0,0.00028157702763564885
128.0,0.0005848805303685367
144.0,0.0015541817992925644
160.0,-0.001098950975574553
176.0,-0.004756672773510218
192.0,-0.004107732325792313
208.0,-0.004088263958692551
224.0,-0.004645944572985172
240.0,-0.005034983158111572
256.0,-0.004858276341110468
288.0,-0.004041200969368219
320.0,-0.0023439794313162565
352.0,-0.0004721421282738447
384.0,-0.0007656916859559715
416.0,-0.0034168760757893324
448.0,-0.0002226891228929162
480.0,0.0010969254653900862
512.0,0.0018502306193113327
576.0,0.0012496061390265822
640.0,0.0003169862902723253
704.0,-0.001025691395625472
768.0,-0.001226050779223442
832.0,-0.001064435113221407
896.0,4.557864031085046e-06
960.0,0.0018496980192139745
1024.0,0.0014011760940775275
1152.0,-0.0009560092003084719
1280.0,0.00043266909779049456
1408.0,-0.001415278878994286
1536.0,-0.0003976469160988927
1664.0,-0.0010950155556201935
1792.0,0.0013454316649585962
1920.0,0.00043073148117400706
2048.0,-0.0014719270402565598
2304.0,-0.0006679769139736891
2560.0,-0.0011740694753825665
2816.0,0.00040052857366390526
3072.0,0.0011301754275336862
3328.0,0.0004472675791475922
3584.0,-0.00015534144768025726
3840.0,0.001592653919942677
4096.0,-0.0003069551312364638
4608.0,0.001527481828816235
5120.0,-0.0015852221986278892
5632.0,-0.0010380861349403858
6144.0,-0.0006800207775086164
6656.0,-6.655778997810557e-05
7168.0,0.0004784258489962667
7680.0,0.0010533869499340653
8192.0,-6.433713133446872e-05
9216.0,-0.0006808400503359735
10240.0,-0.001038354355841875
11264.0,-4.1515304474160075e-05
12288.0,0.0005271416157484055
13312.0,-0.0001551327295601368
14336.0,-0.0012423042207956314
end
