version,3.0
numOfCh,1
type,point
parent_name,400-cuts
ch_type,1_1
kcount,1
numberNandB,1
brightnessNandB,1
carpet pos,0
pc,0
Time (ms),CH1 Auto-Correlation
1.0,0.08665363490581512
2.0,0.07798365503549576
3.0,0.07048613578081131
4.0,0.06410548090934753
5.0,0.05856575816869736
6.0,0.05382145568728447
7.0,0.04959150403738022
8.0,0.04581356421113014
9.0,0.042825937271118164
10.0,0.04008853808045387
11.0,0.03747177496552467
12.0,0.0350315235555172
13.0,0.032695066183805466
14.0,0.030659377574920654
15.0,0.028611494228243828
16.0,0.026715459302067757
18.0,0.023403454571962357
20.0,0.020789453759789467
22.0,0.01892564445734024
24.0,0.017311865463852882
26.0,0.01544342190027237
28.0,0.013839676976203918
30.0,0.012904195114970207
32.0,0.012316759675741196
36.0,0.010470573790371418
40.0,0.00887201726436615
44.0,0.006452468689531088
48.0,0.004122253507375717
52.0,0.002339584520086646
56.0,0.0009089165250770748
60.0,-0.0003254113544244319
64.0,-0.0011825879337266088
72.0,-0.0009551912662573159
80.0,-8.399655780522153e-05
88.0,0.001733788289129734
96.0,0.0019967781845480204
104.0,0.0023467845749109983
112.0,0.0017215835396200418
120.0,0.0017812667647376657
128.0,0.0005409562145359814
144.0,-0.0019119573989883065
160.0,-0.0032435026951134205
176.0,0.000637283839751035
192.0,0.001283977529965341
208.0,-0.0026607795152813196
224.0,-0.003392190672457218
240.0,-0.004087247420102358
256.0,-0.0032821190543472767
288.0,0.001719341496936977
320.0,-0.00036401901161298156
352.0,-0.0019587092101573944
384.0,-0.0006733619375154376
416.0,-0.000712188018951565
448.0,0.0019089056877419353
480.0,0.0021099396981298923
512.0,-0.0035457296762615442
576.0,4.254260420566425e-05
640.0,-0.00043973056017421186
704.0,-0.000137631461257115
768.0,-0.0008138613193295896
832.0,0.00016582188254687935
896.0,0.003751573385670781
960.0,-0.001183558371849358
1024.0,0.0017614742973819375
1152.0,0.0012886488111689687
1280.0,-0.00038176379166543484
1408.0,-0.002172986278310418
1536.0,-0.0008255792781710625
1664.0,-0.00234771310351789
1792.0,0.001183766289614141
1920.0,0.003551783971488476
2048.0,-0.0008891022298485041
2304.0,-0.0013768576318398118
2560.0,0.0013199765235185623
2816.0,0.0012429117923602462
3072.0,-0.0001426000817446038
3328.0,0.00030705679091624916
3584.0,0.0004395396390464157
3840.0,-0.0019160819938406348
4096.0,0.001329625491052866
4608.0,0.0007124964031390846
5120.0,4.739848736790009e-05
5632.0,0.0005746815586462617
6144.0,-0.0017154411179944873
6656.0,-0.0014126498717814684
7168.0,-5.579665958066471e-05
7680.0,-0.0007745286566205323
8192.0,0.00235115853138268
9216.0,-0.00174271734431386
10240.0,-0.0014907300937920809
11264.0,0.0002078973629977554
12288.0,1.4857868336548563e-05
13312.0,0.0012704703258350492
14336.0,0.00030673755099996924
end
