version,3.0
numOfCh,1
type,point
parent_name,400-cuts
ch_type,1_1
kcount,1
numberNandB,1
brightnessNandB,1
carpet pos,0
pc,0
Time (ms),CH1 Auto-Correlation
1.0,0.08649709075689316
2.0,0.07800006866455078
3.0,0.0707922875881195
4.0,0.06458882987499237
5.0,0.059104230254888535
6.0,0.05430449917912483
7.0,0.05027109384536743
8.0,0.04666602984070778
9.0,0.04350626468658447
10.0,0.0405481681227684
11.0,0.037856318056583405
12.0,0.03537460416555405
13.0,0.03322170302271843
14.0,0.03147795423865318
15.0,0.0296414103358984
16.0,0.027851376682519913
18.0,0.024560168385505676
20.0,0.021833084523677826
22.0,0.01977265067398548
24.0,0.01836671307682991
26.0,0.01701447367668152
28.0,0.015998683869838715
30.0,0.015103810466825962
32.0,0.014041049405932426
36.0,0.012294691987335682
40.0,0.010660015977919102
44.0,0.008961602114140987
48.0,0.007811237126588821
52.0,0.007420071400702
56.0,0.007657558191567659
60.0,0.007381156552582979
64.0,0.006687709130346775
72.0,0.00511558260768652
80.0,0.0021901519503444433
88.0,-1.6459989637951367e-06
96.0,-0.000950303568970412
104.0,-0.0010020830668509007
112.0,-0.0018687114352360368
120.0,-0.0032676609698683023
128.0,-0.005364540033042431
144.0,-0.007547460962086916
160.0,-0.006609474774450064
176.0,-0.008608355186879635
192.0,-0.006553845014423132
208.0,-0.0032708579674363136
224.0,-0.0012053498066961765
240.0,0.00164429668802768
256.0,0.0032583782449364662
288.0,0.0022039383184164762
320.0,0.0020283644553273916
352.0,0.0028781902510672808
384.0,0.0004684216983150691
416.0,-0.0002295091690029949
448.0,-0.0016434000572189689
480.0,-0.002013592282310128
512.0,-0.001545262522995472
576.0,0.0008120073471218348
640.0,0.003800623817369342
704.0,0.00028380827279761434
768.0,-0.0033041660208255053
832.0,-0.00386792398057878
896.0,-0.0011922825360670686
960.0,0.00034953528665937483
1024.0,0.0025903566274791956
1152.0,-0.00023170438362285495
1280.0,-0.001599590410478413
1408.0,-0.0013817603467032313
1536.0,0.0014218174619600177
1664.0,0.0016432282282039523
1792.0,0.0008127856417559087
1920.0,1.107181014958769e-05
2048.0,0.001151754055172205
2304.0,0.0002353927557123825
2560.0,2.2767501377529697e-06
2816.0,2.219592352048494e-05
3072.0,-0.0006302010151557624
3328.0,4.422954225447029e-05
3584.0,0.0002202341565862298
3840.0,0.00157971924636513
4096.0,-0.0004986003623344004
4608.0,-0.0004581861721817404
5120.0,-0.001161255408078432
5632.0,-0.0003801835118792951
6144.0,-0.0007854103459976614
6656.0,0.0006029572105035186
7168.0,-0.001370538491755724
7680.0,-0.00013911852147430182
8192.0,-0.0013212255435064435
9216.0,0.000597889709752053
10240.0,-0.0010686364257708192
11264.0,0.000858916959259659
12288.0,-0.001780513091944158
13312.0,0.0016770308138802648
14336.0,0.0004142213147133589
end
