version,3.0
numOfCh,1
type,point
parent_name,400-cuts
ch_type,1_1
kcount,1
numberNandB,1
brightnessNandB,1
carpet pos,0
pc,0
Time (ms),CH1 Auto-Correlation
1.0,0.08067928999662399
2.0,0.07220418006181717
3.0,0.06474967300891876
4.0,0.058390211313962936
5.0,0.05305686965584755
6.0,0.04808693006634712
7.0,0.04390069097280502
8.0,0.040113095194101334
9.0,0.0368892140686512
10.0,0.03383490443229675
11.0,0.031098075211048126
12.0,0.02868601679801941
13.0,0.02673216536641121
14.0,0.02509479597210884
15.0,0.023450935259461403
16.0,0.021969323977828026
18.0,0.01929161138832569
20.0,0.016705337911844254
22.0,0.014610341750085354
24.0,0.012844872660934925
26.0,0.011350887827575207
28.0,0.010178758762776852
30.0,0.00946509838104248
32.0,0.008508764207363129
36.0,0.00782349519431591
40.0,0.007415172643959522
44.0,0.0066438703797757626
48.0,0.005698645953088999
52.0,0.004867587238550186
56.0,0.004827073775231838
60.0,0.005059440154582262
64.0,0.005626192316412926
72.0,0.005032248329371214
80.0,0.0038917390629649162
88.0,0.0020664511248469353
96.0,0.0012104075867682695
104.0,0.0018250300781801343
112.0,0.0009517917060293257
120.0,-0.0009503032197244465
128.0,-0.002703359816223383
144.0,-0.0032237546984106302
160.0,-0.0017423784593120217
176.0,-0.0006353185162879527
192.0,-0.0005978554836474359
208.0,-0.003624390112236142
224.0,-0.0034991158172488213
240.0,-0.0022303853183984756
256.0,-0.0031966741662472486
288.0,-0.001463081338442862
320.0,-0.0012087759096175432
352.0,-0.0025746787432581186
384.0,0.00012846158642787486
416.0,0.0004994348273612559
448.0,0.0005920799449086189
480.0,0.002465961966663599
512.0,0.0028080788906663656
576.0,-0.000489231082610786
640.0,-0.00020568764011841267
704.0,-0.002300493186339736
768.0,-0.0045310985296964645
832.0,-0.0032822038047015667
896.0,0.001603692420758307
960.0,0.0008520469418726861
1024.0,-0.0001389983663102612
1152.0,0.0001156914368038997
1280.0,0.0008537922403775156
1408.0,-1.670147685217671e-05
1536.0,0.0019626382272690535
1664.0,6.755127105861902e-05
1792.0,-0.0005092942737974226
1920.0,-3.4575630706967786e-05
2048.0,0.0005588754429481924
2304.0,0.00033226681989617646
2560.0,-0.0015600272454321384
2816.0,0.0012706085108220577
3072.0,0.00043065252248197794
3328.0,-0.001782199484296143
3584.0,-0.00010373854456702247
3840.0,0.00036679705954156816
4096.0,-0.00037616255576722324
4608.0,0.0006452480447478592
5120.0,-0.00033852580236271024
5632.0,-0.00033683329820632935
6144.0,0.0003861471195705235
6656.0,-0.0007187076262198389
7168.0,0.0002481021801941097
7680.0,-0.0007297139964066446
8192.0,-0.0007861278718337417
9216.0,-0.0009885681793093681
10240.0,0.00017105010920204222
11264.0,-0.00030476905521936715
12288.0,3.3903459552675486e-05
13312.0,-1.5753612387925386e-05
14336.0,-0.00022777539561502635
end
