version,3.0
numOfCh,1
type,point
parent_name,400-cuts
ch_type,1_1
kcount,1
numberNandB,1
brightnessNandB,1
carpet pos,0
pc,0
Time (ms),CH1 Auto-Correlation
1.0,0.08083132654428482
2.0,0.07238036394119263
3.0,0.0652933120727539
4.0,0.05906440317630768
5.0,0.053584203124046326
6.0,0.04868658259510994
7.0,0.04423344135284424
8.0,0.0404779426753521
9.0,0.037240300327539444
10.0,0.03433653712272644
11.0,0.03172747790813446
12.0,0.02951671928167343
13.0,0.02747800201177597
14.0,0.02551596611738205
15.0,0.02380274422466755
16.0,0.022103959694504738
18.0,0.019383445382118225
20.0,0.017115425318479538
22.0,0.015423160046339035
24.0,0.013509859330952168
26.0,0.011984308250248432
28.0,0.010672010481357574
30.0,0.009831241331994534
32.0,0.00920084584504366
36.0,0.008066435344517231
40.0,0.007856033742427826
44.0,0.007288583088666201
48.0,0.006043347995728254
52.0,0.0050775217823684216
56.0,0.0034307902678847313
60.0,0.0022350323852151632
64.0,0.002128803636878729
72.0,0.001830966561101377
80.0,0.0016780283767729998
88.0,0.0005094404914416373
96.0,6.601688801310956e-05
104.0,0.00012741482350975275
112.0,-0.0008749538683332503
120.0,-0.0011294949799776077
128.0,-0.001936721266247332
144.0,-0.003501689760014415
160.0,-0.002430490218102932
176.0,-0.0047952281311154366
192.0,-0.004398707300424576
208.0,-0.003764751832932234
224.0,-0.002770572667941451
240.0,0.0009778584353625774
256.0,0.0007214272045530379
288.0,0.002137318253517151
320.0,0.004296228289604187
352.0,0.0032699047587811947
384.0,0.0014085602015256882
416.0,-0.0005917169619351625
448.0,0.0009829240152612329
480.0,-0.0019621727988123894
512.0,-0.001265132799744606
576.0,0.0006872678059153259
640.0,-0.0006661606021225452
704.0,0.00025789663777686656
768.0,5.348012564354576e-05
832.0,8.332876313943416e-05
896.0,-0.0003387184697203338
960.0,0.0020334450528025627
1024.0,0.0008530386839993298
1152.0,0.0021595428697764874
1280.0,0.003284154227003455
1408.0,-0.0002578038547653705
1536.0,-0.0007015147712081671
1664.0,-0.0014712336705997586
1792.0,-0.0014695373829454184
1920.0,0.0004902114742435515
2048.0,-0.0009408502955920994
2304.0,0.0009252005838789046
2560.0,0.000676284427754581
2816.0,-0.0007397602312266827
3072.0,-0.0005731022101826966
3328.0,0.0014830618165433407
3584.0,-0.00014898447261657566
3840.0,6.63307000650093e-05
4096.0,-0.0010539332870393991
4608.0,-0.00022566532425116748
5120.0,-0.0008719027391634881
5632.0,-0.0008612825185991824
6144.0,-0.0006051515811122954
6656.0,-0.001880073337815702
7168.0,-0.0002801629598252475
7680.0,-0.0016167006688192487
8192.0,-0.0008098933612927794
9216.0,-0.00012192432041047141
10240.0,0.000818712986074388
11264.0,-0.0007245559245347977
12288.0,0.0002866858267225325
13312.0,0.000894472876098007
14336.0,0.0011853728210553527
end
