version,3.0
numOfCh,1
type,point
parent_name,400-cuts
ch_type,1_1
kcount,1
numberNandB,1
brightnessNandB,1
carpet pos,0
pc,0
Time (ms),CH1 Auto-Correlation
1.0,0.09743890911340714
2.0,0.08847126364707947
3.0,0.08096097409725189
4.0,0.07458050549030304
5.0,0.0690203383564949
6.0,0.0641084536910057
7.0,0.059793535619974136
8.0,0.0560818649828434
9.0,0.052824120968580246
10.0,0.0498696006834507
11.0,0.04689137637615204
12.0,0.044259000569581985
13.0,0.041850343346595764
14.0,0.039701834321022034
15.0,0.037698548287153244
16.0,0.03582213446497917
18.0,0.03278014436364174
20.0,0.03000512346625328
22.0,0.027431214228272438
24.0,0.024962078779935837
26.0,0.022772518917918205
28.0,0.020926116034388542
30.0,0.019575096666812897
32.0,0.018163900822401047
36.0,0.014623858965933323
40.0,0.012372253462672234
44.0,0.0108530567958951
48.0,0.009686296805739403
52.0,0.008211917243897915
56.0,0.007138058543205261
60.0,0.006357796490192413
64.0,0.005342982243746519
72.0,0.004840994253754616
80.0,0.0043401941657066345
88.0,0.0047715879045426846
96.0,0.00524057075381279
104.0,0.006285172887146473
112.0,0.0073167369700968266
120.0,0.007265047635883093
128.0,0.004616717807948589
144.0,0.0030280419159680605
160.0,0.0020211085211485624
176.0,0.004153608810156584
192.0,0.0031489382963627577
208.0,0.0028963349759578705
224.0,-0.00015704298857599497
240.0,0.00026165679446421564
256.0,0.0013520471984520555
288.0,-0.00025177557836286724
320.0,-0.0017401385121047497
352.0,-0.0012780913384631276
384.0,-0.0025991296861320734
416.0,-0.0010062867077067494
448.0,-0.002600789535790682
480.0,-0.0017748713726177812
512.0,0.001035599154420197
576.0,-0.004717444535344839
640.0,0.0010507798288017511
704.0,0.0022455500438809395
768.0,-0.0008951368508860469
832.0,0.0005786656984128058
896.0,0.0010483099613338709
960.0,0.0028908823151141405
1024.0,0.0015299336519092321
1152.0,-0.0016842428594827652
1280.0,-0.004312643315643072
1408.0,-0.006250912323594093
1536.0,-0.0056082806549966335
1664.0,0.0014423374086618423
1792.0,0.0017565474845468998
1920.0,-0.000531091820448637
2048.0,0.0001729333307594061
2304.0,0.002300068736076355
2560.0,-0.0009254228207282722
2816.0,0.0012296184431761503
3072.0,-0.001157670165412128
3328.0,-0.000569848227314651
3584.0,-0.002513587474822998
3840.0,-0.0015271049924194813
4096.0,-0.0014672422548756003
4608.0,0.0012341002002358437
5120.0,-9.575456715538166e-06
5632.0,0.002397102303802967
6144.0,-0.0009290490415878594
6656.0,-0.0007913390873000026
7168.0,-0.0011054959613829851
7680.0,0.00010999593359883875
8192.0,0.0016167802968993783
9216.0,-0.0018115838756784797
10240.0,-0.0005248460220173001
11264.0,0.0002631050010677427
12288.0,0.0010867712553590536
13312.0,0.0012324628187343478
14336.0,-0.0003951506223529577
end
