version,3.0
numOfCh,1
type,point
parent_name,400-cuts
ch_type,1_1
kcount,1
numberNandB,1
brightnessNandB,1
carpet pos,0
pc,0
Time (ms),CH1 Auto-Correlation
1.0,0.041316524147987366
2.0,0.037298791110515594
3.0,0.03402493894100189
4.0,0.031175293028354645
5.0,0.028679415583610535
6.0,0.026384582743048668
7.0,0.024325497448444366
8.0,0.02258252538740635
9.0,0.021099403500556946
10.0,0.019618753343820572
11.0,0.018364539369940758
12.0,0.017253993079066277
13.0,0.016217978671193123
14.0,0.015307081863284111
15.0,0.014411812648177147
16.0,0.013369981199502945
18.0,0.011650126427412033
20.0,0.01016185525804758
22.0,0.009149552322924137
24.0,0.00829620473086834
26.0,0.007478443905711174
28.0,0.006600230932235718
30.0,0.00593516556546092
32.0,0.005412128288298845
36.0,0.004354748874902725
40.0,0.003736693412065506
44.0,0.003299764357507229
48.0,0.003069597762078047
52.0,0.0026244905311614275
56.0,0.0017163037555292249
60.0,0.0010255292290821671
64.0,0.0006045839982107282
72.0,0.0003179311752319336
80.0,0.0003754340868908912
88.0,0.0010030450066551566
96.0,0.0011888713343068957
104.0,0.0014890911988914013
112.0,0.001959068700671196
120.0,0.001992342295125127
128.0,0.002236258238554001
144.0,0.0003566936939023435
160.0,-0.0004713138332590461
176.0,-0.0002282349014421925
192.0,-0.0008785173995420337
208.0,-0.0006040793377906084
224.0,-0.0002517193497624248
240.0,-0.001003038021735847
256.0,-0.00032537386869080365
288.0,6.890107761137187e-05
320.0,0.00019681033154483885
352.0,-0.000829421856906265
384.0,0.0014270870015025139
416.0,0.0011841938830912113
448.0,-4.612162683770293e-06
480.0,-0.00021490790823008865
512.0,0.0009101819014176726
576.0,0.00047502314555458724
640.0,-0.0010755127295851707
704.0,0.0008814726024866104
768.0,-0.0005111448699608445
832.0,-0.00046679796651005745
896.0,-0.00027071224758401513
960.0,0.0004972730530425906
1024.0,0.00011412128515075892
1152.0,-0.0010895472951233387
1280.0,-0.0010393436532467604
1408.0,-0.00018729559087660164
1536.0,0.0011294545838609338
1664.0,0.00025211559841409326
1792.0,-0.0008188473293557763
1920.0,-0.0007605565479025245
2048.0,-0.0006301422836259007
2304.0,-0.0008296812884509563
2560.0,0.0003049574443139136
2816.0,-0.0006024627946317196
3072.0,0.00046076069702394307
3328.0,-0.0005951068596914411
3584.0,0.000867759867105633
3840.0,-0.0009982531191781163
4096.0,0.0008193995454348624
4608.0,0.00022100591741036624
5120.0,0.0006032664678059518
5632.0,0.0005626800120808184
6144.0,-0.00017509591998532414
6656.0,-0.0003623889642767608
7168.0,0.0005108721670694649
7680.0,-0.0004068452981300652
8192.0,-0.00015108440129552037
9216.0,-0.0003703788679558784
10240.0,0.0003072631370741874
11264.0,7.416224980261177e-05
12288.0,-0.0003229115973226726
13312.0,0.0002630655362736434
14336.0,-0.0014939965913072228
end
