version,3.0
numOfCh,1
type,point
parent_name,400-cuts
ch_type,1_1
kcount,1
numberNandB,1
brightnessNandB,1
carpet pos,0
pc,0
Time (ms),CH1 Auto-Correlation
1.0,0.09302663803100586
2.0,0.08457937836647034
3.0,0.0772988349199295
4.0,0.07075383514165878
5.0,0.0650072768330574
6.0,0.060063693672418594
7.0,0.05572538450360298
8.0,0.051706839352846146
9.0,0.04789108783006668
10.0,0.04441988840699196
11.0,0.04109940677881241
12.0,0.038139525800943375
13.0,0.03560464456677437
14.0,0.03368857502937317
15.0,0.0317864716053009
16.0,0.03008601814508438
18.0,0.026872150599956512
20.0,0.023654714226722717
22.0,0.020958002656698227
24.0,0.019017012789845467
26.0,0.017450900748372078
28.0,0.016134897246956825
30.0,0.0149173429235816
32.0,0.013579721562564373
36.0,0.011487060226500034
40.0,0.010021503083407879
44.0,0.008679482154548168
48.0,0.007050194311887026
52.0,0.005654140841215849
56.0,0.004808777943253517
60.0,0.004998942371457815
64.0,0.005354090593755245
72.0,0.005386488977819681
80.0,0.0041386429220438
88.0,0.00482883770018816
96.0,0.005190294235944748
104.0,0.0031875669956207275
112.0,0.0009145453223027289
120.0,0.0009461674490012228
128.0,0.0017943920101970434
144.0,-0.0012552059488371015
160.0,-0.002279755426570773
176.0,-0.0028375161346048117
192.0,-0.0008708250825293362
208.0,0.0017535585211589932
224.0,0.003655082546174526
240.0,0.0028689431492239237
256.0,0.0015226297546178102
288.0,0.0014898765366524458
320.0,0.004724930040538311
352.0,0.003897148882970214
384.0,0.0032047901768237352
416.0,0.0013358265860006213
448.0,0.0009971942054107785
480.0,0.004374134819954634
512.0,-0.0001496133190812543
576.0,0.0034806886687874794
640.0,0.0010539608774706721
704.0,0.002516558626666665
768.0,0.0013289187336340547
832.0,-0.00012966229405719787
896.0,-0.0026999497786164284
960.0,-0.0011671463726088405
1024.0,0.0032991585321724415
1152.0,0.0007369029917754233
1280.0,0.0017058043740689754
1408.0,-0.00024165675858967006
1536.0,6.796497473260388e-05
1664.0,-0.0003774627984967083
1792.0,-0.0022003697231411934
1920.0,-0.0018148664385080338
2048.0,-0.00032983062556013465
2304.0,-0.0005307452520355582
2560.0,-0.0023248838260769844
2816.0,-0.0012238941853865981
3072.0,0.0009707523859106004
3328.0,-0.00016357764252461493
3584.0,-0.0010860897600650787
3840.0,-0.0006410543574020267
4096.0,-0.0014841703232377768
4608.0,-0.0007900036289356649
5120.0,-0.0016064908122643828
5632.0,-0.0008818136411719024
6144.0,-0.00035119272070005536
6656.0,-0.001006096019409597
7168.0,0.00041716749547049403
7680.0,0.002219435293227434
8192.0,0.0028638364747166634
9216.0,-0.00031337232212536037
10240.0,-0.0013319490244612098
11264.0,-0.0006347679882310331
12288.0,0.001586169470101595
13312.0,-0.00026735386927612126
14336.0,-0.001609556726180017
end
