version,3.0
numOfCh,1
type,point
parent_name,400-cuts
ch_type,1_1
kcount,1
numberNandB,1
brightnessNandB,1
carpet pos,0
pc,0
Time (ms),CH1 Auto-Correlation
1.0,0.08185306936502457
2.0,0.07375582307577133
3.0,0.06675487756729126
4.0,0.06092223897576332
5.0,0.055797334760427475
6.0,0.05145230516791344
7.0,0.047802895307540894
8.0,0.0444304421544075
9.0,0.04141457378864288
10.0,0.038543399423360825
11.0,0.035971660166978836
12.0,0.033778414130210876
13.0,0.03175288066267967
14.0,0.02964802086353302
15.0,0.027792878448963165
16.0,0.02595764957368374
18.0,0.02257569134235382
20.0,0.019599754363298416
22.0,0.017080239951610565
24.0,0.01504539418965578
26.0,0.013231651857495308
28.0,0.01169335376471281
30.0,0.010747421532869339
32.0,0.010081636719405651
36.0,0.008621985092759132
40.0,0.007800624705851078
44.0,0.007021827157586813
48.0,0.006556488107889891
52.0,0.005220893770456314
56.0,0.0036539973225444555
60.0,0.003620423376560211
64.0,0.004194905515760183
72.0,0.00465769087895751
80.0,0.005341051146388054
88.0,0.0034703633282333612
96.0,0.0024797164369374514
104.0,0.0028759008273482323
112.0,0.004021990112960339
120.0,0.004788232035934925
128.0,0.003034920897334814
144.0,-0.0014402250526472926
160.0,-0.0015165660297498107
176.0,-0.0006131828995421529
192.0,0.000761489209253341
208.0,0.00038236138061620295
224.0,-0.001535642659291625
240.0,-0.0028813027311116457
256.0,-0.00269807456061244
288.0,-0.0032376605086028576
320.0,0.0012047936907038093
352.0,0.00014231227396521717
384.0,0.0034043702762573957
416.0,-0.0010305818868800998
448.0,0.0007380585884675384
480.0,0.0034628671128302813
512.0,0.002059419173747301
576.0,-0.0030609380919486284
640.0,-0.005767100490629673
704.0,-0.00045596162090077996
768.0,-0.0025124179664999247
832.0,0.004852333106100559
896.0,0.00332198035903275
960.0,0.0035509984008967876
1024.0,0.0027209329418838024
1152.0,-0.004446473903954029
1280.0,-0.0021032465156167746
1408.0,-0.0015119496965780854
1536.0,-0.00244622933678329
1664.0,0.00036127743078395724
1792.0,0.0021318686194717884
1920.0,0.0008711125701665878
2048.0,0.0010431786067783833
2304.0,-0.00037719690590165555
2560.0,-0.0004693462688010186
2816.0,-0.0007842331542633474
3072.0,-0.0006822996074333787
3328.0,-4.156952491030097e-05
3584.0,0.00044528726721182466
3840.0,0.0012350528268143535
4096.0,0.0012387268943712115
4608.0,-0.002169568557292223
5120.0,-0.002725612837821245
5632.0,-0.002104012295603752
6144.0,0.001629627775400877
6656.0,0.000858570565469563
7168.0,-0.0005796494078822434
7680.0,0.0008986569591797888
8192.0,0.0005678263260051608
9216.0,0.0005354491295292974
10240.0,0.001759484875947237
11264.0,-0.0006428069318644702
12288.0,-0.00032808244577609
13312.0,0.0007928952109068632
14336.0,-0.0015340113313868642
end
