version,3.0
numOfCh,1
type,point
parent_name,400-cuts
ch_type,1_1
kcount,1
numberNandB,1
brightnessNandB,1
carpet pos,0
pc,0
Time (ms),CH1 Auto-Correlation
1.0,0.09518078714609146
2.0,0.08635567873716354
3.0,0.07891532778739929
4.0,0.07225322723388672
5.0,0.06661555171012878
6.0,0.06147029995918274
7.0,0.0570962056517601
8.0,0.053160160779953
9.0,0.04973015934228897
10.0,0.04681757465004921
11.0,0.04409043863415718
12.0,0.04185178875923157
13.0,0.039643868803977966
14.0,0.037694625556468964
15.0,0.03591198846697807
16.0,0.03452261909842491
18.0,0.032397907227277756
20.0,0.03041963092982769
22.0,0.02827414870262146
24.0,0.026221733540296555
26.0,0.024180036038160324
28.0,0.022206753492355347
30.0,0.020548051223158836
32.0,0.018968801945447922
36.0,0.015867970883846283
40.0,0.013241338543593884
44.0,0.011455163359642029
48.0,0.009969783015549183
52.0,0.008793591521680355
56.0,0.007649517618119717
60.0,0.006858481094241142
64.0,0.005944862496107817
72.0,0.00596364913508296
80.0,0.005293488036841154
88.0,0.004461989738047123
96.0,0.0035652590449899435
104.0,0.0029130876064300537
112.0,0.003800204722210765
120.0,0.0052191270515322685
128.0,0.005584979895502329
144.0,0.007190868258476257
160.0,0.0076126581989228725
176.0,0.006369978655129671
192.0,0.0029945755377411842
208.0,0.005862209480255842
224.0,0.006241189781576395
240.0,0.0033348272554576397
256.0,0.0014535605441778898
288.0,0.0029145758599042892
320.0,0.004840590059757233
352.0,0.005625059828162193
384.0,0.005483381450176239
416.0,-0.00026346190134063363
448.0,-0.0015508554643020034
480.0,-0.0010238713584840298
512.0,0.00015622282808180898
576.0,0.0015599364414811134
640.0,0.0028476170264184475
704.0,0.0005647121579386294
768.0,-0.0018604296492412686
832.0,-0.0006659040227532387
896.0,-0.0040301247499883175
960.0,-0.0011124592274427414
1024.0,-0.003134219441562891
1152.0,-0.0035316201392561197
1280.0,0.0008566283504478633
1408.0,0.00041051520383916795
1536.0,-0.0026812392752617598
1664.0,-0.0016442660707980394
1792.0,-0.0024167043156921864
1920.0,-0.00032703328179195523
2048.0,0.0006125667132437229
2304.0,-0.005606055725365877
2560.0,-0.002089663641527295
2816.0,-0.00022834792616777122
3072.0,-0.00048606586642563343
3328.0,0.004367495886981487
3584.0,-0.00108400359749794
3840.0,0.002521574730053544
4096.0,0.002822273876518011
4608.0,0.0007049191044643521
5120.0,-0.0028924366924911737
5632.0,-0.001643880968913436
6144.0,-0.0028074493166059256
6656.0,-0.0012636110186576843
7168.0,0.00022316294780466706
7680.0,-0.00015854465891607106
8192.0,0.001424927613697946
9216.0,0.00139671191573143
10240.0,0.000583087676204741
11264.0,0.00036075434763915837
12288.0,0.0006586744566448033
13312.0,-0.0009468102944083512
14336.0,-0.0011960812844336033
end
