version,3.0
numOfCh,1
type,point
parent_name,400-cuts
ch_type,1_1
kcount,1
numberNandB,1
brightnessNandB,1
carpet pos,0
pc,0
Time (ms),CH1 Auto-Correlation
1.0,0.04117139056324959
2.0,0.037182603031396866
3.0,0.03367885202169418
4.0,0.030737781897187233
5.0,0.028172416612505913
6.0,0.02593838796019554
7.0,0.023915642872452736
8.0,0.022147679701447487
9.0,0.020638279616832733
10.0,0.019276445731520653
11.0,0.01813466288149357
12.0,0.017026904970407486
13.0,0.0160592682659626
14.0,0.015163994394242764
15.0,0.014292852953076363
16.0,0.01344450656324625
18.0,0.011971703730523586
20.0,0.010659217834472656
22.0,0.009423942305147648
24.0,0.008234181441366673
26.0,0.00724037503823638
28.0,0.00615980289876461
30.0,0.004937873221933842
32.0,0.003933364991098642
36.0,0.0026844267267733812
40.0,0.001958889653906226
44.0,0.001493915799073875
48.0,0.0011555214878171682
52.0,0.001016302965581417
56.0,0.000755844812374562
60.0,0.0007733965758234262
64.0,0.001016919850371778
72.0,0.0005081523559056222
80.0,5.719269756809808e-05
88.0,0.00044479878852143884
96.0,0.0011203160975128412
104.0,0.001451154239475727
112.0,0.0014685892965644598
120.0,0.0011615647235885262
128.0,0.0006291619502007961
144.0,-0.000641296966932714
160.0,0.0006679481011815369
176.0,0.002100295154377818
192.0,0.002426289953291416
208.0,0.0005453905905596912
224.0,-0.0010377715807408094
240.0,-0.0023964927531778812
256.0,-0.0025395029224455357
288.0,-0.0005305984523147345
320.0,-0.001965453615412116
352.0,-0.0024753622710704803
384.0,-0.0016344882315024734
416.0,-0.0011622528545558453
448.0,-0.0011169937206432223
480.0,0.0019797240383923054
512.0,0.0008826722041703761
576.0,-0.0002842620015144348
640.0,-0.0014699350576847792
704.0,-0.00025698490208014846
768.0,0.0007836726726964116
832.0,0.0006550796679221094
896.0,0.00028095816378481686
960.0,-0.0002449075400363654
1024.0,-0.00015192461432889104
1152.0,-0.0002515522646717727
1280.0,0.0005096016684547067
1408.0,-0.0012216967297717929
1536.0,-0.0014257802395150065
1664.0,0.00021037911938037723
1792.0,0.00025465423823334277
1920.0,-0.0003443998284637928
2048.0,0.0002947518660221249
2304.0,0.0005175162223167717
2560.0,4.515030013862997e-05
2816.0,-1.8978154912474565e-05
3072.0,-1.5830567008379148e-06
3328.0,0.0006274488987401128
3584.0,-0.0006049329531379044
3840.0,0.0008019967935979366
4096.0,-0.0008814853499643505
4608.0,0.00017457465582992882
5120.0,0.0005007405998185277
5632.0,5.967459856037749e-06
6144.0,0.00019542197696864605
6656.0,-0.0005200675223022699
7168.0,0.00011824214016087353
7680.0,-0.00019414047710597515
8192.0,-0.0005234706331975758
9216.0,0.00011727926175808534
10240.0,-0.00023428747954312712
11264.0,-0.00020348727412056178
12288.0,-0.0002669615496415645
13312.0,-0.0007895317394286394
14336.0,0.0010312970262020826
end
