version,3.0
numOfCh,1
type,point
parent_name,400-cuts
ch_type,1_1
kcount,1
numberNandB,1
brightnessNandB,1
carpet pos,0
pc,0
Time (ms),CH1 Auto-Correlation
1.0,0.03926593065261841
2.0,0.035382602363824844
3.0,0.03200817480683327
4.0,0.029167938977479935
5.0,0.026809396222233772
6.0,0.024751441553235054
7.0,0.022815488278865814
8.0,0.02103271149098873
9.0,0.01944519206881523
10.0,0.018020590767264366
11.0,0.01669139787554741
12.0,0.015589946880936623
13.0,0.014553634449839592
14.0,0.013558458536863327
15.0,0.012622516602277756
16.0,0.011819030158221722
18.0,0.010450274683535099
20.0,0.009418735280632973
22.0,0.008321724832057953
24.0,0.007182646542787552
26.0,0.006065869238227606
28.0,0.00531421834602952
30.0,0.004562412388622761
32.0,0.0040716310031712055
36.0,0.0032346206717193127
40.0,0.0029822734650224447
44.0,0.0026431980077177286
48.0,0.00227902689948678
52.0,0.0018166975351050496
56.0,0.0011957795359194279
60.0,0.000893846619874239
64.0,0.0006788650644011796
72.0,7.765666669001803e-05
80.0,0.00024113283143378794
88.0,0.00012877296830993146
96.0,0.00042320878128521144
104.0,0.0004327914793975651
112.0,0.00011756296589737758
120.0,8.7409105617553e-05
128.0,-0.000123151286970824
144.0,-0.0007753930403850973
160.0,-0.0005999826244078577
176.0,-0.0001991147582884878
192.0,-0.0005883482517674565
208.0,-0.0009434389066882432
224.0,-0.0008030080934986472
240.0,-0.0016789684304967523
256.0,-0.0018738143844529986
288.0,-0.0008649397641420364
320.0,-0.0006028460338711739
352.0,-0.0005539478734135628
384.0,-0.0001217878598254174
416.0,0.00027017699903808534
448.0,5.453637277241796e-05
480.0,0.00048011261969804764
512.0,0.0001574597554281354
576.0,-0.0006437312113121152
640.0,-0.0005157984560355544
704.0,-7.490067946491763e-05
768.0,-0.0004998260410502553
832.0,-0.0002709157415665686
896.0,0.0002284251240780577
960.0,0.0007991137681528926
1024.0,-0.0007044147932901978
1152.0,0.00025330964126624167
1280.0,-0.000622514053247869
1408.0,0.00024460014537908137
1536.0,-0.00012524236808530986
1664.0,-0.0007862915517762303
1792.0,0.0003804034204222262
1920.0,0.0006809193873777986
2048.0,-0.0006064899498596787
2304.0,0.00034684620914049447
2560.0,0.00032830637064762414
2816.0,-0.00023732396948616952
3072.0,-0.001073805382475257
3328.0,0.00016018534370232373
3584.0,0.00039276108145713806
3840.0,0.00010952384764095768
4096.0,-0.0005364645621739328
4608.0,-0.0005482430569827557
5120.0,0.0001753519754856825
5632.0,-0.0004994989139959216
6144.0,6.337851664284244e-05
6656.0,-0.0005269770626910031
7168.0,0.0006704318802803755
7680.0,0.0006734785856679082
8192.0,-0.0004844529030378908
9216.0,0.00019048388639930636
10240.0,7.637455564690754e-05
11264.0,7.470033597201109e-05
12288.0,0.00015085806080605835
13312.0,-0.0008463057456538081
14336.0,0.0005605683545581996
end
