version,3.0
numOfCh,1
type,point
parent_name,400-cuts
ch_type,1_1
kcount,1
numberNandB,1
brightnessNandB,1
carpet pos,0
pc,0
Time (ms),CH1 Auto-Correlation
1.0,0.02730449102818966
2.0,0.024509292095899582
3.0,0.02213030867278576
4.0,0.02006290666759014
5.0,0.01833415776491165
6.0,0.016808675602078438
7.0,0.015467297285795212
8.0,0.014250117354094982
9.0,0.013160324655473232
10.0,0.01219651848077774
11.0,0.011354869231581688
12.0,0.010594578459858894
13.0,0.009927893057465553
14.0,0.00933524314314127
15.0,0.008751707151532173
16.0,0.00816686823964119
18.0,0.007224199827760458
20.0,0.006380269303917885
22.0,0.005525198299437761
24.0,0.004737843293696642
26.0,0.004144436214119196
28.0,0.0035992951598018408
30.0,0.003172659780830145
32.0,0.0028103336226195097
36.0,0.0020991680212318897
40.0,0.001311770174652338
44.0,0.0006679592770524323
48.0,-3.467022179393098e-05
52.0,-0.0007058573537506163
56.0,-0.001219143276102841
60.0,-0.0016921453643590212
64.0,-0.0017769455444067717
72.0,-0.0010630754986777902
80.0,-0.0005021209944970906
88.0,-0.0004884377704001963
96.0,-0.000255866558291018
104.0,8.368479029741138e-05
112.0,0.0008518507820554078
120.0,0.0017658668803051114
128.0,0.0017339122714474797
144.0,0.0007623102283105254
160.0,0.000342347368132323
176.0,-0.0007312439847737551
192.0,-0.0007224565488286316
208.0,-0.00024030495842453092
224.0,-0.00014056811050977558
240.0,0.00024144815688487142
256.0,0.00013612316979561
288.0,-0.0007547592394985259
320.0,-0.0010856800945475698
352.0,-0.000977972405962646
384.0,-0.0009549610549584031
416.0,-0.0010874858126044273
448.0,-0.00042897657840512693
480.0,-0.00017484913405496627
512.0,-0.00046307442244142294
576.0,8.580149005865678e-05
640.0,0.00034434336703270674
704.0,0.001166042871773243
768.0,0.00010218405077466741
832.0,0.00014458733494393528
896.0,0.0004405824583955109
960.0,-0.0003577803145162761
1024.0,6.359574035741389e-05
1152.0,-0.0003980144683737308
1280.0,-6.352661876007915e-05
1408.0,-0.0009554757270962
1536.0,0.0005782765801995993
1664.0,-0.00015108464867807925
1792.0,-0.000357694982085377
1920.0,-0.0010692798532545567
2048.0,0.00029508108855225146
2304.0,0.00021564598137047142
2560.0,-0.00018663240189198405
2816.0,-4.6779859985690564e-05
3072.0,-0.00045793713070452213
3328.0,0.0011138961417600513
3584.0,-1.0935605132544879e-05
3840.0,-0.00013480824418365955
4096.0,0.000444389705080539
4608.0,-0.00023230169608723372
5120.0,0.0001650112826609984
5632.0,-0.0003714682534337044
6144.0,0.0003078765294048935
6656.0,0.0001108297219616361
7168.0,2.8345266400719993e-05
7680.0,4.32210108556319e-05
8192.0,-0.00022684596478939056
9216.0,-0.0003417822881601751
10240.0,0.0001766516361385584
11264.0,4.536852065939456e-05
12288.0,-0.00040836658445186913
13312.0,-0.00020671702804975212
14336.0,0.0007767663919366896
end
