version,3.0
numOfCh,1
type,point
parent_name,400-cuts
ch_type,1_1
kcount,1
numberNandB,1
brightnessNandB,1
carpet pos,0
pc,0
Time (ms),CH1 Auto-Correlation
1.0,0.04093572869896889
2.0,0.03682491183280945
3.0,0.03332870826125145
4.0,0.030356390401721
5.0,0.02778620645403862
6.0,0.025515081360936165
7.0,0.023574816063046455
8.0,0.021765736863017082
9.0,0.02016240917146206
10.0,0.01877165213227272
11.0,0.017520509660243988
12.0,0.01641790196299553
13.0,0.01538228988647461
14.0,0.01450118888169527
15.0,0.013539033010601997
16.0,0.012561559677124023
18.0,0.010937541723251343
20.0,0.009675705805420876
22.0,0.008901743218302727
24.0,0.008569970726966858
26.0,0.008179821074008942
28.0,0.007549255155026913
30.0,0.00695373909547925
32.0,0.006713212933391333
36.0,0.006005047354847193
40.0,0.005210051778703928
44.0,0.004638154525309801
48.0,0.0036702698562294245
52.0,0.0024036699905991554
56.0,0.0016706841997802258
60.0,0.0011610822984948754
64.0,0.0011231412645429373
72.0,0.001589062623679638
80.0,0.001596799585968256
88.0,0.0019651269540190697
96.0,0.0016815316630527377
104.0,0.0008922453271225095
112.0,0.00044951599556952715
120.0,0.0002891822368837893
128.0,-0.0004929435672238469
144.0,-0.0012149362592026591
160.0,-0.0020289276726543903
176.0,-0.0007593731279484928
192.0,-0.0003597699978854507
208.0,-0.0011230881791561842
224.0,-0.0006609635311178863
240.0,-0.0005576519761234522
256.0,-0.0005366163095459342
288.0,9.910525113809854e-05
320.0,0.0005106201861053705
352.0,2.713313006097451e-05
384.0,0.0008027759031392634
416.0,0.0008988052140921354
448.0,-8.323990914504975e-05
480.0,-0.001182066509500146
512.0,-0.0009586329106241465
576.0,0.0005301923374645412
640.0,0.0016085534589365125
704.0,0.0016134334728121758
768.0,0.0002876713697332889
832.0,0.00020079784735571593
896.0,-6.207928527146578e-05
960.0,-0.0009307268192060292
1024.0,-0.0012673460878431797
1152.0,-0.00015553370758425444
1280.0,0.0008388993446715176
1408.0,-0.0008616832783445716
1536.0,-0.0005649009835906327
1664.0,-0.0011793782468885183
1792.0,-0.0002982811420224607
1920.0,-4.785660348716192e-05
2048.0,0.000792143342550844
2304.0,-0.00025951696443371475
2560.0,0.00012940572923980653
2816.0,4.751132109959144e-06
3072.0,-0.0001762367319315672
3328.0,0.0010414549615234137
3584.0,-0.00036411566543392837
3840.0,-0.0008674818091094494
4096.0,0.0007300298311747611
4608.0,-0.0010613036574795842
5120.0,-0.00034637044882401824
5632.0,6.429092172766104e-05
6144.0,0.0005200706073082983
6656.0,-3.5073539038421586e-05
7168.0,-0.00010611044854158536
7680.0,-0.0007600127719342709
8192.0,-0.0004174851637799293
9216.0,0.0006879035499878228
10240.0,-0.0005080719711259007
11264.0,-5.889371459488757e-05
12288.0,0.0010966554982587695
13312.0,-0.0017775179585441947
14336.0,0.00040554103907197714
end
