version,3.0
numOfCh,1
type,point
parent_name,400-cuts
ch_type,1_1
kcount,1
numberNandB,1
brightnessNandB,1
carpet pos,0
pc,0
Time (ms),CH1 Auto-Correlation
1.0,0.02926996350288391
2.0,0.02651227079331875
3.0,0.02415437251329422
4.0,0.02209203504025936
5.0,0.020208710804581642
6.0,0.01849493756890297
7.0,0.0170240867882967
8.0,0.01568733900785446
9.0,0.014534680172801018
10.0,0.013509359210729599
11.0,0.012599344365298748
12.0,0.011843944899737835
13.0,0.011101040989160538
14.0,0.010423393920063972
15.0,0.009760291315615177
16.0,0.009220577776432037
18.0,0.008380469866096973
20.0,0.007501950953155756
22.0,0.006576146464794874
24.0,0.005767340771853924
26.0,0.00519645307213068
28.0,0.004563821014016867
30.0,0.004228772129863501
32.0,0.003964882809668779
36.0,0.0038407836109399796
40.0,0.003615310648456216
44.0,0.003259301884099841
48.0,0.0028253786731511354
52.0,0.002472400665283203
56.0,0.0021772144827991724
60.0,0.002007218776270747
64.0,0.0019944910891354084
72.0,0.0015846785390749574
80.0,0.001573375891894102
88.0,0.0015066104242578149
96.0,0.0016107485862448812
104.0,0.001706313923932612
112.0,0.0017390636494383216
120.0,0.0014871576568111777
128.0,0.0003700865199789405
144.0,0.0002046450972557068
160.0,0.0019312399672344327
176.0,0.0015492733800783753
192.0,0.0007657932583242655
208.0,0.0006076816353015602
224.0,0.000702177407220006
240.0,0.0008137961267493665
256.0,0.0014635282568633556
288.0,0.0012691897572949529
320.0,0.00021424441365525126
352.0,-0.0004428576794452965
384.0,-0.0016541896620765328
416.0,4.3135572923347354e-05
448.0,0.00018791566253639758
480.0,-0.0007285889587365091
512.0,-0.0001291822991333902
576.0,-0.0010379655286669731
640.0,-0.00043194761383347213
704.0,-7.999228728294838e-06
768.0,-0.0005045522702857852
832.0,-0.0006872935337014496
896.0,-0.0004325763729866594
960.0,-0.0004103412793483585
1024.0,-0.0007258520927280188
1152.0,0.0006796247907914221
1280.0,0.0007635531364940107
1408.0,0.0005421366076916456
1536.0,-0.0001631176273804158
1664.0,0.00013664833386428654
1792.0,-6.315029895631596e-05
1920.0,0.0008402431849390268
2048.0,0.00016615318600088358
2304.0,6.0402708186302334e-05
2560.0,-0.00116146937943995
2816.0,-0.0009814660297706723
3072.0,0.00030717835761606693
3328.0,0.00040412411908619106
3584.0,-0.0003731704200617969
3840.0,-0.001555819297209382
4096.0,-0.001800340716727078
4608.0,0.0003361739800311625
5120.0,0.0002055919321719557
5632.0,-0.0006163286161608994
6144.0,0.0008411555900238454
6656.0,0.0005045395228080451
7168.0,-0.0002626003697514534
7680.0,0.0009248068672604859
8192.0,0.0005423580878414214
9216.0,-0.0005389726720750332
10240.0,-0.000410017411923036
11264.0,-0.0004342550819274038
12288.0,-9.152914572041482e-05
13312.0,0.0004235758096911013
14336.0,0.0007307773339562118
end
