version,3.0
numOfCh,1
type,point
parent_name,400-cuts
ch_type,1_1
kcount,1
numberNandB,1
brightnessNandB,1
carpet pos,0
pc,0
Time (ms),CH1 Auto-Correlation
1.0,0.031143013387918472
2.0,0.028417939320206642
3.0,0.02609346993267536
4.0,0.0240651685744524
5.0,0.022308260202407837
6.0,0.020742274820804596
7.0,0.019385917112231255
8.0,0.01816115342080593
9.0,0.01700727455317974
10.0,0.015942351892590523
11.0,0.014951207675039768
12.0,0.014092398807406425
13.0,0.013330694288015366
14.0,0.01263484824448824
15.0,0.012036303989589214
16.0,0.011523951776325703
18.0,0.010403267107903957
20.0,0.009460646659135818
22.0,0.00852913036942482
24.0,0.007615283131599426
26.0,0.006693228613585234
28.0,0.005903935991227627
30.0,0.005186473019421101
32.0,0.004597603343427181
36.0,0.004028190393000841
40.0,0.0035293721593916416
44.0,0.003186287358403206
48.0,0.002675325609743595
52.0,0.001843547448515892
56.0,0.001228042645379901
60.0,0.0011274779681116343
64.0,0.0010871797567233443
72.0,0.0005388778517954051
80.0,0.0005265676882117987
88.0,0.00036736493348143995
96.0,0.0006532340194098651
104.0,0.0007512517622672021
112.0,0.0006485023186542094
120.0,0.0005319913034327328
128.0,0.000552396522834897
144.0,-0.00025958308833651245
160.0,-4.677708420786075e-05
176.0,-0.00032782345078885555
192.0,0.00015421253920067102
208.0,5.7199362345272675e-05
224.0,-0.0008319640764966607
240.0,-0.0008649052469991148
256.0,-0.0009373213979415596
288.0,-0.00048300085472874343
320.0,-0.0007667948375456035
352.0,-0.00048092316137626767
384.0,-0.0007085617398843169
416.0,0.0003813150979112834
448.0,-0.0005337585462257266
480.0,0.00012898430577479303
512.0,0.0006265992415137589
576.0,0.0009108345257118344
640.0,0.00012207881081849337
704.0,0.001543633290566504
768.0,0.0006596044404432178
832.0,0.0016934783197939396
896.0,0.00011929550237255171
960.0,-0.0011938723037019372
1024.0,-0.0006527588120661676
1152.0,-0.0008664729539304972
1280.0,0.0010202605044469237
1408.0,0.000998354167677462
1536.0,0.00010125331027666107
1664.0,-0.0010659320978447795
1792.0,-0.0008905539871193469
1920.0,-0.0004845198418479413
2048.0,-0.0004745190090034157
2304.0,-0.0009215630125254393
2560.0,8.139035344356671e-05
2816.0,4.651908966479823e-05
3072.0,-0.0007092893356457353
3328.0,-0.0008563212468288839
3584.0,0.0003657586930785328
3840.0,0.00016336770204361528
4096.0,-0.0003507600340526551
4608.0,0.00011302383791189641
5120.0,0.0003091511898674071
5632.0,-0.0003081217873841524
6144.0,0.00026882917154580355
6656.0,8.20319473859854e-05
7168.0,0.0002978326810989529
7680.0,0.00018994488345924765
8192.0,-0.00012147717643529177
9216.0,-0.0004547443240880966
10240.0,-0.0004225312441121787
11264.0,-0.000356299860868603
12288.0,0.000153642293298617
13312.0,0.00018135333084501326
14336.0,0.0015743825351819396
end
