version,3.0
numOfCh,1
type,point
parent_name,400-cuts
ch_type,1_1
kcount,1
numberNandB,1
brightnessNandB,1
carpet pos,0
pc,0
Time (ms),CH1 Auto-Correlation
1.0,0.02648302912712097
2.0,0.023703329265117645
3.0,0.021317172795534134
4.0,0.01924448274075985
5.0,0.017530443146824837
6.0,0.016029030084609985
7.0,0.014658362604677677
8.0,0.013496771454811096
9.0,0.012524370104074478
10.0,0.011700436472892761
11.0,0.010911939665675163
12.0,0.010139166377484798
13.0,0.009336118586361408
14.0,0.008611190132796764
15.0,0.007914953865110874
16.0,0.007304897531867027
18.0,0.006405015476047993
20.0,0.005622667260468006
22.0,0.004907866474241018
24.0,0.004337893333286047
26.0,0.003770641051232815
28.0,0.0033947371412068605
30.0,0.0032405017409473658
32.0,0.0029840541537851095
36.0,0.002440050011500716
40.0,0.0019263867288827896
44.0,0.0018802789272740483
48.0,0.0021214489825069904
52.0,0.002447213279083371
56.0,0.002737949835136533
60.0,0.002877520862966776
64.0,0.0029859289061278105
72.0,0.0024598692543804646
80.0,0.0018697852501645684
88.0,0.0016954152379184961
96.0,0.0011688716476783156
104.0,0.0005337963229976594
112.0,0.00016802780737634748
120.0,-6.323631532723084e-05
128.0,0.00048689349205233157
144.0,0.0013867123052477837
160.0,0.0005845396663062274
176.0,2.483462776581291e-05
192.0,-0.0001274266978725791
208.0,0.000947976834140718
224.0,0.0021374356001615524
240.0,0.0014181551523506641
256.0,0.0005996371037326753
288.0,-0.0003838760021608323
320.0,-0.0014892100589349866
352.0,-0.0006184100056998432
384.0,-0.0003327519807498902
416.0,0.00010344567272113636
448.0,-0.0002704618382267654
480.0,-0.00013144426338840276
512.0,-0.0007571714231744409
576.0,-0.00045701066846959293
640.0,3.5661101719597355e-05
704.0,-0.0002036392834270373
768.0,-0.0004810479294974357
832.0,0.0008943870780058205
896.0,0.0006374483928084373
960.0,-0.0006108898087404668
1024.0,-0.00028180854860693216
1152.0,0.0008816987392492592
1280.0,0.000931715767364949
1408.0,0.0004517406050581485
1536.0,0.00048143789172172546
1664.0,-0.0007149248849600554
1792.0,0.00043371939682401717
1920.0,0.00012573845742736012
2048.0,0.0007357744034379721
2304.0,0.0002862080873455852
2560.0,-0.0005571199581027031
2816.0,4.071395960636437e-05
3072.0,0.0003364698786754161
3328.0,0.0007021381752565503
3584.0,-0.0004056293109897524
3840.0,9.596667950972915e-06
4096.0,0.0003244539548177272
4608.0,-0.00022935862943995744
5120.0,0.0001329439546680078
5632.0,-0.0002837788488250226
6144.0,-0.00012493511894717813
6656.0,-0.00026400882052257657
7168.0,-0.00019366355263628066
7680.0,-0.00019437979790382087
8192.0,-0.0002443247358314693
9216.0,-0.0003150101692881435
10240.0,-0.00017913429473992437
11264.0,-0.0005426294519566
12288.0,-0.0007267722976393998
13312.0,-0.00018171063857153058
14336.0,-0.0001669433549977839
end
