version,3.0
numOfCh,1
type,point
parent_name,400-cuts
ch_type,1_1
kcount,1
numberNandB,1
brightnessNandB,1
carpet pos,0
pc,0
Time (ms),CH1 Auto-Correlation
1.0,0.027341710403561592
2.0,0.02455175668001175
3.0,0.022189313545823097
4.0,0.020153947174549103
5.0,0.018466753885149956
6.0,0.01702272519469261
7.0,0.015717752277851105
8.0,0.0145482262596488
9.0,0.013454013504087925
10.0,0.012382573448121548
11.0,0.01134392712265253
12.0,0.01040342915803194
13.0,0.009571880102157593
14.0,0.00880373828113079
15.0,0.008085052482783794
16.0,0.00741095095872879
18.0,0.006260836962610483
20.0,0.005309079308062792
22.0,0.004765567369759083
24.0,0.004340299870818853
26.0,0.004032738972455263
28.0,0.003628731705248356
30.0,0.0031328548211604357
32.0,0.0028761972207576036
36.0,0.0025203393306583166
40.0,0.0019356518751010299
44.0,0.001418128958903253
48.0,0.0009752527694217861
52.0,0.0007656651432625949
56.0,0.0004855372244492173
60.0,0.0002147484483430162
64.0,0.00010714344534790143
72.0,0.00047757537686266005
80.0,0.0008103851578198373
88.0,0.0006695606280118227
96.0,0.0003345644799992442
104.0,0.0001032358268275857
112.0,0.0001795616844901815
120.0,0.000447516271378845
128.0,0.0002802532399073243
144.0,0.0005352635052986443
160.0,0.0011407970450818539
176.0,0.0011457973159849644
192.0,0.0005130923236720264
208.0,0.0002774692256934941
224.0,-9.485681948717684e-05
240.0,0.0003689616860356182
256.0,0.0004479246272239834
288.0,-0.00039700628258287907
320.0,-0.0006482989410869777
352.0,0.0001777891011442989
384.0,0.00034806280746124685
416.0,1.1070692380599212e-05
448.0,-0.0002515353844501078
480.0,-2.8351269065751694e-05
512.0,0.0006281062960624695
576.0,0.00026028172578662634
640.0,0.0007111098384484649
704.0,0.0007506490219384432
768.0,-0.0002293106954311952
832.0,0.0003690622397698462
896.0,6.768090679543093e-05
960.0,-0.000529323355294764
1024.0,-0.0012801296543329954
1152.0,-0.0005090732011012733
1280.0,6.134102295618504e-05
1408.0,0.00017737210146151483
1536.0,-4.458519470063038e-05
1664.0,-0.0004247126344125718
1792.0,-2.7141681130160578e-05
1920.0,9.007702465169132e-05
2048.0,0.0005494474316947162
2304.0,-0.00010938035120489076
2560.0,-0.000371545203961432
2816.0,-0.0004913612501695752
3072.0,-0.00022276070376392454
3328.0,-4.883393557975069e-05
3584.0,-0.0004064601962454617
3840.0,-0.00031005044002085924
4096.0,-0.0004816815780941397
4608.0,0.00017358527111355215
5120.0,0.0008393925963900983
5632.0,-0.00019324196910019964
6144.0,-0.0007357299909926951
6656.0,-0.00033189586247317493
7168.0,-0.00010561529052210972
7680.0,-0.0004127843421883881
8192.0,0.0002467037702444941
9216.0,8.335772872669622e-05
10240.0,0.0009044876787811518
11264.0,-0.00032528903102502227
12288.0,-1.4269143321143929e-05
13312.0,-0.00031414919067174196
14336.0,-0.0007004763465374708
end
