version,3.0
numOfCh,1
type,point
parent_name,400-cuts
ch_type,1_1
kcount,1
numberNandB,1
brightnessNandB,1
carpet pos,0
pc,0
Time (ms),CH1 Auto-Correlation
1.0,0.03872805833816528
2.0,0.03474472090601921
3.0,0.03125639259815216
4.0,0.028274277225136757
5.0,0.02572861686348915
6.0,0.023500677198171616
7.0,0.021561847999691963
8.0,0.019723745062947273
9.0,0.017915207892656326
10.0,0.016388721764087677
11.0,0.015032154507935047
12.0,0.013875517062842846
13.0,0.01298727560788393
14.0,0.012178762815892696
15.0,0.011489658616483212
16.0,0.010920544154942036
18.0,0.010039734654128551
20.0,0.009266011416912079
22.0,0.008599737659096718
24.0,0.008026901632547379
26.0,0.007484853267669678
28.0,0.006889520213007927
30.0,0.006504128221422434
32.0,0.005994309671223164
36.0,0.004884534981101751
40.0,0.003923066891729832
44.0,0.0034014948178082705
48.0,0.0032095976639539003
52.0,0.002881234046071768
56.0,0.002672469476237893
60.0,0.0019673241768032312
64.0,0.0012499568983912468
72.0,9.514519661024678e-06
80.0,0.0004900501808151603
88.0,0.000500169291626662
96.0,-5.492798663908616e-06
104.0,-0.0006547515513375401
112.0,-0.0007061172509565949
120.0,-0.0013328281929716468
128.0,-0.0017741137417033315
144.0,-0.0024216959718614817
160.0,-0.002777213929221034
176.0,0.00013031004345975816
192.0,0.00023690814850851893
208.0,0.0010759808355942369
224.0,0.0025229970924556255
240.0,0.002445861930027604
256.0,0.0027635907754302025
288.0,0.0020042043179273605
320.0,-0.0004700077115558088
352.0,-0.001009429688565433
384.0,-0.0009365138248540461
416.0,9.369861072627828e-05
448.0,-0.00040723462007008493
480.0,0.0010220831027254462
512.0,0.001789470436051488
576.0,0.0003982974449172616
640.0,-0.0012651042779907584
704.0,-0.0006807902827858925
768.0,0.0006535772699862719
832.0,2.7391151888878085e-05
896.0,-0.0017872214084491134
960.0,-0.000380303303245455
1024.0,0.002633374882861972
1152.0,-0.0008889780147001147
1280.0,-0.0009195214370265603
1408.0,5.158914063940756e-05
1536.0,0.00015221333887893707
1664.0,-0.0007498644408769906
1792.0,-0.0005042640841566026
1920.0,8.001441892702132e-05
2048.0,-1.58959737746045e-05
2304.0,-0.0005339877097867429
2560.0,-0.00010781423043226823
2816.0,0.0008796588517725468
3072.0,3.707670111907646e-05
3328.0,0.00039139416185207665
3584.0,0.00013385571946855634
3840.0,-0.0009173548314720392
4096.0,-0.00027080043219029903
4608.0,0.0006895567639730871
5120.0,-0.001135731698013842
5632.0,-0.00012522736506070942
6144.0,3.3775631891330704e-05
6656.0,-0.00036105577601119876
7168.0,-1.936287389980862e-06
7680.0,-0.0006689034053124487
8192.0,-0.0012384424917399883
9216.0,0.0007886404055170715
10240.0,0.0002301611239090562
11264.0,-0.0003928396909032017
12288.0,-0.00010733219824032858
13312.0,0.0006754087517037988
14336.0,0.0005204255576245487
end
