version,3.0
numOfCh,1
type,point
parent_name,400-cuts
ch_type,1_1
kcount,1
numberNandB,1
brightnessNandB,1
carpet pos,0
pc,0
Time (ms),CH1 Auto-Correlation
1.0,0.028324151411652565
2.0,0.0255281999707222
3.0,0.02317790314555168
4.0,0.02124328352510929
5.0,0.019525468349456787
6.0,0.017917189747095108
7.0,0.016469871625304222
8.0,0.015284829773008823
9.0,0.014135441742837429
10.0,0.013086322695016861
11.0,0.012197235599160194
12.0,0.011339202523231506
13.0,0.010578775778412819
14.0,0.009984717704355717
15.0,0.009357822127640247
16.0,0.008753806352615356
18.0,0.007607689127326012
20.0,0.0067136227153241634
22.0,0.005877065937966108
24.0,0.0052078114822506905
26.0,0.004618672654032707
28.0,0.004043251276016235
30.0,0.0034314333461225033
32.0,0.002719417680054903
36.0,0.001865767757408321
40.0,0.0011903548147529364
44.0,0.0011137777473777533
48.0,0.001119757303968072
52.0,0.000982682453468442
56.0,0.0008589632343500853
60.0,0.00048126053297892213
64.0,0.00015143842028919607
72.0,1.1229406482016202e-05
80.0,0.00027331532328389585
88.0,0.0008027466828934848
96.0,0.0011661592870950699
104.0,0.0010056658647954464
112.0,0.00044731763773597777
120.0,0.0002524068404454738
128.0,0.00014931256009731442
144.0,0.00019640277605503798
160.0,1.0911569916061126e-05
176.0,0.00017675646813586354
192.0,-0.00019562483066692948
208.0,-2.520079942769371e-05
224.0,3.434218160691671e-05
240.0,0.0002728480030782521
256.0,1.1117112990177702e-05
288.0,-0.00019096264441031963
320.0,0.0006755383219569921
352.0,0.00045699745533056557
384.0,0.0004749246872961521
416.0,0.0002712277928367257
448.0,-0.0005335207097232342
480.0,-0.0012527694925665855
512.0,-0.0010460607009008527
576.0,-0.0010225478326901793
640.0,-0.0013488491531461477
704.0,5.566902837017551e-05
768.0,0.00042914474033750594
832.0,-0.001221438404172659
896.0,-0.000367520289728418
960.0,-0.0005418601213023067
1024.0,-0.0012922296300530434
1152.0,-0.0002210988022852689
1280.0,-0.00015285267727449536
1408.0,-0.0003086680662818253
1536.0,0.00015458841517101973
1664.0,-0.0002509920159354806
1792.0,6.910082447575405e-05
1920.0,0.0012803281424567103
2048.0,0.00046734572970308363
2304.0,0.0008453030022792518
2560.0,-0.0005737255560234189
2816.0,0.00028535351157188416
3072.0,0.0003092764818575233
3328.0,-0.000800526759121567
3584.0,-0.0001413407298969105
3840.0,0.00024108472280204296
4096.0,-0.00034179992508143187
4608.0,-2.4535796910640784e-05
5120.0,-0.00016687663446646184
5632.0,4.974125840817578e-05
6144.0,0.0003729578456841409
6656.0,-0.0006355792284011841
7168.0,-0.0003447594936005771
7680.0,0.00028926494996994734
8192.0,0.0002574364189058542
9216.0,-0.00020546652376651764
10240.0,0.00014834641478955746
11264.0,-0.00013462358037941158
12288.0,0.00011706232908181846
13312.0,0.00010957731865346432
14336.0,-0.00020699769083876163
end
