version,3.0
numOfCh,1
type,point
parent_name,400-cuts
ch_type,1_1
kcount,1
numberNandB,1
brightnessNandB,1
carpet pos,0
pc,0
Time (ms),CH1 Auto-Correlation
1.0,0.0265093594789505
2.0,0.023765161633491516
3.0,0.021526839584112167
4.0,0.019655853509902954
5.0,0.018018437549471855
6.0,0.016615919768810272
7.0,0.015343326143920422
8.0,0.014202537946403027
9.0,0.013190608471632004
10.0,0.012393306009471416
11.0,0.011652038432657719
12.0,0.010913189500570297
13.0,0.010277959518134594
14.0,0.009704317897558212
15.0,0.009158304892480373
16.0,0.008684667758643627
18.0,0.00782767590135336
20.0,0.007010052911937237
22.0,0.006126450374722481
24.0,0.0053171515464782715
26.0,0.00483545009046793
28.0,0.004388459026813507
30.0,0.0038494484033435583
32.0,0.003294327761977911
36.0,0.0022453288547694683
40.0,0.0015289561124518514
44.0,0.0009703808464109898
48.0,0.0005243082996457815
52.0,0.00011919929966097698
56.0,0.00017800135537981987
60.0,0.0001841268822317943
64.0,-0.00014910199388395995
72.0,-0.00024707787088118494
80.0,9.078357834368944e-05
88.0,0.0005792619194835424
96.0,0.0010672606294974685
104.0,0.001339283655397594
112.0,0.0014410396106541157
120.0,0.001582148252055049
128.0,0.0014739190228283405
144.0,0.0009702593088150024
160.0,0.0010968272108584642
176.0,0.0016026177909225225
192.0,0.001784302294254303
208.0,0.0010635171784088016
224.0,0.00024471001233905554
240.0,-0.00016026929370127618
256.0,-0.00026141179841943085
288.0,-0.0008666543290019035
320.0,-0.0008623848552815616
352.0,-0.00019603509281296283
384.0,-0.0004580389359034598
416.0,-0.0010989186121150851
448.0,-0.00108843925409019
480.0,-0.0008422762621194124
512.0,-0.00024406268494203687
576.0,-0.00015084320330061018
640.0,-0.0007483131485059857
704.0,0.000259856169577688
768.0,-0.00099659850820899
832.0,-0.00025385478511452675
896.0,-0.0007453905418515205
960.0,-0.0005294609582051635
1024.0,0.00012208726548124105
1152.0,-0.0001334179687546566
1280.0,0.0004917901242151856
1408.0,0.0009083244949579239
1536.0,0.000201431626919657
1664.0,7.639057730557397e-05
1792.0,-0.0009765055146999657
1920.0,-0.00017902701802086085
2048.0,0.00023436377523466945
2304.0,-0.00014723978529218584
2560.0,0.00021548241784330457
2816.0,0.0001365598727716133
3072.0,0.0009062965400516987
3328.0,-7.154840568546206e-05
3584.0,-0.0008312302525155246
3840.0,-0.0008759259944781661
4096.0,4.530172736849636e-05
4608.0,0.00011421377712395042
5120.0,-0.0006031896336935461
5632.0,0.00015031818475108594
6144.0,0.0002671768015716225
6656.0,-0.0008612736710347235
7168.0,0.00013956803013570607
7680.0,7.735759936622344e-06
8192.0,0.0001321750314673409
9216.0,5.9908052207902074e-05
10240.0,-4.514886313700117e-05
11264.0,0.00014929650933481753
12288.0,0.00011451683531049639
13312.0,-0.0001756072451826185
14336.0,0.0002545764727983624
end
