version,3.0
numOfCh,1
type,point
parent_name,400-cuts
ch_type,1_1
kcount,1
numberNandB,1
brightnessNandB,1
carpet pos,0
pc,0
Time (ms),CH1 Auto-Correlation
1.0,0.025661032646894455
2.0,0.02307572029531002
3.0,0.020869262516498566
4.0,0.0189402773976326
5.0,0.01729758456349373
6.0,0.01586993783712387
7.0,0.014580018818378448
8.0,0.013450639322400093
9.0,0.012431344017386436
10.0,0.011533580720424652
11.0,0.010726365260779858
12.0,0.010027258656919003
13.0,0.00930043589323759
14.0,0.00863942876458168
15.0,0.00807181466370821
16.0,0.007503136061131954
18.0,0.006556037813425064
20.0,0.005837052129209042
22.0,0.005200013518333435
24.0,0.004448000341653824
26.0,0.003729822812601924
28.0,0.0030675395391881466
30.0,0.0025412635877728462
32.0,0.002093846444040537
36.0,0.001420599757693708
40.0,0.0011235217098146677
44.0,0.0011758605251088738
48.0,0.001332111656665802
52.0,0.0011635698610916734
56.0,0.0008689817623235285
60.0,0.0004502137308008969
64.0,-6.532229599542916e-05
72.0,-0.00012722064275294542
80.0,0.00016142961976584047
88.0,-0.00025401124730706215
96.0,-0.0002924932341556996
104.0,-0.000463325617602095
112.0,-0.0010540810180827975
120.0,-0.0011359667405486107
128.0,-0.0008592100930400193
144.0,-0.0006656487821601331
160.0,-0.00021551133249886334
176.0,-0.00065470056142658
192.0,-0.0005368777201510966
208.0,-0.00020622210286092013
224.0,0.00012049073120579123
240.0,-0.0002708249958232045
256.0,0.00047309117508120835
288.0,0.0009871284710243344
320.0,0.0011313583236187696
352.0,0.00023293934646062553
384.0,-0.00024287188716698438
416.0,-0.0005979598499834538
448.0,-0.0003403358277864754
480.0,0.0006155612063594162
512.0,0.0007716382970102131
576.0,0.0004283275338821113
640.0,-0.00016499384946655482
704.0,0.0001824809005483985
768.0,-9.499241423327476e-05
832.0,-0.0004787062352988869
896.0,-0.0010706325992941856
960.0,5.5344662541756406e-05
1024.0,-0.0007619426469318569
1152.0,-0.0007928715203888714
1280.0,-0.00018278983770869672
1408.0,-0.00035701534943655133
1536.0,0.00033494000672362745
1664.0,-0.0002868117007892579
1792.0,-0.000108705586171709
1920.0,8.891618927009404e-05
2048.0,-2.9532968255807646e-05
2304.0,9.21570899663493e-05
2560.0,-0.0001348850637441501
2816.0,-0.00022703110880684108
3072.0,-0.0003962484479416162
3328.0,-0.00016123414388857782
3584.0,0.0003299123782198876
3840.0,0.00029195225215516984
4096.0,0.00023635172692593187
4608.0,-5.521890852833167e-05
5120.0,-0.0003878833376802504
5632.0,0.00026616439572535455
6144.0,-0.0001900771021610126
6656.0,-0.0001431257405783981
7168.0,0.00018785322026815265
7680.0,-0.00012766674626618624
8192.0,0.00023474698537029326
9216.0,-0.0004614047356881201
10240.0,0.0004957005730830133
11264.0,-0.00024099806614685804
12288.0,0.0004189377068541944
13312.0,-0.00038328324444592
14336.0,0.00037899689050391316
end
