version,3.0
numOfCh,1
type,point
parent_name,400-cuts
ch_type,1_1
kcount,1
numberNandB,1
brightnessNandB,1
carpet pos,0
pc,0
Time (ms),CH1 Auto-Correlation
1.0,0.027442270889878273
2.0,0.024760227650403976
3.0,0.022515004500746727
4.0,0.02057858370244503
5.0,0.018862834200263023
6.0,0.017368540167808533
7.0,0.016142480075359344
8.0,0.015095129609107971
9.0,0.014133365824818611
10.0,0.013298417441546917
11.0,0.012460682541131973
12.0,0.011742116883397102
13.0,0.011075361631810665
14.0,0.010468825697898865
15.0,0.009982584044337273
16.0,0.009500779211521149
18.0,0.008809751830995083
20.0,0.008092373609542847
22.0,0.007340014446526766
24.0,0.006598544307053089
26.0,0.005932456348091364
28.0,0.005335366353392601
30.0,0.004912611097097397
32.0,0.004363432060927153
36.0,0.0034647861029952765
40.0,0.0029836755711585283
44.0,0.002702998695895076
48.0,0.002618276048451662
52.0,0.0021681643556803465
56.0,0.001912939827889204
60.0,0.0017735186265781522
64.0,0.0013352567330002785
72.0,0.0007476343889720738
80.0,0.00043241819366812706
88.0,-9.890174260362983e-05
96.0,-0.0011599741410464048
104.0,-0.001111192861571908
112.0,-0.0011042600963264704
120.0,-0.0012810748303309083
128.0,-0.001253023510798812
144.0,-0.00018666250980459154
160.0,0.0003062460746150464
176.0,0.0009131328552030027
192.0,0.0019550470169633627
208.0,0.0016456077573820949
224.0,0.0013294010423123837
240.0,0.00025102755171246827
256.0,0.00022059932234697044
288.0,0.00022358827118296176
320.0,-0.0002415889612166211
352.0,-0.0007643233984708786
384.0,-0.0006938898004591465
416.0,-0.00027458328986540437
448.0,-0.0007227618480101228
480.0,0.0004655978991650045
512.0,0.0003556102456059307
576.0,-0.0011729184770956635
640.0,-0.0007240748382173479
704.0,0.00019072943541686982
768.0,-0.00017693873087409884
832.0,0.0003311345644760877
896.0,0.0004507249977905303
960.0,-0.00046309310710057616
1024.0,0.00011131730570923537
1152.0,0.0007569100707769394
1280.0,-0.0007575338240712881
1408.0,-0.0009829608025029302
1536.0,-0.0003254945913795382
1664.0,-0.00034690950997173786
1792.0,0.00032905381522141397
1920.0,-0.0003336692461743951
2048.0,0.00023541711561847478
2304.0,2.5555700631230138e-05
2560.0,-0.0006939088343642652
2816.0,0.00018146421643905342
3072.0,0.0007024966180324554
3328.0,0.00011546614405233413
3584.0,-0.0006155277951620519
3840.0,0.00016359136498067528
4096.0,0.00037923813215456903
4608.0,-0.0006947404472157359
5120.0,0.00021508708596229553
5632.0,-0.0006973416893742979
6144.0,0.00014938905951566994
6656.0,0.0008460913668386638
7168.0,4.097670898772776e-05
7680.0,-0.0005764519446529448
8192.0,0.000374884984921664
9216.0,0.0001868999097496271
10240.0,4.7351219109259546e-05
11264.0,-5.649532613460906e-05
12288.0,-0.00022146239643916488
13312.0,-0.0003997342719230801
14336.0,-0.0003322414413560182
end
