version,3.0
numOfCh,1
type,point
parent_name,400-cuts
ch_type,1_1
kcount,1
numberNandB,1
brightnessNandB,1
carpet pos,0
pc,0
Time (ms),CH1 Auto-Correlation
1.0,0.08830755203962326
2.0,0.07973781228065491
3.0,0.07242719829082489
4.0,0.0661415308713913
5.0,0.06066712737083435
6.0,0.05585607513785362
7.0,0.05175405368208885
8.0,0.04809530824422836
9.0,0.044851191341876984
10.0,0.04178303852677345
11.0,0.03909202292561531
12.0,0.036574430763721466
13.0,0.034422580152750015
14.0,0.03221888467669487
15.0,0.029981562867760658
16.0,0.0281058456748724
18.0,0.024444295093417168
20.0,0.02148512750864029
22.0,0.019625859335064888
24.0,0.017755083739757538
26.0,0.01643257588148117
28.0,0.015657193958759308
30.0,0.015213972888886929
32.0,0.014369161799550056
36.0,0.012192633002996445
40.0,0.01083735004067421
44.0,0.008344661444425583
48.0,0.00515326764434576
52.0,0.002898989012464881
56.0,0.0020349323749542236
60.0,0.0011590395588427782
64.0,0.0006027506897225976
72.0,0.0004691647191066295
80.0,0.001931105158291757
88.0,0.002173661021515727
96.0,-1.8527564407122554e-06
104.0,-0.0018663279479369521
112.0,-0.00437555555254221
120.0,-0.0033006437588483095
128.0,-0.0018706548726186156
144.0,-0.0021326467394828796
160.0,-0.001764790154993534
176.0,-0.0032366961240768433
192.0,-0.0020956825464963913
208.0,-0.0007744429749436677
224.0,-0.0008073387434706092
240.0,0.0007962360978126526
256.0,0.0014781577046960592
288.0,0.0008421134552918375
320.0,-0.001427140086889267
352.0,-0.0020377321634441614
384.0,0.0012375900987535715
416.0,0.0013051112182438374
448.0,0.0002327704569324851
480.0,-0.0005659092566929758
512.0,-0.0030966470949351788
576.0,-0.0005324326921254396
640.0,-0.0017362840007990599
704.0,-0.001557183568365872
768.0,0.0033929254859685898
832.0,-0.0012274289038032293
896.0,-0.0029542401898652315
960.0,-0.0023298447486013174
1024.0,0.0027082408778369427
1152.0,0.000572936434764415
1280.0,-0.0017638305434957147
1408.0,0.00105938664637506
1536.0,0.001241240999661386
1664.0,0.002952402923256159
1792.0,0.0010237004607915878
1920.0,-0.0008963735890574753
2048.0,-0.002783528994768858
2304.0,-0.0003667358832899481
2560.0,-6.303203554125503e-05
2816.0,0.0002067417954094708
3072.0,-0.0017486459109932184
3328.0,1.7103157006204128e-05
3584.0,-0.002193828346207738
3840.0,0.00032454493339173496
4096.0,0.0012242029188200831
4608.0,-0.000562908360734582
5120.0,-0.001102036563679576
5632.0,0.00011873050243593752
6144.0,0.0008607653435319662
6656.0,-0.0006299522356130183
7168.0,-0.0026113695930689573
7680.0,0.0023554402869194746
8192.0,-0.0001516423508292064
9216.0,0.00014285909128375351
10240.0,0.0017628227360546589
11264.0,-0.001391877536661923
12288.0,-0.000642305938526988
13312.0,-0.0001499191130278632
14336.0,0.001614011125639081
end
