version,3.0
numOfCh,1
type,point
parent_name,400-cuts
ch_type,1_1
kcount,1
numberNandB,1
brightnessNandB,1
carpet pos,0
pc,0
Time (ms),CH1 Auto-Correlation
1.0,0.08649280667304993
2.0,0.0782371386885643
3.0,0.0709320679306984
4.0,0.06445173174142838
5.0,0.058805447071790695
6.0,0.053922396153211594
7.0,0.049519047141075134
8.0,0.04582937806844711
9.0,0.04239311069250107
10.0,0.039124783128499985
11.0,0.036125052720308304
12.0,0.03341719135642052
13.0,0.031216664239764214
14.0,0.02934151701629162
15.0,0.02744068205356598
16.0,0.02572808228433132
18.0,0.022642072290182114
20.0,0.019961150363087654
22.0,0.0175361018627882
24.0,0.015096032060682774
26.0,0.012902633287012577
28.0,0.011050339788198471
30.0,0.0101776709780097
32.0,0.009662176482379436
36.0,0.008510874584317207
40.0,0.005811307113617659
44.0,0.003608881961554289
48.0,0.002207036828622222
52.0,0.0008174740360118449
56.0,-0.001121031353250146
60.0,-0.00171264773234725
64.0,-0.0016601613024249673
72.0,-0.0024224238004535437
80.0,-0.004374616779386997
88.0,-0.004219006281346083
96.0,-0.0028521758504211903
104.0,-0.0011955916415899992
112.0,-0.0005773500306531787
120.0,-0.0013228930765762925
128.0,-0.0008320737979374826
144.0,0.001145804999396205
160.0,0.004527601413428783
176.0,0.00503928679972887
192.0,0.002291257493197918
208.0,-0.000325100525515154
224.0,-0.0012284619733691216
240.0,-0.0014152018120512366
256.0,0.0034904389176517725
288.0,0.0032534815836697817
320.0,-0.0042313761077821255
352.0,-0.00048113783122971654
384.0,-0.0006543099298141897
416.0,-0.001115642604418099
448.0,0.0021871256176382303
480.0,-0.002186377299949527
512.0,-0.002132134512066841
576.0,-0.0009888677159324288
640.0,0.0003224867978133261
704.0,-0.0028363356832414865
768.0,-0.002010782016441226
832.0,0.001535253133624792
896.0,-0.00015344050189014524
960.0,0.002280046697705984
1024.0,-0.0028121585492044687
1152.0,0.00014366691175382584
1280.0,-0.0016794194234535098
1408.0,0.001416570506989956
1536.0,0.0020517350640147924
1664.0,0.001959071261808276
1792.0,0.003542728954926133
1920.0,-0.0008163611637428403
2048.0,-5.5329866881947964e-05
2304.0,-0.00031212580506689847
2560.0,0.000955811410676688
2816.0,-0.0010948731796815991
3072.0,0.0013742330484092236
3328.0,-0.0007005097577348351
3584.0,0.00020803259394597262
3840.0,-0.0003372756182216108
4096.0,0.0013783640461042523
4608.0,-0.0012768229935318232
5120.0,-0.00022130872821435332
5632.0,0.0005316029419191182
6144.0,-0.0011368667474016547
6656.0,-0.0026426406111568213
7168.0,-7.670911872992292e-05
7680.0,0.00025548323174007237
8192.0,-0.000604292144998908
9216.0,-0.0006467775674536824
10240.0,-0.0005189510411582887
11264.0,0.0008239066228270531
12288.0,-0.00028268247842788696
13312.0,0.0009120485628955066
14336.0,0.0016159899532794952
end
