version,3.0
numOfCh,1
type,point
parent_name,400-cuts
ch_type,1_1
kcount,1
numberNandB,1
brightnessNandB,1
carpet pos,0
pc,0
Time (ms),CH1 Auto-Correlation
1.0,0.09176557511091232
2.0,0.08321383595466614
3.0,0.07580655813217163
4.0,0.06944845616817474
5.0,0.06393396854400635
6.0,0.05898677185177803
7.0,0.05463911220431328
8.0,0.05066953971982002
9.0,0.04685451462864876
10.0,0.04366033151745796
11.0,0.04062533378601074
12.0,0.037740450352430344
13.0,0.035264573991298676
14.0,0.03294575586915016
15.0,0.03094259463250637
16.0,0.029235715046525
18.0,0.02591017447412014
20.0,0.023073501884937286
22.0,0.02068527601659298
24.0,0.018746325746178627
26.0,0.017261693254113197
28.0,0.016054116189479828
30.0,0.01493263803422451
32.0,0.013875972479581833
36.0,0.011733930557966232
40.0,0.008537372574210167
44.0,0.005923027638345957
48.0,0.003974404651671648
52.0,0.0018993224948644638
56.0,0.00013785611372441053
60.0,-0.0009272729512304068
64.0,-0.001017558155581355
72.0,0.0007992734317667782
80.0,0.002025932539254427
88.0,0.0018114139093086123
96.0,0.0010120233055204153
104.0,0.0008157056872732937
112.0,0.0023011774756014347
120.0,0.003139681415632367
128.0,0.0016014435095712543
144.0,-0.0017379197524860501
160.0,0.0002283898211317137
176.0,-0.0010761680314317346
192.0,-0.0028879549354314804
208.0,-0.0047394693829119205
224.0,-0.005898087285459042
240.0,-0.0032609414774924517
256.0,-0.0005174257094040513
288.0,-0.0008829173166304827
320.0,0.0004336567362770438
352.0,-0.003741991939023137
384.0,-0.006700009573251009
416.0,-0.005704739596694708
448.0,-0.003264142433181405
480.0,-0.004959299694746733
512.0,-0.0037862109020352364
576.0,-0.002070630667731166
640.0,-0.0026417530607432127
704.0,0.0008277265587821603
768.0,0.0019657996017485857
832.0,0.005694100633263588
896.0,0.001989981159567833
960.0,0.0008393092430196702
1024.0,0.0008234784472733736
1152.0,-0.00030371767934411764
1280.0,-0.0018540773307904601
1408.0,-0.0012790996115654707
1536.0,-0.0015411447966471314
1664.0,-0.0004300632863305509
1792.0,0.00011969746265094727
1920.0,0.004268248099833727
2048.0,0.0006108299712650478
2304.0,-0.0029972505290061235
2560.0,-0.0003449622599873692
2816.0,0.0011955145746469498
3072.0,-0.0004921533400192857
3328.0,-5.714185317629017e-05
3584.0,0.0014417334459722042
3840.0,-0.0011439953232184052
4096.0,-0.002689726883545518
4608.0,-0.0010661468841135502
5120.0,0.0013313119998201728
5632.0,-0.0005037041264586151
6144.0,0.00038263274473138154
6656.0,-0.001375074964016676
7168.0,0.0024488642811775208
7680.0,-0.00119060801807791
8192.0,0.001324508455581963
9216.0,-0.0004873737052548677
10240.0,0.001195351011119783
11264.0,-0.0010662473505362868
12288.0,-0.000989484484307468
13312.0,0.0013335824478417635
14336.0,-0.0006475142436102033
end
