version,3.0
numOfCh,1
type,point
parent_name,400-cuts
ch_type,1_1
kcount,1
numberNandB,1
brightnessNandB,1
carpet pos,0
pc,0
Time (ms),CH1 Auto-Correlation
1.0,0.04124884307384491
2.0,0.03704281523823738
3.0,0.033498939126729965
4.0,0.03046983666718006
5.0,0.027841856703162193
6.0,0.02553299255669117
7.0,0.023503202944993973
8.0,0.021595824509859085
9.0,0.019993821159005165
10.0,0.018574558198451996
11.0,0.01728578843176365
12.0,0.016220571473240852
13.0,0.015238811261951923
14.0,0.014299705624580383
15.0,0.013460131362080574
16.0,0.012736506760120392
18.0,0.011632968671619892
20.0,0.010655678808689117
22.0,0.009900788776576519
24.0,0.009225154295563698
26.0,0.008552982471883297
28.0,0.008088069967925549
30.0,0.007616703398525715
32.0,0.0071976264007389545
36.0,0.006553409155458212
40.0,0.005336951930075884
44.0,0.004245184827595949
48.0,0.0029432696755975485
52.0,0.0020979030523449183
56.0,0.001379285822622478
60.0,0.0010362343164160848
64.0,0.001034852466545999
72.0,0.0013946619583293796
80.0,0.0010990396840497851
88.0,0.0006448179483413696
96.0,0.0006724681006744504
104.0,0.0007109798025339842
112.0,0.00037160463398322463
120.0,-0.00036481054848991334
128.0,-0.0005929114995524287
144.0,0.0004092869348824024
160.0,0.0016734118107706308
176.0,0.001721481909044087
192.0,0.0012701430823653936
208.0,0.0013577649369835854
224.0,0.0006786398007534444
240.0,0.0004993458278477192
256.0,-0.00040645062108524144
288.0,-0.0021192687563598156
320.0,-0.0026364517398178577
352.0,-0.0007868983084335923
384.0,-0.0004767712962348014
416.0,-0.000804280221927911
448.0,-0.0006860970752313733
480.0,-0.0025512867141515017
512.0,-0.0023058964870870113
576.0,-0.0007069906569086015
640.0,0.0009578465251252055
704.0,0.00017243970069102943
768.0,0.0008496094378642738
832.0,0.0016257634852081537
896.0,0.0015329563757404685
960.0,0.00020304434292484075
1024.0,0.0003786920860875398
1152.0,0.0006260458030737936
1280.0,-0.00015874057135079056
1408.0,0.0009244500542990863
1536.0,0.00039718052721582353
1664.0,-0.0020183096639811993
1792.0,-0.0011050263419747353
1920.0,-0.0008820444345474243
2048.0,-8.060692925937474e-05
2304.0,0.0010015309089794755
2560.0,-0.0011341492645442486
2816.0,-0.0015518531436100602
3072.0,-2.93849989247974e-05
3328.0,-0.000726631551515311
3584.0,0.00123164476826787
3840.0,-0.00048071271157823503
4096.0,-0.0014996523968875408
4608.0,0.0007954302709549665
5120.0,0.00045695147127844393
5632.0,-0.00038358321762643754
6144.0,0.0005589844658970833
6656.0,-0.00035205314634367824
7168.0,0.000315981189487502
7680.0,-0.0005170736694708467
8192.0,9.612758731236681e-05
9216.0,-0.00028164658579044044
10240.0,-4.9683989345794544e-05
11264.0,-0.0005508871981874108
12288.0,-0.0004790317907463759
13312.0,0.0004870620323345065
14336.0,0.0006460855365730822
end
