version,3.0
numOfCh,1
type,point
parent_name,400-cuts
ch_type,1_1
kcount,1
numberNandB,1
brightnessNandB,1
carpet pos,0
pc,0
Time (ms),CH1 Auto-Correlation
1.0,0.04287157952785492
2.0,0.03866422921419144
3.0,0.03510740399360657
4.0,0.0320495069026947
5.0,0.02932579442858696
6.0,0.026967618614435196
7.0,0.024941882118582726
8.0,0.023137452080845833
9.0,0.02156122773885727
10.0,0.020066646859049797
11.0,0.018835267052054405
12.0,0.017724910750985146
13.0,0.01669328287243843
14.0,0.01561693660914898
15.0,0.014658777043223381
16.0,0.013747932389378548
18.0,0.012207015417516232
20.0,0.01099450048059225
22.0,0.010049468837678432
24.0,0.009330139495432377
26.0,0.00882226787507534
28.0,0.00839543528854847
30.0,0.007781182881444693
32.0,0.007067378144711256
36.0,0.005785593297332525
40.0,0.004686329048126936
44.0,0.003727710573002696
48.0,0.0028607831336557865
52.0,0.0021087280474603176
56.0,0.0015825480222702026
60.0,0.000898837810382247
64.0,0.0003396706306375563
72.0,-0.0001896497415145859
80.0,-0.00024999130982905626
88.0,-0.00043888427899219096
96.0,0.000187169061973691
104.0,0.0007668872713111341
112.0,0.0011360583594068885
120.0,0.0013835353311151266
128.0,0.0006574852741323411
144.0,-0.0002956589451059699
160.0,-0.00023004099784884602
176.0,0.0008834913023747504
192.0,0.0014781226636841893
208.0,0.0015769771998748183
224.0,0.0008995598182082176
240.0,0.00010043019574368373
256.0,-0.00011257464211666957
288.0,-0.0010372890392318368
320.0,-0.0005787056870758533
352.0,-0.00034878772567026317
384.0,-0.0008521643467247486
416.0,-0.0018436445388942957
448.0,-0.0012775236973538995
480.0,-0.0013777778949588537
512.0,-0.002105739898979664
576.0,-0.0009549127425998449
640.0,0.00027094301185570657
704.0,0.00087173335487023
768.0,0.00037405057810246944
832.0,0.0007122946553863585
896.0,0.0003128166135866195
960.0,0.00019285999587737024
1024.0,0.0020032995380461216
1152.0,0.0008230253588408232
1280.0,0.0012575575383380055
1408.0,0.0008404212421737611
1536.0,0.0004159904201515019
1664.0,-0.0008987614419311285
1792.0,-0.00024195924925152212
1920.0,-0.00112834048923105
2048.0,-0.0008540818234905601
2304.0,0.00023913904442451894
2560.0,0.0008160991710610688
2816.0,4.0243365219794214e-05
3072.0,-0.0012495624832808971
3328.0,-9.540519386064261e-05
3584.0,0.00040734876529313624
3840.0,0.0005660384777002037
4096.0,-0.0007566972635686398
4608.0,0.00036401243414729834
5120.0,-0.00019218152738176286
5632.0,0.00024850142654031515
6144.0,0.0009790434269234538
6656.0,-0.0008214794797822833
7168.0,0.001114040962420404
7680.0,-0.0014453391777351499
8192.0,-1.541638448543381e-05
9216.0,-0.0002466580190230161
10240.0,1.6698288163752295e-05
11264.0,-0.00019464072829578072
12288.0,-0.0005365370307117701
13312.0,-0.0006250953301787376
14336.0,-0.0008450133027508855
end
