version,3.0
numOfCh,1
type,point
parent_name,400-cuts
ch_type,1_1
kcount,1
numberNandB,1
brightnessNandB,1
carpet pos,0
pc,0
Time (ms),CH1 Auto-Correlation
1.0,0.0815160870552063
2.0,0.07326781004667282
3.0,0.06610049307346344
4.0,0.06001334264874458
5.0,0.05454917624592781
6.0,0.049932487308979034
7.0,0.045836348086595535
8.0,0.0422559455037117
9.0,0.03911130130290985
10.0,0.036255959421396255
11.0,0.03389274328947067
12.0,0.03159019723534584
13.0,0.02981523424386978
14.0,0.02802468277513981
15.0,0.026198947802186012
16.0,0.02440403774380684
18.0,0.02072293497622013
20.0,0.017457103356719017
22.0,0.014534961432218552
24.0,0.011784447357058525
26.0,0.009841823019087315
28.0,0.009061519987881184
30.0,0.008688457310199738
32.0,0.008319188840687275
36.0,0.007396807428449392
40.0,0.006291139405220747
44.0,0.0049388776533305645
48.0,0.0043890527449548244
52.0,0.0035274955444037914
56.0,0.0024738891515880823
60.0,0.002116855699568987
64.0,0.002206930425018072
72.0,0.002829590579494834
80.0,0.0026530823670327663
88.0,0.003134195925667882
96.0,0.0026080564130097628
104.0,0.0012409636983647943
112.0,-0.00034620676888152957
120.0,-0.0014897319488227367
128.0,3.448171628406271e-05
144.0,0.003182559972628951
160.0,-0.0010053686564788222
176.0,-0.000657198135741055
192.0,0.0003233830793760717
208.0,-0.0007454688893631101
224.0,-0.0016061229398474097
240.0,0.00012845010496675968
256.0,0.0004864544025622308
288.0,0.0014837868511676788
320.0,-0.0011973753571510315
352.0,-0.002134972019121051
384.0,0.00018496130360290408
416.0,0.0013839143794029951
448.0,-0.0005223064217716455
480.0,-0.005334449466317892
512.0,-0.004147738683968782
576.0,-0.0039907945320010185
640.0,-0.0016190416645258665
704.0,-0.0015186554519459605
768.0,0.0007045847596600652
832.0,0.0034535741433501244
896.0,0.0017428557621315122
960.0,0.0019455868750810623
1024.0,0.000588860479183495
1152.0,0.0010165977291762829
1280.0,-0.001394775346852839
1408.0,-0.0008675048593431711
1536.0,-0.0007818766171112657
1664.0,-0.00017282231419812888
1792.0,0.0008419749210588634
1920.0,0.001830963883548975
2048.0,-0.000589827832300216
2304.0,-0.00045379053335636854
2560.0,-0.00030804937705397606
2816.0,-0.0006456085829995573
3072.0,-0.0003785376320593059
3328.0,0.001370239187963307
3584.0,-0.0020604769233614206
3840.0,-0.0009986484656110406
4096.0,0.0027148511726409197
4608.0,-0.0017485104035586119
5120.0,0.0006214537424966693
5632.0,0.0003128392272628844
6144.0,-0.0006801314884796739
6656.0,0.00047682542935945094
7168.0,-0.0015839976258575916
7680.0,0.0009227176196873188
8192.0,0.00017225848569069058
9216.0,0.0002889696625061333
10240.0,0.000749923347029835
11264.0,-0.001181788626126945
12288.0,-0.0018864402081817389
13312.0,0.0005721633206121624
14336.0,0.0019272778881713748
end
