version,3.0
numOfCh,1
type,point
parent_name,400-cuts
ch_type,1_1
kcount,1
numberNandB,1
brightnessNandB,1
carpet pos,0
pc,0
Time (ms),CH1 Auto-Correlation
1.0,0.028593314811587334
2.0,0.025819459930062294
3.0,0.02343391440808773
4.0,0.021402204409241676
5.0,0.01963985152542591
6.0,0.018118910491466522
7.0,0.016774456948041916
8.0,0.01549847424030304
9.0,0.014321710914373398
10.0,0.013295773416757584
11.0,0.012414233759045601
12.0,0.011562471278011799
13.0,0.010805228725075722
14.0,0.010125884786248207
15.0,0.00943759549409151
16.0,0.008880797773599625
18.0,0.007855472154915333
20.0,0.007078112568706274
22.0,0.006456865929067135
24.0,0.005851372145116329
26.0,0.005234215874224901
28.0,0.00452087027952075
30.0,0.003844941034913063
32.0,0.0032440226059406996
36.0,0.0024654509034007788
40.0,0.0018403794383630157
44.0,0.0014380764914676547
48.0,0.0010332373203709722
52.0,0.0008059259271249175
56.0,0.0009039973374456167
60.0,0.00108801806345582
64.0,0.0009147424716502428
72.0,-0.00046646164264529943
80.0,-0.000898389087524265
88.0,-0.000950002926401794
96.0,-0.001346019795164466
104.0,-0.0018365216674283147
112.0,-0.0019500572234392166
120.0,-0.0016141736414283514
128.0,-0.0015431814827024937
144.0,-0.0017121810233220458
160.0,-0.001017889240756631
176.0,-0.0006823585135862231
192.0,-0.0009993758285418153
208.0,-0.00013757274427916855
224.0,0.000522783026099205
240.0,0.0007675181259401143
256.0,0.0011987985344603658
288.0,0.0008611779776401818
320.0,-0.00032016687327995896
352.0,-0.0012428618501871824
384.0,-0.0009621428907848895
416.0,-9.783377754501998e-05
448.0,0.0006622085347771645
480.0,0.0015035758260637522
512.0,0.0010750474175438285
576.0,0.00010906993702519685
640.0,-0.0011549011105671525
704.0,-0.00046081526670604944
768.0,0.00022948556579649448
832.0,0.0009707053541205823
896.0,-0.00019175178022123873
960.0,-0.00029398102196864784
1024.0,0.00012665585381910205
1152.0,5.7053246564464644e-05
1280.0,0.00025612738681957126
1408.0,-0.0008915524813346565
1536.0,0.00022738271218258888
1664.0,-1.351938317384338e-05
1792.0,0.0005775828030891716
1920.0,-0.00047742860624566674
2048.0,-0.0009314198396168649
2304.0,0.0008876233478076756
2560.0,-0.0004952974850311875
2816.0,0.0005932596977800131
3072.0,-0.0009427179466001689
3328.0,0.0007210434996522963
3584.0,-0.0004777031426783651
3840.0,0.00047065987018868327
4096.0,-0.0005545691819861531
4608.0,-0.0003663821844384074
5120.0,-8.286174124805257e-05
5632.0,6.443131860578433e-05
6144.0,0.00044414596050046384
6656.0,-5.352345033315942e-05
7168.0,0.00024291541194543242
7680.0,1.0179373930441216e-05
8192.0,0.00011409696890041232
9216.0,0.00012436026008799672
10240.0,-0.0003058276779484004
11264.0,-0.0004529567377176136
12288.0,-0.0002643745392560959
13312.0,-0.00018230163550470024
14336.0,0.0001748361246427521
end
