version,3.0
numOfCh,1
type,point
parent_name,400-cuts
ch_type,1_1
kcount,1
numberNandB,1
brightnessNandB,1
carpet pos,0
pc,0
Time (ms),CH1 Auto-Correlation
1.0,0.027336768805980682
2.0,0.02453405223786831
3.0,0.022160306572914124
4.0,0.020080041140317917
5.0,0.018275078386068344
6.0,0.016714109107851982
7.0,0.015477865934371948
8.0,0.014371803030371666
9.0,0.013310438022017479
10.0,0.012308955192565918
11.0,0.011434332467615604
12.0,0.010602045804262161
13.0,0.010009568184614182
14.0,0.00940067321062088
15.0,0.00888755451887846
16.0,0.008345347829163074
18.0,0.007327711209654808
20.0,0.0063832709565758705
22.0,0.00566986296325922
24.0,0.00503986282274127
26.0,0.004674182739108801
28.0,0.00431473646312952
30.0,0.0038316112477332354
32.0,0.0033103395253419876
36.0,0.0023210186045616865
40.0,0.0015651258872821927
44.0,0.0011948068859055638
48.0,0.0008883000118657947
52.0,0.000708451378159225
56.0,0.000723262841347605
60.0,0.0006410937057808042
64.0,0.00045800209045410156
72.0,0.0002686717489268631
80.0,-0.000336279917974025
88.0,-0.0005278330063447356
96.0,-0.0004461125936359167
104.0,-0.00021034773089922965
112.0,-0.0004317219718359411
120.0,-0.0007660483825020492
128.0,-0.0006608104449696839
144.0,-0.00054318638285622
160.0,-0.000927516957744956
176.0,-0.0010060754138976336
192.0,-0.0006358327227644622
208.0,-0.001136350561864674
224.0,-0.0007631036569364369
240.0,-0.00013608360313810408
256.0,-5.227799556450918e-05
288.0,-0.00027543760370463133
320.0,-0.00036857882514595985
352.0,-0.000699447700753808
384.0,-0.0007845793734304607
416.0,-0.001101700821891427
448.0,-0.0012571440311148763
480.0,-0.001396392472088337
512.0,-0.00019327623886056244
576.0,-0.0004599433159455657
640.0,-0.0002962509752251208
704.0,0.00023953329946380109
768.0,-0.00023592489014845341
832.0,-4.852765050600283e-05
896.0,0.0006773627828806639
960.0,-7.013085269136354e-05
1024.0,-0.0007640323601663113
1152.0,-7.847326924093068e-05
1280.0,0.0007561169913969934
1408.0,-0.00012148503446951509
1536.0,0.00017066142754629254
1664.0,8.28813062980771e-05
1792.0,-0.0001971307210624218
1920.0,5.008814332541078e-05
2048.0,1.4806219951424282e-05
2304.0,-0.00021904594905208796
2560.0,-9.749263699632138e-05
2816.0,0.00022225869179237634
3072.0,-0.00016840860189404339
3328.0,3.231087248423137e-05
3584.0,0.00014663189358543605
3840.0,2.417217729089316e-05
4096.0,-0.00024836964439600706
4608.0,-0.0003358582325745374
5120.0,0.00038562272675335407
5632.0,-5.5969176173675805e-05
6144.0,-0.00013613856572192162
6656.0,-0.00012174736184533685
7168.0,0.00012478101416490972
7680.0,-0.00015324553532991558
8192.0,-0.00030357285868376493
9216.0,0.00015874049859121442
10240.0,-8.473338675685227e-05
11264.0,0.0001600190153112635
12288.0,-8.710234396858141e-05
13312.0,2.575803591753356e-05
14336.0,-2.7259507987764664e-05
end
