version,3.0
numOfCh,1
type,point
parent_name,400-cuts
ch_type,1_1
kcount,1
numberNandB,1
brightnessNandB,1
carpet pos,0
pc,0
Time (ms),CH1 Auto-Correlation
1.0,0.08931368589401245
2.0,0.08059082925319672
3.0,0.0734039843082428
4.0,0.06709098815917969
5.0,0.061725325882434845
6.0,0.05684296414256096
7.0,0.052304401993751526
8.0,0.04822491109371185
9.0,0.04444455727934837
10.0,0.041089482605457306
11.0,0.03800606727600098
12.0,0.03531646728515625
13.0,0.032739173620939255
14.0,0.0305589959025383
15.0,0.02816098928451538
16.0,0.02618878148496151
18.0,0.022756459191441536
20.0,0.019812660291790962
22.0,0.017350157722830772
24.0,0.015170568600296974
26.0,0.01346222497522831
28.0,0.012306217104196548
30.0,0.01132252998650074
32.0,0.01050918735563755
36.0,0.008861240930855274
40.0,0.007846438325941563
44.0,0.0069079468958079815
48.0,0.006856637541204691
52.0,0.007007524836808443
56.0,0.0069096628576517105
60.0,0.006877867504954338
64.0,0.007106381934136152
72.0,0.004752220585942268
80.0,0.003385169431567192
88.0,0.002927574794739485
96.0,0.002779587171971798
104.0,0.0016195749631151557
112.0,0.0011243611807003617
120.0,-6.158257747301832e-05
128.0,-0.0006717807846143842
144.0,0.0006725492421537638
160.0,0.00046063645277172327
176.0,0.0020380564965307713
192.0,0.004122208338230848
208.0,0.004699880722910166
224.0,0.004166498314589262
240.0,0.004003533162176609
256.0,0.003198391990736127
288.0,0.001337650348432362
320.0,-0.002202260307967663
352.0,0.0002799812937155366
384.0,0.0005012502078898251
416.0,0.0008022818947210908
448.0,0.0011030358728021383
480.0,-0.0008638874860480428
512.0,0.0002212596300523728
576.0,-0.0003308733575977385
640.0,0.0007004723884165287
704.0,-0.0013049067929387093
768.0,0.0010592048056423664
832.0,0.0011495487997308373
896.0,0.0022346905898302794
960.0,0.0004004540096502751
1024.0,0.0012108276132494211
1152.0,-0.0025637252256274223
1280.0,0.0018362249247729778
1408.0,-0.0011913860216736794
1536.0,-0.0020393524318933487
1664.0,-0.0023974559735506773
1792.0,-0.003414356615394354
1920.0,-0.0021435904782265425
2048.0,-0.003353038802742958
2304.0,-0.0006413001683540642
2560.0,3.0148346922942437e-05
2816.0,-0.002136628143489361
3072.0,-0.0023864146787673235
3328.0,-0.002147249411791563
3584.0,0.0007806539651937783
3840.0,-0.0003799689293373376
4096.0,0.0015734703047201037
4608.0,0.0007967618876136839
5120.0,0.00037829604116268456
5632.0,0.0008503297576680779
6144.0,-0.001072968589141965
6656.0,0.0015501991147175431
7168.0,0.0009323562262579799
7680.0,-0.0025749385822564363
8192.0,0.0006004075985401869
9216.0,-0.0009634327725507319
10240.0,0.0011131726205348969
11264.0,0.0010148286819458008
12288.0,-0.0014454355696216226
13312.0,0.0017822375521063805
14336.0,0.000554558529984206
end
