version,3.0
numOfCh,1
type,point
parent_name,400-cuts
ch_type,1_1
kcount,1
numberNandB,1
brightnessNandB,1
carpet pos,0
pc,0
Time (ms),CH1 Auto-Correlation
1.0,0.026840688660740852
2.0,0.024198366329073906
3.0,0.021926065906882286
4.0,0.01991262100636959
5.0,0.01823428086936474
6.0,0.01673164963722229
7.0,0.015339242294430733
8.0,0.014106342568993568
9.0,0.01309648435562849
10.0,0.012145531363785267
11.0,0.011248049326241016
12.0,0.01041943859308958
13.0,0.009629317559301853
14.0,0.009015141054987907
15.0,0.008455323986709118
16.0,0.008009849116206169
18.0,0.0073151965625584126
20.0,0.0066547757014632225
22.0,0.006001266185194254
24.0,0.005366466473788023
26.0,0.004859840963035822
28.0,0.00452011451125145
30.0,0.0042138416320085526
32.0,0.0037508043460547924
36.0,0.002939555561169982
40.0,0.002529614372178912
44.0,0.002337524201720953
48.0,0.002194087253883481
52.0,0.001766019850037992
56.0,0.0012786342995241284
60.0,0.0006281209061853588
64.0,9.542009502183646e-05
72.0,2.6949104722007178e-05
80.0,-0.00024081046285573393
88.0,-0.0002025300491368398
96.0,-4.1909803258022293e-05
104.0,0.00013194853090681136
112.0,0.00022181097301654518
120.0,-4.8820016672834754e-05
128.0,-0.0007138771470636129
144.0,-0.0009210643474943936
160.0,-0.0007057281909510493
176.0,-0.0007137213833630085
192.0,-0.0002465606667101383
208.0,-0.00045949165360070765
224.0,0.0003656046756077558
240.0,0.000633255869615823
256.0,0.00017138432303909212
288.0,-0.0009070647647604346
320.0,-0.0008028214797377586
352.0,-0.00014324816584121436
384.0,-0.00028292922070249915
416.0,-0.000891073199454695
448.0,-9.35277494136244e-05
480.0,0.0007217169040814042
512.0,2.0639054127968848e-05
576.0,-7.266483589773998e-05
640.0,0.0011558773694559932
704.0,0.0005867768777534366
768.0,-0.0002951100468635559
832.0,0.00018065926269628108
896.0,-0.0007292166701517999
960.0,-0.00024830340407788754
1024.0,-0.0012748935259878635
1152.0,-1.2927847819810268e-05
1280.0,-0.0002096230018651113
1408.0,-0.00040031096432358027
1536.0,-0.0002741780481301248
1664.0,-0.0005695820436812937
1792.0,0.00018877637921832502
1920.0,0.00041176946251653135
2048.0,0.0001691598299657926
2304.0,-0.00047772168181836605
2560.0,0.0005555399693548679
2816.0,9.637008588470053e-06
3072.0,-1.1882242688443512e-05
3328.0,-0.0001923495001392439
3584.0,-0.00033078191336244345
3840.0,5.520078775589354e-05
4096.0,4.579700544127263e-05
4608.0,0.00020442993263714015
5120.0,0.00021413587091956288
5632.0,-0.00012697061174549162
6144.0,-0.0006013410747982562
6656.0,-0.0002951322530861944
7168.0,-7.063154043862596e-05
7680.0,0.0005801137303933501
8192.0,0.00013848714297637343
9216.0,8.415082265855744e-05
10240.0,-0.00018388267199043185
11264.0,-0.00037977597094140947
12288.0,0.0002570547512732446
13312.0,-9.406014578416944e-05
14336.0,-0.0001292404776904732
end
