version,3.0
numOfCh,1
type,point
parent_name,400-cuts
ch_type,1_1
kcount,1
numberNandB,1
brightnessNandB,1
carpet pos,0
pc,0
Time (ms),CH1 Auto-Correlation
1.0,0.0455491878092289
2.0,0.041350800544023514
3.0,0.03765992447733879
4.0,0.03452300280332565
5.0,0.03177952393889427
6.0,0.029418136924505234
7.0,0.027370862662792206
8.0,0.025403430685400963
9.0,0.02357027865946293
10.0,0.021930919960141182
11.0,0.020468320697546005
12.0,0.01933874934911728
13.0,0.018302055075764656
14.0,0.01730498857796192
15.0,0.01625031977891922
16.0,0.01534988172352314
18.0,0.013919558376073837
20.0,0.012685934081673622
22.0,0.011355708353221416
24.0,0.010214434005320072
26.0,0.00936039537191391
28.0,0.008542176336050034
30.0,0.007726594340056181
32.0,0.006924430374056101
36.0,0.005615014582872391
40.0,0.004661185666918755
44.0,0.003862657817080617
48.0,0.0032938250806182623
52.0,0.0023550863843411207
56.0,0.0014619454741477966
60.0,0.0010425695218145847
64.0,0.0006419622804969549
72.0,0.0004381286562420428
80.0,0.0008396631455980241
88.0,0.001948271063156426
96.0,0.0017186544137075543
104.0,0.0018789093010127544
112.0,0.001746735186316073
120.0,0.0008714350406080484
128.0,-0.00025350431678816676
144.0,-0.000891316041816026
160.0,-0.0008832564926706254
176.0,0.000990708009339869
192.0,0.0021308008581399918
208.0,0.0017613996751606464
224.0,0.0009615590679459274
240.0,-0.0006346190348267555
256.0,-0.0005391710437834263
288.0,-2.397896423644852e-05
320.0,5.8440833527129143e-05
352.0,-0.0005293635185807943
384.0,-0.0008353501907549798
416.0,-2.063252031803131e-05
448.0,-0.0012049861252307892
480.0,-0.0004953789175488055
512.0,-0.00019370224617887288
576.0,0.00043828494381159544
640.0,0.0031245204154402018
704.0,0.0016660424880683422
768.0,0.001370279467664659
832.0,0.0003075967833865434
896.0,0.0008336251485161483
960.0,0.00056212127674371
1024.0,0.00041138878441415727
1152.0,-0.0025658991653472185
1280.0,-0.00044063609675504267
1408.0,-0.00044325520866550505
1536.0,0.0002853048499673605
1664.0,-0.0007917981129139662
1792.0,0.0001661739661358297
1920.0,-0.001384880393743515
2048.0,-0.0001999581727432087
2304.0,-0.00044265491305850446
2560.0,-0.0007656952366232872
2816.0,-0.0011171592632308602
3072.0,-0.0006829889607615769
3328.0,0.0008863048278726637
3584.0,-8.265627548098564e-05
3840.0,-0.0008350763819180429
4096.0,0.001841317629441619
4608.0,-0.0006438822019845247
5120.0,0.00020922490512020886
5632.0,5.840461017214693e-05
6144.0,-7.525838009314612e-05
6656.0,3.181212014169432e-05
7168.0,-8.272066770587116e-05
7680.0,-0.00026461316156201065
8192.0,-0.0006935498095117509
9216.0,-0.00025903547066263855
10240.0,0.0007850719848647714
11264.0,0.00041014570160768926
12288.0,-0.0011885031126439571
13312.0,0.0011533870128914714
14336.0,5.0772145186783746e-05
end
