version,3.0
numOfCh,1
type,point
parent_name,400-cuts
ch_type,1_1
kcount,1
numberNandB,1
brightnessNandB,1
carpet pos,0
pc,0
Time (ms),CH1 Auto-Correlation
1.0,0.03639611601829529
2.0,0.03264399990439415
3.0,0.029446298256516457
4.0,0.02670399658381939
5.0,0.02438785508275032
6.0,0.022418513894081116
7.0,0.020701974630355835
8.0,0.019195424392819405
9.0,0.017831506207585335
10.0,0.016588745638728142
11.0,0.015333790332078934
12.0,0.014157394878566265
13.0,0.013221561908721924
14.0,0.012182383798062801
15.0,0.011251823045313358
16.0,0.010355553589761257
18.0,0.008924228139221668
20.0,0.007793174125254154
22.0,0.007026634644716978
24.0,0.006629004143178463
26.0,0.006101130973547697
28.0,0.00541443657130003
30.0,0.004799881484359503
32.0,0.004617775324732065
36.0,0.004506531171500683
40.0,0.003973225597292185
44.0,0.003122951602563262
48.0,0.0026816758327186108
52.0,0.002369340043514967
56.0,0.002134856069460511
60.0,0.0019927972462028265
64.0,0.0018018267583101988
72.0,0.0010910475393757224
80.0,0.0006833478109911084
88.0,0.0012627642136067152
96.0,0.0012793955393135548
104.0,0.0012331540929153562
112.0,0.0008340405765920877
120.0,5.0263119192095473e-05
128.0,0.000353889015968889
144.0,0.0022268134634941816
160.0,0.002475152723491192
176.0,0.0011631365632638335
192.0,0.00013208093878347427
208.0,-0.0007808463997207582
224.0,-0.0001604056596988812
240.0,-0.000401523953769356
256.0,-0.0011031734757125378
288.0,-1.5625244486727752e-05
320.0,-0.0010014985455200076
352.0,-0.0010451219277456403
384.0,-0.0007579771336168051
416.0,-0.0006694041076116264
448.0,-6.652125739492476e-05
480.0,-0.00023843911185394973
512.0,-0.00032783797360025346
576.0,-0.000469360122224316
640.0,-0.0005866213468834758
704.0,0.0005412036553025246
768.0,-0.0008114785305224359
832.0,-0.0002601876331027597
896.0,0.00042410072637721896
960.0,-2.795316140691284e-05
1024.0,-0.0008534721564501524
1152.0,-0.000736808346118778
1280.0,-0.00046416514669544995
1408.0,0.001842924510128796
1536.0,0.0011381726944819093
1664.0,0.0009816057281568646
1792.0,0.00039633395499549806
1920.0,-0.0005725264200009406
2048.0,-0.0007049319101497531
2304.0,-3.744458081200719e-05
2560.0,0.00019168904691468924
2816.0,-0.00019666843581944704
3072.0,0.00088822579709813
3328.0,0.0002937849785666913
3584.0,-0.001193164847791195
3840.0,-0.0012751442845910788
4096.0,-0.0005342836957424879
4608.0,4.480355346458964e-05
5120.0,-0.00018515074043534696
5632.0,-0.0003941519826184958
6144.0,0.00022089692356530577
6656.0,-0.00033497196272946894
7168.0,-0.0002920909319072962
7680.0,0.0007758259889669716
8192.0,0.0003314049681648612
9216.0,9.895943367155269e-05
10240.0,0.00016880805196706206
11264.0,-0.0006947217043489218
12288.0,0.0005269187386147678
13312.0,0.0005515428492799401
14336.0,-0.0006968058878555894
end
