version,3.0
numOfCh,1
type,point
parent_name,400-cuts
ch_type,1_1
kcount,1
numberNandB,1
brightnessNandB,1
carpet pos,0
pc,0
Time (ms),CH1 Auto-Correlation
1.0,0.03635936602950096
2.0,0.032642338424921036
3.0,0.029372688382864
4.0,0.026612920686602592
5.0,0.024224158376455307
6.0,0.02218306064605713
7.0,0.020391326397657394
8.0,0.018864886835217476
9.0,0.017523065209388733
10.0,0.01640576310455799
11.0,0.01543247140944004
12.0,0.014513982459902763
13.0,0.013713971711695194
14.0,0.01297837682068348
15.0,0.012353498488664627
16.0,0.01168528851121664
18.0,0.010600894689559937
20.0,0.009566908702254295
22.0,0.008555912412703037
24.0,0.0076256743632256985
26.0,0.006827537901699543
28.0,0.006033618468791246
30.0,0.005454858765006065
32.0,0.005045190919190645
36.0,0.004331082105636597
40.0,0.0033298011403530836
44.0,0.0027210002299398184
48.0,0.0025016451254487038
52.0,0.0024607337545603514
56.0,0.002126488136127591
60.0,0.0009812874486669898
64.0,0.00018894246022682637
72.0,-5.9871137636946514e-05
80.0,4.633105709217489e-05
88.0,-0.0003811625065281987
96.0,0.00029434930183924735
104.0,0.0005831024027429521
112.0,0.00087380176410079
120.0,0.000884769600816071
128.0,0.00010996157652698457
144.0,-0.0012028302298858762
160.0,-0.0003318913222756237
176.0,-0.00010040205961558968
192.0,-0.00012721431266982108
208.0,0.0005905418074689806
224.0,0.0011406951816752553
240.0,0.0021016248501837254
256.0,0.0017328967805951834
288.0,-4.764574259752408e-05
320.0,-0.0010768845677375793
352.0,-0.0005394330946728587
384.0,-0.0007951402803882957
416.0,-0.0005101958522573113
448.0,-0.00010265381570206955
480.0,-0.000250504061114043
512.0,-0.0009804994333535433
576.0,1.4743769497727044e-05
640.0,6.742791447322816e-05
704.0,-0.0006265266565605998
768.0,0.00025506847305223346
832.0,-0.0003722242545336485
896.0,-6.434438546421006e-05
960.0,-0.0005579275311902165
1024.0,-0.00071722362190485
1152.0,-0.0016746772453188896
1280.0,9.25038184504956e-05
1408.0,0.0005352034349925816
1536.0,-5.499827966559678e-05
1664.0,-0.0001790769601939246
1792.0,0.0006162568461149931
1920.0,0.0008928346214815974
2048.0,0.0008166306652128696
2304.0,0.0009298432269133627
2560.0,0.00032662111334502697
2816.0,-0.0011769168777391315
3072.0,-0.0003274574701208621
3328.0,-0.00011832398740807548
3584.0,-5.1419450755929574e-05
3840.0,0.0004085424297954887
4096.0,0.00045794626930728555
4608.0,0.00024148763623088598
5120.0,-0.0006170421838760376
5632.0,0.00027676549507305026
6144.0,0.0001679515844443813
6656.0,0.00044711274676956236
7168.0,-0.001208187430165708
7680.0,-2.8824231776525266e-05
8192.0,0.0007222314015962183
9216.0,-0.00017638583085499704
10240.0,-0.0002877008228097111
11264.0,-0.0004408441891428083
12288.0,-0.0002141018776455894
13312.0,-0.0005689084064215422
14336.0,0.0013183625414967537
end
