version,3.0
numOfCh,1
type,point
parent_name,400-cuts
ch_type,1_1
kcount,1
numberNandB,1
brightnessNandB,1
carpet pos,0
pc,0
Time (ms),CH1 Auto-Correlation
1.0,0.04088940471410751
2.0,0.036831192672252655
3.0,0.03340497985482216
4.0,0.030401503667235374
5.0,0.0278399046510458
6.0,0.02554299682378769
7.0,0.02351953275501728
8.0,0.021769773215055466
9.0,0.02009708248078823
10.0,0.01866256259381771
11.0,0.017377721145749092
12.0,0.016245828941464424
13.0,0.015184832736849785
14.0,0.014126215130090714
15.0,0.013161305338144302
16.0,0.012234978377819061
18.0,0.010808130726218224
20.0,0.009592143818736076
22.0,0.008673762902617455
24.0,0.007913249544799328
26.0,0.007114633917808533
28.0,0.006370499264448881
30.0,0.005815739743411541
32.0,0.0054037924855947495
36.0,0.004653805401176214
40.0,0.0037424429319798946
44.0,0.002686738967895508
48.0,0.001840302487835288
52.0,0.0014350521378219128
56.0,0.0011164238676428795
60.0,0.0007801208412274718
64.0,0.00044412328861653805
72.0,-0.0008576263207942247
80.0,-0.0018801286350935698
88.0,-0.002513316459953785
96.0,-0.0021050209179520607
104.0,-0.0010263185249641538
112.0,-7.473027653759345e-05
120.0,-0.0011686909710988402
128.0,-0.002502797869965434
144.0,-0.0020953132770955563
160.0,-0.0014129854971542954
176.0,-0.0006041000597178936
192.0,1.746952511894051e-05
208.0,-0.000120451113616582
224.0,0.0007127951248548925
240.0,0.0012093075783923268
256.0,0.0012023525778204203
288.0,0.0014112915378063917
320.0,-0.00011727576202247292
352.0,-0.0012846628669649363
384.0,-0.002016607439145446
416.0,-0.001841376768425107
448.0,0.0002815171901602298
480.0,0.0010082981316372752
512.0,-2.4435126761090942e-05
576.0,-0.0007489606505259871
640.0,-0.0015201275236904621
704.0,0.0004004696093033999
768.0,0.00033351255115121603
832.0,-0.00015386514132842422
896.0,-0.0011383729288354516
960.0,7.341094897128642e-05
1024.0,-0.001308901933953166
1152.0,-1.702657391433604e-05
1280.0,8.892993355402723e-05
1408.0,-0.0005943320575170219
1536.0,0.0002698285097721964
1664.0,0.0005245257052592933
1792.0,-0.00023447911371476948
1920.0,0.0010708834743127227
2048.0,0.0003794673248194158
2304.0,-0.000339131715008989
2560.0,-0.00017950685287360102
2816.0,-2.5318886400782503e-05
3072.0,0.0001247869513463229
3328.0,0.00010783829202409834
3584.0,9.048409265233204e-05
3840.0,0.0005004442646168172
4096.0,-0.0006543233175761998
4608.0,-0.0003288908046670258
5120.0,0.00029228729545138776
5632.0,0.0005935970111750066
6144.0,-0.0004065771063324064
6656.0,-0.00011804892710642889
7168.0,0.000598148675635457
7680.0,-0.00015237055777106434
8192.0,-0.0003588538966141641
9216.0,-0.00025666606961749494
10240.0,0.00014356749306898564
11264.0,-0.0004368008812889457
12288.0,0.0005070928600616753
13312.0,-7.519076461903751e-05
14336.0,-0.00027157634031027555
end
