version,3.0
numOfCh,1
type,point
parent_name,400-cuts
ch_type,1_1
kcount,1
numberNandB,1
brightnessNandB,1
carpet pos,0
pc,0
Time (ms),CH1 Auto-Correlation
1.0,0.04052972048521042
2.0,0.036537762731313705
3.0,0.03316647931933403
4.0,0.030204610899090767
5.0,0.02763577736914158
6.0,0.025364752858877182
7.0,0.023357152938842773
8.0,0.021613098680973053
9.0,0.02012694999575615
10.0,0.018810465931892395
11.0,0.017595192417502403
12.0,0.016430538147687912
13.0,0.015389435924589634
14.0,0.01445977482944727
15.0,0.013515196740627289
16.0,0.012585140764713287
18.0,0.011210985481739044
20.0,0.01012132316827774
22.0,0.00923901330679655
24.0,0.008526407182216644
26.0,0.007888145744800568
28.0,0.007154085207730532
30.0,0.006435207091271877
32.0,0.005846566054970026
36.0,0.004885252099484205
40.0,0.004076679237186909
44.0,0.002989683300256729
48.0,0.002421024953946471
52.0,0.0021719690412282944
56.0,0.0017951816553249955
60.0,0.0013605982530862093
64.0,0.0014441109960898757
72.0,0.0021527749486267567
80.0,0.0020616152323782444
88.0,0.0020283819176256657
96.0,0.0018587145023047924
104.0,0.0004317969724070281
112.0,-0.0007761135930195451
120.0,-0.00024486315669491887
128.0,0.0004907988477498293
144.0,-0.00021908750932198018
160.0,-0.0006325242575258017
176.0,-0.00023791255080141127
192.0,-0.0008921923581510782
208.0,-0.0018648452823981643
224.0,-0.0010371652897447348
240.0,0.0007753227837383747
256.0,0.0016864716308191419
288.0,0.00028111410210840404
320.0,-0.0020150761120021343
352.0,-0.002870534546673298
384.0,-0.001094777719117701
416.0,-0.0015537032159045339
448.0,-0.0011871998431161046
480.0,-0.0007707559852860868
512.0,0.00034150396822951734
576.0,0.0022665925789624453
640.0,0.0010867975652217865
704.0,-8.11189238447696e-05
768.0,0.00024145201314240694
832.0,-0.0006144723738543689
896.0,-0.001304119941778481
960.0,-0.0010231263004243374
1024.0,-0.0003413613303564489
1152.0,-0.00021833930804859847
1280.0,0.001410689321346581
1408.0,0.0007174470229074359
1536.0,-0.0021051408257335424
1664.0,0.0001434920559404418
1792.0,-0.00015274772886186838
1920.0,-0.0007269901689141989
2048.0,-0.00047552998876199126
2304.0,0.0002364903484703973
2560.0,-0.0014168117195367813
2816.0,-9.146233060164377e-05
3072.0,0.0002567357150837779
3328.0,0.0002415110357105732
3584.0,0.0008042100816965103
3840.0,-0.0013385802740231156
4096.0,0.0010504263918846846
4608.0,0.0005842426908202469
5120.0,9.378042886964977e-05
5632.0,-0.0012476245174184442
6144.0,-5.218696242081933e-05
6656.0,0.0008130116621032357
7168.0,0.0004907251568511128
7680.0,0.0005022036493755877
8192.0,0.00025766025646589696
9216.0,-0.0005548876360990107
10240.0,-0.0005177534185349941
11264.0,0.0001266592153115198
12288.0,-0.0001746168127283454
13312.0,0.000352276983903721
14336.0,-0.00010956326150335371
end
