version,3.0
numOfCh,1
type,point
parent_name,400-cuts
ch_type,1_1
kcount,1
numberNandB,1
brightnessNandB,1
carpet pos,0
pc,0
Time (ms),CH1 Auto-Correlation
1.0,0.040871813893318176
2.0,0.03701047971844673
3.0,0.033631764352321625
4.0,0.030610181391239166
5.0,0.027941646054387093
6.0,0.025582274422049522
7.0,0.02353067696094513
8.0,0.021752480417490005
9.0,0.020069696009159088
10.0,0.018592683598399162
11.0,0.017330382019281387
12.0,0.016185978427529335
13.0,0.015166888944804668
14.0,0.014361599460244179
15.0,0.013522559776902199
16.0,0.012807808816432953
18.0,0.01151050254702568
20.0,0.010578257963061333
22.0,0.009778565727174282
24.0,0.008931097574532032
26.0,0.008164814673364162
28.0,0.0073730903677642345
30.0,0.006964223459362984
32.0,0.006704741157591343
36.0,0.005445738788694143
40.0,0.0038202472496777773
44.0,0.0024773257318884134
48.0,0.0020411310251802206
52.0,0.0022818627767264843
56.0,0.0022982959635555744
60.0,0.0016357977874577045
64.0,0.0005621700547635555
72.0,0.0008095804369077086
80.0,0.000935637392103672
88.0,0.0006963486084714532
96.0,0.0012048811186105013
104.0,0.00151811633259058
112.0,0.0019868374802172184
120.0,0.001702904817648232
128.0,0.0014038113877177238
144.0,0.0002404272381681949
160.0,-0.0013134856708347797
176.0,-0.0013668675674125552
192.0,-0.00011907294538104907
208.0,0.0018139999592676759
224.0,0.0017736555309966207
240.0,0.0017565235029906034
256.0,0.0009046156192198396
288.0,0.000692204397637397
320.0,0.00133728317450732
352.0,0.001561054727062583
384.0,-0.00017741628107614815
416.0,-0.0013049138942733407
448.0,-0.0025447180960327387
480.0,-0.003894081339240074
512.0,-0.001878828275948763
576.0,-0.0005440418608486652
640.0,-0.0014892967883497477
704.0,1.8766188077279367e-05
768.0,0.0004704334132838994
832.0,-0.0013943903613835573
896.0,7.85824959166348e-05
960.0,0.0002929346519522369
1024.0,0.00019638547382783145
1152.0,0.0008459220989607275
1280.0,-0.0012566781369969249
1408.0,8.287066157208756e-05
1536.0,0.0002603247994557023
1664.0,-0.0006064470508135855
1792.0,0.0017745275981724262
1920.0,0.0005438264342956245
2048.0,0.0003637801273725927
2304.0,0.0002824108232744038
2560.0,-6.765333819203079e-05
2816.0,0.00023046197020448744
3072.0,-0.00015654106391593814
3328.0,1.4155225471768063e-05
3584.0,-2.7722206141334027e-05
3840.0,1.827601772674825e-05
4096.0,0.000508339493535459
4608.0,-0.0010794582776725292
5120.0,2.4220811610575765e-05
5632.0,-0.0001909687416628003
6144.0,0.00036852696212008595
6656.0,-5.5540116591146216e-05
7168.0,0.00030094722751528025
7680.0,-0.0012015505926683545
8192.0,-0.0002874515485018492
9216.0,-0.00012090288510080427
10240.0,-0.00027757426141761243
11264.0,-0.00022635565255768597
12288.0,9.823390428209677e-05
13312.0,1.8233904484077357e-05
14336.0,-0.0004727081977762282
end
