version,3.0
numOfCh,1
type,point
parent_name,400-cuts
ch_type,1_1
kcount,1
numberNandB,1
brightnessNandB,1
carpet pos,0
pc,0
Time (ms),CH1 Auto-Correlation
1.0,0.04168006032705307
2.0,0.03762292489409447
3.0,0.03406887128949165
4.0,0.03103008307516575
5.0,0.028275279328227043
6.0,0.025933634489774704
7.0,0.023805974051356316
8.0,0.021888671442866325
9.0,0.02014118619263172
10.0,0.018769610673189163
11.0,0.017510903999209404
12.0,0.01635839231312275
13.0,0.015381273813545704
14.0,0.014480151236057281
15.0,0.013511322438716888
16.0,0.012585758231580257
18.0,0.011160267516970634
20.0,0.009797689504921436
22.0,0.00846399087458849
24.0,0.0071274894289672375
26.0,0.005967191886156797
28.0,0.00501280277967453
30.0,0.0043065520003438
32.0,0.003910178784281015
36.0,0.0033577363938093185
40.0,0.0031427438370883465
44.0,0.0028920916374772787
48.0,0.0023815182503312826
52.0,0.0019245274597778916
56.0,0.000988095416687429
60.0,0.00039025238947942853
64.0,-0.0002951518981717527
72.0,-0.0014271741965785623
80.0,-0.00232636253349483
88.0,-0.002470649080350995
96.0,-0.002034021308645606
104.0,-0.0024103603791445494
112.0,-0.002811846788972616
120.0,-0.0034415684640407562
128.0,-0.003102036425843835
144.0,-0.0017946106381714344
160.0,-0.0015333871124312282
176.0,-0.0020515115465968847
192.0,-0.0011270437389612198
208.0,-0.0007844576612114906
224.0,-0.0005816738121211529
240.0,-0.0002776451292447746
256.0,-0.0010860314359888434
288.0,9.81476332526654e-05
320.0,0.0011390792205929756
352.0,0.0005210758536122739
384.0,0.0007441123598255217
416.0,0.0005512658972293139
448.0,-0.001360929338261485
480.0,0.00036391764297150075
512.0,0.0015274781035259366
576.0,-0.0003565624065231532
640.0,0.0002292148128617555
704.0,-0.0008772125001996756
768.0,-0.002354569500312209
832.0,-0.0013947883853688836
896.0,-0.0010494982125237584
960.0,0.0005273374845273793
1024.0,0.002781956922262907
1152.0,-0.0006709122098982334
1280.0,-0.00019639803213067353
1408.0,0.00023437413619831204
1536.0,0.001606119330972433
1664.0,-0.0003128897224087268
1792.0,-0.0023089887108653784
1920.0,0.001013046014122665
2048.0,0.0007333426619879901
2304.0,0.00010797232243930921
2560.0,0.0001633854553801939
2816.0,-4.935237666359171e-05
3072.0,0.00046354267396964133
3328.0,-7.2191960498457775e-06
3584.0,0.0003140057378914207
3840.0,7.231414201669395e-05
4096.0,-0.0004190917534288019
4608.0,0.00010527353879297152
5120.0,-0.00044460222125053406
5632.0,0.00012007992336293682
6144.0,0.0004010806151200086
6656.0,-0.0008929783361963928
7168.0,0.0003310777246952057
7680.0,0.00034714964567683637
8192.0,-0.0006896718987263739
9216.0,-3.6312794691184536e-05
10240.0,-4.4161359255667776e-05
11264.0,0.00021476064284797758
12288.0,-0.00022412840917240828
13312.0,0.00022303228615783155
14336.0,-9.185011003864929e-05
end
