version,3.0
numOfCh,1
type,point
parent_name,400-cuts
ch_type,1_1
kcount,1
numberNandB,1
brightnessNandB,1
carpet pos,0
pc,0
Time (ms),CH1 Auto-Correlation
1.0,0.08750415593385696
2.0,0.07897881418466568
3.0,0.0716399997472763
4.0,0.06564497947692871
5.0,0.060413312166929245
6.0,0.05578956380486488
7.0,0.05189072713255882
8.0,0.04838091507554054
9.0,0.04513927549123764
10.0,0.042166758328676224
11.0,0.03957449272274971
12.0,0.037301138043403625
13.0,0.03514958173036575
14.0,0.03300647810101509
15.0,0.030916133895516396
16.0,0.028904860839247704
18.0,0.025402868166565895
20.0,0.022290881723165512
22.0,0.019507410004734993
24.0,0.017026694491505623
26.0,0.01511207316070795
28.0,0.013064260594546795
30.0,0.011339892633259296
32.0,0.01008570659905672
36.0,0.008160551078617573
40.0,0.006867328193038702
44.0,0.0060023050755262375
48.0,0.005131731275469065
52.0,0.004529220052063465
56.0,0.003580432618036866
60.0,0.002008020645007491
64.0,0.001243569771759212
72.0,0.0009629922569729388
80.0,0.0011494725476950407
88.0,0.0015972809633240104
96.0,0.002062529558315873
104.0,0.0013635207433253527
112.0,0.0023811538703739643
120.0,0.004523079842329025
128.0,0.00422259047627449
144.0,0.0013901155907660723
160.0,-0.0012160135665908456
176.0,-0.001798963756300509
192.0,-0.0006686413544230163
208.0,9.58609816734679e-05
224.0,-0.0021735685877501965
240.0,-0.0003487142384983599
256.0,-6.877391570014879e-05
288.0,-0.00370150338858366
320.0,-4.9494687118567526e-05
352.0,-0.00240838760510087
384.0,-0.003318300936371088
416.0,-0.0019489056430757046
448.0,0.0003114904393441975
480.0,0.001270762295462191
512.0,0.0035349514801055193
576.0,0.0008456438663415611
640.0,0.003920525778084993
704.0,0.0009181081550195813
768.0,0.0007566798012703657
832.0,-0.0016890985425561666
896.0,0.0008960745180957019
960.0,0.0002399765362497419
1024.0,0.002195494482293725
1152.0,0.0029150943737477064
1280.0,0.002073586918413639
1408.0,-0.0010672860080376267
1536.0,-0.0006346515729092062
1664.0,0.002839791588485241
1792.0,0.0026693195104599
1920.0,-0.0030525652691721916
2048.0,-0.0012282372917979956
2304.0,0.0010227999882772565
2560.0,-0.0005031860200688243
2816.0,-0.00046534763532690704
3072.0,-0.0012610892299562693
3328.0,0.0012168186949566007
3584.0,-0.0018589620012789965
3840.0,-0.00016284320736303926
4096.0,-0.0019546051044017076
4608.0,-0.0007255329983308911
5120.0,0.0004132554167881608
5632.0,-0.001127349678426981
6144.0,0.0008240635506808758
6656.0,-0.0005741265485994518
7168.0,2.9094890123815276e-05
7680.0,0.0005821521626785398
8192.0,-0.002546959789469838
9216.0,-0.001221274840645492
10240.0,-0.001797409146092832
11264.0,0.0003705130366142839
12288.0,0.0014550128253176808
13312.0,0.003240561578422785
14336.0,-0.0009102185722440481
end
