version,3.0
numOfCh,1
type,point
parent_name,400-cuts
ch_type,1_1
kcount,1
numberNandB,1
brightnessNandB,1
carpet pos,0
pc,0
Time (ms),CH1 Auto-Correlation
1.0,0.04042357578873634
2.0,0.03621450066566467
3.0,0.032596927136182785
4.0,0.02937505953013897
5.0,0.026559460908174515
6.0,0.02411387301981449
7.0,0.022043460980057716
8.0,0.02013281174004078
9.0,0.01850539818406105
10.0,0.01701826974749565
11.0,0.01570603810250759
12.0,0.014416895806789398
13.0,0.013292728923261166
14.0,0.012272034771740437
15.0,0.011408951133489609
16.0,0.010682974010705948
18.0,0.00950936321169138
20.0,0.008620991371572018
22.0,0.007899902760982513
24.0,0.0072745028883218765
26.0,0.006581829860806465
28.0,0.0059119537472724915
30.0,0.0053195650689303875
32.0,0.004534633830189705
36.0,0.0036867940798401833
40.0,0.0028483394999057055
44.0,0.0020361091010272503
48.0,0.001821957528591156
52.0,0.0016553658060729504
56.0,0.0013835590798407793
60.0,0.0014763863291591406
64.0,0.0009545516222715378
72.0,0.00035977340303361416
80.0,0.0004257954133208841
88.0,1.675361636443995e-05
96.0,-0.00014646670024376363
104.0,-0.00035688711795955896
112.0,-0.0003558117023203522
120.0,-0.00027164389030076563
128.0,0.0006225475808605552
144.0,0.001115881372243166
160.0,0.0012949482770636678
176.0,0.0018333379412069917
192.0,0.001432985533028841
208.0,0.0005905911675654352
224.0,0.0008390629664063454
240.0,0.0009577148011885583
256.0,0.00021934228425379843
288.0,0.0012532244436442852
320.0,0.00025527284014970064
352.0,-0.000342793355230242
384.0,-9.818998660193756e-05
416.0,0.000958397809881717
448.0,5.8248755522072315e-05
480.0,-0.0008879546658135951
512.0,-0.00022031737898942083
576.0,0.0002999038842972368
640.0,9.537523874314502e-05
704.0,0.0009382236748933792
768.0,-0.0006505121709778905
832.0,-0.0007349525112658739
896.0,0.0008284433279186487
960.0,0.0010727423941716552
1024.0,0.0002217997534899041
1152.0,-0.00019844132475554943
1280.0,-0.00038947034045122564
1408.0,-0.000574669218622148
1536.0,0.00014489561726804823
1664.0,-0.00044354499550536275
1792.0,-0.0018016828689724207
1920.0,-0.001638887682929635
2048.0,-0.00020573547226376832
2304.0,0.00030755638726986945
2560.0,0.0004078779020346701
2816.0,0.000522179005201906
3072.0,0.00039502233266830444
3328.0,0.00021983360056765378
3584.0,0.00034926552325487137
3840.0,0.0015199906192719936
4096.0,-0.00024567771470174193
4608.0,-0.0002915009972639382
5120.0,-0.0006206804537214339
5632.0,-0.0016860797768458724
6144.0,0.00043719838140532374
6656.0,-0.0001700622378848493
7168.0,0.00045980227878317237
7680.0,0.0004434231377672404
8192.0,-0.001376770087517798
9216.0,-9.147728269454092e-05
10240.0,-0.00028482198831625283
11264.0,0.00046040749293752015
12288.0,0.0001912249717861414
13312.0,-6.713654147461057e-05
14336.0,0.0003983292554039508
end
