version,3.0
numOfCh,1
type,point
parent_name,400-cuts
ch_type,1_1
kcount,1
numberNandB,1
brightnessNandB,1
carpet pos,0
pc,0
Time (ms),CH1 Auto-Correlation
1.0,0.08450636267662048
2.0,0.07609932869672775
3.0,0.06887885928153992
4.0,0.0626632496714592
5.0,0.05702917277812958
6.0,0.05213882774114609
7.0,0.04779573902487755
8.0,0.04381344094872475
9.0,0.04011739417910576
10.0,0.036402683705091476
11.0,0.03325337544083595
12.0,0.03042973391711712
13.0,0.027826575562357903
14.0,0.02562880516052246
15.0,0.023734429851174355
16.0,0.0219805296510458
18.0,0.018518198281526566
20.0,0.015658821910619736
22.0,0.01341621670871973
24.0,0.011679373681545258
26.0,0.010298359207808971
28.0,0.009564236737787724
30.0,0.009113500826060772
32.0,0.008371801115572453
36.0,0.007837021723389626
40.0,0.007742538582533598
44.0,0.007172833196818829
48.0,0.006021497771143913
52.0,0.005067323800176382
56.0,0.004099103156477213
60.0,0.0034751687198877335
64.0,0.002344065345823765
72.0,0.001511597540229559
80.0,0.00033248431282117963
88.0,-0.0008617345592938364
96.0,-0.001145044807344675
104.0,-0.0012291845632717013
112.0,-0.0021915847901254892
120.0,-0.002604072680696845
128.0,-0.0017357064643874764
144.0,-0.00023685887572355568
160.0,-0.001202594256028533
176.0,-0.001871999236755073
192.0,-0.0028423743788152933
208.0,-0.002875440986827016
224.0,-0.0028123126830905676
240.0,0.001373701961711049
256.0,0.003060504561290145
288.0,0.0002247870434075594
320.0,0.0005591729423031211
352.0,-0.00013493893493432552
384.0,-0.003365113167092204
416.0,0.00038102478720247746
448.0,1.3887543900636956e-05
480.0,-0.0017280051251873374
512.0,-0.0016500442288815975
576.0,0.0023300626780837774
640.0,-0.002940151374787092
704.0,-0.0035753408446907997
768.0,-0.0001925459800986573
832.0,-8.719324978301302e-05
896.0,0.0029971119947731495
960.0,-0.0026822357904165983
1024.0,-0.0003883437311742455
1152.0,-0.002163555473089218
1280.0,-0.0006882247980684042
1408.0,-0.001183976884931326
1536.0,0.0009902246529236436
1664.0,0.001341847237199545
1792.0,0.0005189729854464531
1920.0,0.001400385401211679
2048.0,0.0020848913118243217
2304.0,-0.0008500817930325866
2560.0,0.0006799951661378145
2816.0,-0.0018031687941402197
3072.0,-3.739533349289559e-05
3328.0,-0.0004962116363458335
3584.0,0.00027287303237244487
3840.0,-0.0009635279420763254
4096.0,0.0014579364797100425
4608.0,-7.848213863326237e-05
5120.0,-0.0006933498079888523
5632.0,0.0018034889362752438
6144.0,-0.0010586414719000459
6656.0,-0.0013630219036713243
7168.0,-0.0012136601144447923
7680.0,0.0007859242614358664
8192.0,-0.00015006693138275295
9216.0,8.673789125168696e-05
10240.0,0.0003813790390267968
11264.0,0.0005168505595065653
12288.0,-0.00146070949267596
13312.0,0.001463093445636332
14336.0,0.0007652193307876587
end
