version,3.0
numOfCh,1
type,point
parent_name,400-cuts
ch_type,1_1
kcount,1
numberNandB,1
brightnessNandB,1
carpet pos,0
pc,0
Time (ms),CH1 Auto-Correlation
1.0,0.08632638305425644
2.0,0.07813534885644913
3.0,0.07138129323720932
4.0,0.06562557071447372
5.0,0.060499224811792374
6.0,0.055967140942811966
7.0,0.05211278423666954
8.0,0.048653945326805115
9.0,0.04543214291334152
10.0,0.04251919314265251
11.0,0.03985796123743057
12.0,0.037363067269325256
13.0,0.03498733043670654
14.0,0.032983627170324326
15.0,0.03127036243677139
16.0,0.02941054478287697
18.0,0.026068413630127907
20.0,0.02326759696006775
22.0,0.02109350450336933
24.0,0.01930701546370983
26.0,0.018022947013378143
28.0,0.01657651551067829
30.0,0.015073029324412346
32.0,0.0139131685718894
36.0,0.011258144862949848
40.0,0.009204016998410225
44.0,0.007844055071473122
48.0,0.007057878188788891
52.0,0.005544434767216444
56.0,0.0045095523819327354
60.0,0.0034189000725746155
64.0,0.0018381805857643485
72.0,0.0007568551227450371
80.0,-0.00027371960459277034
88.0,0.0013127350248396397
96.0,-0.00016682024579495192
104.0,-0.0013085593236610293
112.0,-0.0014824889367446303
120.0,-0.0005117481341585517
128.0,0.0007058953633531928
144.0,0.0016061151400208473
160.0,0.0014194617979228497
176.0,0.0010047947289422154
192.0,0.0012735908385366201
208.0,-0.00013255159137770534
224.0,0.0012320016976445913
240.0,0.0005308581166900694
256.0,-0.00011483714479254559
288.0,0.0010795597918331623
320.0,-0.0007441476336680353
352.0,0.0037917224690318108
384.0,-0.0006470891530625522
416.0,-0.007026633247733116
448.0,-0.006309620104730129
480.0,-0.002219892106950283
512.0,0.0003921743482351303
576.0,0.001718722633086145
640.0,0.002039012499153614
704.0,0.0009792143246158957
768.0,-0.00156752101611346
832.0,0.0019023847999051213
896.0,-0.0033616728615015745
960.0,0.0002941151615232229
1024.0,0.002639560494571924
1152.0,0.000765789533033967
1280.0,-0.0013283634325489402
1408.0,0.0004622763954102993
1536.0,-0.002315535442903638
1664.0,-0.0017092222115024924
1792.0,-0.0002699904143810272
1920.0,0.0007482950459234416
2048.0,0.0027319048531353474
2304.0,0.002451842650771141
2560.0,-0.0007137302891351283
2816.0,-0.0009662486845627427
3072.0,-0.001506919041275978
3328.0,-0.000428768340498209
3584.0,-0.002646306063979864
3840.0,-0.0011334578739479184
4096.0,-0.0011687359074130654
4608.0,-0.001120823435485363
5120.0,0.0013691553613170981
5632.0,-0.0007774464902468026
6144.0,-0.0010243563447147608
6656.0,-0.0005574944079853594
7168.0,-0.00019944093946833163
7680.0,0.0015256794868037105
8192.0,-0.0019018000457435846
9216.0,-0.0006585308001376688
10240.0,0.00011508206807775423
11264.0,-0.0006675164913758636
12288.0,0.001634917571209371
13312.0,0.0001399403263349086
14336.0,-0.00030743161914870143
end
