version,3.0
numOfCh,1
type,point
parent_name,400-cuts
ch_type,1_1
kcount,1
numberNandB,1
brightnessNandB,1
carpet pos,0
pc,0
Time (ms),CH1 Auto-Correlation
1.0,0.026688560843467712
2.0,0.024001676589250565
3.0,0.021646540611982346
4.0,0.019600095227360725
5.0,0.017798248678445816
6.0,0.01634015515446663
7.0,0.015076049603521824
8.0,0.01390023436397314
9.0,0.01290508545935154
10.0,0.012068049050867558
11.0,0.011304531246423721
12.0,0.010580544359982014
13.0,0.009856653399765491
14.0,0.009149485267698765
15.0,0.008483449928462505
16.0,0.007946317084133625
18.0,0.006962914019823074
20.0,0.006086249370127916
22.0,0.005495954770594835
24.0,0.004890134558081627
26.0,0.0043280888348817825
28.0,0.0038424693048000336
30.0,0.0033707604743540287
32.0,0.002905183006078005
36.0,0.0022727660834789276
40.0,0.0018909802893176675
44.0,0.0018318664515390992
48.0,0.001777460565790534
52.0,0.0015539356973022223
56.0,0.0011651180684566498
60.0,0.0007989564328454435
64.0,0.00043927208753302693
72.0,0.000803290051408112
80.0,0.0011582913575693965
88.0,0.0009406841709278524
96.0,0.0007321532466448843
104.0,0.0004151817411184311
112.0,2.0024879631819203e-05
120.0,-3.0440025511779822e-05
128.0,-0.00027493369998410344
144.0,-0.0006922537577338517
160.0,0.0001250790519407019
176.0,0.0006773752975277603
192.0,0.0005521182320080698
208.0,-0.00024884784943424165
224.0,-0.0003735017671715468
240.0,0.0003205168468412012
256.0,0.0013881514314562082
288.0,0.00041109704761765897
320.0,-0.00017313523858319968
352.0,0.00043662430834956467
384.0,0.0011122048599645495
416.0,0.00014346398529596627
448.0,0.00023688774672336876
480.0,0.000365243322448805
512.0,-0.00027164528728462756
576.0,-2.0410510842339136e-05
640.0,0.00018121462198905647
704.0,0.0002642376930452883
768.0,0.0008347519906237721
832.0,-0.0006697000353597105
896.0,-0.0001869565894594416
960.0,-0.0002572543453425169
1024.0,-0.00039475178346037865
1152.0,0.00035728575312532485
1280.0,0.00021150187239982188
1408.0,-0.0004404439532663673
1536.0,0.00047379685565829277
1664.0,-0.0007772381650283933
1792.0,-0.0004418548778630793
1920.0,0.00043988871038891375
2048.0,-0.00043704916606657207
2304.0,-8.53102610562928e-05
2560.0,0.0006245505646802485
2816.0,-2.4651601052028127e-05
3072.0,0.00017557725368533283
3328.0,-7.527321486122673e-06
3584.0,0.00023232529929373413
3840.0,-0.00011608114436967298
4096.0,-0.00024359510280191898
4608.0,-0.0002832381287589669
5120.0,-0.0005580457509495318
5632.0,-0.0006929480005055666
6144.0,-0.00022775173420086503
6656.0,-8.697236626176164e-05
7168.0,-0.00022775732213631272
7680.0,0.00013978903007227927
8192.0,-6.822458090027794e-05
9216.0,0.00027469274937175214
10240.0,0.0001527821586932987
11264.0,1.8141692635254003e-05
12288.0,0.0003555924922693521
13312.0,-7.773954712320119e-05
14336.0,-0.0005588446510955691
end
