version,3.0
numOfCh,1
type,point
parent_name,400-cuts
ch_type,1_1
kcount,1
numberNandB,1
brightnessNandB,1
carpet pos,0
pc,0
Time (ms),CH1 Auto-Correlation
1.0,0.04321400076150894
2.0,0.03881468623876572
3.0,0.03501434251666069
4.0,0.03178168088197708
5.0,0.029010893777012825
6.0,0.02651877887547016
7.0,0.024368736892938614
8.0,0.02248956635594368
9.0,0.02078346349298954
10.0,0.01927179843187332
11.0,0.01792510412633419
12.0,0.016841163858771324
13.0,0.015894228592514992
14.0,0.0150247011333704
15.0,0.014196374453604221
16.0,0.01339300349354744
18.0,0.011766957119107246
20.0,0.010290062054991722
22.0,0.008958017453551292
24.0,0.007510734256356955
26.0,0.006109182722866535
28.0,0.00527887511998415
30.0,0.004742106888443232
32.0,0.0042181420139968395
36.0,0.0034455484710633755
40.0,0.0031504242215305567
44.0,0.003183064516633749
48.0,0.0032379627227783203
52.0,0.003404951421543956
56.0,0.0033361949026584625
60.0,0.002834831830114126
64.0,0.0024094574619084597
72.0,0.0015203612856566906
80.0,0.00040846611955203116
88.0,-0.0006910848314873874
96.0,-0.0005287070525810122
104.0,0.0002740533964242786
112.0,0.0015659283380955458
120.0,0.001526481006294489
128.0,0.0013289813650771976
144.0,0.00010232806380372494
160.0,-5.0915099564008415e-05
176.0,0.0008439273224212229
192.0,0.0010317567503079772
208.0,0.0009986466029658914
224.0,0.00098170165438205
240.0,0.0005289510008879006
256.0,-0.00023078588128555566
288.0,-0.00043343810830265284
320.0,-0.00028006036882288754
352.0,-0.0014045482967048883
384.0,-0.0016461785417050123
416.0,-0.00043777108658105135
448.0,-0.000958062126301229
480.0,-0.0005704684881493449
512.0,-0.00044257863191887736
576.0,-0.0009624715312384069
640.0,-0.0008980715065263212
704.0,0.00034179113572463393
768.0,0.0016765556065365672
832.0,0.000941152626182884
896.0,0.0014005694538354874
960.0,0.001156512531451881
1024.0,0.0006696279160678387
1152.0,0.0008518652175553143
1280.0,0.0003670718288049102
1408.0,-0.001093297847546637
1536.0,0.00011545754387043417
1664.0,0.0012825496960431337
1792.0,0.001338108442723751
1920.0,0.00014961195120122284
2048.0,-0.0006456309929490089
2304.0,-0.0005764265661127865
2560.0,-0.0004730336368083954
2816.0,0.0004105939588043839
3072.0,-0.0009016460389830172
3328.0,-0.0009683577809482813
3584.0,-0.0010059807682409883
3840.0,-7.053642184473574e-05
4096.0,0.0006852049846202135
4608.0,-0.0004170839092694223
5120.0,-0.00024283220409415662
5632.0,-4.064861423103139e-05
6144.0,-0.00016522018995601684
6656.0,2.9138232093828265e-07
7168.0,0.0001963258400792256
7680.0,0.00030041130958124995
8192.0,0.000669722503516823
9216.0,0.0005687796510756016
10240.0,0.00028252904303371906
11264.0,-0.00018495517724659294
12288.0,-0.0009127851808443666
13312.0,-0.0011422737734392285
14336.0,-0.0007747826748527586
end
