version,3.0
numOfCh,1
type,point
parent_name,400-cuts
ch_type,1_1
kcount,1
numberNandB,1
brightnessNandB,1
carpet pos,0
pc,0
Time (ms),CH1 Auto-Correlation
1.0,0.03967708721756935
2.0,0.03565941005945206
3.0,0.03225172683596611
4.0,0.0293663889169693
5.0,0.026814637705683708
6.0,0.024672184139490128
7.0,0.02269836515188217
8.0,0.020911628380417824
9.0,0.01943194679915905
10.0,0.018156427890062332
11.0,0.017039040103554726
12.0,0.016077643260359764
13.0,0.015194552950561047
14.0,0.014336297288537025
15.0,0.013543879613280296
16.0,0.012772833928465843
18.0,0.011574426665902138
20.0,0.010424894280731678
22.0,0.009258158504962921
24.0,0.00837503932416439
26.0,0.007562322076410055
28.0,0.006675397977232933
30.0,0.005769860465079546
32.0,0.00495834369212389
36.0,0.004092659335583448
40.0,0.0035350255202502012
44.0,0.0032932432368397713
48.0,0.0027985910419374704
52.0,0.0025042674969881773
56.0,0.002439928473904729
60.0,0.0019738555420190096
64.0,0.00130645337048918
72.0,0.00030040901037864387
80.0,-5.9184039855608717e-05
88.0,0.0005906631122343242
96.0,0.0016967786941677332
104.0,0.002211308805271983
112.0,0.0024973631370812654
120.0,0.001979758031666279
128.0,0.0014089855831116438
144.0,-0.00020104680152144283
160.0,-0.00029407930560410023
176.0,-2.6683945179684088e-05
192.0,7.546965207438916e-05
208.0,-0.00041929425788111985
224.0,0.0005664835916832089
240.0,0.0012253999011591077
256.0,0.0012423826847225428
288.0,-7.320005533983931e-05
320.0,0.0008714423747733235
352.0,0.0003266334824729711
384.0,-5.930736369919032e-05
416.0,-0.001150390482507646
448.0,-0.0013883506180718541
480.0,0.00037762956344522536
512.0,0.0017493022605776787
576.0,-0.00017759394540917128
640.0,-0.001256519928574562
704.0,0.0008741376223042607
768.0,0.000767035293392837
832.0,-0.00041827766108326614
896.0,-0.0008086301968432963
960.0,0.0005512069910764694
1024.0,0.0012342040427029133
1152.0,0.0003300528915133327
1280.0,4.25978796556592e-05
1408.0,-0.0017523204442113638
1536.0,0.0006677377969026566
1664.0,-0.0004348458896856755
1792.0,0.0011710608378052711
1920.0,-0.00037664893898181617
2048.0,0.0008544025477021933
2304.0,-0.00040892939432524145
2560.0,5.851016248925589e-05
2816.0,0.00010425634536659345
3072.0,-7.862864003982395e-05
3328.0,0.0006988003733567894
3584.0,0.0005759649793617427
3840.0,0.0005728129181079566
4096.0,-0.0005685461219400167
4608.0,-0.0010325071634724736
5120.0,-0.0005174182588234544
5632.0,0.00014294605352915823
6144.0,4.177333539701067e-05
6656.0,2.748642691585701e-05
7168.0,-0.0010328684002161026
7680.0,-0.0006707331049256027
8192.0,-0.0005502552958205342
9216.0,0.0005543946172110736
10240.0,-0.0008934021461755037
11264.0,-5.851239257026464e-05
12288.0,0.00035255111288279295
13312.0,0.0002654654090292752
14336.0,-0.0006090619135648012
end
