version,3.0
numOfCh,1
type,point
parent_name,400-cuts
ch_type,1_1
kcount,1
numberNandB,1
brightnessNandB,1
carpet pos,0
pc,0
Time (ms),CH1 Auto-Correlation
1.0,0.08407607674598694
2.0,0.07583054155111313
3.0,0.06868378072977066
4.0,0.06263813376426697
5.0,0.05768025666475296
6.0,0.053048063069581985
7.0,0.04910643771290779
8.0,0.04560023546218872
9.0,0.04261638596653938
10.0,0.0399024561047554
11.0,0.037401050329208374
12.0,0.03513295575976372
13.0,0.03287249431014061
14.0,0.030687548220157623
15.0,0.02880566008388996
16.0,0.026862937957048416
18.0,0.024032816290855408
20.0,0.02173594944179058
22.0,0.019587283954024315
24.0,0.01750687137246132
26.0,0.015062402933835983
28.0,0.013241435401141644
30.0,0.011811042204499245
32.0,0.010658588260412216
36.0,0.008494594134390354
40.0,0.00728955864906311
44.0,0.006112808361649513
48.0,0.00512482225894928
52.0,0.003074645297601819
56.0,0.002035110956057906
60.0,0.0018949985969811678
64.0,0.0014113003853708506
72.0,-0.0010005391668528318
80.0,-0.0005364870885387063
88.0,-0.00012830202467739582
96.0,-0.0005982061265967786
104.0,0.0007157751242630184
112.0,7.606783037772402e-05
120.0,-0.0002773930609691888
128.0,-0.0008438014192506671
144.0,0.0005467363516800106
160.0,-0.0001271614310098812
176.0,0.0015161627670750022
192.0,-1.9033917851629667e-05
208.0,-0.00162250897847116
224.0,-0.0038577907253056765
240.0,-0.0041181049309670925
256.0,-0.002036223653703928
288.0,-0.0025792683009058237
320.0,-0.0009494166588410735
352.0,-0.0010386334033682942
384.0,-0.003564221318811178
416.0,0.0017498317174613476
448.0,0.0033605354838073254
480.0,0.002595348283648491
512.0,0.0025568457785993814
576.0,-0.00017340978956781328
640.0,-0.00021429057233035564
704.0,-0.0015588646056130528
768.0,-0.0024013870861381292
832.0,-0.002813417464494705
896.0,0.0017833104357123375
960.0,0.003068603342399001
1024.0,-0.002316343132406473
1152.0,-0.0018172423588111997
1280.0,-0.0002448286395519972
1408.0,0.0014632532838732004
1536.0,-0.0013306224718689919
1664.0,0.0002875315840356052
1792.0,0.002892979420721531
1920.0,0.001071763806976378
2048.0,-0.0017830019351094961
2304.0,-5.3356507123680785e-05
2560.0,-0.001576386159285903
2816.0,0.0011202562600374222
3072.0,-0.0024605703074485064
3328.0,0.00024929942446760833
3584.0,-0.00259835971519351
3840.0,0.0011198066640645266
4096.0,-0.0027739745564758778
4608.0,-0.0005158124258741736
5120.0,-5.555356983677484e-05
5632.0,0.00023262180911842734
6144.0,-0.00036015731166116893
6656.0,0.0009069517836906016
7168.0,0.0002762422082014382
7680.0,0.0017400473589077592
8192.0,0.00029234346584416926
9216.0,-0.0007116907509043813
10240.0,0.0007139528170228004
11264.0,-0.0018396794330328703
12288.0,0.0007036749739199877
13312.0,0.0006007506162859499
14336.0,5.338924893294461e-05
end
