version,3.0
numOfCh,1
type,point
parent_name,400-cuts
ch_type,1_1
kcount,1
numberNandB,1
brightnessNandB,1
carpet pos,0
pc,0
Time (ms),CH1 Auto-Correlation
1.0,0.09104276448488235
2.0,0.08218777924776077
3.0,0.0747297927737236
4.0,0.06814098358154297
5.0,0.06252827495336533
6.0,0.05774395167827606
7.0,0.053382955491542816
8.0,0.049437928944826126
9.0,0.0458151139318943
10.0,0.042665429413318634
11.0,0.03981906175613403
12.0,0.03698025271296501
13.0,0.034654662013053894
14.0,0.03268478065729141
15.0,0.0309157595038414
16.0,0.02943049743771553
18.0,0.02625817060470581
20.0,0.0232076495885849
22.0,0.02072063274681568
24.0,0.018289504572749138
26.0,0.015844302251935005
28.0,0.013991296291351318
30.0,0.012239246629178524
32.0,0.010997556149959564
36.0,0.008691905997693539
40.0,0.007732702884823084
44.0,0.0063640340231359005
48.0,0.005758793093264103
52.0,0.004726146347820759
56.0,0.004242504481226206
60.0,0.004006098490208387
64.0,0.004271491896361113
72.0,0.002772659994661808
80.0,0.0014075525104999542
88.0,0.00016506279644090682
96.0,-0.0007359760347753763
104.0,0.0004591258766595274
112.0,0.0001286080660065636
120.0,-0.0017933434573933482
128.0,-0.0037454976700246334
144.0,-0.004120185971260071
160.0,-0.0026911357417702675
176.0,0.0011239044833928347
192.0,0.0038709903601557016
208.0,0.002639744896441698
224.0,0.0020675233099609613
240.0,0.00287803472019732
256.0,0.004350762348622084
288.0,0.001210346701554954
320.0,0.0038808761164546013
352.0,0.0011790419230237603
384.0,-0.0038647744804620743
416.0,-0.0010254342341795564
448.0,0.0009425506577827036
480.0,-0.0006493581458926201
512.0,0.0010518125491216779
576.0,-0.0006487175705842674
640.0,0.0017641395097598433
704.0,-0.0014973345678299665
768.0,-0.003362336428835988
832.0,-0.0028463180642575026
896.0,-0.0014567015459761024
960.0,0.001200960366986692
1024.0,-0.0016022404888644814
1152.0,0.00033015498775057495
1280.0,-0.0024737792555242777
1408.0,0.00013884491636417806
1536.0,-0.00036546087358146906
1664.0,-0.0017225743504241109
1792.0,-0.003050506114959717
1920.0,0.00018277823983225971
2048.0,-0.0022997462656348944
2304.0,0.00013082881923764944
2560.0,0.0014979196712374687
2816.0,-0.00010630896576913074
3072.0,-0.0006457167328335345
3328.0,-0.0004378301673568785
3584.0,0.0008834731997922063
3840.0,-0.0008292862912639976
4096.0,-0.001070866477675736
4608.0,-9.228592534782365e-05
5120.0,0.0007314698304980993
5632.0,0.0006558551685884595
6144.0,0.0006596764433197677
6656.0,-0.0007704781019128859
7168.0,-0.0006734117632731795
7680.0,-0.0006544842617586255
8192.0,-0.0012711305171251297
9216.0,0.0003083646297454834
10240.0,0.00043608222040347755
11264.0,-0.0009966327343136072
12288.0,-0.0001429138646926731
13312.0,2.4426375603070483e-05
14336.0,-0.0006803715950809419
end
