version,3.0
numOfCh,1
type,point
parent_name,400-cuts
ch_type,1_1
kcount,1
numberNandB,1
brightnessNandB,1
carpet pos,0
pc,0
Time (ms),CH1 Auto-Correlation
1.0,0.04248757287859917
2.0,0.03840935602784157
3.0,0.03484266996383667
4.0,0.03180280327796936
5.0,0.029033930972218513
6.0,0.02676595188677311
7.0,0.02473861165344715
8.0,0.023021692410111427
9.0,0.021651029586791992
10.0,0.02050534263253212
11.0,0.01936880126595497
12.0,0.018287312239408493
13.0,0.017256448045372963
14.0,0.016318362206220627
15.0,0.015405572950839996
16.0,0.014554432593286037
18.0,0.013023360632359982
20.0,0.011889871209859848
22.0,0.01088678278028965
24.0,0.010065412148833275
26.0,0.009322558529675007
28.0,0.008705046959221363
30.0,0.00812454055994749
32.0,0.007759614381939173
36.0,0.007112323306500912
40.0,0.006412993185222149
44.0,0.005581927020102739
48.0,0.005006574559956789
52.0,0.004304265137761831
56.0,0.003840940771624446
60.0,0.003725053509697318
64.0,0.0035817164462059736
72.0,0.003409426426514983
80.0,0.003250689245760441
88.0,0.003025785321369767
96.0,0.002635251497849822
104.0,0.00204016943462193
112.0,0.0017600266728550196
120.0,0.0013970588333904743
128.0,0.0014041261747479439
144.0,0.0006482350872829556
160.0,0.0009652582812123001
176.0,-0.0005260148318484426
192.0,-0.0013516300823539495
208.0,-0.0016564924735575914
224.0,-0.0006243709940463305
240.0,0.0003252086753491312
256.0,0.0005222122999839485
288.0,0.0012485241750255227
320.0,0.001787463086657226
352.0,0.0007670289487577975
384.0,0.0018485208274796605
416.0,0.0008501068805344403
448.0,-0.0014200174482539296
480.0,-0.0014400932705029845
512.0,-0.002474587643519044
576.0,-0.0008947248570621014
640.0,0.0010819900780916214
704.0,0.0008067525923252106
768.0,-0.0012354954378679395
832.0,-0.001998293912038207
896.0,-0.0009046235936693847
960.0,2.8951913918717764e-05
1024.0,0.0008616075501777232
1152.0,-0.0013110172003507614
1280.0,0.0010593055048957467
1408.0,-0.00026418286142870784
1536.0,-0.0001333631225861609
1664.0,0.0009600242483429611
1792.0,0.00034909709938801825
1920.0,0.00031837692949920893
2048.0,0.001453935750760138
2304.0,-0.0012012487277388573
2560.0,0.00013705763558391482
2816.0,8.429139415966347e-05
3072.0,-0.00047990394523367286
3328.0,-0.0007545163971371949
3584.0,0.0006071958923712373
3840.0,-6.307564763119444e-05
4096.0,0.0009603031212463975
4608.0,8.893750054994598e-05
5120.0,-0.0003497317375149578
5632.0,-7.59755348553881e-05
6144.0,-0.0006899472209624946
6656.0,-0.0005652112886309624
7168.0,-1.4003570868226234e-05
7680.0,0.0005993643426336348
8192.0,-0.0006004496244713664
9216.0,-0.00025196565547958016
10240.0,-0.0005225391942076385
11264.0,-8.4784442151431e-05
12288.0,-8.497949602315202e-05
13312.0,0.0014482608530670404
14336.0,6.936764839338139e-05
end
