version,3.0
numOfCh,1
type,point
parent_name,400-cuts
ch_type,1_1
kcount,1
numberNandB,1
brightnessNandB,1
carpet pos,0
pc,0
Time (ms),CH1 Auto-Correlation
1.0,0.027904411777853966
2.0,0.02513742633163929
3.0,0.022710926830768585
4.0,0.020621564239263535
5.0,0.018717672675848007
6.0,0.017083505168557167
7.0,0.015677429735660553
8.0,0.01440346147865057
9.0,0.013272746466100216
10.0,0.012233956716954708
11.0,0.011312208138406277
12.0,0.010443087667226791
13.0,0.009694506414234638
14.0,0.009088641032576561
15.0,0.008533625863492489
16.0,0.008030419237911701
18.0,0.006977584678679705
20.0,0.006038338411599398
22.0,0.00521853007376194
24.0,0.004588725510984659
26.0,0.004051286727190018
28.0,0.003735553240403533
30.0,0.003623158670961857
32.0,0.0035802642814815044
36.0,0.0032319307792931795
40.0,0.00289508537389338
44.0,0.002556751249358058
48.0,0.002305777743458748
52.0,0.002105383202433586
56.0,0.0018058957066386938
60.0,0.0015495818806812167
64.0,0.0012051513185724616
72.0,0.0005610007792711258
80.0,0.000658600009046495
88.0,0.0010363988112658262
96.0,0.0012346406001597643
104.0,0.0008426248095929623
112.0,0.00039934058440849185
120.0,0.0003702102694660425
128.0,0.0004630065232049674
144.0,0.00018032098887488246
160.0,-0.0005070168990641832
176.0,-0.0003769255999941379
192.0,-0.0011617100099101663
208.0,-0.0005052061751484871
224.0,-0.0008486637962050736
240.0,-0.0007230186020024121
256.0,-0.0006382669089362025
288.0,-0.00011294646537862718
320.0,-0.0008331579738296568
352.0,-0.0005704547511413693
384.0,-0.00035183882573619485
416.0,-0.000605263514444232
448.0,-0.00021133765403646976
480.0,-0.00022593748872168362
512.0,4.544607509160414e-05
576.0,0.00046161323552951217
640.0,-0.0002376067277509719
704.0,-0.0009243976091966033
768.0,9.705252887215465e-05
832.0,-0.0005198891158215702
896.0,-0.000987872015684843
960.0,-0.0004946936387568712
1024.0,0.00011056865332648158
1152.0,-0.00026516307843849063
1280.0,-0.00044318250729702413
1408.0,-0.000956998614128679
1536.0,-0.00017860722437035292
1664.0,0.0002775342727545649
1792.0,0.00017343732179142535
1920.0,-9.333120397059247e-05
2048.0,0.00011237518629059196
2304.0,0.00032537823426537216
2560.0,0.0003246398991905153
2816.0,-0.00017881207168102264
3072.0,-0.0006457362906076014
3328.0,-0.00016938518092501909
3584.0,-0.00045758887426927686
3840.0,0.0003129401884507388
4096.0,0.0006090663373470306
4608.0,0.00025685763102956116
5120.0,-0.0005382525851018727
5632.0,-0.0004289173521101475
6144.0,0.0005738144973292947
6656.0,0.0006422378937713802
7168.0,-0.0007123366231098771
7680.0,-0.0002662651240825653
8192.0,3.082624971284531e-05
9216.0,-1.6746666005929e-05
10240.0,1.8458546037436463e-05
11264.0,8.459280797978863e-05
12288.0,-0.00018121437460649759
13312.0,-0.0001118687869166024
14336.0,6.657613994320855e-05
end
