version,3.0
numOfCh,1
type,point
parent_name,400-cuts
ch_type,1_1
kcount,1
numberNandB,1
brightnessNandB,1
carpet pos,0
pc,0
Time (ms),CH1 Auto-Correlation
1.0,0.04033665359020233
2.0,0.03608553484082222
3.0,0.032396771013736725
4.0,0.029173843562602997
5.0,0.026496415957808495
6.0,0.024266595020890236
7.0,0.02231425791978836
8.0,0.02063659206032753
9.0,0.01915239915251732
10.0,0.01790045015513897
11.0,0.016979800537228584
12.0,0.01601146161556244
13.0,0.015119307674467564
14.0,0.01427977904677391
15.0,0.013439389877021313
16.0,0.012680855579674244
18.0,0.011345423758029938
20.0,0.009916571900248528
22.0,0.008425540290772915
24.0,0.0070931557565927505
26.0,0.005838438402861357
28.0,0.005066853016614914
30.0,0.004233235493302345
32.0,0.003311396576464176
36.0,0.00199064495973289
40.0,0.001362229697406292
44.0,0.0010111888404935598
48.0,0.0008085104054771364
52.0,0.0003500857565086335
56.0,-0.00025780167197808623
60.0,-0.0010545180412009358
64.0,-0.0015338144730776548
72.0,-0.00107263820245862
80.0,-0.0006597831379622221
88.0,-0.0010825812350958586
96.0,-0.0013123273383826017
104.0,-0.0014236540300771594
112.0,-0.00047948307474143803
120.0,-0.00028703195857815444
128.0,-0.0009315396891906857
144.0,-0.001552277011796832
160.0,-0.001970939338207245
176.0,-0.002058492973446846
192.0,-0.0013148910365998745
208.0,-0.000660500954836607
224.0,0.00022438736050389707
240.0,-0.0009858785197138786
256.0,-0.0016898494213819504
288.0,-0.0015118233859539032
320.0,0.00046388802002184093
352.0,0.0010323767783120275
384.0,0.00017041181854438037
416.0,-5.5018590501276776e-05
448.0,-0.0010051673743873835
480.0,-0.0008375488687306643
512.0,-0.0008942322456277907
576.0,-0.0003893477551173419
640.0,0.0016888572135940194
704.0,-0.0004689744964707643
768.0,0.0007805533241480589
832.0,-6.197904440341517e-05
896.0,-0.0002460998948663473
960.0,-0.001740635372698307
1024.0,0.0006182612851262093
1152.0,-0.00031383882742375135
1280.0,0.00018747469584923238
1408.0,0.0006907017668709159
1536.0,-0.0018843607977032661
1664.0,0.0012127119116485119
1792.0,1.2650527423829772e-05
1920.0,-0.0004577019717544317
2048.0,0.0010884793009608984
2304.0,-0.0005987656768411398
2560.0,0.0001721930457279086
2816.0,0.0001365452044410631
3072.0,1.0669278708519414e-05
3328.0,0.00038186614983715117
3584.0,-0.0006810667109675705
3840.0,0.0002255804429296404
4096.0,0.00025485598598606884
4608.0,3.298938099760562e-05
5120.0,-0.0003205023822374642
5632.0,0.0004066652909386903
6144.0,-0.00023984767904039472
6656.0,-2.1116311472724192e-05
7168.0,-1.71938900166424e-05
7680.0,-0.0001995660859392956
8192.0,1.1204193469893653e-05
9216.0,-8.780690404819325e-05
10240.0,-4.108167559024878e-05
11264.0,7.841583283152431e-05
12288.0,-0.0001240950368810445
13312.0,0.0004986667190678418
14336.0,-0.00030941935256123543
end
