version,3.0
numOfCh,1
type,point
parent_name,400-cuts
ch_type,1_1
kcount,1
numberNandB,1
brightnessNandB,1
carpet pos,0
pc,0
Time (ms),CH1 Auto-Correlation
1.0,0.07923371344804764
2.0,0.07089348882436752
3.0,0.06381203234195709
4.0,0.057748693972826004
5.0,0.052464745938777924
6.0,0.047948163002729416
7.0,0.04370389133691788
8.0,0.03994045406579971
9.0,0.036865606904029846
10.0,0.03415634110569954
11.0,0.03176145255565643
12.0,0.02956879511475563
13.0,0.02756531909108162
14.0,0.025734636932611465
15.0,0.024220813065767288
16.0,0.022672677412629128
18.0,0.019812773913145065
20.0,0.01775474101305008
22.0,0.015994446352124214
24.0,0.014210730791091919
26.0,0.01234676968306303
28.0,0.010925768874585629
30.0,0.01007628720253706
32.0,0.008723711594939232
36.0,0.006924477405846119
40.0,0.004687421955168247
44.0,0.0023166288156062365
48.0,0.0011033460032194853
52.0,0.0014171615475788713
56.0,0.001983078895136714
60.0,0.0030715670436620712
64.0,0.0034185717813670635
72.0,0.0016950004501268268
80.0,-0.00010055503662442788
88.0,-0.00044295191764831543
96.0,0.0006747436709702015
104.0,0.0003427290648687631
112.0,0.002547911135479808
120.0,0.002809087513014674
128.0,0.0024133287370204926
144.0,0.0002540072309784591
160.0,0.0009284287807531655
176.0,0.0005130801000632346
192.0,0.0005358238122425973
208.0,-0.00013759669673163444
224.0,-0.0022119362838566303
240.0,-0.002149449661374092
256.0,-0.000961374316830188
288.0,-0.002468868624418974
320.0,0.001201277133077383
352.0,4.0134222217602655e-05
384.0,0.00046896017738617957
416.0,0.0004615607322193682
448.0,0.0019273711368441582
480.0,0.003866352839395404
512.0,-0.0014650063822045922
576.0,-0.0022295766975730658
640.0,-0.0014059757813811302
704.0,-0.0010330765508115292
768.0,-0.000451942760264501
832.0,0.0012513851979747415
896.0,0.0013638921082019806
960.0,0.0029110752511769533
1024.0,-0.0003779539547394961
1152.0,0.0010068599367514253
1280.0,0.0008456245413981378
1408.0,-0.0004877979517914355
1536.0,-0.0007215728983283043
1664.0,-0.00010363329784013331
1792.0,0.0008331640274263918
1920.0,0.0014340478228405118
2048.0,0.0009706854471005499
2304.0,0.00010190982720814645
2560.0,0.0001909922866616398
2816.0,-0.0009136704611591995
3072.0,-0.0003820118145085871
3328.0,-0.00043347710743546486
3584.0,-0.002498258138075471
3840.0,0.0016832939581945539
4096.0,0.00038665480678901076
4608.0,-0.0012801425764337182
5120.0,-0.0004949770518578589
5632.0,0.0002075337979476899
6144.0,0.0013752958038821816
6656.0,0.0010597286745905876
7168.0,-0.00038997831870801747
7680.0,0.0008859696099534631
8192.0,0.00040024632471613586
9216.0,-0.0009711235179565847
10240.0,-0.000766075449064374
11264.0,-0.001427571172825992
12288.0,-0.00047814042773097754
13312.0,-0.00044207676546648145
14336.0,0.0009125285432673991
end
