version,3.0
numOfCh,1
type,point
parent_name,400-cuts
ch_type,1_1
kcount,1
numberNandB,1
brightnessNandB,1
carpet pos,0
pc,0
Time (ms),CH1 Auto-Correlation
1.0,0.025778403505682945
2.0,0.023076795041561127
3.0,0.020758528262376785
4.0,0.018740573897957802
5.0,0.016973502933979034
6.0,0.015383531339466572
7.0,0.014002444222569466
8.0,0.012906641699373722
9.0,0.01187860406935215
10.0,0.010995525866746902
11.0,0.01024943869560957
12.0,0.009609746746718884
13.0,0.00902645755559206
14.0,0.00849383044987917
15.0,0.008017171174287796
16.0,0.007497308310121298
18.0,0.0066684540361166
20.0,0.005858086980879307
22.0,0.005097005516290665
24.0,0.004476284608244896
26.0,0.004080414772033691
28.0,0.00393878947943449
30.0,0.0036193965934216976
32.0,0.0033592479303479195
36.0,0.0030186099465936422
40.0,0.0027899739798158407
44.0,0.002840261207893491
48.0,0.0026120301336050034
52.0,0.0020584003068506718
56.0,0.0018012197688221931
60.0,0.0016279129777103662
64.0,0.0015014100354164839
72.0,0.0008446688298135996
80.0,0.00025976437609642744
88.0,0.0001520448422525078
96.0,0.00024099090660456568
104.0,2.725954618654214e-05
112.0,-0.00014806313265580684
120.0,0.0002512865175958723
128.0,0.0007345832418650389
144.0,0.0013621957041323185
160.0,0.0013300508726388216
176.0,0.001231834408827126
192.0,0.0017246552743017673
208.0,0.0014049678575247526
224.0,0.0008077414240688086
240.0,0.000160795112606138
256.0,-0.0010643822606652975
288.0,-0.0002127010957337916
320.0,0.0005465475260280073
352.0,0.0010995790362358093
384.0,0.00043960975017398596
416.0,3.294214548077434e-05
448.0,0.0002022678090725094
480.0,0.00011545275629032403
512.0,4.4470234570326284e-05
576.0,0.0008432225440628827
640.0,0.000171439562109299
704.0,-5.79842999286484e-05
768.0,0.0006167225074023008
832.0,0.0003990416298620403
896.0,-3.4294619126740145e-06
960.0,0.0007083422970026731
1024.0,-0.00016496983880642802
1152.0,0.0004075851175002754
1280.0,0.0004077455960214138
1408.0,-0.00012145002983743325
1536.0,-5.092166975373402e-05
1664.0,0.00018663138325791806
1792.0,-0.00016487824905198067
1920.0,-0.00013625188148580492
2048.0,-0.0002524572773836553
2304.0,0.0003175998863298446
2560.0,-0.00028029721579514444
2816.0,-0.0001751221570884809
3072.0,0.00041453627636656165
3328.0,-0.0003793486685026437
3584.0,1.0664356523193419e-05
3840.0,-0.00014136605022940785
4096.0,-0.00010413039126433432
4608.0,-0.0011986518511548638
5120.0,-0.0006158408359624445
5632.0,-8.546431490685791e-05
6144.0,-5.027689257985912e-05
6656.0,-0.000361230835551396
7168.0,-0.0002596683334559202
7680.0,-5.178709398023784e-05
8192.0,-0.0007006973610259593
9216.0,0.00033432868076488376
10240.0,-4.532515595201403e-05
11264.0,0.0006399113335646689
12288.0,2.353519812459126e-05
13312.0,-0.00040314564830623567
14336.0,8.32172099762829e-06
end
