version,3.0
numOfCh,1
type,point
parent_name,400-cuts
ch_type,1_1
kcount,1
numberNandB,1
brightnessNandB,1
carpet pos,0
pc,0
Time (ms),CH1 Auto-Correlation
1.0,0.02614140883088112
2.0,0.023497188463807106
3.0,0.021294860169291496
4.0,0.0193996112793684
5.0,0.017760565504431725
6.0,0.01637800969183445
7.0,0.015163584612309933
8.0,0.014080257155001163
9.0,0.013132632710039616
10.0,0.012210696935653687
11.0,0.011436049826443195
12.0,0.010690047405660152
13.0,0.010013710707426071
14.0,0.009388831444084644
15.0,0.008776861242949963
16.0,0.008207871578633785
18.0,0.007075813598930836
20.0,0.005974350962787867
22.0,0.005047284997999668
24.0,0.0042409468442201614
26.0,0.0036123618483543396
28.0,0.003172903787344694
30.0,0.002758337650448084
32.0,0.0023949758615344763
36.0,0.0018052833620458841
40.0,0.001676157466135919
44.0,0.0016019237227737904
48.0,0.0014373763697221875
52.0,0.0012278311187401414
56.0,0.001099826069548726
60.0,0.001108095864765346
64.0,0.0012983051128685474
72.0,0.0017771736020222306
80.0,0.00188817223533988
88.0,0.0013658811803907156
96.0,0.0011433607432991266
104.0,0.0006257615168578923
112.0,0.0002634245902299881
120.0,0.0005998570122756064
128.0,0.0009369066101498902
144.0,0.0009034097311086953
160.0,0.0013568941503763199
176.0,0.0015682501252740622
192.0,0.0010549884755164385
208.0,0.0006243987008929253
224.0,0.00019629453890956938
240.0,3.4504442737670615e-05
256.0,8.847199205774814e-05
288.0,-0.000624404230620712
320.0,-0.0006127191591076553
352.0,-0.0009569072863087058
384.0,-0.00024353810294996947
416.0,0.0006115518626756966
448.0,-0.0005625226767733693
480.0,-0.000329854607116431
512.0,0.0006053837714716792
576.0,0.0006791276391595602
640.0,0.0009669443825259805
704.0,-0.00019095541210845113
768.0,-2.109117986037745e-06
832.0,0.0005359550705179572
896.0,-0.0007500008214265108
960.0,-0.0011433267500251532
1024.0,-0.0010219707619398832
1152.0,-0.0008682504412718117
1280.0,0.0004245448508299887
1408.0,0.0006340581458061934
1536.0,-0.00012856291141360998
1664.0,-5.778983177151531e-05
1792.0,0.0007006088853813708
1920.0,0.0007385683711618185
2048.0,-0.00027723764651454985
2304.0,-0.000456599285826087
2560.0,-8.322178473463282e-05
2816.0,-0.0011158440029248595
3072.0,0.00018753261247184128
3328.0,-6.947009387658909e-05
3584.0,-0.00016422421322204173
3840.0,0.0008288907702080905
4096.0,0.0002438060037093237
4608.0,-0.0006333358469419181
5120.0,0.00023317354498431087
5632.0,0.00026067037833854556
6144.0,-0.0007407289231196046
6656.0,-0.000371063913917169
7168.0,0.0004638626123778522
7680.0,0.00020816877076867968
8192.0,-0.0007303472957573831
9216.0,-0.0001860196643974632
10240.0,-0.0003717133076861501
11264.0,0.00038775824941694736
12288.0,0.000261463486822322
13312.0,0.00011929224274354056
14336.0,1.7571352145751007e-05
end
