version,3.0
numOfCh,1
type,point
parent_name,400-cuts
ch_type,1_1
kcount,1
numberNandB,1
brightnessNandB,1
carpet pos,0
pc,0
Time (ms),CH1 Auto-Correlation
1.0,0.09413650631904602
2.0,0.08496696501970291
3.0,0.07683029025793076
4.0,0.06995292007923126
5.0,0.06377747654914856
6.0,0.05840332433581352
7.0,0.05367204546928406
8.0,0.04953913763165474
9.0,0.04590248316526413
10.0,0.042813945561647415
11.0,0.04012703523039818
12.0,0.03763066232204437
13.0,0.0352921336889267
14.0,0.033209990710020065
15.0,0.031011680141091347
16.0,0.028766337782144547
18.0,0.02429436892271042
20.0,0.020806461572647095
22.0,0.0176855381578207
24.0,0.015203963033854961
26.0,0.013396011665463448
28.0,0.01129991840571165
30.0,0.009173395112156868
32.0,0.007483611349016428
36.0,0.0042244973592460155
40.0,0.0025348225608468056
44.0,0.0020667766220867634
48.0,0.0020761266350746155
52.0,0.001969550736248493
56.0,0.0016370083903893828
60.0,0.0016387684736400843
64.0,0.0020427911076694727
72.0,0.0025027431547641754
80.0,0.001662338268943131
88.0,-0.00019425200298428535
96.0,-0.0003420722496230155
104.0,0.0017197899287566543
112.0,0.0031968236435204744
120.0,0.002191618550568819
128.0,0.003079822985455394
144.0,0.002794243860989809
160.0,0.0005384194664657116
176.0,-0.0008982812869362533
192.0,-0.00417306600138545
208.0,-0.0023247976787388325
224.0,-0.000507176446262747
240.0,-0.0029027468990534544
256.0,-0.004006213508546352
288.0,-0.0003747821901924908
320.0,-0.0003843779268208891
352.0,0.003518492914736271
384.0,0.001133276498876512
416.0,-0.000143247059895657
448.0,-0.0010434474097564816
480.0,0.000987004954367876
512.0,-0.0006207135738804936
576.0,-0.000598577898927033
640.0,-0.004299106542021036
704.0,0.0009773229248821735
768.0,-0.0011466838186606765
832.0,0.002785866614431143
896.0,3.518932135193609e-05
960.0,-0.003343493677675724
1024.0,-0.002299924148246646
1152.0,-0.0018012652872130275
1280.0,-0.0026074836496263742
1408.0,-0.00047663389705121517
1536.0,0.003057885682210326
1664.0,0.00200362759642303
1792.0,-0.002070983871817589
1920.0,0.00017803390801418573
2048.0,0.0032262715976685286
2304.0,0.000639226462226361
2560.0,-0.0013476219028234482
2816.0,-0.0009340032702311873
3072.0,-0.00047227434697560966
3328.0,-0.0003828725020866841
3584.0,0.00039652333362028003
3840.0,-0.0021237924229353666
4096.0,0.0003093630075454712
4608.0,-7.597195508424193e-05
5120.0,-0.00048392024473287165
5632.0,-3.7886868540226715e-06
6144.0,-2.901884727180004e-05
6656.0,0.0012166971573606133
7168.0,-0.0010757073760032654
7680.0,-0.001124369795434177
8192.0,0.0002383644023211673
9216.0,-0.0007729767821729183
10240.0,0.0025865957140922546
11264.0,-0.0015166096854954958
12288.0,0.0006751259206794202
13312.0,-0.0034928100649267435
14336.0,-0.000160374358529225
end
