version,3.0
numOfCh,1
type,point
parent_name,400-cuts
ch_type,1_1
kcount,1
numberNandB,1
brightnessNandB,1
carpet pos,0
pc,0
Time (ms),CH1 Auto-Correlation
1.0,0.02665914222598076
2.0,0.02410626783967018
3.0,0.021972211077809334
4.0,0.020053880289196968
5.0,0.018447965383529663
6.0,0.017060143873095512
7.0,0.015811743214726448
8.0,0.014687314629554749
9.0,0.01370779238641262
10.0,0.012852569110691547
11.0,0.012052701786160469
12.0,0.011288494803011417
13.0,0.01055074855685234
14.0,0.009824727661907673
15.0,0.009148634970188141
16.0,0.008526567369699478
18.0,0.0074516236782073975
20.0,0.006586638279259205
22.0,0.005898950155824423
24.0,0.005537485703825951
26.0,0.005277147050946951
28.0,0.004940780811011791
30.0,0.0046152230352163315
32.0,0.004337795544415712
36.0,0.003483656095340848
40.0,0.0029737406875938177
44.0,0.0029380342457443476
48.0,0.002734279027208686
52.0,0.0023803021758794785
56.0,0.002241348149254918
60.0,0.0019585448317229748
64.0,0.0016988443676382303
72.0,0.0012213247828185558
80.0,0.0013265422312542796
88.0,0.001274802372790873
96.0,0.0008824986289255321
104.0,0.0006833231309428811
112.0,0.0006803746800869703
120.0,0.0011496666120365262
128.0,0.0011080659460276365
144.0,0.0008749124826863408
160.0,0.0007074141758494079
176.0,0.0010213404893875122
192.0,0.0016012972919270396
208.0,0.0010323916794732213
224.0,-0.00014758553879801184
240.0,-0.0005426545976661146
256.0,-7.533434109063819e-05
288.0,0.0002315283054485917
320.0,-0.0009592556161805987
352.0,0.00015978571900632232
384.0,0.0005622751195915043
416.0,0.0003003505989909172
448.0,0.0009598281467333436
480.0,0.0016861973563209176
512.0,0.0006229333812370896
576.0,2.182874050049577e-05
640.0,0.0007406487129628658
704.0,-0.00014608573110308498
768.0,1.8053900930681266e-05
832.0,-0.00020998134277760983
896.0,0.0004915751051157713
960.0,0.0010020656045526266
1024.0,0.0009487797506153584
1152.0,0.0005065944278612733
1280.0,0.00045062907156534493
1408.0,-0.0004804081399925053
1536.0,0.00019807978242170066
1664.0,-3.942771581932902e-05
1792.0,-0.0008026001742109656
1920.0,-0.001115404418669641
2048.0,0.000638518191408366
2304.0,-0.00039209306123666465
2560.0,9.63147158472566e-06
2816.0,-0.0002720505290199071
3072.0,-0.00010250866034766659
3328.0,0.00028576323529705405
3584.0,-0.00013403058983385563
3840.0,-0.00023181122378446162
4096.0,-0.0007774154655635357
4608.0,-5.583602251135744e-05
5120.0,-0.0005832150927744806
5632.0,-0.00023368748952634633
6144.0,-0.0006584097864106297
6656.0,-3.866544648190029e-05
7168.0,-0.0005285461666062474
7680.0,0.00015348184388130903
8192.0,0.0003436426923144609
9216.0,4.3368916522013023e-05
10240.0,-1.8668009943212382e-05
11264.0,0.00047646748134866357
12288.0,-2.3163722744357074e-06
13312.0,-0.0005622899625450373
14336.0,-1.077075103239622e-05
end
