version,3.0
numOfCh,1
type,point
parent_name,400-cuts
ch_type,1_1
kcount,1
numberNandB,1
brightnessNandB,1
carpet pos,0
pc,0
Time (ms),CH1 Auto-Correlation
1.0,0.0828440859913826
2.0,0.07443153858184814
3.0,0.06738696247339249
4.0,0.06108960136771202
5.0,0.05576232448220253
6.0,0.051591116935014725
7.0,0.04791737720370293
8.0,0.044524505734443665
9.0,0.04136189445853233
10.0,0.03876636177301407
11.0,0.03654069826006889
12.0,0.03472631052136421
13.0,0.03305463492870331
14.0,0.03142818436026573
15.0,0.03003198839724064
16.0,0.028649110347032547
18.0,0.026212476193904877
20.0,0.024265777319669724
22.0,0.02240227349102497
24.0,0.021198676899075508
26.0,0.02012297697365284
28.0,0.01866202801465988
30.0,0.01702820509672165
32.0,0.01551490556448698
36.0,0.012771571055054665
40.0,0.01122740376740694
44.0,0.009782139211893082
48.0,0.008041063323616982
52.0,0.006881785579025745
56.0,0.005630268715322018
60.0,0.004878846462816
64.0,0.004519284702837467
72.0,0.003739104839041829
80.0,0.0031039388850331306
88.0,0.0037298945244401693
96.0,0.0039830743335187435
104.0,0.004417777061462402
112.0,0.006077072583138943
120.0,0.007885584607720375
128.0,0.007580813020467758
144.0,0.005830151028931141
160.0,0.0035808098036795855
176.0,-0.0016090968856588006
192.0,-0.003166330512613058
208.0,-0.002996732946485281
224.0,-0.003044622717425227
240.0,-0.0006959729944355786
256.0,-0.0003076622379012406
288.0,-6.585645314771682e-05
320.0,-0.0024790202733129263
352.0,-0.0011655420530587435
384.0,-0.0017059023957699537
416.0,-0.0041277529671788216
448.0,-0.0007292589289136231
480.0,0.00018235566676594317
512.0,0.0023452406749129295
576.0,-0.002889020601287484
640.0,0.0012654223246499896
704.0,-0.0008918282692320645
768.0,-0.003033614018931985
832.0,-0.005030827131122351
896.0,-0.002965602558106184
960.0,-0.0023465619888156652
1024.0,-0.0005493335193023086
1152.0,0.0006051873206160963
1280.0,0.001285472302697599
1408.0,0.0007921237265691161
1536.0,-0.0003777459205593914
1664.0,0.0019756658002734184
1792.0,0.0022462357301265
1920.0,-0.0033230800181627274
2048.0,-0.002645286964252591
2304.0,-0.00032398957409895957
2560.0,-0.0005788052803836763
2816.0,0.0007450223783962429
3072.0,0.0027469864580780268
3328.0,-0.0014276406727731228
3584.0,-0.0034993039444088936
3840.0,0.0008969399495981634
4096.0,0.0011370274005457759
4608.0,-0.0012417439138516784
5120.0,0.0008651078678667545
5632.0,-0.0008214892586693168
6144.0,-0.0008627396309748292
6656.0,0.0014853252796456218
7168.0,-0.0021024756133556366
7680.0,0.0007099796202965081
8192.0,0.0002924971922766417
9216.0,-0.0003225685504730791
10240.0,0.002049350878223777
11264.0,-0.0004012197023257613
12288.0,-0.0013976265909150243
13312.0,8.762644574744627e-05
14336.0,0.000352954346453771
end
