version,3.0
numOfCh,1
type,point
parent_name,0cd20_0dot1-0dot1
ch_type,1_1
kcount,1
numberNandB,1
brightnessNandB,1
carpet pos,0
pc,0
Time (ms),CH1 Auto-Correlation
1.0,0.06046801432967186
2.0,0.05998808518052101
3.0,0.059522595256567
4.0,0.05907636508345604
5.0,0.05864133685827255
6.0,0.05821395292878151
7.0,0.05780486762523651
8.0,0.05740329623222351
9.0,0.05701320990920067
10.0,0.0566042922437191
11.0,0.05620267242193222
12.0,0.05581669509410858
13.0,0.05543917790055275
14.0,0.05507637932896614
15.0,0.054726697504520416
16.0,0.054370369762182236
18.0,0.053697600960731506
20.0,0.05302673950791359
22.0,0.05235633999109268
24.0,0.05167336016893387
26.0,0.050971850752830505
28.0,0.050248127430677414
30.0,0.04953288659453392
32.0,0.04882872849702835
36.0,0.047516848891973495
40.0,0.04626996070146561
44.0,0.04510147124528885
48.0,0.0440676249563694
52.0,0.04312048479914665
56.0,0.042222555726766586
60.0,0.04140394926071167
64.0,0.04063178971409798
72.0,0.03926627337932587
80.0,0.03801007568836212
88.0,0.03697792813181877
96.0,0.03604978695511818
104.0,0.035326339304447174
112.0,0.034703388810157776
120.0,0.034019820392131805
128.0,0.0333455465734005
144.0,0.0320657379925251
160.0,0.031144320964813232
176.0,0.030354131013154984
192.0,0.02956475503742695
208.0,0.028716325759887695
224.0,0.028674956411123276
240.0,0.028840644285082817
256.0,0.028858793899416924
288.0,0.028477266430854797
320.0,0.026897592470049858
352.0,0.024544479325413704
384.0,0.02242148108780384
416.0,0.019785773009061813
448.0,0.017627602443099022
480.0,0.015914591029286385
512.0,0.015389190055429935
576.0,0.015713857486844063
640.0,0.013346746563911438
704.0,0.011752208694815636
768.0,0.011476156301796436
832.0,0.010719814337790012
896.0,0.010028479620814323
960.0,0.009888571687042713
1024.0,0.011528645642101765
1152.0,0.014649451710283756
1280.0,0.019044775515794754
1408.0,0.019393283873796463
1536.0,0.017820851877331734
1664.0,0.014019823633134365
1792.0,0.006940447259694338
1920.0,3.5975477658212185e-05
2048.0,-0.003318555885925889
2304.0,-0.007707550190389156
2560.0,-0.005851985886693001
2816.0,0.00013434355787467211
3072.0,0.001497997553087771
3328.0,-0.006479472387582064
3584.0,-0.01506002340465784
3840.0,-0.018664192408323288
4096.0,-0.012181350030004978
4608.0,-0.006206586491316557
5120.0,-0.00957403238862753
5632.0,-0.005101627204567194
6144.0,0.0026340531185269356
6656.0,0.0015022875741124153
7168.0,0.008502491749823093
7680.0,0.01501905545592308
8192.0,0.014197965152561665
end
