version,3.0
numOfCh,1
type,point
parent_name,0cd20_0dot1-0dot1
ch_type,1_1
kcount,1
numberNandB,1
brightnessNandB,1
carpet pos,0
pc,0
Time (ms),CH1 Auto-Correlation
1.0,0.08681970089673996
2.0,0.08539285510778427
3.0,0.08397326618432999
4.0,0.08275448530912399
5.0,0.08144037425518036
6.0,0.08036614954471588
7.0,0.07911966741085052
8.0,0.07791679352521896
9.0,0.07671041041612625
10.0,0.07564496248960495
11.0,0.07456047832965851
12.0,0.0734667181968689
13.0,0.07241203635931015
14.0,0.0713139995932579
15.0,0.07023697346448898
16.0,0.0692225992679596
18.0,0.06690516322851181
20.0,0.06498772650957108
22.0,0.06314873695373535
24.0,0.061387255787849426
26.0,0.05973121151328087
28.0,0.05790939927101135
30.0,0.05608148127794266
32.0,0.054512929171323776
36.0,0.05180969834327698
40.0,0.049491845071315765
44.0,0.04717585816979408
48.0,0.04530617967247963
52.0,0.04365043342113495
56.0,0.04198669269680977
60.0,0.04039566218852997
64.0,0.038910187780857086
72.0,0.03648698329925537
80.0,0.035077668726444244
88.0,0.034010306000709534
96.0,0.032214049249887466
104.0,0.030259376391768456
112.0,0.028414411470294
120.0,0.026526540517807007
128.0,0.025403941050171852
144.0,0.023678414523601532
160.0,0.021926255896687508
176.0,0.02085694670677185
192.0,0.020166831091046333
208.0,0.01854085922241211
224.0,0.016548536717891693
240.0,0.013993550091981888
256.0,0.012628654949367046
288.0,0.006257600616663694
320.0,0.001069757272489369
352.0,-0.002829974750056863
384.0,-0.0040847426280379295
416.0,-0.0008880695677362382
448.0,0.0015420223353430629
480.0,0.0021280336659401655
512.0,0.0017732185078784823
576.0,0.0007058497285470366
640.0,0.002589245093986392
704.0,0.0008584295865148306
768.0,0.0021652779541909695
832.0,0.004237533546984196
896.0,0.005403622984886169
960.0,0.0018620130140334368
1024.0,0.003672094317153096
1152.0,-0.0011739210458472371
1280.0,-0.00016556482296437025
1408.0,0.005503189284354448
1536.0,0.013766169548034668
1664.0,0.01009249035269022
1792.0,0.007083355449140072
1920.0,0.0073783379048109055
2048.0,0.006862103473395109
2304.0,8.299921319121495e-05
2560.0,0.0007246551103889942
2816.0,0.01023786049336195
3072.0,0.00450556818395853
3328.0,-0.0030124203767627478
3584.0,-0.0033240444026887417
3840.0,-0.004672318696975708
4096.0,0.0021527574863284826
4608.0,-0.008030813187360764
5120.0,-0.0089061064645648
5632.0,-0.000923306099139154
6144.0,-0.013203311711549759
6656.0,-0.010988946072757244
7168.0,-0.0033555161207914352
7680.0,-0.0033650367986410856
8192.0,-0.009203651919960976
end
