version,3.0
numOfCh,1
type,point
parent_name,0cd20_0dot1-0dot1
ch_type,1_1
kcount,1
numberNandB,1
brightnessNandB,1
carpet pos,0
pc,0
Time (ms),CH1 Auto-Correlation
1.0,0.04621993750333786
2.0,0.04569953307509422
3.0,0.04518413171172142
4.0,0.04470466822385788
5.0,0.04422540217638016
6.0,0.043771885335445404
7.0,0.04332414269447327
8.0,0.04289890453219414
9.0,0.04246443510055542
10.0,0.04204966127872467
11.0,0.04164883494377136
12.0,0.04126220569014549
13.0,0.040875282138586044
14.0,0.04048687964677811
15.0,0.04009498655796051
16.0,0.03971433266997337
18.0,0.038988132029771805
20.0,0.03831455484032631
22.0,0.03763892129063606
24.0,0.03696475923061371
26.0,0.03631413355469704
28.0,0.035691190510988235
30.0,0.035063985735177994
32.0,0.03442100062966347
36.0,0.03316444903612137
40.0,0.03197382763028145
44.0,0.030790479853749275
48.0,0.02973860502243042
52.0,0.0287424698472023
56.0,0.027695119380950928
60.0,0.026597151532769203
64.0,0.025471609085798264
72.0,0.023551320657134056
80.0,0.021835392341017723
88.0,0.02025557868182659
96.0,0.01875406689941883
104.0,0.017478488385677338
112.0,0.016217181459069252
120.0,0.015131580643355846
128.0,0.014216138981282711
144.0,0.012289526872336864
160.0,0.01064742635935545
176.0,0.009030682034790516
192.0,0.007431965321302414
208.0,0.005830834154039621
224.0,0.004466775804758072
240.0,0.003474782919511199
256.0,0.0025856883730739355
288.0,0.0022281294222921133
320.0,0.0027363758999854326
352.0,0.002455461537465453
384.0,0.002041320549324155
416.0,0.0019513146253302693
448.0,0.0019327368354424834
480.0,0.001233939896337688
512.0,0.00044957242789678276
576.0,-0.0001190870170830749
640.0,0.00043465683120302856
704.0,0.00040485276258550584
768.0,-0.0006621795473620296
832.0,-0.0024055384565144777
896.0,-0.002606197725981474
960.0,-0.004581899382174015
1024.0,-0.005290996748954058
1152.0,-0.0015842420980334282
1280.0,0.0011018021032214165
1408.0,0.0002505737356841564
1536.0,0.0032053831964731216
1664.0,0.008582456037402153
1792.0,0.005909374449402094
1920.0,0.0032196647953242064
2048.0,0.004776711575686932
2304.0,-2.03539602807723e-05
2560.0,-0.0030784429982304573
2816.0,0.0030668743420392275
3072.0,-0.001433046767488122
3328.0,-0.0011637682328000665
3584.0,0.0009047060739248991
3840.0,-0.002746293321251869
4096.0,-0.0007848927634768188
4608.0,-0.0031081652268767357
5120.0,-0.003904154524207115
5632.0,-0.004909999202936888
6144.0,-0.002169138053432107
6656.0,-0.0013934171292930841
7168.0,-0.0008342306246049702
7680.0,-0.007281910628080368
8192.0,0.0009924026671797037
end
