version,3.0
numOfCh,1
type,point
parent_name,0cd20_0dot1-0dot1
ch_type,1_1
kcount,1
numberNandB,1
brightnessNandB,1
carpet pos,0
pc,0
Time (ms),CH1 Auto-Correlation
1.0,0.06800457835197449
2.0,0.06723428517580032
3.0,0.06649430841207504
4.0,0.06577932089567184
5.0,0.06511806696653366
6.0,0.06451117992401123
7.0,0.06390345841646194
8.0,0.06329851597547531
9.0,0.062752366065979
10.0,0.06223001331090927
11.0,0.06172453239560127
12.0,0.061231955885887146
13.0,0.06079348549246788
14.0,0.060316577553749084
15.0,0.05985283851623535
16.0,0.05940047279000282
18.0,0.058469001203775406
20.0,0.05760852247476578
22.0,0.05683526769280434
24.0,0.056114312261343
26.0,0.055440641939640045
28.0,0.05484607815742493
30.0,0.054263703525066376
32.0,0.05368094891309738
36.0,0.052484311163425446
40.0,0.05154930427670479
44.0,0.05056646838784218
48.0,0.04951345548033714
52.0,0.04855795204639435
56.0,0.04769527539610863
60.0,0.046799637377262115
64.0,0.04588158428668976
72.0,0.0444994755089283
80.0,0.043158892542123795
88.0,0.041963860392570496
96.0,0.04091765359044075
104.0,0.04015381261706352
112.0,0.039597827941179276
120.0,0.03889010474085808
128.0,0.037784378975629807
144.0,0.03556928038597107
160.0,0.03436993062496185
176.0,0.03358852118253708
192.0,0.03296666592359543
208.0,0.03183682635426521
224.0,0.03073928877711296
240.0,0.029869038611650467
256.0,0.028985073789954185
288.0,0.02593892067670822
320.0,0.024821750819683075
352.0,0.02448892593383789
384.0,0.024429701268672943
416.0,0.024001065641641617
448.0,0.02360387332737446
480.0,0.02311365120112896
512.0,0.022989755496382713
576.0,0.02156641334295273
640.0,0.015905870124697685
704.0,0.011336654424667358
768.0,0.009698654524981976
832.0,0.007546043023467064
896.0,0.007308870553970337
960.0,0.010132073424756527
1024.0,0.010691880248486996
1152.0,0.007185008376836777
1280.0,0.0020785315427929163
1408.0,-0.001215859199874103
1536.0,-0.0026410738937556744
1664.0,-0.006996619515120983
1792.0,-0.012427308596670628
1920.0,-0.018438512459397316
2048.0,-0.0145645746961236
2304.0,-0.006665921304374933
2560.0,-0.003569260472431779
2816.0,-0.002119801938533783
3072.0,-0.00550421979278326
3328.0,-0.0011287929955869913
3584.0,0.000600932224188
3840.0,0.003160572610795498
4096.0,-0.002725663362070918
4608.0,-0.00503202760592103
5120.0,0.004155022092163563
5632.0,0.007057962939143181
6144.0,0.012629653327167034
6656.0,0.01210500206798315
7168.0,-0.0075459727086126804
7680.0,-0.014279833063483238
8192.0,-0.029251443222165108
end
