version,3.0
numOfCh,1
type,point
parent_name,0cd20_0dot1-0dot1
ch_type,1_1
kcount,1
numberNandB,1
brightnessNandB,1
carpet pos,0
pc,0
Time (ms),CH1 Auto-Correlation
1.0,0.04910871386528015
2.0,0.04844886437058449
3.0,0.04780733585357666
4.0,0.047166358679533005
5.0,0.046589795500040054
6.0,0.04602891579270363
7.0,0.04543877765536308
8.0,0.04487353190779686
9.0,0.044287510216236115
10.0,0.043698012828826904
11.0,0.043130211532115936
12.0,0.04258786514401436
13.0,0.042089011520147324
14.0,0.04160439223051071
15.0,0.04112720489501953
16.0,0.04068684205412865
18.0,0.03984811529517174
20.0,0.039082929491996765
22.0,0.038369882851839066
24.0,0.037668872624635696
26.0,0.036965448409318924
28.0,0.036279309540987015
30.0,0.03564668446779251
32.0,0.035017769783735275
36.0,0.03400534391403198
40.0,0.03316161036491394
44.0,0.0322331078350544
48.0,0.03126563876867294
52.0,0.030236542224884033
56.0,0.029356230050325394
60.0,0.02853924222290516
64.0,0.027853842824697495
72.0,0.026449264958500862
80.0,0.02493906207382679
88.0,0.02369680255651474
96.0,0.022744005545973778
104.0,0.022067518904805183
112.0,0.02129451557993889
120.0,0.02056206203997135
128.0,0.01978934183716774
144.0,0.01776234060525894
160.0,0.016388235613703728
176.0,0.014559690840542316
192.0,0.01301678828895092
208.0,0.011511220596730709
224.0,0.010121379047632217
240.0,0.00848267413675785
256.0,0.006878936663269997
288.0,0.004881612956523895
320.0,0.0035165296867489815
352.0,0.0021657191682606936
384.0,0.0006892996025271714
416.0,-0.0008598664426244795
448.0,-0.0029783996287733316
480.0,-0.0030798015650361776
512.0,-0.0033894998487085104
576.0,-0.0046815029345452785
640.0,-0.0028288846369832754
704.0,0.0010433532297611237
768.0,0.0017773337895050645
832.0,0.0007563618128187954
896.0,-0.0008677399600856006
960.0,-0.0003063015465158969
1024.0,0.0003632007574196905
1152.0,-0.0024900580756366253
1280.0,-0.0011489628814160824
1408.0,0.001465757843106985
1536.0,0.000954094750341028
1664.0,-0.0020280000753700733
1792.0,-0.00335975200869143
1920.0,-0.004005642142146826
2048.0,-0.0032265735790133476
2304.0,-0.003979042172431946
2560.0,-0.00152962829452008
2816.0,0.005955555010586977
3072.0,0.005253764800727367
3328.0,0.0032525912392884493
3584.0,0.0005545042222365737
3840.0,-0.005839334800839424
4096.0,-0.007921025156974792
4608.0,0.0010170642053708434
5120.0,-0.0029307804070413113
5632.0,0.0027600815519690514
6144.0,0.007059002295136452
6656.0,-0.0028127420227974653
7168.0,-0.005672208033502102
7680.0,-0.0007039624033495784
8192.0,0.0020780011545866728
end
