version,3.0
numOfCh,1
type,point
parent_name,0cd20_0dot1-0dot1
ch_type,1_1
kcount,1
numberNandB,1
brightnessNandB,1
carpet pos,0
pc,0
Time (ms),CH1 Auto-Correlation
1.0,0.042707037180662155
2.0,0.04210624098777771
3.0,0.04153634235262871
4.0,0.041012682020664215
5.0,0.04051161929965019
6.0,0.040000878274440765
7.0,0.03951112926006317
8.0,0.03904065489768982
9.0,0.03860402852296829
10.0,0.03818204253911972
11.0,0.037763409316539764
12.0,0.03736444190144539
13.0,0.036977365612983704
14.0,0.03660660237073898
15.0,0.03624076768755913
16.0,0.03591624274849892
18.0,0.035306788980960846
20.0,0.03468038886785507
22.0,0.0340542271733284
24.0,0.033445876091718674
26.0,0.03286346420645714
28.0,0.03226904198527336
30.0,0.031724706292152405
32.0,0.03121388517320156
36.0,0.030233662575483322
40.0,0.029309051111340523
44.0,0.028426997363567352
48.0,0.027636177837848663
52.0,0.026904691010713577
56.0,0.02619684487581253
60.0,0.02548353001475334
64.0,0.024869170039892197
72.0,0.0236490610986948
80.0,0.02250347100198269
88.0,0.021514832973480225
96.0,0.020655149593949318
104.0,0.01982908509671688
112.0,0.019058113917708397
120.0,0.018494123592972755
128.0,0.017955763265490532
144.0,0.016751734539866447
160.0,0.014888755045831203
176.0,0.013027021661400795
192.0,0.011452797800302505
208.0,0.00917916651815176
224.0,0.006632616277784109
240.0,0.004403425846248865
256.0,0.002595010446384549
288.0,0.000745054567232728
320.0,9.107752703130245e-05
352.0,-0.00046783522702753544
384.0,-0.0013213703641667962
416.0,-0.0027578251902014017
448.0,-0.0037384892348200083
480.0,-0.0038200123235583305
512.0,-0.003040085546672344
576.0,-0.0008398711797781289
640.0,-0.000704161124303937
704.0,-0.0005315143498592079
768.0,-0.0006690793670713902
832.0,-0.0018183753127232194
896.0,-0.0016376484418287873
960.0,-0.001743644941598177
1024.0,-0.004149938002228737
1152.0,-0.006246677599847317
1280.0,-0.004486318212002516
1408.0,-0.0013351188972592354
1536.0,0.000721101532690227
1664.0,0.004009636584669352
1792.0,0.004214034415781498
1920.0,0.0010266111930832267
2048.0,-0.0014529493637382984
2304.0,-0.0017300551990047097
2560.0,0.0036893305368721485
2816.0,0.007265403401106596
3072.0,-0.004806046839803457
3328.0,-0.00420076260343194
3584.0,-0.004547706339508295
3840.0,-0.010054401122033596
4096.0,-0.0021116426214575768
4608.0,0.007835932075977325
5120.0,-0.0005085821612738073
5632.0,-0.004663188476115465
6144.0,0.0024456765968352556
6656.0,0.00013502543151844293
7168.0,0.0024625288788229227
7680.0,-0.0008816660265438259
8192.0,-0.005760595668107271
end
