version,3.0
numOfCh,1
type,point
parent_name,0cd20_0dot1-0dot1
ch_type,1_1
kcount,1
numberNandB,1
brightnessNandB,1
carpet pos,0
pc,0
Time (ms),CH1 Auto-Correlation
1.0,0.03620186075568199
2.0,0.03567357361316681
3.0,0.03514604642987251
4.0,0.0346369706094265
5.0,0.03414991497993469
6.0,0.033669885247945786
7.0,0.033197734504938126
8.0,0.032732460647821426
9.0,0.032270319759845734
10.0,0.03181150183081627
11.0,0.0313638411462307
12.0,0.0309111550450325
13.0,0.03047288954257965
14.0,0.03004288673400879
15.0,0.02963882125914097
16.0,0.029241489246487617
18.0,0.028496012091636658
20.0,0.027808476239442825
22.0,0.027146589010953903
24.0,0.02653040550649166
26.0,0.025959232822060585
28.0,0.02541852556169033
30.0,0.024907121434807777
32.0,0.024414552375674248
36.0,0.023435665294528008
40.0,0.0224461667239666
44.0,0.02143503725528717
48.0,0.02049504593014717
52.0,0.019594267010688782
56.0,0.018740346655249596
60.0,0.017963280901312828
64.0,0.01728716306388378
72.0,0.016065098345279694
80.0,0.014923769980669022
88.0,0.013806676492094994
96.0,0.012807141058146954
104.0,0.011789130046963692
112.0,0.010941028594970703
120.0,0.010059081949293613
128.0,0.008953317999839783
144.0,0.006911620032042265
160.0,0.0052120923064649105
176.0,0.003808331210166216
192.0,0.0028832447715103626
208.0,0.002255683299154043
224.0,0.002150673884898424
240.0,0.0018562013283371925
256.0,0.0011883447878062725
288.0,0.0002282933855894953
320.0,0.0005818175850436091
352.0,0.0016161520034074783
384.0,0.002676378469914198
416.0,0.0030467710457742214
448.0,0.003268781118094921
480.0,0.0039000771939754486
512.0,0.0041030696593225
576.0,0.003210972296074033
640.0,0.0011332256253808737
704.0,-0.0010834727436304092
768.0,-0.0018471768125891685
832.0,-0.0015702825039625168
896.0,-0.001826224965043366
960.0,-0.0017775429878383875
1024.0,-0.003173218574374914
1152.0,-0.003037043148651719
1280.0,-0.00133088871371001
1408.0,-0.0025017810985445976
1536.0,-0.004059335682541132
1664.0,-0.0025608218275010586
1792.0,-0.00028674385976046324
1920.0,-0.0012109397212043405
2048.0,-0.0027034610975533724
2304.0,0.00045018477248959243
2560.0,-0.0029219838324934244
2816.0,-0.0020316648297011852
3072.0,-0.003500433638691902
3328.0,-0.0008337029721587896
3584.0,0.0008222392061725259
3840.0,0.003681036876514554
4096.0,0.0022061264608055353
4608.0,0.0012471950612962246
5120.0,-0.00150939985178411
5632.0,0.00039614050183445215
6144.0,0.0021872397046536207
6656.0,0.0005185987683944404
7168.0,-0.0014365483075380325
7680.0,-0.0025638232473284006
8192.0,0.0002548585762269795
end
