version,3.0
numOfCh,1
type,point
parent_name,0cd20_0dot1-0dot1
ch_type,1_1
kcount,1
numberNandB,1
brightnessNandB,1
carpet pos,0
pc,0
Time (ms),CH1 Auto-Correlation
1.0,0.048782829195261
2.0,0.04820907115936279
3.0,0.04767437279224396
4.0,0.04715545102953911
5.0,0.04665329307317734
6.0,0.04618335887789726
7.0,0.04572932794690132
8.0,0.045291636139154434
9.0,0.04483380168676376
10.0,0.044362474232912064
11.0,0.04390445724129677
12.0,0.04347243160009384
13.0,0.043057844042778015
14.0,0.04264918714761734
15.0,0.042263250797986984
16.0,0.04187123477458954
18.0,0.041128888726234436
20.0,0.040432337671518326
22.0,0.03974054008722305
24.0,0.03904758021235466
26.0,0.03838847950100899
28.0,0.03773615509271622
30.0,0.037114232778549194
32.0,0.036511633545160294
36.0,0.03537435084581375
40.0,0.034223780035972595
44.0,0.03308504819869995
48.0,0.032039664685726166
52.0,0.031119616702198982
56.0,0.03033090941607952
60.0,0.029510559514164925
64.0,0.028652198612689972
72.0,0.027114223688840866
80.0,0.025559546425938606
88.0,0.024057479575276375
96.0,0.02277366630733013
104.0,0.021626761183142662
112.0,0.02061527781188488
120.0,0.01952805556356907
128.0,0.01842971332371235
144.0,0.01665351167321205
160.0,0.015268330462276936
176.0,0.014288380742073059
192.0,0.013520066626369953
208.0,0.01290210708975792
224.0,0.012066155672073364
240.0,0.011466486379504204
256.0,0.010989969596266747
288.0,0.009593530558049679
320.0,0.0086453165858984
352.0,0.008431210182607174
384.0,0.008083577267825603
416.0,0.007380207069218159
448.0,0.006592795718461275
480.0,0.005605498794466257
512.0,0.004404487553983927
576.0,0.002192095387727022
640.0,0.001368412165902555
704.0,0.0024919435381889343
768.0,0.0035932662431150675
832.0,0.003531097201630473
896.0,0.0006037667044438422
960.0,-0.0034991286229342222
1024.0,-0.005527939647436142
1152.0,-0.005712464917451143
1280.0,-0.0048185475170612335
1408.0,-0.006414293777197599
1536.0,-0.007143896073102951
1664.0,-0.007587700616568327
1792.0,-0.007869981229305267
1920.0,-0.004359841346740723
2048.0,-0.0034098131582140923
2304.0,-2.1108166038175113e-05
2560.0,0.0024212910793721676
2816.0,-0.0009554889984428883
3072.0,-0.004680212587118149
3328.0,-0.006152681540697813
3584.0,-0.00506795896217227
3840.0,-0.0028022914193570614
4096.0,-0.003031311556696892
4608.0,0.004260709043592215
5120.0,0.0050635430961847305
5632.0,-0.001402412075549364
6144.0,0.00031722337007522583
6656.0,0.008076736703515053
7168.0,0.00024153890262823552
7680.0,-0.011526309885084629
8192.0,-0.01618788205087185
end
