version,3.0
numOfCh,1
type,point
parent_name,0cd20_0dot1-0dot1
ch_type,1_1
kcount,1
numberNandB,1
brightnessNandB,1
carpet pos,0
pc,0
Time (ms),CH1 Auto-Correlation
1.0,0.0544738732278347
2.0,0.053905703127384186
3.0,0.05335943400859833
4.0,0.05283193662762642
5.0,0.052324049174785614
6.0,0.05180981755256653
7.0,0.05131839960813522
8.0,0.0508418083190918
9.0,0.05038242042064667
10.0,0.049918435513973236
11.0,0.049442440271377563
12.0,0.04897107928991318
13.0,0.04851119965314865
14.0,0.048064183443784714
15.0,0.0476294569671154
16.0,0.04719071090221405
18.0,0.046328336000442505
20.0,0.04548293724656105
22.0,0.04467038810253143
24.0,0.04388999566435814
26.0,0.043145328760147095
28.0,0.04239513725042343
30.0,0.041658446192741394
32.0,0.04094571992754936
36.0,0.03962741047143936
40.0,0.03833550959825516
44.0,0.03707253560423851
48.0,0.0358152762055397
52.0,0.0345359668135643
56.0,0.033232174813747406
60.0,0.03201797977089882
64.0,0.030960001051425934
72.0,0.02928004413843155
80.0,0.027648108080029488
88.0,0.026076490059494972
96.0,0.024578118696808815
104.0,0.023195089772343636
112.0,0.022023390978574753
120.0,0.02108648233115673
128.0,0.01993796043097973
144.0,0.01731332391500473
160.0,0.014945452101528645
176.0,0.012811082415282726
192.0,0.011725575663149357
208.0,0.011505589820444584
224.0,0.01107688620686531
240.0,0.010037976317107677
256.0,0.008784253150224686
288.0,0.006514023523777723
320.0,0.004786473698914051
352.0,0.0031999945640563965
384.0,0.002808500314131379
416.0,0.004510635044425726
448.0,0.00568495225161314
480.0,0.005452373530715704
512.0,0.004753476940095425
576.0,0.0011551540810614824
640.0,-0.002622590633109212
704.0,-0.004256066400557756
768.0,-0.004494288470596075
832.0,-0.006224960554391146
896.0,-0.0062599447555840015
960.0,-0.004952542949467897
1024.0,-0.0009743539849296212
1152.0,-0.0010267366888001561
1280.0,-0.002089311135932803
1408.0,-0.002335519064217806
1536.0,-0.006181389093399048
1664.0,-0.005738935433328152
1792.0,-0.0008427388966083527
1920.0,0.003486138768494129
2048.0,0.0018489004578441381
2304.0,-0.0007899872143752873
2560.0,-0.005135993007570505
2816.0,-0.007084343116730452
3072.0,-0.004875487182289362
3328.0,-0.0007686050375923514
3584.0,-0.002649127971380949
3840.0,-0.004707168322056532
4096.0,-0.002801653929054737
4608.0,0.0022650810424238443
5120.0,0.004009329713881016
5632.0,0.0031840428709983826
6144.0,-0.0017394026508554816
6656.0,0.0060044811107218266
7168.0,0.00037303281715139747
7680.0,-0.0012130405521020293
8192.0,-0.009716056287288666
end
