version,3.0
numOfCh,1
type,point
parent_name,0cd20_0dot1-0dot1
ch_type,1_1
kcount,1
numberNandB,1
brightnessNandB,1
carpet pos,0
pc,0
Time (ms),CH1 Auto-Correlation
1.0,0.03811454772949219
2.0,0.03747192397713661
3.0,0.03687382861971855
4.0,0.03627931699156761
5.0,0.03572525456547737
6.0,0.035181403160095215
7.0,0.03465498238801956
8.0,0.03410860151052475
9.0,0.03361283987760544
10.0,0.033116165548563004
11.0,0.032610438764095306
12.0,0.03211473673582077
13.0,0.03164435178041458
14.0,0.03119777888059616
15.0,0.03072040155529976
16.0,0.030272381380200386
18.0,0.029334761202335358
20.0,0.028471319004893303
22.0,0.02769300527870655
24.0,0.026922568678855896
26.0,0.026142235845327377
28.0,0.02539925090968609
30.0,0.02462906390428543
32.0,0.023840077221393585
36.0,0.0222450140863657
40.0,0.020747298374772072
44.0,0.019315415993332863
48.0,0.01790597476065159
52.0,0.016511576250195503
56.0,0.015395892783999443
60.0,0.014371613971889019
64.0,0.013550720177590847
72.0,0.011946095153689384
80.0,0.01065097190439701
88.0,0.009902164340019226
96.0,0.00928310863673687
104.0,0.008680935017764568
112.0,0.008141857571899891
120.0,0.007652896922081709
128.0,0.007192290388047695
144.0,0.006654816213995218
160.0,0.006028101313859224
176.0,0.005811010021716356
192.0,0.005715695209801197
208.0,0.005627034697681665
224.0,0.005543270613998175
240.0,0.0058472659438848495
256.0,0.00573877664282918
288.0,0.00431317463517189
320.0,0.0020577635150402784
352.0,0.00030131253879517317
384.0,0.0004088786372449249
416.0,0.0010765846818685532
448.0,0.0005017418297939003
480.0,0.00014846630801912397
512.0,0.0005330384010449052
576.0,-0.0006949550588615239
640.0,-0.0014971619239076972
704.0,-0.0012526126811280847
768.0,0.00023386171960737556
832.0,0.0013305068714544177
896.0,-0.0001267543266294524
960.0,0.0024486114270985126
1024.0,0.0016014125430956483
1152.0,-0.004696252755820751
1280.0,-0.004122960846871138
1408.0,-0.0036601871252059937
1536.0,-0.002475837944075465
1664.0,-0.0015977515140548348
1792.0,-0.002123804297298193
1920.0,-0.0034850335214287043
2048.0,-0.0016402382170781493
2304.0,-0.002053382107988
2560.0,-0.0010676257079467177
2816.0,-0.0010216116206720471
3072.0,-0.000134961141156964
3328.0,0.0021493600215762854
3584.0,0.0004778531438205391
3840.0,-0.0012622963404282928
4096.0,0.002368396148085594
4608.0,0.0017900548409670591
5120.0,0.0015188097022473812
5632.0,-0.00027364882407709956
6144.0,-0.0015191606944426894
6656.0,-0.001973344711586833
7168.0,-0.001173504046164453
7680.0,0.000674387498293072
8192.0,0.0016315546818077564
end
