version,3.0
numOfCh,1
type,point
parent_name,0cd20_0dot1-0dot1
ch_type,1_1
kcount,1
numberNandB,1
brightnessNandB,1
carpet pos,0
pc,0
Time (ms),CH1 Auto-Correlation
1.0,0.058876536786556244
2.0,0.05808139592409134
3.0,0.057407960295677185
4.0,0.05675724521279335
5.0,0.056033454835414886
6.0,0.055315617471933365
7.0,0.05463092401623726
8.0,0.05399233102798462
9.0,0.053390610963106155
10.0,0.05275726690888405
11.0,0.052100326865911484
12.0,0.05148210749030113
13.0,0.050922270864248276
14.0,0.050358571112155914
15.0,0.04979832097887993
16.0,0.04920315369963646
18.0,0.048171427100896835
20.0,0.04715960845351219
22.0,0.04625898227095604
24.0,0.04536311700940132
26.0,0.04448886588215828
28.0,0.04363574460148811
30.0,0.04275894537568092
32.0,0.04183776304125786
36.0,0.0400661937892437
40.0,0.03853224217891693
44.0,0.03717541694641113
48.0,0.03606463968753815
52.0,0.03507706895470619
56.0,0.03410036489367485
60.0,0.03318272531032562
64.0,0.03237122297286987
72.0,0.031005002558231354
80.0,0.029914194718003273
88.0,0.028905518352985382
96.0,0.027687210589647293
104.0,0.026245897635817528
112.0,0.024439934641122818
120.0,0.02276090532541275
128.0,0.021298153325915337
144.0,0.01862414740025997
160.0,0.017106078565120697
176.0,0.01635821722447872
192.0,0.014813386835157871
208.0,0.012712698429822922
224.0,0.012136914767324924
240.0,0.01230947021394968
256.0,0.012743346393108368
288.0,0.011375322006642818
320.0,0.01047465018928051
352.0,0.010685932822525501
384.0,0.009626656770706177
416.0,0.008179801516234875
448.0,0.007906587794423103
480.0,0.007725571282207966
512.0,0.007299464661628008
576.0,0.005849504843354225
640.0,0.0062170810997486115
704.0,0.007134935352951288
768.0,0.007480105850845575
832.0,0.008372814394533634
896.0,0.009349450469017029
960.0,0.010589398443698883
1024.0,0.010282055474817753
1152.0,0.006963395979255438
1280.0,0.006259310059249401
1408.0,0.0004077455960214138
1536.0,-0.0026836085598915815
1664.0,-0.002880498766899109
1792.0,-0.0025561070069670677
1920.0,-0.0015528365038335323
2048.0,0.00046253943582996726
2304.0,-0.0027668389957398176
2560.0,-0.00593328382819891
2816.0,-0.007249731104820967
3072.0,-0.0031565320678055286
3328.0,-0.010284870862960815
3584.0,-0.006920667830854654
3840.0,-0.00531338807195425
4096.0,-0.002811769489198923
4608.0,-0.006653423886746168
5120.0,-0.0016249631298705935
5632.0,-0.007556392345577478
6144.0,-0.004145264625549316
6656.0,-0.004221618641167879
7168.0,-0.003366583026945591
7680.0,-0.006921491120010614
8192.0,-0.0031063330825418234
end
