version,3.0
numOfCh,1
type,point
parent_name,0cd20_0dot1-0dot1
ch_type,1_1
kcount,1
numberNandB,1
brightnessNandB,1
carpet pos,0
pc,0
Time (ms),CH1 Auto-Correlation
1.0,0.1452428251504898
2.0,0.14338716864585876
3.0,0.14137713611125946
4.0,0.13955596089363098
5.0,0.13752210140228271
6.0,0.13527609407901764
7.0,0.13257133960723877
8.0,0.1297648400068283
9.0,0.12671403586864471
10.0,0.12362091988325119
11.0,0.12041215598583221
12.0,0.11726731061935425
13.0,0.11427482217550278
14.0,0.11120592802762985
15.0,0.10816781222820282
16.0,0.10505469143390656
18.0,0.09931772947311401
20.0,0.09374485164880753
22.0,0.08792863041162491
24.0,0.08224448561668396
26.0,0.07726240158081055
28.0,0.07228194922208786
30.0,0.06750459223985672
32.0,0.0634201318025589
36.0,0.055618539452552795
40.0,0.04909244552254677
44.0,0.0435856468975544
48.0,0.040124595165252686
52.0,0.03817217797040939
56.0,0.03684920817613602
60.0,0.035992130637168884
64.0,0.03563564643263817
72.0,0.03613439202308655
80.0,0.03464062511920929
88.0,0.031233670189976692
96.0,0.027255868539214134
104.0,0.02364910952746868
112.0,0.020001154392957687
120.0,0.0160078052431345
128.0,0.012813358567655087
144.0,0.008298411034047604
160.0,0.008004430681467056
176.0,0.008271850645542145
192.0,0.009034317918121815
208.0,0.00982534047216177
224.0,0.009265347383916378
240.0,0.00687379390001297
256.0,0.0010907937539741397
288.0,-0.0034585336688905954
320.0,0.0001012046413961798
352.0,-0.0003178825427312404
384.0,0.0010950318537652493
416.0,0.004541029687970877
448.0,0.004116748459637165
480.0,0.004948447924107313
512.0,0.0038288538344204426
576.0,-0.0031743869185447693
640.0,-0.009321057237684727
704.0,-0.007739976979792118
768.0,-0.007467892952263355
832.0,-0.0064797173254191875
896.0,-0.009088646620512009
960.0,-0.009410790167748928
1024.0,-0.005865122191607952
1152.0,-0.005345853045582771
1280.0,-0.005867702886462212
1408.0,-0.004985221661627293
1536.0,0.0025303789880126715
1664.0,0.0031039384193718433
1792.0,-0.004189444240182638
1920.0,-0.0018784350249916315
2048.0,0.0053491126745939255
2304.0,-0.006477284245193005
2560.0,-0.007515833713114262
2816.0,2.1333955373847857e-05
3072.0,0.007046207319945097
3328.0,0.0013070657150819898
3584.0,0.003276150207966566
3840.0,-0.00015421684656757861
4096.0,-0.0007279372657649219
4608.0,-0.002001388231292367
5120.0,0.001181529019959271
5632.0,-0.0010888056131079793
6144.0,-0.007114544045180082
6656.0,0.0006659214850515127
7168.0,0.005749857053160667
7680.0,-0.00445028068497777
8192.0,0.0021035887766629457
end
