version,3.0
numOfCh,1
type,point
parent_name,0cd20_0dot1-0dot1
ch_type,1_1
kcount,1
numberNandB,1
brightnessNandB,1
carpet pos,0
pc,0
Time (ms),CH1 Auto-Correlation
1.0,0.03849487379193306
2.0,0.03784407302737236
3.0,0.03723655268549919
4.0,0.03659180924296379
5.0,0.03597119078040123
6.0,0.035377513617277145
7.0,0.03482934460043907
8.0,0.03431657329201698
9.0,0.03379203751683235
10.0,0.03331298381090164
11.0,0.03281869739294052
12.0,0.03230796754360199
13.0,0.03181994706392288
14.0,0.03133983165025711
15.0,0.03084356151521206
16.0,0.030384093523025513
18.0,0.029536854475736618
20.0,0.028729306533932686
22.0,0.02801547758281231
24.0,0.02736736088991165
26.0,0.026733912527561188
28.0,0.02612370066344738
30.0,0.025489002466201782
32.0,0.024838801473379135
36.0,0.023692192509770393
40.0,0.0226211566478014
44.0,0.021592246368527412
48.0,0.02059502713382244
52.0,0.019729772582650185
56.0,0.018859311938285828
60.0,0.018182819709181786
64.0,0.017732514068484306
72.0,0.016642048954963684
80.0,0.015509156510233879
88.0,0.014259768649935722
96.0,0.012857428751885891
104.0,0.011556322686374187
112.0,0.010486867278814316
120.0,0.009392245672643185
128.0,0.008586110547184944
144.0,0.007245455402880907
160.0,0.006199838127940893
176.0,0.005471336655318737
192.0,0.005091747269034386
208.0,0.004941337276250124
224.0,0.004774403292685747
240.0,0.004778810311108828
256.0,0.004308511968702078
288.0,0.003036308567970991
320.0,0.002272907644510269
352.0,0.0019622528925538063
384.0,0.0015603600768372416
416.0,0.0011125676101073623
448.0,0.00044999277452006936
480.0,0.0010917582549154758
512.0,0.0014754669973626733
576.0,0.0018592837732285261
640.0,-0.00017212405509781092
704.0,-0.0019602649845182896
768.0,-0.0032268152572214603
832.0,-0.002055274322628975
896.0,-0.002785944612696767
960.0,-0.0038435470778495073
1024.0,-0.0030005171429365873
1152.0,-0.0014441856183111668
1280.0,0.00023808114929124713
1408.0,0.0031090560369193554
1536.0,0.003148129675537348
1664.0,0.00020969004253856838
1792.0,0.0008332208381034434
1920.0,0.0012259831419214606
2048.0,0.004222195595502853
2304.0,0.001105192000977695
2560.0,0.001085980562493205
2816.0,-0.0029617820400744677
3072.0,-0.0032970455940812826
3328.0,-0.00013212628255132586
3584.0,0.001984539907425642
3840.0,0.004316545557230711
4096.0,0.001957927830517292
4608.0,-0.0038566594012081623
5120.0,-0.0009469087817706168
5632.0,-0.0004830688121728599
6144.0,-0.0010755478870123625
6656.0,-0.002114789327606559
7168.0,-0.003489856142550707
7680.0,-0.004444160498678684
8192.0,-0.0030549769289791584
end
