version,3.0
numOfCh,1
type,point
parent_name,0cd20_0dot1-0dot1
ch_type,1_1
kcount,1
numberNandB,1
brightnessNandB,1
carpet pos,0
pc,0
Time (ms),CH1 Auto-Correlation
1.0,0.04785134270787239
2.0,0.04726292937994003
3.0,0.046669431030750275
4.0,0.04609837755560875
5.0,0.045548949390649796
6.0,0.0450386218726635
7.0,0.044527895748615265
8.0,0.0440499372780323
9.0,0.043581556528806686
10.0,0.04312171787023544
11.0,0.04266700521111488
12.0,0.04220398887991905
13.0,0.0417572483420372
14.0,0.04131006449460983
15.0,0.04087289795279503
16.0,0.040437083691358566
18.0,0.03955622389912605
20.0,0.03872392699122429
22.0,0.03791427984833717
24.0,0.03713974356651306
26.0,0.0364040732383728
28.0,0.035708967596292496
30.0,0.035024430602788925
32.0,0.034371234476566315
36.0,0.03304523229598999
40.0,0.03172962740063667
44.0,0.03044227883219719
48.0,0.029213396832346916
52.0,0.028188645839691162
56.0,0.027256490662693977
60.0,0.026380373165011406
64.0,0.025472000241279602
72.0,0.023848881945014
80.0,0.022607028484344482
88.0,0.021393151953816414
96.0,0.02011200226843357
104.0,0.018760601058602333
112.0,0.017507920041680336
120.0,0.016339011490345
128.0,0.015173081308603287
144.0,0.013243954628705978
160.0,0.011312317103147507
176.0,0.009449882432818413
192.0,0.00800649356096983
208.0,0.0071830409578979015
224.0,0.006984203588217497
240.0,0.007331993896514177
256.0,0.007985052652657032
288.0,0.009411039762198925
320.0,0.009516987949609756
352.0,0.010276717133820057
384.0,0.00993472058326006
416.0,0.008680933155119419
448.0,0.007341334596276283
480.0,0.006621953099966049
512.0,0.006779169198125601
576.0,0.006044881884008646
640.0,0.004794138949364424
704.0,0.0044225952588021755
768.0,0.001969104865565896
832.0,0.0024230615235865116
896.0,-0.0007558687357231975
960.0,-0.0033451495692133904
1024.0,-0.004995052237063646
1152.0,-0.0022347955964505672
1280.0,-0.00020022655371576548
1408.0,0.0017319931648671627
1536.0,-0.003025645390152931
1664.0,-0.005364705808460712
1792.0,-0.006696698721498251
1920.0,-0.008838122710585594
2048.0,-0.006176257040351629
2304.0,-0.010255892761051655
2560.0,-0.007571691647171974
2816.0,-0.0034025469794869423
3072.0,-0.004219886846840382
3328.0,-0.002364897169172764
3584.0,-0.0014842742821201682
3840.0,-0.000746309757232666
4096.0,0.0023123237770050764
4608.0,0.004393201321363449
5120.0,0.0016159869264811277
5632.0,-0.0001779953163350001
6144.0,-9.497718565398827e-05
6656.0,-0.00012108749797334895
7168.0,0.002235518768429756
7680.0,0.0027380799874663353
8192.0,-6.645177199970931e-05
end
