version,3.0
numOfCh,1
type,point
parent_name,0cd20_0dot1-0dot1
ch_type,1_1
kcount,1
numberNandB,1
brightnessNandB,1
carpet pos,0
pc,0
Time (ms),CH1 Auto-Correlation
1.0,0.05203577131032944
2.0,0.051377709954977036
3.0,0.05073409155011177
4.0,0.05007040128111839
5.0,0.049434512853622437
6.0,0.04882403835654259
7.0,0.048248060047626495
8.0,0.047724783420562744
9.0,0.04721740260720253
10.0,0.046725302934646606
11.0,0.046246543526649475
12.0,0.04579547420144081
13.0,0.045322056859731674
14.0,0.04485626518726349
15.0,0.044426098465919495
16.0,0.04398919269442558
18.0,0.04316309094429016
20.0,0.04240479692816734
22.0,0.04165131598711014
24.0,0.040930766612291336
26.0,0.04019923880696297
28.0,0.039432186633348465
30.0,0.038704294711351395
32.0,0.038001563400030136
36.0,0.036680128425359726
40.0,0.035296887159347534
44.0,0.03383795544505119
48.0,0.032549917697906494
52.0,0.03137684240937233
56.0,0.03030964732170105
60.0,0.029422659426927567
64.0,0.02862202376127243
72.0,0.027200866490602493
80.0,0.025902744382619858
88.0,0.024725235998630524
96.0,0.02380797266960144
104.0,0.023196527734398842
112.0,0.02262323722243309
120.0,0.022188035771250725
128.0,0.02192917838692665
144.0,0.02101934887468815
160.0,0.020151285454630852
176.0,0.01910114660859108
192.0,0.018273720517754555
208.0,0.017765561118721962
224.0,0.017105987295508385
240.0,0.016851365566253662
256.0,0.016698813065886497
288.0,0.013717325404286385
320.0,0.011659790761768818
352.0,0.01226002350449562
384.0,0.012515253387391567
416.0,0.011823398061096668
448.0,0.01005608681589365
480.0,0.007468175608664751
512.0,0.005179766099900007
576.0,0.006117215380072594
640.0,0.005303403828293085
704.0,0.004516727291047573
768.0,0.005218206904828548
832.0,0.006636568810790777
896.0,0.007013456895947456
960.0,0.008273563347756863
1024.0,0.007976500317454338
1152.0,0.008513488806784153
1280.0,0.011348512955009937
1408.0,0.010051091201603413
1536.0,0.004199817311018705
1664.0,0.0015359037788584828
1792.0,0.0007640855037607253
1920.0,-0.0027583420742303133
2048.0,-0.003539126366376877
2304.0,0.0005801368388347328
2560.0,0.004093638621270657
2816.0,0.003237043507397175
3072.0,-0.0009145978838205338
3328.0,0.0038713833782821894
3584.0,0.0030828712042421103
3840.0,0.0037745563313364983
4096.0,0.007394369225949049
4608.0,0.003827804932370782
5120.0,0.0007898551994003356
5632.0,-0.005357596557587385
6144.0,-0.0072342646308243275
6656.0,-0.0046225949190557
7168.0,-0.009116667322814465
7680.0,-0.008410555310547352
8192.0,-0.000583567947614938
end
