version,3.0
numOfCh,1
type,point
parent_name,0cd20_0dot1-0dot1
ch_type,1_1
kcount,1
numberNandB,1
brightnessNandB,1
carpet pos,0
pc,0
Time (ms),CH1 Auto-Correlation
1.0,0.04610929265618324
2.0,0.045425765216350555
3.0,0.04475938528776169
4.0,0.04411381110548973
5.0,0.04351925477385521
6.0,0.04295593872666359
7.0,0.04238821193575859
8.0,0.041876550763845444
9.0,0.04137462377548218
10.0,0.04089601710438728
11.0,0.040424369275569916
12.0,0.03994671627879143
13.0,0.03945241868495941
14.0,0.038953591138124466
15.0,0.038489390164613724
16.0,0.03805690258741379
18.0,0.03719819337129593
20.0,0.03635302931070328
22.0,0.03556682541966438
24.0,0.034781113266944885
26.0,0.034018270671367645
28.0,0.0333108976483345
30.0,0.032561130821704865
32.0,0.031788118183612823
36.0,0.03040219284594059
40.0,0.029170900583267212
44.0,0.028036560863256454
48.0,0.026750730350613594
52.0,0.025400271639227867
56.0,0.024170516058802605
60.0,0.023039299994707108
64.0,0.021984748542308807
72.0,0.020251788198947906
80.0,0.018642986193299294
88.0,0.017129259184002876
96.0,0.015595833770930767
104.0,0.014206279069185257
112.0,0.013201302848756313
120.0,0.012688362039625645
128.0,0.012305786833167076
144.0,0.011592941358685493
160.0,0.010965527966618538
176.0,0.009760728105902672
192.0,0.008712712675333023
208.0,0.007606337778270245
224.0,0.0067693754099309444
240.0,0.006420635152608156
256.0,0.005927989259362221
288.0,0.005316247697919607
320.0,0.004294862970709801
352.0,0.0035736553836613894
384.0,0.002971093636006117
416.0,0.0023534365464001894
448.0,0.0015904770698398352
480.0,0.0008710332331247628
512.0,0.0005143561866134405
576.0,0.0040668584406375885
640.0,0.004425646737217903
704.0,0.003010460641235113
768.0,0.0025963233783841133
832.0,-0.0008724862127564847
896.0,-0.002379886107519269
960.0,-0.002033432014286518
1024.0,-0.001333046704530716
1152.0,0.0007879877812229097
1280.0,0.0016117062186822295
1408.0,-0.00033627409720793366
1536.0,0.0012067144270986319
1664.0,0.00278031500056386
1792.0,0.0020323479548096657
1920.0,0.000684127677232027
2048.0,-0.0011035891948267817
2304.0,0.0037467419169843197
2560.0,0.0031716187950223684
2816.0,0.0016138978535309434
3072.0,-0.0009077019058167934
3328.0,-0.006729289889335632
3584.0,-0.007413670886307955
3840.0,-0.008046778850257397
4096.0,-0.0047297547571361065
4608.0,-0.0019758499693125486
5120.0,-0.0034021358005702496
5632.0,-0.005510422401130199
6144.0,-0.005819201003760099
6656.0,-0.0005970836500637233
7168.0,0.0049210647121071815
7680.0,0.003642431693151593
8192.0,0.0015822588466107845
end
