version,3.0
numOfCh,1
type,point
parent_name,0cd20_0dot1-0dot1
ch_type,1_1
kcount,1
numberNandB,1
brightnessNandB,1
carpet pos,0
pc,0
Time (ms),CH1 Auto-Correlation
1.0,0.05931729078292847
2.0,0.0587918795645237
3.0,0.05828006938099861
4.0,0.05776200443506241
5.0,0.05725056678056717
6.0,0.056759778410196304
7.0,0.05627169460058212
8.0,0.055794406682252884
9.0,0.05534449592232704
10.0,0.05491076037287712
11.0,0.054500192403793335
12.0,0.05409160256385803
13.0,0.05370515584945679
14.0,0.05332425236701965
15.0,0.05294463410973549
16.0,0.05258140712976456
18.0,0.05187733471393585
20.0,0.05120422691106796
22.0,0.05051496997475624
24.0,0.04985148087143898
26.0,0.04921776056289673
28.0,0.048642560839653015
30.0,0.04811256378889084
32.0,0.04758341237902641
36.0,0.04654604196548462
40.0,0.04556586220860481
44.0,0.0446496456861496
48.0,0.0437321774661541
52.0,0.04277610778808594
56.0,0.04189475625753403
60.0,0.04109847918152809
64.0,0.04029381647706032
72.0,0.03860725462436676
80.0,0.03701462224125862
88.0,0.03541639819741249
96.0,0.03383887931704521
104.0,0.03227255865931511
112.0,0.03085268661379814
120.0,0.02958955243229866
128.0,0.02847193367779255
144.0,0.02603767067193985
160.0,0.023448778316378593
176.0,0.021076442673802376
192.0,0.019192885607481003
208.0,0.017456410452723503
224.0,0.015753401443362236
240.0,0.01397350151091814
256.0,0.012204217724502087
288.0,0.009969419799745083
320.0,0.0077761695720255375
352.0,0.00540383905172348
384.0,0.004413480404764414
416.0,0.004227137193083763
448.0,0.0038376471493393183
480.0,0.004097278695553541
512.0,0.005017708521336317
576.0,0.0066382852382957935
640.0,0.00950151402503252
704.0,0.009730784222483635
768.0,0.007305204402655363
832.0,0.006957325618714094
896.0,0.005405997857451439
960.0,0.0043855332769453526
1024.0,0.006766709964722395
1152.0,0.008070454932749271
1280.0,0.006754597183316946
1408.0,0.007871854119002819
1536.0,0.006507778540253639
1664.0,0.006272892002016306
1792.0,0.0034091502893716097
1920.0,-0.003689337754622102
2048.0,-0.006204023491591215
2304.0,-0.004247137811034918
2560.0,-0.0015602045459672809
2816.0,-0.007218146231025457
3072.0,-0.014272963628172874
3328.0,-0.007699001580476761
3584.0,-0.0048073348589241505
3840.0,0.0005338920163922012
4096.0,9.094826236832887e-05
4608.0,-0.0008354798774234951
5120.0,0.007928534410893917
5632.0,-0.00028617281350307167
6144.0,0.009164799936115742
6656.0,0.002980985213071108
7168.0,-0.0021616024896502495
7680.0,0.0003437199629843235
8192.0,-0.015916017815470695
end
