version,3.0
numOfCh,1
type,point
parent_name,0cd20_0dot1-0dot1
ch_type,1_1
kcount,1
numberNandB,1
brightnessNandB,1
carpet pos,0
pc,0
Time (ms),CH1 Auto-Correlation
1.0,0.06123054400086403
2.0,0.060590315610170364
3.0,0.059955209493637085
4.0,0.05934285372495651
5.0,0.05873965844511986
6.0,0.05816388875246048
7.0,0.0576213039457798
8.0,0.0570865198969841
9.0,0.05655892565846443
10.0,0.05604095384478569
11.0,0.05557144060730934
12.0,0.055107131600379944
13.0,0.05466049164533615
14.0,0.054208409041166306
15.0,0.053763601928949356
16.0,0.05334192514419556
18.0,0.052438221871852875
20.0,0.05156664550304413
22.0,0.05072692781686783
24.0,0.049921996891498566
26.0,0.049212854355573654
28.0,0.048546843230724335
30.0,0.04788358509540558
32.0,0.047247838228940964
36.0,0.045990537852048874
40.0,0.044798124581575394
44.0,0.04360441863536835
48.0,0.04239296540617943
52.0,0.04122186824679375
56.0,0.04022818058729172
60.0,0.03928894177079201
64.0,0.038343653082847595
72.0,0.03655035048723221
80.0,0.03506238013505936
88.0,0.03378104418516159
96.0,0.03231075778603554
104.0,0.03079887665808201
112.0,0.02916589006781578
120.0,0.02767683006823063
128.0,0.026189910247921944
144.0,0.02374967932701111
160.0,0.021771421656012535
176.0,0.02038354054093361
192.0,0.01870334893465042
208.0,0.016982881352305412
224.0,0.015477122738957405
240.0,0.01428184099495411
256.0,0.013050041161477566
288.0,0.010478455573320389
320.0,0.00728220259770751
352.0,0.005225176457315683
384.0,0.003477750113233924
416.0,0.0011626905761659145
448.0,0.001429980038665235
480.0,0.0013939577620476484
512.0,0.00030018819961696863
576.0,0.0008144935709424317
640.0,0.0026784753426909447
704.0,0.0063276132568717
768.0,0.00871320441365242
832.0,0.008960364386439323
896.0,0.008958036080002785
960.0,0.00928988866508007
1024.0,0.004471313674002886
1152.0,-0.005454992409795523
1280.0,-0.005556360352784395
1408.0,-0.0066999634727835655
1536.0,-0.004949158523231745
1664.0,0.002610630588606
1792.0,0.004112208262085915
1920.0,0.0015927626518532634
2048.0,-0.002789137652143836
2304.0,-0.0033631487749516964
2560.0,0.0027788204606622458
2816.0,0.003291468834504485
3072.0,-0.007819567807018757
3328.0,-0.015340364538133144
3584.0,-0.00764298252761364
3840.0,-0.00547019811347127
4096.0,-0.008349732495844364
4608.0,-0.007418615277856588
5120.0,-0.0023331691045314074
5632.0,0.0009930958040058613
6144.0,-0.004731095861643553
6656.0,0.00018895851098932326
7168.0,0.004877442494034767
7680.0,0.0020987880416214466
8192.0,0.0027706429827958345
end
