version,3.0
numOfCh,1
type,point
parent_name,0cd20_0dot1-0dot1
ch_type,1_1
kcount,1
numberNandB,1
brightnessNandB,1
carpet pos,0
pc,0
Time (ms),CH1 Auto-Correlation
1.0,0.0543355867266655
2.0,0.053546562790870667
3.0,0.052802540361881256
4.0,0.05198481306433678
5.0,0.05148903653025627
6.0,0.05106671527028084
7.0,0.05067908763885498
8.0,0.05023593455553055
9.0,0.04978572577238083
10.0,0.04933840036392212
11.0,0.04884565621614456
12.0,0.0484294556081295
13.0,0.048089444637298584
14.0,0.0477583073079586
15.0,0.04743879660964012
16.0,0.04711407423019409
18.0,0.04641811549663544
20.0,0.04569678381085396
22.0,0.04502113536000252
24.0,0.04434465244412422
26.0,0.04368646815419197
28.0,0.04307239130139351
30.0,0.0425044484436512
32.0,0.0418863371014595
36.0,0.040752895176410675
40.0,0.03969213739037514
44.0,0.038672689348459244
48.0,0.03771879896521568
52.0,0.03695152327418327
56.0,0.03626423329114914
60.0,0.035608820617198944
64.0,0.034980256110429764
72.0,0.03370111808180809
80.0,0.03225260600447655
88.0,0.030784597620368004
96.0,0.02930762805044651
104.0,0.02783183753490448
112.0,0.02660454250872135
120.0,0.025717921555042267
128.0,0.02478494681417942
144.0,0.023266080766916275
160.0,0.02149617113173008
176.0,0.020261557772755623
192.0,0.01923794113099575
208.0,0.01796935312449932
224.0,0.016839489340782166
240.0,0.015724148601293564
256.0,0.014843481592833996
288.0,0.013316824100911617
320.0,0.011846387758851051
352.0,0.00975752342492342
384.0,0.008279255591332912
416.0,0.0066948761232197285
448.0,0.005526586435735226
480.0,0.004600266460329294
512.0,0.0034470229875296354
576.0,0.0032367596868425608
640.0,0.0009044879116117954
704.0,-0.0010487131075933576
768.0,-0.0015345712890848517
832.0,-0.004406395368278027
896.0,-0.006806985475122929
960.0,-0.008440331555902958
1024.0,-0.008659369312226772
1152.0,-0.007239725906401873
1280.0,-0.005324804224073887
1408.0,-0.0038785820361226797
1536.0,0.00039377319626510143
1664.0,0.0002097909018630162
1792.0,0.0021188489627093077
1920.0,0.004874186124652624
2048.0,0.0009020949364639819
2304.0,-0.008037621155381203
2560.0,-0.005308802239596844
2816.0,-0.0019487757235765457
3072.0,-0.004075692035257816
3328.0,-0.0032296711578965187
3584.0,-0.0022999257780611515
3840.0,0.0008045831928029656
4096.0,0.0016088722040876746
4608.0,0.001922675292007625
5120.0,0.003745799185708165
5632.0,-0.0023374506272375584
6144.0,-0.011711924336850643
6656.0,0.00019214033090975136
7168.0,0.00200712401419878
7680.0,-0.014627527445554733
8192.0,-0.013362498953938484
end
