version,3.0
numOfCh,1
type,point
parent_name,0cd20_0dot2-0dot01
ch_type,1_1
kcount,1
numberNandB,1
brightnessNandB,1
carpet pos,0
pc,0
Time (ms),CH1 Auto-Correlation
1.0,0.023513708263635635
2.0,0.022955773398280144
3.0,0.022421596571803093
4.0,0.0219016894698143
5.0,0.021411946043372154
6.0,0.020945703610777855
7.0,0.02047918550670147
8.0,0.0200289748609066
9.0,0.019599532708525658
10.0,0.01918458566069603
11.0,0.018774740397930145
12.0,0.018367789685726166
13.0,0.01796645298600197
14.0,0.01759536936879158
15.0,0.017231326550245285
16.0,0.01689835451543331
18.0,0.016260411590337753
20.0,0.015679365023970604
22.0,0.015127811580896378
24.0,0.014593875966966152
26.0,0.014103860594332218
28.0,0.01363221276551485
30.0,0.013220563530921936
32.0,0.01282491348683834
36.0,0.012107959017157555
40.0,0.011515897698700428
44.0,0.01100318506360054
48.0,0.01054464839398861
52.0,0.010104421526193619
56.0,0.009684819728136063
60.0,0.009225897490978241
64.0,0.008812385611236095
72.0,0.008017633110284805
80.0,0.0074684289284050465
88.0,0.007112026680260897
96.0,0.0067939055152237415
104.0,0.006479655858129263
112.0,0.006390244700014591
120.0,0.006255201064050198
128.0,0.00584714999422431
144.0,0.005164627451449633
160.0,0.0047439937479794025
176.0,0.004490545019507408
192.0,0.003719337284564972
208.0,0.002899972954764962
224.0,0.002446328056976199
240.0,0.0020243076141923666
256.0,0.0017363467486575246
288.0,0.0012080454034730792
320.0,0.0013170804595574737
352.0,0.0012640702771022916
384.0,0.0009355867514386773
416.0,0.001054760767146945
448.0,0.001272735302336514
480.0,0.00021642399951815605
512.0,-0.0003395482199266553
576.0,-0.0003889050567522645
640.0,-0.0001917147310450673
704.0,-0.0008382813539355993
768.0,5.959230475127697e-05
832.0,0.0007841277401894331
896.0,5.753570076194592e-05
960.0,-0.0008153486996889114
1024.0,-0.0012794089270755649
1152.0,-0.0025844743940979242
1280.0,-0.0036998027935624123
1408.0,-0.0038490043953061104
1536.0,-0.0027037907857447863
1664.0,-0.0019522914662957191
1792.0,-0.00026591442292556167
1920.0,0.00028326112078502774
2048.0,2.4523940737708472e-05
2304.0,0.0013053546426817775
2560.0,0.002790037775412202
2816.0,0.0030191612895578146
3072.0,0.0013668237952515483
3328.0,0.000865891226567328
3584.0,-1.0155166592085152e-06
3840.0,-0.001562705379910767
4096.0,-0.001721660839393735
4608.0,-0.0024907037150114775
5120.0,0.0014466466382145882
5632.0,0.002169844228774309
6144.0,0.0006994272116571665
6656.0,-0.0013373445253819227
7168.0,-0.002154148882254958
7680.0,0.001113427453674376
8192.0,0.0014015501365065575
end
