version,3.0
numOfCh,1
type,point
parent_name,0cd20_0dot2-0dot01
ch_type,1_1
kcount,1
numberNandB,1
brightnessNandB,1
carpet pos,0
pc,0
Time (ms),CH1 Auto-Correlation
1.0,0.040097519755363464
2.0,0.03946777433156967
3.0,0.03884684666991234
4.0,0.038237910717725754
5.0,0.03764168545603752
6.0,0.03705892339348793
7.0,0.03648627549409866
8.0,0.03590841591358185
9.0,0.03535762429237366
10.0,0.0348237045109272
11.0,0.03428039327263832
12.0,0.03375382348895073
13.0,0.033244289457798004
14.0,0.03276321291923523
15.0,0.03231290355324745
16.0,0.03187977150082588
18.0,0.031043201684951782
20.0,0.03026757203042507
22.0,0.0295221209526062
24.0,0.028809355571866035
26.0,0.02814924158155918
28.0,0.027551544830203056
30.0,0.026991454884409904
32.0,0.026443136855959892
36.0,0.025372153148055077
40.0,0.024441711604595184
44.0,0.023614386096596718
48.0,0.022781426087021828
52.0,0.021940525621175766
56.0,0.021063104271888733
60.0,0.020143713802099228
64.0,0.019170697778463364
72.0,0.01775231957435608
80.0,0.016736770048737526
88.0,0.015888461843132973
96.0,0.015161224640905857
104.0,0.014460249803960323
112.0,0.01355781126767397
120.0,0.01262565515935421
128.0,0.01182123925536871
144.0,0.010194656439125538
160.0,0.008450687862932682
176.0,0.00737623730674386
192.0,0.007029728032648563
208.0,0.006228944752365351
224.0,0.005910833366215229
240.0,0.005987076088786125
256.0,0.005814089439809322
288.0,0.005494132172316313
320.0,0.004975411109626293
352.0,0.004087987821549177
384.0,0.002839087974280119
416.0,0.0010433999123051763
448.0,-0.0011293166317045689
480.0,-0.0026935830246657133
512.0,-0.0026321366894990206
576.0,-0.0003639281785581261
640.0,0.002285218331962824
704.0,0.0026135859079658985
768.0,0.0006942453910596669
832.0,-0.0006593188736587763
896.0,-0.0023871916346251965
960.0,-0.003322366625070572
1024.0,-0.00426059402525425
1152.0,-0.010102720931172371
1280.0,-0.004679947160184383
1408.0,-0.0026289101224392653
1536.0,-0.0033267992548644543
1664.0,0.00024373379710596055
1792.0,-0.0032156838569790125
1920.0,-0.004615733399987221
2048.0,-0.0020785541273653507
2304.0,-0.00046630349243059754
2560.0,-0.002904942724853754
2816.0,-0.0009928449289873242
3072.0,0.003950684797018766
3328.0,0.0008454007329419255
3584.0,-0.0003701931273099035
3840.0,0.005401832517236471
4096.0,0.002750901272520423
4608.0,-0.0023536852095276117
5120.0,-0.000297227205010131
5632.0,-0.004637534264475107
6144.0,0.0031062299385666847
6656.0,0.001548046711832285
7168.0,0.003328373422846198
7680.0,-0.005499642342329025
8192.0,0.0015427923062816262
end
