version,3.0
numOfCh,1
type,point
parent_name,0cd20_0dot2-0dot01
ch_type,1_1
kcount,1
numberNandB,1
brightnessNandB,1
carpet pos,0
pc,0
Time (ms),CH1 Auto-Correlation
1.0,0.03538745269179344
2.0,0.03483264893293381
3.0,0.03430449590086937
4.0,0.033787742257118225
5.0,0.03328052908182144
6.0,0.032784607261419296
7.0,0.03231053799390793
8.0,0.031844936311244965
9.0,0.031386829912662506
10.0,0.030932076275348663
11.0,0.030489549040794373
12.0,0.030055198818445206
13.0,0.02963070012629032
14.0,0.029205234721302986
15.0,0.028788641095161438
16.0,0.028380338102579117
18.0,0.027604326605796814
20.0,0.026894185692071915
22.0,0.02620604634284973
24.0,0.025540731847286224
26.0,0.024939578026533127
28.0,0.024345876649022102
30.0,0.023756178095936775
32.0,0.023223774507641792
36.0,0.022266224026679993
40.0,0.021400466561317444
44.0,0.020613569766283035
48.0,0.019937630742788315
52.0,0.01936936192214489
56.0,0.018888482823967934
60.0,0.018490534275770187
64.0,0.018234025686979294
72.0,0.017736271023750305
80.0,0.017077043652534485
88.0,0.01643713004887104
96.0,0.01592002809047699
104.0,0.015538793057203293
112.0,0.015172446146607399
120.0,0.014793573878705502
128.0,0.014442048035562038
144.0,0.013455105014145374
160.0,0.012596780434250832
176.0,0.012042485177516937
192.0,0.011616436764597893
208.0,0.011028704233467579
224.0,0.009783261455595493
240.0,0.008711133152246475
256.0,0.008637811057269573
288.0,0.0087423762306571
320.0,0.00674576498568058
352.0,0.0057881367392838
384.0,0.0060604955069720745
416.0,0.0056556034833192825
448.0,0.0053655304946005344
480.0,0.0048900507390499115
512.0,0.002882395638152957
576.0,0.00016406724171247333
640.0,-0.0017471116734668612
704.0,-0.002988324500620365
768.0,-0.004500263836234808
832.0,-0.006601999048143625
896.0,-0.007049645762890577
960.0,-0.005526172928512096
1024.0,-0.005280520301312208
1152.0,-0.0045234207063913345
1280.0,-0.0032178829424083233
1408.0,-0.0015824633883312345
1536.0,0.001972953090444207
1664.0,0.004383167717605829
1792.0,0.007224025670439005
1920.0,0.007774282246828079
2048.0,0.007352730259299278
2304.0,0.00921014416962862
2560.0,0.003929615020751953
2816.0,-0.0022521435748785734
3072.0,-0.006532064639031887
3328.0,-0.0052069262601435184
3584.0,-0.0017835247563198209
3840.0,0.0022006016224622726
4096.0,0.008753148838877678
4608.0,0.003615935333073139
5120.0,-0.006292612757533789
5632.0,-0.005370885133743286
6144.0,0.0009537496953271329
6656.0,0.001956361811608076
7168.0,-0.006377876736223698
7680.0,-0.008720139041543007
8192.0,0.000420546653913334
end
