version,3.0
numOfCh,1
type,point
parent_name,0cd20_0dot2-0dot01
ch_type,1_1
kcount,1
numberNandB,1
brightnessNandB,1
carpet pos,0
pc,0
Time (ms),CH1 Auto-Correlation
1.0,0.03228163346648216
2.0,0.031718961894512177
3.0,0.031177280470728874
4.0,0.030647115781903267
5.0,0.030144888907670975
6.0,0.02966492809355259
7.0,0.029208507388830185
8.0,0.028760675340890884
9.0,0.028330115601420403
10.0,0.027918823063373566
11.0,0.027526982128620148
12.0,0.027148066088557243
13.0,0.026779940351843834
14.0,0.026416782289743423
15.0,0.026064448058605194
16.0,0.02573549374938011
18.0,0.025101428851485252
20.0,0.024562982842326164
22.0,0.02406061813235283
24.0,0.02356148324906826
26.0,0.023075131699442863
28.0,0.022554578259587288
30.0,0.02204326167702675
32.0,0.021550679579377174
36.0,0.020641440525650978
40.0,0.01980406977236271
44.0,0.019082041457295418
48.0,0.01830212026834488
52.0,0.017482776194810867
56.0,0.016721121966838837
60.0,0.016022568568587303
64.0,0.015341582708060741
72.0,0.013980009593069553
80.0,0.012685352936387062
88.0,0.011682203970849514
96.0,0.01082520466297865
104.0,0.010072024539113045
112.0,0.009414700791239738
120.0,0.008876411244273186
128.0,0.008387966081500053
144.0,0.0072998059913516045
160.0,0.006743011064827442
176.0,0.00655667670071125
192.0,0.006373384967446327
208.0,0.005936254747211933
224.0,0.0054486412554979324
240.0,0.0053698220290243626
256.0,0.005218907259404659
288.0,0.0044428142718970776
320.0,0.003597005968913436
352.0,0.002797095337882638
384.0,0.0022870907559990883
416.0,0.00185270921792835
448.0,0.0018332639010623097
480.0,0.002184369834139943
512.0,0.002743010874837637
576.0,0.0040440247394144535
640.0,0.0038714809343218803
704.0,0.002056276658549905
768.0,0.0009601761121302843
832.0,-0.00024960091104730964
896.0,-0.00173855887260288
960.0,-0.002059183781966567
1024.0,-0.0012228087289258838
1152.0,-0.0001078573550330475
1280.0,0.00032784140785224736
1408.0,-0.0008964604930952191
1536.0,-0.002138554584234953
1664.0,-0.0028095003217458725
1792.0,-0.002030962845310569
1920.0,-0.0011416272027418017
2048.0,-0.0005158553249202669
2304.0,-0.0019142021192237735
2560.0,-0.004367610439658165
2816.0,-0.001427828916348517
3072.0,-0.0030334857292473316
3328.0,-0.0012546104844659567
3584.0,-0.0026627928018569946
3840.0,-0.0006316649378277361
4096.0,0.001490374212153256
4608.0,0.003274915972724557
5120.0,0.0030964871402829885
5632.0,0.0026490865275263786
6144.0,0.00035832353751175106
6656.0,-0.0017987394239753485
7168.0,-0.005539922043681145
7680.0,-0.0018031226936727762
8192.0,-0.0007236877572722733
end
