version,3.0
numOfCh,1
type,point
parent_name,0cd20_0dot2-0dot01
ch_type,1_1
kcount,1
numberNandB,1
brightnessNandB,1
carpet pos,0
pc,0
Time (ms),CH1 Auto-Correlation
1.0,0.024385467171669006
2.0,0.023809047415852547
3.0,0.02325856126844883
4.0,0.0227261520922184
5.0,0.022220097482204437
6.0,0.02173093520104885
7.0,0.021249601617455482
8.0,0.020796194672584534
9.0,0.020357120782136917
10.0,0.019942913204431534
11.0,0.01953464187681675
12.0,0.019119752570986748
13.0,0.018713003024458885
14.0,0.018314383924007416
15.0,0.01791134849190712
16.0,0.01753120869398117
18.0,0.016771433874964714
20.0,0.016067635267972946
22.0,0.015428873710334301
24.0,0.014853616245090961
26.0,0.01435439009219408
28.0,0.013890715315937996
30.0,0.013455619104206562
32.0,0.013076076284050941
36.0,0.01230634655803442
40.0,0.011500147171318531
44.0,0.010699179954826832
48.0,0.009968231432139874
52.0,0.009206182323396206
56.0,0.008495776914060116
60.0,0.0078084697015583515
64.0,0.007069605402648449
72.0,0.005591624416410923
80.0,0.0042657931335270405
88.0,0.002966538304463029
96.0,0.001696376595646143
104.0,0.00036458729300647974
112.0,-0.0007975277840159833
120.0,-0.0017540113767609
128.0,-0.0027954932302236557
144.0,-0.004736754111945629
160.0,-0.005943361669778824
176.0,-0.006288893520832062
192.0,-0.005331435706466436
208.0,-0.004225894343107939
224.0,-0.003366185585036874
240.0,-0.002316974801942706
256.0,-0.001367442891933024
288.0,0.0007958057685755193
320.0,0.0022441716864705086
352.0,0.002527087926864624
384.0,0.002140377415344119
416.0,0.0015267363050952554
448.0,0.0005886885337531567
480.0,0.0003340939001645893
512.0,-0.0006738576339557767
576.0,-0.0009285094565711915
640.0,-0.0022455514408648014
704.0,-0.002272286219522357
768.0,0.0003430739161558449
832.0,0.0016750931972637773
896.0,-0.001019841292873025
960.0,-0.0017748655518516898
1024.0,-0.0011638934956863523
1152.0,0.0006167241954244673
1280.0,-0.0014161160215735435
1408.0,0.0006396020762622356
1536.0,0.0008119848207570612
1664.0,-1.2339503882685676e-05
1792.0,-0.0006376727251335979
1920.0,0.0011151175713166595
2048.0,-0.001737890881486237
2304.0,0.0002500681730452925
2560.0,-0.001129785436205566
2816.0,-0.0003579104959499091
3072.0,0.00029399528284557164
3328.0,0.0012481968151405454
3584.0,-0.0004173944180365652
3840.0,-0.0018067416967824101
4096.0,-0.0003734302590601146
4608.0,0.0007775936974212527
5120.0,0.0013946021208539605
5632.0,-0.00047294981777668
6144.0,0.0005138376727700233
6656.0,-0.0006975854048505425
7168.0,0.0003647029516287148
7680.0,-0.00261009787209332
8192.0,0.0005791042349301279
end
