version,3.0
numOfCh,1
type,point
parent_name,0cd20_0dot2-0dot01
ch_type,1_1
kcount,1
numberNandB,1
brightnessNandB,1
carpet pos,0
pc,0
Time (ms),CH1 Auto-Correlation
1.0,0.036462441086769104
2.0,0.035867657512426376
3.0,0.03531274572014809
4.0,0.03477621078491211
5.0,0.034244779497385025
6.0,0.033725183457136154
7.0,0.033227283507585526
8.0,0.03274831920862198
9.0,0.03226620703935623
10.0,0.031802453100681305
11.0,0.03136109188199043
12.0,0.030934549868106842
13.0,0.030526893213391304
14.0,0.03013589233160019
15.0,0.029741961508989334
16.0,0.02935486100614071
18.0,0.028608201071619987
20.0,0.027860229834914207
22.0,0.027160678058862686
24.0,0.02649751305580139
26.0,0.02584906853735447
28.0,0.02518715336918831
30.0,0.02452240139245987
32.0,0.023867981508374214
36.0,0.022712603211402893
40.0,0.02158176153898239
44.0,0.020510930567979813
48.0,0.01956719532608986
52.0,0.018660396337509155
56.0,0.017766499891877174
60.0,0.016925856471061707
64.0,0.01615118607878685
72.0,0.01458972692489624
80.0,0.013288733549416065
88.0,0.012183934450149536
96.0,0.011287715286016464
104.0,0.01047689002007246
112.0,0.009534010663628578
120.0,0.00878977868705988
128.0,0.008266616612672806
144.0,0.006990760564804077
160.0,0.00585839943960309
176.0,0.005242964718490839
192.0,0.004848717711865902
208.0,0.0048309448175132275
224.0,0.004857032094150782
240.0,0.004936355631798506
256.0,0.004940037615597248
288.0,0.004390998277813196
320.0,0.003912582527846098
352.0,0.003316758433356881
384.0,0.002843974158167839
416.0,0.0026766073424369097
448.0,0.00188745791092515
480.0,0.00035240690340287983
512.0,-0.0003266095882281661
576.0,0.0009696002816781402
640.0,0.003179222112521529
704.0,0.0023849764838814735
768.0,0.0004930180148221552
832.0,-0.00033952840021811426
896.0,-0.000222124726860784
960.0,0.0007888209656812251
1024.0,0.0021948625799268484
1152.0,0.004103227984160185
1280.0,0.004808719269931316
1408.0,0.006499167066067457
1536.0,0.004110066220164299
1664.0,0.003502467880025506
1792.0,0.002600601874291897
1920.0,0.0014595038956031203
2048.0,0.0006822628201916814
2304.0,-0.0004135540802963078
2560.0,0.0017692400142550468
2816.0,0.0026385586243122816
3072.0,0.0008497824310325086
3328.0,0.0018635744927451015
3584.0,0.0036817023064941168
3840.0,0.002837247448042035
4096.0,0.0015822368441149592
4608.0,0.0013232989003881812
5120.0,-0.00019564297690521926
5632.0,-0.0001013224755297415
6144.0,-0.00019707246974576265
6656.0,-0.002990200649946928
7168.0,0.0007832538103684783
7680.0,-0.0016203068662434816
8192.0,-0.001648279489018023
end
