version,3.0
numOfCh,1
type,point
parent_name,0cd20_0dot2-0dot01
ch_type,1_1
kcount,1
numberNandB,1
brightnessNandB,1
carpet pos,0
pc,0
Time (ms),CH1 Auto-Correlation
1.0,0.03211069479584694
2.0,0.031527191400527954
3.0,0.03095502033829689
4.0,0.030398882925510406
5.0,0.02983153983950615
6.0,0.029286682605743408
7.0,0.028757743537425995
8.0,0.028231417760252953
9.0,0.027709323912858963
10.0,0.02721736766397953
11.0,0.02675185538828373
12.0,0.02629338763654232
13.0,0.02585086226463318
14.0,0.025439700111746788
15.0,0.025030488148331642
16.0,0.024637514725327492
18.0,0.023877065628767014
20.0,0.023136019706726074
22.0,0.02239682525396347
24.0,0.02168954163789749
26.0,0.021036162972450256
28.0,0.02044559456408024
30.0,0.019908830523490906
32.0,0.019463125616312027
36.0,0.018650483340024948
40.0,0.01787588745355606
44.0,0.017121748998761177
48.0,0.01648898422718048
52.0,0.015971582382917404
56.0,0.01553743053227663
60.0,0.015079008415341377
64.0,0.014557513408362865
72.0,0.013386336155235767
80.0,0.012262976728379726
88.0,0.011171377263963223
96.0,0.010056274943053722
104.0,0.009215502068400383
112.0,0.008609036915004253
120.0,0.008189729414880276
128.0,0.007897610776126385
144.0,0.007861381396651268
160.0,0.007494254969060421
176.0,0.0069200629368424416
192.0,0.0063647436909377575
208.0,0.00613029021769762
224.0,0.005839888472110033
240.0,0.005782335065305233
256.0,0.005554840434342623
288.0,0.005389156751334667
320.0,0.006030731834471226
352.0,0.006223966367542744
384.0,0.005446689669042826
416.0,0.005063888616859913
448.0,0.004274139180779457
480.0,0.0034787568729370832
512.0,0.0012866200413554907
576.0,0.00022082099167164415
640.0,0.000780034635681659
704.0,0.00038119376404210925
768.0,7.210369221866131e-05
832.0,-0.0020072516053915024
896.0,-0.0027844966389238834
960.0,-0.002010732889175415
1024.0,-0.0013993966858834028
1152.0,-0.0010214952053502202
1280.0,-0.0014542837161570787
1408.0,-0.0028890378307551146
1536.0,-0.003403308102861047
1664.0,-0.0004497569752857089
1792.0,0.0006676180055364966
1920.0,0.00032068934524431825
2048.0,0.0015977856237441301
2304.0,0.005807641893625259
2560.0,0.00443916954100132
2816.0,0.000921606901101768
3072.0,-0.001999044558033347
3328.0,-0.00038401325582526624
3584.0,-0.0012489251093938947
3840.0,-0.0020722870249301195
4096.0,-0.0010746287880465388
4608.0,0.0038144930731505156
5120.0,0.004045192152261734
5632.0,-0.0021977329161018133
6144.0,-0.0031497315503656864
6656.0,-0.0013407334918156266
7168.0,0.0023179056588560343
7680.0,0.000369995686924085
8192.0,-0.0030151496175676584
end
