version,3.0
numOfCh,1
type,point
parent_name,0cd20_0dot2-0dot01
ch_type,1_1
kcount,1
numberNandB,1
brightnessNandB,1
carpet pos,0
pc,0
Time (ms),CH1 Auto-Correlation
1.0,0.04220384359359741
2.0,0.04155539348721504
3.0,0.0409233421087265
4.0,0.04031630977988243
5.0,0.03973176330327988
6.0,0.03919673338532448
7.0,0.038696568459272385
8.0,0.03821440413594246
9.0,0.03778119757771492
10.0,0.03735169768333435
11.0,0.03691798448562622
12.0,0.03646731749176979
13.0,0.0360451377928257
14.0,0.035608354955911636
15.0,0.035175420343875885
16.0,0.03475787118077278
18.0,0.03399764746427536
20.0,0.03332352638244629
22.0,0.03269888833165169
24.0,0.03209276869893074
26.0,0.031466905027627945
28.0,0.030854763463139534
30.0,0.030247846618294716
32.0,0.029625054448843002
36.0,0.028559628874063492
40.0,0.027561180293560028
44.0,0.026476943865418434
48.0,0.025424128398299217
52.0,0.024698244407773018
56.0,0.023976339027285576
60.0,0.02333660237491131
64.0,0.02266988344490528
72.0,0.021138248965144157
80.0,0.019635193049907684
88.0,0.018184781074523926
96.0,0.01687674969434738
104.0,0.015264354646205902
112.0,0.013771248050034046
120.0,0.012317178770899773
128.0,0.010820445604622364
144.0,0.008976032957434654
160.0,0.007398451678454876
176.0,0.006212656851857901
192.0,0.004835384897887707
208.0,0.0029711902607232332
224.0,0.0017292735865339637
240.0,0.0013051291462033987
256.0,0.0018982511246576905
288.0,0.0020387605763971806
320.0,0.00038423953810706735
352.0,-0.0019167338032275438
384.0,-0.003646796103566885
416.0,-0.005448343697935343
448.0,-0.006455712486058474
480.0,-0.0066588157787919044
512.0,-0.006940674502402544
576.0,-0.005288037937134504
640.0,-0.00629542488604784
704.0,-0.007041634526103735
768.0,-0.004187966696918011
832.0,-0.0021866927854716778
896.0,-0.002694522961974144
960.0,-0.004770216532051563
1024.0,-0.00419398071244359
1152.0,0.0018181819468736649
1280.0,0.004380790051072836
1408.0,0.003144580405205488
1536.0,0.000685911625623703
1664.0,-0.00016393524128943682
1792.0,0.0018342179246246815
1920.0,0.0028108644764870405
2048.0,-0.00024413166102021933
2304.0,-0.006014791317284107
2560.0,0.0022944530937820673
2816.0,0.003928879275918007
3072.0,-0.005518648773431778
3328.0,-0.005302643869072199
3584.0,0.0005907404702156782
3840.0,0.003369924845173955
4096.0,0.004259976092725992
4608.0,-0.008337479084730148
5120.0,-0.0008013210026547313
5632.0,0.004120748024433851
6144.0,-0.0008637261926196516
6656.0,0.0015743456315249205
7168.0,0.0019358432618901134
7680.0,-3.0051729481783696e-05
8192.0,0.00015867751790210605
end
