version,3.0
numOfCh,1
type,point
parent_name,0cd20_0dot2-0dot01
ch_type,1_1
kcount,1
numberNandB,1
brightnessNandB,1
carpet pos,0
pc,0
Time (ms),CH1 Auto-Correlation
1.0,0.03530258685350418
2.0,0.034704115241765976
3.0,0.03412618860602379
4.0,0.03356066718697548
5.0,0.03300042822957039
6.0,0.03245661035180092
7.0,0.03190421313047409
8.0,0.03136603906750679
9.0,0.030859507620334625
10.0,0.030365632846951485
11.0,0.029882801696658134
12.0,0.029389290139079094
13.0,0.028910454362630844
14.0,0.028443098068237305
15.0,0.02798164263367653
16.0,0.0275088120251894
18.0,0.02662939764559269
20.0,0.02576310932636261
22.0,0.02489885687828064
24.0,0.02408697083592415
26.0,0.023346437141299248
28.0,0.02273021638393402
30.0,0.022180963307619095
32.0,0.0216273982077837
36.0,0.020457709208130836
40.0,0.019453272223472595
44.0,0.018634168431162834
48.0,0.018003473058342934
52.0,0.017397679388523102
56.0,0.01678512990474701
60.0,0.016272392123937607
64.0,0.015891529619693756
72.0,0.015590309165418148
80.0,0.0152623001486063
88.0,0.014662068337202072
96.0,0.013843994587659836
104.0,0.012997454963624477
112.0,0.012294331565499306
120.0,0.01161286048591137
128.0,0.011001186445355415
144.0,0.010199851356446743
160.0,0.00951354019343853
176.0,0.008866126649081707
192.0,0.008182005025446415
208.0,0.007121045608073473
224.0,0.006719127297401428
240.0,0.00627919239923358
256.0,0.0057862731628119946
288.0,0.004016383551061153
320.0,0.003011251799762249
352.0,0.002204309217631817
384.0,0.0010766616323962808
416.0,0.0007991433376446366
448.0,0.0022650351747870445
480.0,0.0038268875796347857
512.0,0.005473535507917404
576.0,0.00549365533515811
640.0,0.007520087994635105
704.0,0.00846455991268158
768.0,0.005996879190206528
832.0,0.0056821065954864025
896.0,0.005758289247751236
960.0,0.005895616486668587
1024.0,0.003933308646082878
1152.0,0.005737893283367157
1280.0,0.0052674198523163795
1408.0,0.005490751937031746
1536.0,0.004931391216814518
1664.0,0.002670498564839363
1792.0,8.091643394436687e-05
1920.0,-0.00040204726974479854
2048.0,0.0007428082753904164
2304.0,0.003298133844509721
2560.0,0.0019144308753311634
2816.0,0.0001774100965121761
3072.0,-0.001145381829701364
3328.0,0.0008186385384760797
3584.0,0.0005151475197635591
3840.0,-0.0012300198432058096
4096.0,-0.00573710585013032
4608.0,-0.007215352728962898
5120.0,-0.005650007165968418
5632.0,-0.005262698512524366
6144.0,-0.003965683281421661
6656.0,-0.008317966014146805
7168.0,-0.003553299466148019
7680.0,-0.013510302640497684
8192.0,-0.006998198106884956
end
