version,3.0
numOfCh,1
type,point
parent_name,0cd20_0dot2-0dot01
ch_type,1_1
kcount,1
numberNandB,1
brightnessNandB,1
carpet pos,0
pc,0
Time (ms),CH1 Auto-Correlation
1.0,0.03438950702548027
2.0,0.03381437435746193
3.0,0.033258553594350815
4.0,0.03271978348493576
5.0,0.03221304342150688
6.0,0.03172396868467331
7.0,0.03126787394285202
8.0,0.030831264331936836
9.0,0.030410733073949814
10.0,0.030009951442480087
11.0,0.029617654159665108
12.0,0.029240740463137627
13.0,0.02887810207903385
14.0,0.028527019545435905
15.0,0.028192050755023956
16.0,0.027870379388332367
18.0,0.027216600254178047
20.0,0.026585550978779793
22.0,0.026000358164310455
24.0,0.02544979937374592
26.0,0.024935338646173477
28.0,0.024468740448355675
30.0,0.024070115759968758
32.0,0.02367570251226425
36.0,0.02294968254864216
40.0,0.02232232876121998
44.0,0.021761007606983185
48.0,0.021157648414373398
52.0,0.020548051223158836
56.0,0.020041121169924736
60.0,0.01957305334508419
64.0,0.019129330292344093
72.0,0.01826564408838749
80.0,0.01740921102464199
88.0,0.016432378441095352
96.0,0.015571818687021732
104.0,0.01479526050388813
112.0,0.013997214846313
120.0,0.013186316005885601
128.0,0.012383196502923965
144.0,0.011547385714948177
160.0,0.011010970920324326
176.0,0.010581343434751034
192.0,0.010323772206902504
208.0,0.009769575670361519
224.0,0.008983442559838295
240.0,0.008466077037155628
256.0,0.00806053914129734
288.0,0.007781611755490303
320.0,0.006070598028600216
352.0,0.004650023300200701
384.0,0.0041944910772144794
416.0,0.003964885603636503
448.0,0.0034718348179012537
480.0,0.003812449984252453
512.0,0.004392986185848713
576.0,0.004830162040889263
640.0,0.0057004899717867374
704.0,0.00549433846026659
768.0,0.005450842436403036
832.0,0.007010937202721834
896.0,0.007236693054437637
960.0,0.0052533140406012535
1024.0,0.00464762793853879
1152.0,0.0026088571175932884
1280.0,0.0002903154818341136
1408.0,0.0008959566475823522
1536.0,0.0035708516370505095
1664.0,0.00476275896653533
1792.0,0.005615943111479282
1920.0,0.004729820415377617
2048.0,0.002935915719717741
2304.0,0.003467039903625846
2560.0,0.004039397928863764
2816.0,0.005354291293770075
3072.0,0.0034633330069482327
3328.0,0.0009425809257663786
3584.0,0.00076180329779163
3840.0,0.002462195698171854
4096.0,-0.0008043008274398744
4608.0,-0.0006157737225294113
5120.0,-0.004813221748918295
5632.0,0.0006466791965067387
6144.0,-6.34012176305987e-05
6656.0,-0.004058578051626682
7168.0,-0.00240633194334805
7680.0,-0.002461034106090665
8192.0,-0.0029105013236403465
end
