version,3.0
numOfCh,1
type,point
parent_name,0cd20_0dot2-0dot01
ch_type,1_1
kcount,1
numberNandB,1
brightnessNandB,1
carpet pos,0
pc,0
Time (ms),CH1 Auto-Correlation
1.0,0.03308295086026192
2.0,0.032521918416023254
3.0,0.031978607177734375
4.0,0.031455978751182556
5.0,0.030958687886595726
6.0,0.030490102246403694
7.0,0.0300272386521101
8.0,0.029562585055828094
9.0,0.029102254658937454
10.0,0.028651241213083267
11.0,0.02823360450565815
12.0,0.027829542756080627
13.0,0.02742856927216053
14.0,0.027025438845157623
15.0,0.026628416031599045
16.0,0.026256153360009193
18.0,0.025521263480186462
20.0,0.02484387345612049
22.0,0.024212438613176346
24.0,0.023619914427399635
26.0,0.02303333394229412
28.0,0.022483017295598984
30.0,0.021958278492093086
32.0,0.021442539989948273
36.0,0.020499559119343758
40.0,0.019653163850307465
44.0,0.01896875724196434
48.0,0.018507208675146103
52.0,0.01814810000360012
56.0,0.01788058504462242
60.0,0.017608406022191048
64.0,0.017392488196492195
72.0,0.016882775351405144
80.0,0.01627914234995842
88.0,0.015394661575555801
96.0,0.01432061567902565
104.0,0.013447239063680172
112.0,0.012916026636958122
120.0,0.012525870464742184
128.0,0.012138141319155693
144.0,0.01156553253531456
160.0,0.011198282241821289
176.0,0.01078939437866211
192.0,0.010726290754973888
208.0,0.010137459263205528
224.0,0.009343259036540985
240.0,0.008974737487733364
256.0,0.009085035882890224
288.0,0.007883134298026562
320.0,0.006319326814264059
352.0,0.004685649182647467
384.0,0.0025277845561504364
416.0,0.0014410807052627206
448.0,0.0015287736896425486
480.0,0.002424514153972268
512.0,0.002330933464691043
576.0,0.0031450167298316956
640.0,0.003248520428314805
704.0,0.0012777677038684487
768.0,0.001031230902299285
832.0,0.002998149022459984
896.0,0.0018469431670382619
960.0,0.0007777725113555789
1024.0,0.0003195307799614966
1152.0,0.0018786650616675615
1280.0,0.003687813878059387
1408.0,0.0028819276485592127
1536.0,0.0024079824797809124
1664.0,0.0015567031223326921
1792.0,0.001634391606785357
1920.0,0.0023685316555202007
2048.0,0.002553049474954605
2304.0,0.003795769764110446
2560.0,0.0030617720913141966
2816.0,0.0028306508902460337
3072.0,-0.00026071243337355554
3328.0,-0.0025741346180438995
3584.0,-0.0008204142795875669
3840.0,-0.003904042299836874
4096.0,-0.0031379691790789366
4608.0,-0.007113834377378225
5120.0,-0.0035605519078671932
5632.0,-0.00652053439989686
6144.0,-0.004671255126595497
6656.0,-0.001921122195199132
7168.0,-0.0047148908488452435
7680.0,-0.004438186064362526
8192.0,-0.00557592511177063
end
