version,3.0
numOfCh,1
type,point
parent_name,0cd20_0dot2-0dot01
ch_type,1_1
kcount,1
numberNandB,1
brightnessNandB,1
carpet pos,0
pc,0
Time (ms),CH1 Auto-Correlation
1.0,0.041013263165950775
2.0,0.040434580296278
3.0,0.03987612947821617
4.0,0.03932681307196617
5.0,0.03878679871559143
6.0,0.03825703263282776
7.0,0.03773855045437813
8.0,0.03723974898457527
9.0,0.036753054708242416
10.0,0.03628949448466301
11.0,0.035846926271915436
12.0,0.03541654348373413
13.0,0.03501265496015549
14.0,0.034613654017448425
15.0,0.034208111464977264
16.0,0.033815961331129074
18.0,0.03306230530142784
20.0,0.03234505653381348
22.0,0.03166389465332031
24.0,0.031065596267580986
26.0,0.030480651184916496
28.0,0.02988361194729805
30.0,0.02933160401880741
32.0,0.028798682615160942
36.0,0.027808690443634987
40.0,0.026894789189100266
44.0,0.02608327753841877
48.0,0.025387372821569443
52.0,0.024702537804841995
56.0,0.024017732590436935
60.0,0.023337112739682198
64.0,0.02277740091085434
72.0,0.021995121613144875
80.0,0.021281221881508827
88.0,0.020509077236056328
96.0,0.019706521183252335
104.0,0.018803246319293976
112.0,0.01798584870994091
120.0,0.017333107069134712
128.0,0.01701672188937664
144.0,0.016251465305685997
160.0,0.015550270676612854
176.0,0.015260889194905758
192.0,0.01480504684150219
208.0,0.014567568898200989
224.0,0.014151209034025669
240.0,0.013811266981065273
256.0,0.01383962295949459
288.0,0.013542539440095425
320.0,0.012631616555154324
352.0,0.011438949033617973
384.0,0.010783742181956768
416.0,0.011451402679085732
448.0,0.011088259518146515
480.0,0.010665079578757286
512.0,0.010339255444705486
576.0,0.007722524926066399
640.0,0.004971134010702372
704.0,0.003716525388881564
768.0,0.0023103333078324795
832.0,0.0009619289776310325
896.0,-0.00021973071852698922
960.0,-0.002784641459584236
1024.0,-0.005027917679399252
1152.0,-0.005364728160202503
1280.0,-0.005580096039921045
1408.0,-0.006735748145729303
1536.0,-0.004271021578460932
1664.0,-0.0035302252508699894
1792.0,8.670562965562567e-05
1920.0,0.0025232357438653708
2048.0,0.008786036632955074
2304.0,0.009523099288344383
2560.0,0.012495494447648525
2816.0,0.010228324681520462
3072.0,0.002941750455647707
3328.0,-0.0027764944825321436
3584.0,-0.009471205063164234
3840.0,-0.010253327898681164
4096.0,-0.008562253788113594
4608.0,-0.001161246094852686
5120.0,0.0013823627959936857
5632.0,-0.0007088120328262448
6144.0,-0.008123326115310192
6656.0,-0.01074738148599863
7168.0,-0.0077705164439976215
7680.0,-0.002163873752579093
8192.0,0.0002836087951436639
9216.0,-0.004622449167072773
10240.0,0.002633085008710623
11264.0,0.0008119749836623669
12288.0,-0.002039451850578189
13312.0,0.0029032889287918806
14336.0,0.0054470449686050415
end
