version,3.0
numOfCh,1
type,point
parent_name,0cd20_0dot2-0dot01
ch_type,1_1
kcount,1
numberNandB,1
brightnessNandB,1
carpet pos,0
pc,0
Time (ms),CH1 Auto-Correlation
1.0,0.02566506527364254
2.0,0.025062985718250275
3.0,0.024488400667905807
4.0,0.023923398926854134
5.0,0.023377781733870506
6.0,0.022844094783067703
7.0,0.02232528105378151
8.0,0.02182612009346485
9.0,0.02133048139512539
10.0,0.02084127999842167
11.0,0.02035648748278618
12.0,0.01990688033401966
13.0,0.019466640427708626
14.0,0.019045688211917877
15.0,0.018640436232089996
16.0,0.018240921199321747
18.0,0.017474910244345665
20.0,0.016742097213864326
22.0,0.016046103090047836
24.0,0.01537119410932064
26.0,0.014726715162396431
28.0,0.01413522008806467
30.0,0.013599398545920849
32.0,0.013071145862340927
36.0,0.012083721347153187
40.0,0.01119077019393444
44.0,0.01053084060549736
48.0,0.01003569457679987
52.0,0.009614578448235989
56.0,0.009098493494093418
60.0,0.008625421673059464
64.0,0.008161473087966442
72.0,0.0070531233213841915
80.0,0.006170422770082951
88.0,0.005287374835461378
96.0,0.004460525698959827
104.0,0.0042111859656870365
112.0,0.004218311049044132
120.0,0.004328081849962473
128.0,0.00440577557310462
144.0,0.004361280705779791
160.0,0.004345543682575226
176.0,0.004079894628375769
192.0,0.003930563107132912
208.0,0.003363018622621894
224.0,0.0029681348241865635
240.0,0.002749453764408827
256.0,0.0024546929635107517
288.0,0.001753821037709713
320.0,0.0011644826736301184
352.0,0.0004079691134393215
384.0,0.0009674894972704351
416.0,-0.0003780486877076328
448.0,-8.9746288722381e-05
480.0,-0.00027647175011225045
512.0,-0.00013243216380942613
576.0,-0.000219361245399341
640.0,-0.0005234399577602744
704.0,-0.0012501440942287445
768.0,-0.0010129149304702878
832.0,0.0004101436643395573
896.0,0.0011111199855804443
960.0,0.0003180872299708426
1024.0,-0.0016725441673770547
1152.0,-0.00137724494561553
1280.0,-0.002336147939786315
1408.0,-0.0002129226631950587
1536.0,-0.0006372841889970005
1664.0,-0.0022048288956284523
1792.0,-0.0010613068006932735
1920.0,-0.000421037373598665
2048.0,-0.0009779162937775254
2304.0,-0.0015029904898256063
2560.0,-0.0004521642695181072
2816.0,0.0008818673668429255
3072.0,0.00025733746588230133
3328.0,0.0006500110030174255
3584.0,-1.9811226593446918e-05
3840.0,-0.0009331295150332153
4096.0,-0.0011055131908506155
4608.0,-0.0004991517052985728
5120.0,-0.003055074717849493
5632.0,3.250502049922943e-05
6144.0,0.0027920345310121775
6656.0,0.003197262529283762
7168.0,0.0023581357672810555
7680.0,-0.00010892269347095862
8192.0,-0.004242368042469025
end
