version,3.0
numOfCh,1
type,point
parent_name,0cd20_0dot2-0dot01
ch_type,1_1
kcount,1
numberNandB,1
brightnessNandB,1
carpet pos,0
pc,0
Time (ms),CH1 Auto-Correlation
1.0,0.029417237266898155
2.0,0.028858032077550888
3.0,0.028335638344287872
4.0,0.027823878452181816
5.0,0.0273422934114933
6.0,0.026878023520112038
7.0,0.026431038975715637
8.0,0.0260214451700449
9.0,0.025614341720938683
10.0,0.025194192305207253
11.0,0.0247784610837698
12.0,0.024368468672037125
13.0,0.023970987647771835
14.0,0.02357622981071472
15.0,0.02318861521780491
16.0,0.0228059571236372
18.0,0.022098874673247337
20.0,0.021416492760181427
22.0,0.020761283114552498
24.0,0.020111029967665672
26.0,0.019501857459545135
28.0,0.018923068419098854
30.0,0.018393471837043762
32.0,0.017920957878232002
36.0,0.017105989158153534
40.0,0.01640612632036209
44.0,0.015771284699440002
48.0,0.015162285417318344
52.0,0.014615253545343876
56.0,0.014164305292069912
60.0,0.01373523473739624
64.0,0.013264352455735207
72.0,0.012157646007835865
80.0,0.011280974373221397
88.0,0.010615421459078789
96.0,0.010088793002068996
104.0,0.009516655467450619
112.0,0.00889543816447258
120.0,0.008373175747692585
128.0,0.007899759337306023
144.0,0.006906058173626661
160.0,0.005807805340737104
176.0,0.005011984147131443
192.0,0.004417600110173225
208.0,0.0037725234869867563
224.0,0.0032993806526064873
240.0,0.0031968506518751383
256.0,0.003063482465222478
288.0,0.0036131124943494797
320.0,0.0043813372030854225
352.0,0.004833180923014879
384.0,0.004590344615280628
416.0,0.003855148097500205
448.0,0.00324153620749712
480.0,0.0033110626973211765
512.0,0.0033167272340506315
576.0,0.002433130983263254
640.0,0.0019759859424084425
704.0,0.00027180425240658224
768.0,-0.0014201044104993343
832.0,-0.0014994035009294748
896.0,-0.0019782534800469875
960.0,-0.0014798102201893926
1024.0,-0.0005562914884649217
1152.0,-0.000380584824597463
1280.0,0.0011090583866462111
1408.0,0.0029432871378958225
1536.0,0.0019995432812720537
1664.0,0.0028102982323616743
1792.0,0.004145996645092964
1920.0,0.0038765487261116505
2048.0,0.003905963385477662
2304.0,0.00300733745098114
2560.0,0.0023655658587813377
2816.0,0.0003398029366508126
3072.0,-0.0019518586341291666
3328.0,0.00022447420633397996
3584.0,-0.0004756946873385459
3840.0,0.002564281690865755
4096.0,-4.273532977094874e-05
4608.0,-0.0007726354524493217
5120.0,0.00031718649552203715
5632.0,-0.0026460858061909676
6144.0,-0.003516346914693713
6656.0,-0.001923465053550899
7168.0,-0.00040501783951185644
7680.0,-0.004621367901563644
8192.0,-0.007540968246757984
end
