version,3.0
numOfCh,1
type,point
parent_name,0cd20_0dot2-0dot01
ch_type,1_1
kcount,1
numberNandB,1
brightnessNandB,1
carpet pos,0
pc,0
Time (ms),CH1 Auto-Correlation
1.0,0.047725267708301544
2.0,0.04712729901075363
3.0,0.04654952883720398
4.0,0.04600316658616066
5.0,0.045485056936740875
6.0,0.04497455433011055
7.0,0.04449062421917915
8.0,0.044018153101205826
9.0,0.043534401804208755
10.0,0.043069902807474136
11.0,0.04260718449950218
12.0,0.042148131877183914
13.0,0.041684675961732864
14.0,0.041218385100364685
15.0,0.04078076779842377
16.0,0.04034852981567383
18.0,0.03953130543231964
20.0,0.0387176088988781
22.0,0.03793937340378761
24.0,0.03722661733627319
26.0,0.036558348685503006
28.0,0.03594396263360977
30.0,0.03533243387937546
32.0,0.03473770618438721
36.0,0.033693745732307434
40.0,0.032663505524396896
44.0,0.03167719766497612
48.0,0.030767368152737617
52.0,0.029907207936048508
56.0,0.02914070338010788
60.0,0.028452089056372643
64.0,0.027789974585175514
72.0,0.026628145948052406
80.0,0.02553846314549446
88.0,0.024645140394568443
96.0,0.02378333918750286
104.0,0.02293523959815502
112.0,0.022091304883360863
120.0,0.02122940495610237
128.0,0.020243290811777115
144.0,0.018246816471219063
160.0,0.01659468747675419
176.0,0.015466156415641308
192.0,0.014819051139056683
208.0,0.014291179366409779
224.0,0.013761237263679504
240.0,0.013494066894054413
256.0,0.01302484329789877
288.0,0.012336453422904015
320.0,0.01150418259203434
352.0,0.009668574668467045
384.0,0.008335858583450317
416.0,0.0064988816156983376
448.0,0.004975769203156233
480.0,0.003681983333081007
512.0,0.002985602244734764
576.0,0.0018344901036471128
640.0,-0.002636168384924531
704.0,-0.00470318365842104
768.0,-0.003828037530183792
832.0,-0.0035141657572239637
896.0,-0.0033051129430532455
960.0,-0.005686272867023945
1024.0,-0.009161013178527355
1152.0,-0.010181520134210587
1280.0,-0.010305322706699371
1408.0,-0.0093357739970088
1536.0,-0.009111898019909859
1664.0,-0.010842523537576199
1792.0,-0.011558888480067253
1920.0,-0.008525297045707703
2048.0,-0.005336724687367678
2304.0,0.007241040002554655
2560.0,0.008581068366765976
2816.0,0.006864222232252359
3072.0,0.0035345242358744144
3328.0,0.0001710415817797184
3584.0,-0.004113021772354841
3840.0,-0.004952831193804741
4096.0,-0.008905520662665367
4608.0,-0.003141262801364064
5120.0,0.005908006336539984
5632.0,0.004299997352063656
6144.0,-0.003437924198806286
6656.0,-0.009091580286622047
7168.0,0.0021125683560967445
7680.0,0.007276651915162802
8192.0,0.004787943791598082
end
