version,3.0
numOfCh,1
type,point
parent_name,0cd20_0dot2-0dot01
ch_type,1_1
kcount,1
numberNandB,1
brightnessNandB,1
carpet pos,0
pc,0
Time (ms),CH1 Auto-Correlation
1.0,0.02543126605451107
2.0,0.024870404973626137
3.0,0.024337543174624443
4.0,0.023841269314289093
5.0,0.023352377116680145
6.0,0.022888677194714546
7.0,0.02244103141129017
8.0,0.022022636607289314
9.0,0.02161061018705368
10.0,0.021197790279984474
11.0,0.02079162560403347
12.0,0.020404396578669548
13.0,0.020041899755597115
14.0,0.019679958000779152
15.0,0.019315673038363457
16.0,0.0189504437148571
18.0,0.018274497240781784
20.0,0.017646387219429016
22.0,0.017084866762161255
24.0,0.016566455364227295
26.0,0.016061924397945404
28.0,0.015611274167895317
30.0,0.015205885283648968
32.0,0.014829032123088837
36.0,0.014097665436565876
40.0,0.013357818126678467
44.0,0.012679815292358398
48.0,0.012051751837134361
52.0,0.011505383998155594
56.0,0.010953499004244804
60.0,0.01046297699213028
64.0,0.009975488297641277
72.0,0.009061544202268124
80.0,0.008114626631140709
88.0,0.007291518617421389
96.0,0.006583955604583025
104.0,0.006034164223819971
112.0,0.005470436532050371
120.0,0.0050757150165736675
128.0,0.00488062109798193
144.0,0.0040765441954135895
160.0,0.0033584323246032
176.0,0.0027481254655867815
192.0,0.0017778617329895496
208.0,0.0012371570337563753
224.0,0.001352048828266561
240.0,0.0013151982566341758
256.0,0.0014612501254305243
288.0,0.0012308679288253188
320.0,0.0018884869059547782
352.0,0.0021597519516944885
384.0,0.0016194841591641307
416.0,0.0013349219225347042
448.0,0.0013737945118919015
480.0,0.0017281455220654607
512.0,0.001466836896724999
576.0,0.001500760787166655
640.0,0.0012352480553090572
704.0,-6.484772893600166e-05
768.0,-0.002434000140056014
832.0,-0.003087076125666499
896.0,-0.001469286740757525
960.0,0.0008574217208661139
1024.0,0.0022199642844498158
1152.0,0.0010799065930768847
1280.0,-0.0013869773829355836
1408.0,-0.002747299848124385
1536.0,-0.001254147500731051
1664.0,-0.003078973153606057
1792.0,-0.0045470488257706165
1920.0,-0.005769512616097927
2048.0,-0.00503634475171566
2304.0,-0.0017925850115716457
2560.0,-4.070284921908751e-05
2816.0,0.002071639057248831
3072.0,7.676801760680974e-05
3328.0,-3.052369720535353e-05
3584.0,0.0025193316396325827
3840.0,0.0032158426474779844
4096.0,0.0011140689020976424
4608.0,-0.001646796939894557
5120.0,-2.4394508727709763e-05
5632.0,-0.0006714119808748364
6144.0,0.0003342594427522272
6656.0,0.0011567107867449522
7168.0,-0.0009575340081937611
7680.0,0.001286823651753366
8192.0,-0.0018077957211062312
end
