version,3.0
numOfCh,1
type,point
parent_name,c1204_3dot0-1dot0
ch_type,1_1
kcount,1
numberNandB,1
brightnessNandB,1
carpet pos,0
pc,0
Time (ms),CH1 Auto-Correlation
1.0,0.01624983362853527
2.0,0.013201496563851833
3.0,0.011152632534503937
4.0,0.009701560251414776
5.0,0.008482064120471478
6.0,0.007448421325534582
7.0,0.006615444086492062
8.0,0.00595202948898077
9.0,0.005405425559729338
10.0,0.004853927996009588
11.0,0.0045148879289627075
12.0,0.0043691047467291355
13.0,0.004235879983752966
14.0,0.003999875858426094
15.0,0.003699848661199212
16.0,0.003517942503094673
18.0,0.0031181538943201303
20.0,0.0027499652933329344
22.0,0.0024816205259412527
24.0,0.0021484089083969593
26.0,0.0019572230521589518
28.0,0.0018203496001660824
30.0,0.001561801414936781
32.0,0.0013500681379809976
36.0,0.0010898987529799342
40.0,0.00107437779661268
44.0,0.0009619849734008312
48.0,0.0009053371613845229
52.0,0.0010448131943121552
56.0,0.0009814866352826357
60.0,0.0008157327538356185
64.0,0.0007981130620464683
72.0,0.00030536582926288247
80.0,3.762190317502245e-05
88.0,-5.054749999544583e-05
96.0,-0.00021993080736137927
104.0,-0.00023535150103271008
112.0,-0.00029426321270875633
120.0,-0.0003405228490009904
128.0,-0.0005989769706502557
144.0,-0.0006540671456605196
160.0,-0.0006816850509494543
176.0,-0.00028113729786127806
192.0,-0.00015750671445857733
208.0,3.27165616909042e-05
224.0,0.0002570592041593045
240.0,2.9247308702906594e-05
256.0,-8.568276825826615e-05
288.0,-0.00013816030696034431
320.0,-0.0005593222449533641
352.0,-0.0003810419875662774
384.0,0.00017291598487645388
416.0,-0.0004547111166175455
448.0,-0.00025966245448216796
480.0,-0.00011415319750085473
512.0,0.0005076174275018275
576.0,3.9057820686139166e-05
640.0,-0.00011305622319923714
704.0,-0.0004044207453262061
768.0,-0.00021401167032308877
832.0,0.0005044363788329065
896.0,0.0004416442825458944
960.0,0.00023307782248593867
1024.0,0.0001250386267201975
1152.0,4.679082485381514e-05
1280.0,-0.00025625588023103774
1408.0,-0.000109706939838361
1536.0,-0.00021584401838481426
1664.0,0.0002682358317542821
1792.0,-0.00011454112245701253
1920.0,-0.00032381468918174505
2048.0,-8.10072961030528e-05
2304.0,-0.0001912918669404462
2560.0,-4.456827082321979e-05
2816.0,0.00016550520376767963
3072.0,-0.00037068402161821723
3328.0,-0.00016970117576420307
3584.0,0.0003352538915351033
3840.0,-8.498249371768907e-05
4096.0,-0.00013888429384678602
4608.0,-8.73591416166164e-05
5120.0,6.080357252358226e-06
5632.0,6.730254972353578e-05
6144.0,3.580355769372545e-05
6656.0,-7.542318599007558e-06
7168.0,0.00015158338646870106
7680.0,-2.572438279457856e-05
8192.0,-4.675999662140384e-05
end
