version,3.0
numOfCh,1
type,point
parent_name,c1204_3dot0-1dot0
ch_type,1_1
kcount,1
numberNandB,1
brightnessNandB,1
carpet pos,0
pc,0
Time (ms),CH1 Auto-Correlation
1.0,0.017691196873784065
2.0,0.014768718741834164
3.0,0.012566935271024704
4.0,0.010962058790028095
5.0,0.009572596289217472
6.0,0.00852675549685955
7.0,0.0076182009652256966
8.0,0.006991248577833176
9.0,0.0064919632859528065
10.0,0.005975938867777586
11.0,0.005660251714289188
12.0,0.005457984749227762
13.0,0.005189104005694389
14.0,0.004948738031089306
15.0,0.004631896037608385
16.0,0.00439670542255044
18.0,0.004122716374695301
20.0,0.003732387674972415
22.0,0.003352697705850005
24.0,0.003193354932591319
26.0,0.003213591407984495
28.0,0.00307524879463017
30.0,0.0028663035482168198
32.0,0.0026016163174062967
36.0,0.002479380927979946
40.0,0.0021625696681439877
44.0,0.0017402083612978458
48.0,0.001526843523606658
52.0,0.001445392263121903
56.0,0.0014058194356039166
60.0,0.0011370611609891057
64.0,0.000914246600586921
72.0,0.0005667056539095938
80.0,0.0006019424763508141
88.0,0.0013110681902617216
96.0,0.0013207521988078952
104.0,0.0009645309182815254
112.0,0.0008957198588177562
120.0,0.0007580069359391928
128.0,0.00044875004095956683
144.0,-0.0005135202663950622
160.0,-0.0005498537211678922
176.0,-4.821739639737643e-05
192.0,0.00021637786994688213
208.0,0.0003242772363591939
224.0,0.00025299290427938104
240.0,-1.216334476339398e-05
256.0,-0.001258416217751801
288.0,-0.0006361087434925139
320.0,-2.7172447516932152e-05
352.0,-0.0005357879563234746
384.0,-0.00035708450013771653
416.0,-0.0002940589329227805
448.0,5.309811604092829e-05
480.0,0.000381113903131336
512.0,0.000544742913916707
576.0,0.0006616470054723322
640.0,-0.0001794284617062658
704.0,-0.0005504364962689579
768.0,-0.0009539441089145839
832.0,-0.00030252436408773065
896.0,-9.380915435031056e-05
960.0,1.124574623645458e-06
1024.0,-4.586735667544417e-05
1152.0,0.00021986785577610135
1280.0,-0.0004969527944922447
1408.0,-5.416890780907124e-05
1536.0,4.968067878508009e-05
1664.0,0.00033681103377602994
1792.0,-0.0002724544028751552
1920.0,-0.0002200021262979135
2048.0,-0.00013934708840679377
2304.0,-0.00021943141473457217
2560.0,-0.0002025812427746132
2816.0,0.0002186575875384733
3072.0,-0.00017832063895184547
3328.0,0.0003741963882930577
3584.0,-0.000756876717787236
3840.0,0.0005407172138802707
4096.0,-0.0005187020869925618
4608.0,0.00012410213821567595
5120.0,-0.00010979231592500582
5632.0,-8.468325540889055e-05
6144.0,-8.571935177315027e-05
6656.0,0.00011128035839647055
7168.0,0.00015491370868403465
7680.0,-0.00011989786435151473
8192.0,-0.00021332522737793624
end
