version,3.0
numOfCh,1
type,point
parent_name,c1204_3dot0-1dot0
ch_type,1_1
kcount,1
numberNandB,1
brightnessNandB,1
carpet pos,0
pc,0
Time (ms),CH1 Auto-Correlation
1.0,0.016489610075950623
2.0,0.01350792869925499
3.0,0.011373113840818405
4.0,0.009799240157008171
5.0,0.008602847345173359
6.0,0.0076430910266935825
7.0,0.006842454895377159
8.0,0.006196525879204273
9.0,0.005682525224983692
10.0,0.0052544050849974155
11.0,0.0049315025098621845
12.0,0.004651305731385946
13.0,0.0043213386088609695
14.0,0.004086556378751993
15.0,0.0037780138663947582
16.0,0.0036226799711585045
18.0,0.0034277045633643866
20.0,0.003071665298193693
22.0,0.0027332750614732504
24.0,0.002462999429553747
26.0,0.0022811125963926315
28.0,0.0021441872231662273
30.0,0.0021411259658634663
32.0,0.0022056996822357178
36.0,0.0022713143844157457
40.0,0.0020552410278469324
44.0,0.002154798014089465
48.0,0.0020879688672721386
52.0,0.0016566021367907524
56.0,0.0012462694430723786
60.0,0.0010388573864474893
64.0,0.0008879139204509556
72.0,0.0006028981879353523
80.0,0.00017476319044362754
88.0,-5.1565744797699153e-05
96.0,-0.0004855112638324499
104.0,-0.0008843750110827386
112.0,-0.0009453443926759064
120.0,-0.000400710036046803
128.0,-0.0003444531175773591
144.0,-0.0007362997275777161
160.0,-0.00048517450341023505
176.0,-0.0007012153510004282
192.0,-0.00021788336744066328
208.0,-0.00026833100127987564
224.0,-1.4822467164776754e-07
240.0,0.00028292727074585855
256.0,0.0001872543798526749
288.0,0.0003240497608203441
320.0,-0.00021465453028213233
352.0,-8.0644509580452e-05
384.0,-0.0002999808348249644
416.0,5.496467201737687e-05
448.0,-0.00015783612616360188
480.0,-0.0002826414711307734
512.0,0.00010057377221528441
576.0,0.0002224972122348845
640.0,0.0004631135961972177
704.0,-9.674020839156583e-05
768.0,-0.0004157238290645182
832.0,-6.415972165996209e-05
896.0,-0.00013214781938586384
960.0,-0.0006357742240652442
1024.0,-0.0005461188266053796
1152.0,-0.0002407778229098767
1280.0,0.0002555156243033707
1408.0,-4.09788844990544e-05
1536.0,1.7913054762175307e-05
1664.0,0.00016854908608365804
1792.0,0.0002208455844083801
1920.0,0.00015682700905017555
2048.0,-0.00013656006194651127
2304.0,-0.00013686841703020036
2560.0,-7.585676212329417e-05
2816.0,-0.0001261636207345873
3072.0,-3.94476082874462e-05
3328.0,3.995975566795096e-05
3584.0,9.22109029488638e-05
3840.0,-0.00024126558855641633
4096.0,-2.6146477466681972e-05
4608.0,0.00023448005958925933
5120.0,-0.00018825448933057487
5632.0,-0.0002915335353463888
6144.0,0.00011063054262194782
6656.0,0.0001500394137110561
7168.0,-0.00012029753997921944
7680.0,-0.00020002289966214448
8192.0,-7.859759534767363e-06
end
