version,3.0
numOfCh,1
type,point
parent_name,c1204_3dot0-1dot0
ch_type,1_1
kcount,1
numberNandB,1
brightnessNandB,1
carpet pos,0
pc,0
Time (ms),CH1 Auto-Correlation
1.0,0.01647215150296688
2.0,0.01355498656630516
3.0,0.011437591165304184
4.0,0.00998561829328537
5.0,0.008873837068676949
6.0,0.007909736596047878
7.0,0.007142446935176849
8.0,0.00637804577127099
9.0,0.005888558458536863
10.0,0.005452894605696201
11.0,0.0050990162417292595
12.0,0.0047151753678917885
13.0,0.004449666477739811
14.0,0.004169014748185873
15.0,0.003976586740463972
16.0,0.003753173863515258
18.0,0.0035047943238168955
20.0,0.0030658810865134
22.0,0.0027510104700922966
24.0,0.0024737755302339792
26.0,0.0024042099248617887
28.0,0.0022257878445088863
30.0,0.0021196212619543076
32.0,0.001954879844561219
36.0,0.0018783308332785964
40.0,0.0018824709113687277
44.0,0.0017443642718717456
48.0,0.0016573650063946843
52.0,0.0016484088264405727
56.0,0.0016355311963707209
60.0,0.0015013025840744376
64.0,0.0012899951543658972
72.0,0.0007959365611895919
80.0,0.0007824532222002745
88.0,0.0008878842345438898
96.0,0.0009291862952522933
104.0,0.0008401020313613117
112.0,0.0004207077145110816
120.0,0.0002458063536323607
128.0,0.000397081661503762
144.0,0.00018219748744741082
160.0,0.0004072656447533518
176.0,-0.00014090475451666862
192.0,-0.0002985309693031013
208.0,-0.0003759954415727407
224.0,-0.00023587103351019323
240.0,-0.00041956210043281317
256.0,-0.0008467256557196379
288.0,-0.0001365388452541083
320.0,8.607713243691251e-05
352.0,-0.0002869071322493255
384.0,0.00036752995220012963
416.0,6.535790453199297e-05
448.0,9.807624155655503e-05
480.0,0.0006325588910840452
512.0,0.00018425476446282119
576.0,0.000489013094920665
640.0,-0.0001256339019164443
704.0,-0.0007469086558558047
768.0,-0.0005248361267149448
832.0,-0.0002754146698862314
896.0,-2.2950081984163262e-05
960.0,0.00021492366795428097
1024.0,0.0004274585226085037
1152.0,-0.00026027834974229336
1280.0,-0.0005120693822391331
1408.0,9.529534872854128e-05
1536.0,1.4232435887606698e-06
1664.0,-0.00014988481416366994
1792.0,-0.00011849326256196946
1920.0,0.00029908973374404013
2048.0,-0.00017641737940721214
2304.0,-0.00025543232914060354
2560.0,-0.00020626366313081235
2816.0,-0.000721090764272958
3072.0,0.00014387417468242347
3328.0,-5.843523467774503e-05
3584.0,0.000316684105200693
3840.0,0.0001215281299664639
4096.0,0.0001786299399100244
4608.0,-5.814049654873088e-05
5120.0,-4.48333375970833e-05
5632.0,-5.081804920337163e-05
6144.0,0.00011934058420592919
6656.0,-0.00024048614432103932
7168.0,-3.387442120583728e-05
7680.0,0.00010730866779340431
8192.0,0.000517579261213541
end
