version,3.0
numOfCh,1
type,point
parent_name,c1204_3dot0-1dot0
ch_type,1_1
kcount,1
numberNandB,1
brightnessNandB,1
carpet pos,0
pc,0
Time (ms),CH1 Auto-Correlation
1.0,0.01762276329100132
2.0,0.014612427912652493
3.0,0.012432233430445194
4.0,0.010779859498143196
5.0,0.00956578180193901
6.0,0.008591960184276104
7.0,0.007757210172712803
8.0,0.006982185412198305
9.0,0.006379845552146435
10.0,0.005742365028709173
11.0,0.005330621264874935
12.0,0.004942271858453751
13.0,0.004519860725849867
14.0,0.004169568419456482
15.0,0.00389286270365119
16.0,0.003610740415751934
18.0,0.003202977357432246
20.0,0.0029570406768471003
22.0,0.0027769971638917923
24.0,0.0025647510774433613
26.0,0.0023102224804461002
28.0,0.0021217730827629566
30.0,0.002058915328234434
32.0,0.0020596191752701998
36.0,0.0016152296448126435
40.0,0.0015985553618520498
44.0,0.001840535318478942
48.0,0.001733328914269805
52.0,0.0013438964961096644
56.0,0.001195095363073051
60.0,0.0012074158294126391
64.0,0.0012235650792717934
72.0,0.0013773445971310139
80.0,0.0009886623593047261
88.0,0.00105996523052454
96.0,0.0007041323115117848
104.0,0.0003370082995388657
112.0,0.0003229255962651223
120.0,0.0003027525672223419
128.0,0.0007309894426725805
144.0,0.0009111196268349886
160.0,0.0003140538465231657
176.0,0.0002655120042618364
192.0,3.440051386860432e-06
208.0,-0.0002858938532881439
224.0,-0.00030676816822960973
240.0,0.0001240382989635691
256.0,0.0005029517342336476
288.0,0.0004919591592624784
320.0,0.00029385893139988184
352.0,0.00039110903162509203
384.0,0.0004450327542144805
416.0,0.00029211887158453465
448.0,0.00031507431413047016
480.0,0.0004349250812083483
512.0,6.21265935478732e-05
576.0,-1.3596195458376314e-06
640.0,-4.612579505192116e-05
704.0,-4.000739863840863e-05
768.0,0.0004172020126134157
832.0,0.00042615304118953645
896.0,0.0001608917664270848
960.0,-0.0001500003127148375
1024.0,-0.00026079712552018464
1152.0,6.423435843316838e-05
1280.0,3.263645703555085e-05
1408.0,-2.5590223231120035e-05
1536.0,5.006391438655555e-05
1664.0,2.801376103889197e-05
1792.0,-0.0003134079452138394
1920.0,-0.00026193674420937896
2048.0,-6.284044502535835e-05
2304.0,1.5642786820535548e-05
2560.0,-7.007874228293076e-05
2816.0,-0.0004426509258337319
3072.0,-0.000452565640443936
3328.0,-0.000733461114577949
3584.0,-0.00010703617590479553
3840.0,2.8325963285169564e-05
4096.0,-0.0004290748038329184
4608.0,-7.182103581726551e-05
5120.0,1.1463727787486278e-05
5632.0,0.00018342350085731596
6144.0,8.229152444982901e-05
6656.0,-2.488744030415546e-05
7168.0,-0.0001480517821619287
7680.0,0.0002969392517115921
8192.0,-0.0003004270256496966
end
