version,3.0
numOfCh,1
type,point
parent_name,c1204_3dot0-1dot0
ch_type,1_1
kcount,1
numberNandB,1
brightnessNandB,1
carpet pos,0
pc,0
Time (ms),CH1 Auto-Correlation
1.0,0.017850397154688835
2.0,0.014699124731123447
3.0,0.012586497701704502
4.0,0.011050164699554443
5.0,0.009846793487668037
6.0,0.008851923048496246
7.0,0.008058213628828526
8.0,0.007322859019041061
9.0,0.006632157601416111
10.0,0.006099459249526262
11.0,0.0056531997397542
12.0,0.005313304718583822
13.0,0.004972397815436125
14.0,0.004758162889629602
15.0,0.004553711973130703
16.0,0.004350334871560335
18.0,0.003899010131135583
20.0,0.003679045243188739
22.0,0.0033861855044960976
24.0,0.003136842045933008
26.0,0.00290719629265368
28.0,0.0028125836979597807
30.0,0.002632674528285861
32.0,0.002623845124617219
36.0,0.0025230867322534323
40.0,0.002249654848128557
44.0,0.0018436078680679202
48.0,0.0016724325250834227
52.0,0.001540188561193645
56.0,0.0016639805398881435
60.0,0.0016439635073766112
64.0,0.0017094407230615616
72.0,0.0013107587583363056
80.0,0.0010366934584453702
88.0,0.0008203694014810026
96.0,0.00030118401627987623
104.0,0.000335808377712965
112.0,9.434968524146825e-05
120.0,-0.00020156196842435747
128.0,-0.00034000881714746356
144.0,0.0002446383296046406
160.0,0.00014274337445385754
176.0,0.0006758025847375393
192.0,0.00020126282470300794
208.0,-0.00039701253990642726
224.0,-0.0005118264816701412
240.0,-0.00021077689598314464
256.0,2.484111610101536e-05
288.0,0.00020591163774952292
320.0,9.484858310315758e-05
352.0,-0.0005684675998054445
384.0,-0.0005729299155063927
416.0,-0.0007780629093758762
448.0,-0.00039898912655189633
480.0,-0.0005015807109884918
512.0,-0.0008319009211845696
576.0,-0.00058879388961941
640.0,-0.0002841494861058891
704.0,-0.00012494281691033393
768.0,0.00046049602678976953
832.0,-2.7510497602634132e-05
896.0,0.00029797220486216247
960.0,0.0005444603739306331
1024.0,0.000789671903476119
1152.0,7.887347601354122e-05
1280.0,-0.00034913080162368715
1408.0,-0.000141007752972655
1536.0,-0.00017083641432691365
1664.0,-0.00025634802295826375
1792.0,0.00015365469153039157
1920.0,-8.388602873310447e-05
2048.0,-0.0001348826044704765
2304.0,-0.00036124690086580813
2560.0,-0.0003171282587572932
2816.0,-0.00019182058167643845
3072.0,-0.0002545191964600235
3328.0,-5.34715263711405e-06
3584.0,0.0004144539125263691
3840.0,9.822309948503971e-06
4096.0,-0.0003777791862376034
4608.0,0.00045350988511927426
5120.0,-0.0001148708543041721
5632.0,0.00033330064616166055
6144.0,-0.0005263392813503742
6656.0,0.0003338981478009373
7168.0,-0.0006095131393522024
7680.0,0.0003549922548700124
8192.0,-0.0003136496525257826
end
