version,3.0
numOfCh,1
type,point
parent_name,c1204_3dot0-1dot0
ch_type,1_1
kcount,1
numberNandB,1
brightnessNandB,1
carpet pos,0
pc,0
Time (ms),CH1 Auto-Correlation
1.0,0.01656818389892578
2.0,0.013558872975409031
3.0,0.011416598223149776
4.0,0.00981689803302288
5.0,0.008457531221210957
6.0,0.00727192685008049
7.0,0.006325259804725647
8.0,0.005614812485873699
9.0,0.005086501594632864
10.0,0.0046823592856526375
11.0,0.004246808122843504
12.0,0.003883532714098692
13.0,0.003618177492171526
14.0,0.003414705628529191
15.0,0.0031511925626546144
16.0,0.0028942471835762262
18.0,0.002420785604044795
20.0,0.002309417584910989
22.0,0.002120930003002286
24.0,0.0020378539338707924
26.0,0.001774192787706852
28.0,0.0014609992504119873
30.0,0.0012216409668326378
32.0,0.0010975438635796309
36.0,0.0011026915162801743
40.0,0.001094904262572527
44.0,0.0013019817415624857
48.0,0.0016868269303813577
52.0,0.001662253518588841
56.0,0.001304967561736703
60.0,0.0013576275669038296
64.0,0.0011486641597002745
72.0,0.0011690515093505383
80.0,0.000963807397056371
88.0,0.0007639931864105165
96.0,0.0007673634681850672
104.0,0.00033877589157782495
112.0,-0.00010472338180989027
120.0,-0.00037900940515100956
128.0,-0.0003027114144060761
144.0,-1.4387045666808262e-05
160.0,0.00013008262612856925
176.0,0.00028454975108616054
192.0,0.0003530956746544689
208.0,0.0002606651687528938
224.0,0.0004361965984571725
240.0,0.0005870171589776874
256.0,-0.0002231677353847772
288.0,-0.00028686257428489625
320.0,-0.0003958728048019111
352.0,8.195039117708802e-05
384.0,-0.0002939303230959922
416.0,4.635822551790625e-05
448.0,-0.00030138198053464293
480.0,-0.0001827823871280998
512.0,0.0003235821786802262
576.0,8.399908983847126e-05
640.0,2.9470071240211837e-05
704.0,4.18212657677941e-05
768.0,5.751927164965309e-05
832.0,0.00037801091093569994
896.0,-6.977226439630613e-05
960.0,-0.00043897758587263525
1024.0,3.0405768484342843e-05
1152.0,0.0003684776893351227
1280.0,0.0001923696545418352
1408.0,-7.140895468182862e-05
1536.0,-0.00020576271344907582
1664.0,-9.641939686844125e-05
1792.0,0.00043572697904892266
1920.0,5.4102270951261744e-05
2048.0,-0.0003693463222589344
2304.0,-0.00029329172684811056
2560.0,-0.00021316445781849325
2816.0,-4.865190931013785e-06
3072.0,0.00012711469025816768
3328.0,-0.00026630054344423115
3584.0,0.00032143620774149895
3840.0,-1.866153434093576e-05
4096.0,0.00019685777078848332
4608.0,0.0001343309268122539
5120.0,1.1945440746785607e-05
5632.0,0.00036134119727648795
6144.0,-0.00026046644779853523
6656.0,-4.820765389013104e-05
7168.0,3.8335689168889076e-05
7680.0,-0.0004324433102738112
8192.0,0.00015341628750320524
end
