version,3.0
numOfCh,1
type,point
parent_name,c1204_3dot0-1dot0
ch_type,1_1
kcount,1
numberNandB,1
brightnessNandB,1
carpet pos,0
pc,0
Time (ms),CH1 Auto-Correlation
1.0,0.01693282276391983
2.0,0.01390108186751604
3.0,0.01172841526567936
4.0,0.010167955420911312
5.0,0.008973509073257446
6.0,0.008028322830796242
7.0,0.0073739816434681416
8.0,0.006828108336776495
9.0,0.006290059071034193
10.0,0.005831091199070215
11.0,0.005309558939188719
12.0,0.004883872345089912
13.0,0.004504011943936348
14.0,0.00416414812207222
15.0,0.0038527920842170715
16.0,0.0036725469399243593
18.0,0.003206155728548765
20.0,0.0032043864484876394
22.0,0.003166795242577791
24.0,0.002960174810141325
26.0,0.002698896685615182
28.0,0.0024609847459942102
30.0,0.0022483402863144875
32.0,0.002031174721196294
36.0,0.0016254086513072252
40.0,0.001079642679542303
44.0,0.000805966614279896
48.0,0.0009280869271606207
52.0,0.000922743056435138
56.0,0.0009879132267087698
60.0,0.001097564585506916
64.0,0.0009174613514915109
72.0,0.0007430477417074144
80.0,0.000453483167802915
88.0,0.00036073222872801125
96.0,0.0001872218999778852
104.0,0.0002570485230535269
112.0,0.0003229056019335985
120.0,0.00047875032760202885
128.0,0.00051796407205984
144.0,0.0006097101722843945
160.0,5.595491893473081e-05
176.0,0.0005395644693635404
192.0,0.0006286990828812122
208.0,0.00045295365271158516
224.0,0.0003031304804608226
240.0,0.00010871433187276125
256.0,-0.0003672590828500688
288.0,-0.0008344241068698466
320.0,-0.0003441047156229615
352.0,-0.00032845104578882456
384.0,-0.00023752081324346364
416.0,5.7616362028056756e-05
448.0,0.00013403003686107695
480.0,5.305254308041185e-05
512.0,7.589169854327338e-06
576.0,0.00038884044624865055
640.0,4.655407974496484e-05
704.0,-0.00044146087020635605
768.0,-0.0003952915139961988
832.0,-4.521388837019913e-05
896.0,-0.0005315017187967896
960.0,-0.00017451347957830876
1024.0,1.4873096915835049e-05
1152.0,5.085993507236708e-06
1280.0,-0.00039115059189498425
1408.0,-2.221681279479526e-05
1536.0,2.782947376545053e-05
1664.0,0.00016884980141185224
1792.0,-4.1503633838146925e-05
1920.0,-9.343733836431056e-05
2048.0,0.00047055556206032634
2304.0,2.7024461815017276e-05
2560.0,1.6211748516070656e-05
2816.0,-0.00021317826758604497
3072.0,-0.00021318973449524492
3328.0,6.479419971583411e-05
3584.0,-0.00018845459271688014
3840.0,-0.00025973765878006816
4096.0,-6.092136027291417e-05
4608.0,-0.00027819041861221194
5120.0,1.6031943232519552e-05
5632.0,-2.7429558031144552e-05
6144.0,0.00027602858608588576
6656.0,0.0002477857342455536
7168.0,-0.00011510546028148383
7680.0,6.842959555797279e-05
8192.0,0.00014917321095708758
end
