version,3.0
numOfCh,1
type,point
parent_name,c1204_3dot0-1dot0
ch_type,1_1
kcount,1
numberNandB,1
brightnessNandB,1
carpet pos,0
pc,0
Time (ms),CH1 Auto-Correlation
1.0,0.017244618386030197
2.0,0.01412049587816
3.0,0.01195198018103838
4.0,0.010333796963095665
5.0,0.009164305403828621
6.0,0.008216816931962967
7.0,0.007481609936803579
8.0,0.006772149819880724
9.0,0.006195932626724243
10.0,0.005798425525426865
11.0,0.005399512592703104
12.0,0.005033331457525492
13.0,0.004746897611767054
14.0,0.004342551808804274
15.0,0.004042833112180233
16.0,0.0038117594085633755
18.0,0.0034582598600536585
20.0,0.003060251707211137
22.0,0.0026746245566755533
24.0,0.0025626537390053272
26.0,0.0025352677330374718
28.0,0.0025304025039076805
30.0,0.0026719390880316496
32.0,0.002496983390301466
36.0,0.0022787698544561863
40.0,0.0022747591137886047
44.0,0.002135150833055377
48.0,0.0019476761808618903
52.0,0.0017707239603623748
56.0,0.0015602414496243
60.0,0.0011634015245363116
64.0,0.000937997130677104
72.0,0.0010326284682378173
80.0,0.0004901031497865915
88.0,8.857019565766677e-05
96.0,0.0001419628388248384
104.0,0.00043818875565193594
112.0,0.00039573575486429036
120.0,0.00032292099785991013
128.0,0.00011342372454237193
144.0,4.448823892744258e-05
160.0,0.00023743534984532744
176.0,-8.382062515011057e-05
192.0,-8.131687354762107e-05
208.0,-0.0001352389226667583
224.0,-0.00010493693844182417
240.0,-0.00021643679065164179
256.0,0.00022470967087429017
288.0,-9.016037074616179e-05
320.0,0.00013201306865084916
352.0,0.00015825877198949456
384.0,-0.00037425433401949704
416.0,-0.00017543305875733495
448.0,0.00028712538187392056
480.0,0.00026905437698587775
512.0,9.837182005867362e-05
576.0,0.00030953134410083294
640.0,-5.806052740808809e-06
704.0,-1.4923009985068347e-05
768.0,-0.000419975898694247
832.0,0.00039416365325450897
896.0,0.00030692529981024563
960.0,3.4260065149283037e-05
1024.0,0.0005391486920416355
1152.0,0.0003946456708945334
1280.0,-4.951169103151187e-05
1408.0,-0.0006361694540828466
1536.0,0.00013670189946424216
1664.0,-8.072336640907452e-05
1792.0,-0.0004963504616171122
1920.0,-0.00031347887124866247
2048.0,0.00018551059474702924
2304.0,0.00012135187716921791
2560.0,0.0002930451591964811
2816.0,-0.00016755724209360778
3072.0,-9.344339196104556e-05
3328.0,9.874942770693451e-05
3584.0,0.00021975146955810487
3840.0,-0.00040461000753566623
4096.0,-0.0005522072315216064
4608.0,-0.0001124006521422416
5120.0,9.771290933713317e-05
5632.0,8.975278433354106e-06
6144.0,0.00019655049254652113
6656.0,-0.00012790955952368677
7168.0,-0.00012930040247738361
7680.0,-0.00012802970013581216
8192.0,0.00019616130157373846
end
