version,3.0
numOfCh,1
type,point
parent_name,c1204_3dot0-1dot0
ch_type,1_1
kcount,1
numberNandB,1
brightnessNandB,1
carpet pos,0
pc,0
Time (ms),CH1 Auto-Correlation
1.0,0.016487643122673035
2.0,0.013533348217606544
3.0,0.011441560462117195
4.0,0.009947508573532104
5.0,0.008846106007695198
6.0,0.007870211265981197
7.0,0.007025153376162052
8.0,0.006289932876825333
9.0,0.0057447622530162334
10.0,0.0053074657917022705
11.0,0.004866871517151594
12.0,0.004506503697484732
13.0,0.004231792408972979
14.0,0.003916596062481403
15.0,0.0037897094152867794
16.0,0.0036096733529120684
18.0,0.0033745337277650833
20.0,0.003226166358217597
22.0,0.003006609855219722
24.0,0.002790018217638135
26.0,0.002787873614579439
28.0,0.0026945890858769417
30.0,0.0025687317829579115
32.0,0.0022308870684355497
36.0,0.0016729135531932116
40.0,0.0012500450247898698
44.0,0.0011997169349342585
48.0,0.0011646646307781339
52.0,0.001012355205602944
56.0,0.0008254469721578062
60.0,0.0008699869504198432
64.0,0.0009058060240931809
72.0,0.00039228983223438263
80.0,0.0009314958588220179
88.0,0.0007839769241400063
96.0,0.0008232385152950883
104.0,0.0007171375909820199
112.0,0.00035012641455978155
120.0,0.00029618144617415965
128.0,0.00015789491590112448
144.0,-0.00017472758190706372
160.0,-2.806262273225002e-06
176.0,0.0002791634760797024
192.0,0.00036023338907398283
208.0,0.0005720279295928776
224.0,0.0002223131450591609
240.0,-5.31001751369331e-05
256.0,-0.00023486230929847807
288.0,-0.00017313244461547583
320.0,-0.0005987665499560535
352.0,-0.00038143599522300065
384.0,-0.00021925724286120385
416.0,0.00015007710317149758
448.0,-0.0003464672772679478
480.0,-0.0005694690626114607
512.0,-0.00021065531473141164
576.0,-0.0003353314532432705
640.0,-0.0003654496977105737
704.0,-0.0006184823578223586
768.0,-0.00038708766805939376
832.0,-0.00024844330619089305
896.0,-0.0002554748207330704
960.0,0.00031362654408439994
1024.0,0.000128029307234101
1152.0,0.00030281851650215685
1280.0,-0.00025409809313714504
1408.0,0.00011706708028214052
1536.0,0.0003441662120167166
1664.0,0.00019385731138754636
1792.0,-0.0003369558835402131
1920.0,-0.0003066037315875292
2048.0,-0.0002670240355655551
2304.0,-8.063773566391319e-05
2560.0,7.466101124009583e-06
2816.0,-0.0002761402283795178
3072.0,-6.673684401903301e-05
3328.0,8.369827992282808e-05
3584.0,0.00024681855575181544
3840.0,0.000183294658199884
4096.0,-2.7047217372455634e-05
4608.0,0.00016171627794392407
5120.0,0.00013986948761157691
5632.0,-0.00034702563425526023
6144.0,4.886456372332759e-05
6656.0,-8.966483437689021e-05
7168.0,-5.8303790865466e-05
7680.0,0.00015565106878057122
8192.0,0.00021577438747044653
end
