version,3.0
numOfCh,1
type,point
parent_name,c1204_3dot0-1dot0
ch_type,1_1
kcount,1
numberNandB,1
brightnessNandB,1
carpet pos,0
pc,0
Time (ms),CH1 Auto-Correlation
1.0,0.016042914241552353
2.0,0.013109683059155941
3.0,0.011004021391272545
4.0,0.009430434554815292
5.0,0.008293704129755497
6.0,0.007322083692997694
7.0,0.006523665972054005
8.0,0.0059207892045378685
9.0,0.005467605777084827
10.0,0.005040944553911686
11.0,0.004760660231113434
12.0,0.004273492842912674
13.0,0.003979574888944626
14.0,0.0036215903237462044
15.0,0.0032449786085635424
16.0,0.002733958186581731
18.0,0.002292777644470334
20.0,0.001988422591239214
22.0,0.0017117229290306568
24.0,0.001732410746626556
26.0,0.0017705142963677645
28.0,0.0016238315729424357
30.0,0.001613087486475706
32.0,0.0017301795305684209
36.0,0.0016142444219440222
40.0,0.0015409024199470878
44.0,0.0015198254259303212
48.0,0.001376141794025898
52.0,0.0011051817564293742
56.0,0.001194572076201439
60.0,0.0011859496589750051
64.0,0.00110657571349293
72.0,0.0011791446013376117
80.0,0.001059702830389142
88.0,0.0005184388137422502
96.0,7.90799458627589e-05
104.0,0.00043203344102948904
112.0,0.0005936114466749132
120.0,0.0005338779301382601
128.0,0.0004868890973739326
144.0,0.00019979676289949566
160.0,6.495674369944027e-06
176.0,-8.135052485158667e-05
192.0,-0.00012319235247559845
208.0,-0.0003494161064736545
224.0,-0.0006534044514410198
240.0,-0.0006448958883993328
256.0,-0.0004980603698641062
288.0,-0.0003399874549359083
320.0,-0.00034842046443372965
352.0,0.0001182752603199333
384.0,-6.877985288156196e-05
416.0,0.00031387415947392583
448.0,-0.00023379470803774893
480.0,0.00011046812142012641
512.0,0.00024214043514803052
576.0,0.0005899146781302989
640.0,8.675131539348513e-05
704.0,-0.00041489690192975104
768.0,-0.0003796681703533977
832.0,-0.00021283967362251133
896.0,-0.0004348928341642022
960.0,0.00022653248743154109
1024.0,-0.00013030326226726174
1152.0,0.00014373825979419053
1280.0,-0.0003376547829248011
1408.0,0.00021714931062888354
1536.0,0.00017305636720266193
1664.0,-0.0008459430537186563
1792.0,0.00041022402001544833
1920.0,0.00017258826119359583
2048.0,-7.457484753103927e-05
2304.0,-7.019476470304653e-05
2560.0,0.000272324396064505
2816.0,-0.0002316403406439349
3072.0,8.091580093605444e-05
3328.0,-0.0001305057667195797
3584.0,-0.00010864112118724734
3840.0,0.00022316782269626856
4096.0,-0.0005990656209178269
4608.0,2.7729591238312423e-05
5120.0,2.2736890969099477e-05
5632.0,-3.825888143182965e-06
6144.0,-0.00014650561206508428
6656.0,-4.382314727990888e-05
7168.0,-0.0002108930639224127
7680.0,0.00018391488993074745
8192.0,-4.2668296373449266e-05
end
