version,3.0
numOfCh,1
type,point
parent_name,c1204_3dot0-1dot0
ch_type,1_1
kcount,1
numberNandB,1
brightnessNandB,1
carpet pos,0
pc,0
Time (ms),CH1 Auto-Correlation
1.0,0.01616274192929268
2.0,0.013074868358671665
3.0,0.01096266321837902
4.0,0.009399205446243286
5.0,0.008103564381599426
6.0,0.007094674278050661
7.0,0.00626859487965703
8.0,0.005652336869388819
9.0,0.005032224580645561
10.0,0.0046034869737923145
11.0,0.004270649515092373
12.0,0.004064696840941906
13.0,0.003807581029832363
14.0,0.00363431079313159
15.0,0.0034753393847495317
16.0,0.0033330186270177364
18.0,0.0029688163194805384
20.0,0.0026322780176997185
22.0,0.0023856235202401876
24.0,0.00216766563244164
26.0,0.0022007415536791086
28.0,0.0021530333906412125
30.0,0.00216613314114511
32.0,0.0019851657561957836
36.0,0.0018394048092886806
40.0,0.0017389733111485839
44.0,0.0016479367623105645
48.0,0.0015403968282043934
52.0,0.0015200769994407892
56.0,0.0014461453538388014
60.0,0.0013477843021973968
64.0,0.0012975884601473808
72.0,0.0011443541152402759
80.0,0.0004976227646693587
88.0,2.29507677431684e-05
96.0,-0.0002797855995595455
104.0,-0.00031307744211517274
112.0,-0.0003313375054858625
120.0,-0.0003362315765116364
128.0,-0.00023601243447046727
144.0,-0.0004900055355392396
160.0,-0.000660361663904041
176.0,-0.0007006045198068023
192.0,-0.00047205222654156387
208.0,-0.0004740338190458715
224.0,-0.0003323708660900593
240.0,-0.00026703771436586976
256.0,9.70512701314874e-05
288.0,-0.0001183700660476461
320.0,0.0002896607911679894
352.0,-5.747058821725659e-05
384.0,-2.536229840188753e-05
416.0,-0.00019844404596369714
448.0,0.0002456965739838779
480.0,0.00022288745094556361
512.0,0.00019781621813308448
576.0,-5.7427139836363494e-05
640.0,0.0003211432776879519
704.0,-0.00013688956096302718
768.0,-0.0006188575061969459
832.0,-0.0002689654938876629
896.0,0.00020771179697476327
960.0,0.0004022841458208859
1024.0,0.0004543694667518139
1152.0,0.00015750400780234486
1280.0,0.00032253863173536956
1408.0,0.00017226237105205655
1536.0,-0.00021610234398394823
1664.0,-0.00018279101641383022
1792.0,-8.64791581989266e-05
1920.0,0.0003290572203695774
2048.0,-0.00045147110358811915
2304.0,0.00029421530780382454
2560.0,0.00011482762783998623
2816.0,0.000283155677607283
3072.0,-0.00021334180200938135
3328.0,0.00039358422509394586
3584.0,-0.0002623609616421163
3840.0,0.00012259317736607045
4096.0,-0.00011735840962501243
4608.0,-9.493506513535976e-05
5120.0,0.00010940871288767084
5632.0,-0.00020835321629419923
6144.0,-0.0002092213399009779
6656.0,4.690960849984549e-05
7168.0,-0.00017100773402489722
7680.0,-0.00013361067976802588
8192.0,-0.00023577670799568295
end
