version,3.0
numOfCh,1
type,point
parent_name,c1204_3dot0-1dot0
ch_type,1_1
kcount,1
numberNandB,1
brightnessNandB,1
carpet pos,0
pc,0
Time (ms),CH1 Auto-Correlation
1.0,0.016665810719132423
2.0,0.013582971878349781
3.0,0.011503912508487701
4.0,0.009994716383516788
5.0,0.008856394328176975
6.0,0.007872483693063259
7.0,0.007179397623986006
8.0,0.006685958709567785
9.0,0.006299292203038931
10.0,0.005808460991829634
11.0,0.005406661424785852
12.0,0.005087276455014944
13.0,0.004646701272577047
14.0,0.0042476835660636425
15.0,0.0039208331145346165
16.0,0.0036192545667290688
18.0,0.003173425095155835
20.0,0.002980595687404275
22.0,0.002807308454066515
24.0,0.00256769685074687
26.0,0.002284442773088813
28.0,0.002160981995984912
30.0,0.002016814425587654
32.0,0.0018045679898932576
36.0,0.0014126942260190845
40.0,0.0012354546925053
44.0,0.0011402142699807882
48.0,0.0010021044872701168
52.0,0.0012021103175356984
56.0,0.0012021217262372375
60.0,0.0009760778048075736
64.0,0.0009218583581969142
72.0,0.0004927740665152669
80.0,0.00028735166415572166
88.0,0.00030918774427846074
96.0,0.0007010073168203235
104.0,0.0008005552808754146
112.0,0.0008676532888785005
120.0,0.0009699921938590705
128.0,0.0006152432761155069
144.0,0.00028275817749090493
160.0,-0.000225040057557635
176.0,0.00017186290642712265
192.0,0.00013420233153738081
208.0,0.00022816919954493642
224.0,-0.00034717400558292866
240.0,-1.3373766705626622e-05
256.0,-0.0003254103648941964
288.0,-8.434287883574143e-05
320.0,0.000456199049949646
352.0,0.000415099726524204
384.0,5.775624686066294e-06
416.0,-0.00022993421589490026
448.0,0.00047128842561505735
480.0,0.0002988751220982522
512.0,0.00048390612937510014
576.0,0.00019318514387123287
640.0,-8.113479998428375e-05
704.0,0.00031266771839000285
768.0,9.91651977528818e-05
832.0,0.00023849878925830126
896.0,-0.00016268814215436578
960.0,-0.00034756521927192807
1024.0,0.0003046562778763473
1152.0,-9.363674325868487e-05
1280.0,-9.972487896448001e-05
1408.0,-0.00038555567152798176
1536.0,-0.00011584460298763588
1664.0,-0.00025132461450994015
1792.0,-8.874158811522648e-05
1920.0,0.00022251435439102352
2048.0,0.000898207479622215
2304.0,4.014207297586836e-05
2560.0,0.00023132421483751386
2816.0,7.919856579974294e-05
3072.0,-8.12447615317069e-05
3328.0,-9.016214607981965e-05
3584.0,-0.0006756950751878321
3840.0,-0.0002735363959800452
4096.0,-0.00015862038708291948
4608.0,3.975870640715584e-05
5120.0,0.0004284939495846629
5632.0,7.294787064893171e-05
6144.0,-0.00016157889331225306
6656.0,-0.0002896260702982545
7168.0,0.00011898434604518116
7680.0,0.0001124427726608701
8192.0,-9.052192763192579e-05
end
