version,3.0
numOfCh,1
type,point
parent_name,c1204_3dot0-1dot0
ch_type,1_1
kcount,1
numberNandB,1
brightnessNandB,1
carpet pos,0
pc,0
Time (ms),CH1 Auto-Correlation
1.0,0.017384732142090797
2.0,0.014283456839621067
3.0,0.01208643801510334
4.0,0.0105366762727499
5.0,0.00931331142783165
6.0,0.008399799466133118
7.0,0.007681081537157297
8.0,0.0070382351987063885
9.0,0.006482179742306471
10.0,0.006075765006244183
11.0,0.005590830463916063
12.0,0.005153444595634937
13.0,0.004822821822017431
14.0,0.004454931244254112
15.0,0.004061923362314701
16.0,0.0037308603059500456
18.0,0.0031470356043428183
20.0,0.0026151968631893396
22.0,0.0020691179670393467
24.0,0.001797712524421513
26.0,0.0018911570077762008
28.0,0.0018538320437073708
30.0,0.0017406776314601302
32.0,0.0016189070884138346
36.0,0.0017426772974431515
40.0,0.0018368547316640615
44.0,0.0017959397519007325
48.0,0.0017169888596981764
52.0,0.0016314024105668068
56.0,0.0017230369849130511
60.0,0.0012752413749694824
64.0,0.0010433094576001167
72.0,0.001082197530195117
80.0,0.0009315536008216441
88.0,0.0006584025104530156
96.0,0.0004931704024784267
104.0,0.00027851841878145933
112.0,0.00044642353896051645
120.0,0.0002122061123372987
128.0,9.491556556895375e-05
144.0,0.0002458525123074651
160.0,0.00037779315607622266
176.0,0.0007409806712530553
192.0,0.0005911139887757599
208.0,0.00033266565878875554
224.0,0.0007484467350877821
240.0,0.0007048853440210223
256.0,0.0007125931442715228
288.0,0.00040092330891638994
320.0,-0.00021268159616738558
352.0,-7.405898941215128e-05
384.0,-0.00043870319495908916
416.0,-9.030546061694622e-05
448.0,-6.49396242806688e-05
480.0,0.00042590100201778114
512.0,0.00031018294976092875
576.0,-0.00040937005542218685
640.0,-0.0002588361385278404
704.0,-0.00027007624157704413
768.0,3.7580623029498383e-05
832.0,0.0001623241842025891
896.0,-0.0006787043530493975
960.0,0.00023800852068234235
1024.0,5.790291470475495e-05
1152.0,2.5785129764699377e-05
1280.0,9.394327207701281e-05
1408.0,0.0007545060361735523
1536.0,-0.00034489479730837047
1664.0,-3.769699469557963e-05
1792.0,-0.00016784669423941523
1920.0,0.0002941687125712633
2048.0,-0.0005858892109245062
2304.0,2.1007839677622542e-05
2560.0,0.0003692294121719897
2816.0,0.0003999491746071726
3072.0,-3.0635430448455736e-05
3328.0,-0.00038095121271908283
3584.0,-0.00037931694532744586
3840.0,8.805013203527778e-05
4096.0,0.00044863810762763023
4608.0,-0.00030969083309173584
5120.0,0.00022624252596870065
5632.0,-0.00012670776050072163
6144.0,-0.00022262170386966318
6656.0,0.0003348458558320999
7168.0,-3.109794488409534e-05
7680.0,-0.00012857589172199368
8192.0,1.965371848200448e-05
end
