version,3.0
numOfCh,1
type,point
parent_name,c1204_3dot0-1dot0
ch_type,1_1
kcount,1
numberNandB,1
brightnessNandB,1
carpet pos,0
pc,0
Time (ms),CH1 Auto-Correlation
1.0,0.015015942975878716
2.0,0.01209285669028759
3.0,0.01001554075628519
4.0,0.008485304191708565
5.0,0.007395206019282341
6.0,0.006499555893242359
7.0,0.005855876486748457
8.0,0.005221622064709663
9.0,0.004729127511382103
10.0,0.004249043762683868
11.0,0.003869130276143551
12.0,0.003502617357298732
13.0,0.003232191316783428
14.0,0.002884866436943412
15.0,0.002705262042582035
16.0,0.002476076828315854
18.0,0.0020467396825551987
20.0,0.001906640361994505
22.0,0.001857263850979507
24.0,0.0016393493860960007
26.0,0.0013518381165340543
28.0,0.001156371901743114
30.0,0.0011254721321165562
32.0,0.00109276978764683
36.0,0.0009770679753273726
40.0,0.0009603853104636073
44.0,0.0007115068729035556
48.0,0.0006237333291210234
52.0,0.0006350304465740919
56.0,0.0006881458102725446
60.0,0.000512131315190345
64.0,0.0005553339142352343
72.0,0.0008039617678150535
80.0,0.0009297851356677711
88.0,0.0007127680582925677
96.0,0.0003688589495141059
104.0,7.676565292058513e-05
112.0,3.485456181806512e-05
120.0,0.00015760956739541143
128.0,-1.2568069905682933e-05
144.0,2.2166814233059995e-05
160.0,-0.00012367675662972033
176.0,-6.63733808323741e-05
192.0,-0.0002736421884037554
208.0,7.161477697081864e-05
224.0,4.6958401071606204e-05
240.0,-9.062218305189162e-05
256.0,-0.0003283011610619724
288.0,-1.2308889381529298e-05
320.0,-4.902697037323378e-05
352.0,-0.00025504210498183966
384.0,-4.474108209251426e-05
416.0,0.0003055553534068167
448.0,0.0005198649596422911
480.0,0.00048722498468123376
512.0,0.00044496977352537215
576.0,-0.0002786266559269279
640.0,5.121034337207675e-05
704.0,0.0003479457809589803
768.0,-0.0002142399753211066
832.0,-0.0005625250050798059
896.0,-0.00019164112745784223
960.0,6.53231909382157e-05
1024.0,0.0002638494479469955
1152.0,-5.796908590127714e-05
1280.0,-6.0609068896155804e-05
1408.0,9.781141125131398e-05
1536.0,9.5970812253654e-05
1664.0,0.00011161397560499609
1792.0,-0.0002014298370340839
1920.0,5.833032264490612e-05
2048.0,-8.840857481118292e-05
2304.0,-4.580171207635431e-06
2560.0,1.499816971772816e-05
2816.0,7.279842247953638e-05
3072.0,0.0001344898482784629
3328.0,-5.968040568404831e-05
3584.0,0.00017050326277967542
3840.0,-0.00028914687572978437
4096.0,1.7029704395099543e-05
4608.0,-0.0003025212499778718
5120.0,-0.00027284957468509674
5632.0,2.9145687221898697e-05
6144.0,-6.443964230129495e-05
6656.0,-0.00017371399735566229
7168.0,6.693574687233195e-05
7680.0,-1.938509194587823e-05
8192.0,-0.0002408765722066164
end
