version,3.0
numOfCh,1
type,point
parent_name,c1204_3dot0-1dot0
ch_type,1_1
kcount,1
numberNandB,1
brightnessNandB,1
carpet pos,0
pc,0
Time (ms),CH1 Auto-Correlation
1.0,0.01717478781938553
2.0,0.014184451662003994
3.0,0.01198399905115366
4.0,0.010231605730950832
5.0,0.009000224992632866
6.0,0.00800398550927639
7.0,0.0072938608936965466
8.0,0.006712386384606361
9.0,0.006182847544550896
10.0,0.0058874753303825855
11.0,0.005409053526818752
12.0,0.004925166722387075
13.0,0.00449744425714016
14.0,0.004260529763996601
15.0,0.004032884258776903
16.0,0.0037726175505667925
18.0,0.003350762417539954
20.0,0.0031644899863749743
22.0,0.003104166593402624
24.0,0.003076168242841959
26.0,0.0028815404511988163
28.0,0.0024401291739195585
30.0,0.0021683634258806705
32.0,0.0019280376145616174
36.0,0.001609226455911994
40.0,0.001295940368436277
44.0,0.0012738406658172607
48.0,0.0013434110442176461
52.0,0.0011877119541168213
56.0,0.0011442109243944287
60.0,0.0010559306247159839
64.0,0.0011874167248606682
72.0,0.0011041687102988362
80.0,0.0011591536458581686
88.0,0.000995220965705812
96.0,0.0005031718173995614
104.0,0.0007563635008409619
112.0,0.0012282574316486716
120.0,0.0010629434837028384
128.0,0.0009654961759224534
144.0,0.000876672740560025
160.0,0.0005516607197932899
176.0,0.0004391366383060813
192.0,0.0006487952196039259
208.0,0.00035799542092718184
224.0,0.0002500549890100956
240.0,0.00011667225044220686
256.0,-3.4230532037327066e-05
288.0,-0.00018968572840094566
320.0,0.00010383712651673704
352.0,-0.00019867834635078907
384.0,0.00012402892753016204
416.0,-0.0001883278164314106
448.0,-0.0001979328371817246
480.0,-0.00048040953697636724
512.0,-0.000406685343477875
576.0,-0.0005011779721826315
640.0,-0.0007497025071643293
704.0,-0.0003596992464736104
768.0,-0.0008839201182126999
832.0,-0.0007785459747537971
896.0,-0.0006234986358322203
960.0,-0.00010694513912312686
1024.0,0.0001896252651931718
1152.0,0.00021307849965523928
1280.0,-0.0003009044739883393
1408.0,-0.00023510145547334105
1536.0,-0.00017620963626541197
1664.0,0.00010404374188510701
1792.0,-2.2450489268521778e-05
1920.0,8.524318400304765e-05
2048.0,0.00039505152381025255
2304.0,0.00019202714611310512
2560.0,-0.00018420691776555032
2816.0,5.234988748270553e-06
3072.0,4.182128395768814e-05
3328.0,-0.0002657344448380172
3584.0,-0.0002458035305608064
3840.0,-0.00014527679013554007
4096.0,9.043348109116778e-05
4608.0,0.0005168505595065653
5120.0,-0.00037339559639804065
5632.0,0.00011611755326157436
6144.0,-0.00016297264664899558
6656.0,0.0002263085189042613
7168.0,-0.00010614527127472684
7680.0,-8.506441372446716e-05
8192.0,-0.00021443903096951544
end
