version,3.0
numOfCh,1
type,point
parent_name,c1204_3dot0-1dot0
ch_type,1_1
kcount,1
numberNandB,1
brightnessNandB,1
carpet pos,0
pc,0
Time (ms),CH1 Auto-Correlation
1.0,0.0158979631960392
2.0,0.012964161112904549
3.0,0.010882977396249771
4.0,0.009241634979844093
5.0,0.008023973554372787
6.0,0.007073451764881611
7.0,0.006249397527426481
8.0,0.005610726308077574
9.0,0.0051676807925105095
10.0,0.004719685763120651
11.0,0.004513431806117296
12.0,0.004299778491258621
13.0,0.004062707535922527
14.0,0.0038125929422676563
15.0,0.003627828322350979
16.0,0.003463237313553691
18.0,0.003017967799678445
20.0,0.0026967383455485106
22.0,0.00237114354968071
24.0,0.0020217937417328358
26.0,0.0017565091839060187
28.0,0.0016111279837787151
30.0,0.0014449760783463717
32.0,0.001172849559225142
36.0,0.0010213404893875122
40.0,0.0009106867364607751
44.0,0.0009224956738762558
48.0,0.0008309961413033307
52.0,0.0007063097436912358
56.0,0.0006379604456014931
60.0,0.0005720834597013891
64.0,0.00043562724022194743
72.0,0.0007389413076452911
80.0,0.0006387156317941844
88.0,6.969372770981863e-05
96.0,-0.0002777507761493325
104.0,-9.119837341131642e-05
112.0,0.00020073025370948017
120.0,7.426121737807989e-05
128.0,2.609545788345713e-07
144.0,-0.00010747568740043789
160.0,-0.0004182353732176125
176.0,-7.245225424412638e-05
192.0,-0.00026002273079939187
208.0,-0.0005353073356673121
224.0,-0.0004927000845782459
240.0,0.00011311295384075493
256.0,0.0001212446004501544
288.0,-8.824234100757167e-05
320.0,8.167821215465665e-05
352.0,0.00026554460055194795
384.0,0.00027164508355781436
416.0,-9.203815352520905e-06
448.0,-0.00032105130958370864
480.0,-0.0006645449320785701
512.0,-0.000619503203779459
576.0,0.00017573536024428904
640.0,0.00029782624915242195
704.0,0.00010564238618826494
768.0,-0.00027118856087327003
832.0,5.4803913371870294e-05
896.0,0.00038019713247194886
960.0,-1.1817708582384512e-05
1024.0,-0.0002156562259187922
1152.0,0.00026290531968697906
1280.0,0.0006263985414989293
1408.0,-0.00025337011902593076
1536.0,0.0002331976284040138
1664.0,-0.00011059725511586294
1792.0,-0.0002555132086854428
1920.0,0.00034991963184438646
2048.0,0.00022612044995184988
2304.0,0.0001627674064366147
2560.0,-0.00019807854550890625
2816.0,0.0002865762508008629
3072.0,-0.0002897275844588876
3328.0,-0.00013466901145875454
3584.0,8.99807782843709e-05
3840.0,-4.9331472837366164e-05
4096.0,-0.00015850401541683823
4608.0,-7.075236499076709e-05
5120.0,0.00010168437438551337
5632.0,-0.0003043380274903029
6144.0,7.156014908105135e-05
6656.0,8.053272176766768e-05
7168.0,0.00016275224334094673
7680.0,5.3299714636523277e-05
8192.0,-7.510554860346019e-05
end
