version,3.0
numOfCh,1
type,point
parent_name,c1204_3dot0-1dot0
ch_type,1_1
kcount,1
numberNandB,1
brightnessNandB,1
carpet pos,0
pc,0
Time (ms),CH1 Auto-Correlation
1.0,0.01612260192632675
2.0,0.013118929229676723
3.0,0.011006040498614311
4.0,0.009263759478926659
5.0,0.0079178586602211
6.0,0.00695272209122777
7.0,0.006105417385697365
8.0,0.005411954130977392
9.0,0.004854284226894379
10.0,0.00449780561029911
11.0,0.003996370825916529
12.0,0.0037126957904547453
13.0,0.003486115951091051
14.0,0.0031738856341689825
15.0,0.0029925373382866383
16.0,0.00274670054204762
18.0,0.0023234710097312927
20.0,0.0018841722048819065
22.0,0.001509818946942687
24.0,0.0012773710768669844
26.0,0.0012191965943202376
28.0,0.0011904163984581828
30.0,0.0009809947805479169
32.0,0.0008647386566735804
36.0,0.0006626074900850654
40.0,0.0005059175891801715
44.0,0.0003286216815467924
48.0,0.00025599339278414845
52.0,0.00015475710097234696
56.0,8.521643030690029e-05
60.0,0.00042990504880435765
64.0,0.0007888171239756048
72.0,0.0004913295852020383
80.0,0.0002520780835766345
88.0,0.0004318321880418807
96.0,6.810326158301905e-05
104.0,0.00015737874491605908
112.0,0.0003155173035338521
120.0,0.000266747985733673
128.0,0.0001821820915210992
144.0,0.000413622212363407
160.0,0.000575307640247047
176.0,0.0003217366465833038
192.0,-0.00025028595700860023
208.0,-0.00032274864497594535
224.0,-0.00028027480584569275
240.0,0.0002858151274267584
256.0,6.589919939870015e-05
288.0,-0.00015400596021208912
320.0,-0.0003046166675630957
352.0,-0.0002471676853019744
384.0,-0.00022474178695119917
416.0,-6.122220656834543e-05
448.0,-8.019916276680306e-05
480.0,-4.341768362792209e-05
512.0,-3.412464138818905e-05
576.0,-0.0001654549705563113
640.0,-0.0002134089299943298
704.0,-1.9817658539977856e-05
768.0,-8.150103531079367e-05
832.0,-0.00013902141654398292
896.0,3.0685630918014795e-05
960.0,-0.00033117830753326416
1024.0,-0.00029316742438822985
1152.0,-0.0001950532605405897
1280.0,-4.948661080561578e-05
1408.0,-6.542933988384902e-05
1536.0,-0.00030640832846984267
1664.0,1.4090897821006365e-05
1792.0,-2.2718642867403105e-05
1920.0,4.02849109377712e-05
2048.0,-8.4037943452131e-05
2304.0,6.499504524981603e-05
2560.0,9.456178668187931e-05
2816.0,-0.00014123534492682666
3072.0,5.861074896529317e-05
3328.0,-0.0002025700523518026
3584.0,4.397444718051702e-05
3840.0,0.00012813320790883154
4096.0,-0.00010827767255250365
4608.0,0.00015509629156440496
5120.0,-0.00011517969687702134
5632.0,0.00013512428267858922
6144.0,-0.00017554519581608474
6656.0,-0.00010359971929574385
7168.0,0.00016592821339145303
7680.0,6.799643597332761e-05
8192.0,0.00016685946320649236
end
