version,3.0
numOfCh,1
type,point
parent_name,c1204_3dot0-1dot0
ch_type,1_1
kcount,1
numberNandB,1
brightnessNandB,1
carpet pos,0
pc,0
Time (ms),CH1 Auto-Correlation
1.0,0.015344742685556412
2.0,0.012421657331287861
3.0,0.010409518145024776
4.0,0.008902458474040031
5.0,0.007793868891894817
6.0,0.006877065636217594
7.0,0.006085394881665707
8.0,0.005474794656038284
9.0,0.004956686403602362
10.0,0.004618828184902668
11.0,0.004163737874478102
12.0,0.003799752565100789
13.0,0.0033541617449373007
14.0,0.0030325651168823242
15.0,0.002676015952602029
16.0,0.0023445880506187677
18.0,0.001878233510069549
20.0,0.0014304473297670484
22.0,0.0010186820290982723
24.0,0.0008227006765082479
26.0,0.0007207831367850304
28.0,0.0006056599668227136
30.0,0.00038986935396678746
32.0,0.00017964148719329387
36.0,0.00022483359498437494
40.0,0.0002904896973632276
44.0,8.860463822202291e-06
48.0,-2.03850486286683e-05
52.0,0.00023371906718239188
56.0,0.0002438665833324194
60.0,0.000349886977346614
64.0,0.0002700084005482495
72.0,-0.00011480840475996956
80.0,-0.0003590499982237816
88.0,-0.00011184124741703272
96.0,-0.00014128019392956048
104.0,-1.0661286978574935e-05
112.0,0.00023411554866470397
120.0,0.00021583215857390314
128.0,0.00019645334396045655
144.0,0.00013647446758113801
160.0,0.0005389639991335571
176.0,0.0004970775917172432
192.0,0.00022944502416066825
208.0,2.0709255750261946e-06
224.0,-6.385756569216028e-05
240.0,5.7481265685055405e-05
256.0,0.00015622364298906177
288.0,0.0001177605299744755
320.0,0.0001308178761973977
352.0,-6.196765752974898e-05
384.0,-0.00040096635348163545
416.0,-2.8652755645453e-05
448.0,-4.272316800779663e-06
480.0,-0.0005523236468434334
512.0,2.16803491639439e-05
576.0,-6.657995982095599e-06
640.0,-7.533049210906029e-05
704.0,0.00014477492368314415
768.0,1.4391245031220024e-06
832.0,-1.8790791500578052e-06
896.0,3.0733288440387696e-05
960.0,9.453977691009641e-05
1024.0,-0.0005029896274209023
1152.0,-0.00010156931239180267
1280.0,-0.00013049959670752287
1408.0,-8.33391459309496e-05
1536.0,-9.382263669976965e-05
1664.0,9.634809248382226e-05
1792.0,4.1271254303865135e-05
1920.0,-3.274299160693772e-05
2048.0,2.2564130631508306e-05
2304.0,-0.0001100126828532666
2560.0,4.886607712251134e-06
2816.0,0.00019577328930608928
3072.0,5.3483297961065546e-05
3328.0,8.136306860251352e-06
3584.0,0.00012411562784109265
3840.0,-2.2953412553761154e-05
4096.0,-0.00014626425399910659
4608.0,1.9540915673132986e-05
5120.0,1.8371420082985424e-05
5632.0,6.209996354300529e-05
6144.0,-0.00015710314619354904
6656.0,6.194164598127827e-05
7168.0,0.000134652218548581
7680.0,-3.552417547325604e-05
8192.0,-5.012955443817191e-05
end
