version,3.0
numOfCh,1
type,point
parent_name,c1204_3dot0-1dot0
ch_type,1_1
kcount,1
numberNandB,1
brightnessNandB,1
carpet pos,0
pc,0
Time (ms),CH1 Auto-Correlation
1.0,0.01683279685676098
2.0,0.013770184479653835
3.0,0.011626698076725006
4.0,0.010196731425821781
5.0,0.009095784276723862
6.0,0.008230665698647499
7.0,0.007483219262212515
8.0,0.0068292743526399136
9.0,0.006292697507888079
10.0,0.005743409972637892
11.0,0.005365191493183374
12.0,0.005021451972424984
13.0,0.004788154736161232
14.0,0.0046540810726583
15.0,0.004431162029504776
16.0,0.00423432094976306
18.0,0.003682229667901993
20.0,0.003105618292465806
22.0,0.0025775728281587362
24.0,0.0022284197621047497
26.0,0.002110040746629238
28.0,0.002085902960970998
30.0,0.0019322166917845607
32.0,0.0016447261441498995
36.0,0.0014627542113885283
40.0,0.0012620374327525496
44.0,0.0010096116457134485
48.0,0.0006711215246468782
52.0,0.00044414374860934913
56.0,0.00031228369334712625
60.0,0.0004086644621565938
64.0,0.0003979236935265362
72.0,0.0003929833183065057
80.0,0.0005211089737713337
88.0,0.00046593937440775335
96.0,-9.215071622747928e-05
104.0,-0.0002891278709284961
112.0,-0.0002740321506280452
120.0,-0.0002530838828533888
128.0,-0.00031722462153993547
144.0,-0.00021230633137747645
160.0,6.264126568567008e-05
176.0,3.723728150362149e-05
192.0,0.0001067243138095364
208.0,-2.3992966816877015e-05
224.0,-0.0003790829796344042
240.0,-0.00021957739954814315
256.0,-0.00026024162070825696
288.0,-0.00017008371651172638
320.0,-0.00025425199419260025
352.0,-4.1982442780863494e-05
384.0,-3.1050807592691854e-05
416.0,-0.00033231262932531536
448.0,6.909426701895427e-06
480.0,0.0001907233236124739
512.0,-0.00019390803936403245
576.0,-0.0004605253925547004
640.0,-8.019147207960486e-05
704.0,-7.187707524280995e-05
768.0,-0.0003162755165249109
832.0,0.00035848296829499304
896.0,-3.701031891978346e-05
960.0,0.00041382244671694934
1024.0,-9.257093188352883e-05
1152.0,-0.00030248475377447903
1280.0,-0.00030619552126154304
1408.0,7.27136357454583e-05
1536.0,-0.00011195981642231345
1664.0,3.5385353839956224e-05
1792.0,0.00023050594609230757
1920.0,-0.00016136861813720316
2048.0,0.00029505605925805867
2304.0,5.426447023637593e-05
2560.0,-1.131275621446548e-05
2816.0,-6.042355744284578e-05
3072.0,1.3246519301901571e-05
3328.0,-2.832588961609872e-06
3584.0,0.0001309497602051124
3840.0,-0.00011304677173029631
4096.0,-0.00013802913599647582
4608.0,-0.00013449905964080244
5120.0,-0.0001400304608978331
5632.0,9.735363710206002e-05
6144.0,0.0002067421592073515
6656.0,-0.00011393211752874777
7168.0,-0.00021183521312195808
7680.0,0.00018086747149936855
8192.0,-0.0002053977077594027
end
