version,3.0
numOfCh,1
type,point
parent_name,c1204_3dot0-1dot0
ch_type,1_1
kcount,1
numberNandB,1
brightnessNandB,1
carpet pos,0
pc,0
Time (ms),CH1 Auto-Correlation
1.0,0.016801828518509865
2.0,0.013892113231122494
3.0,0.011815471574664116
4.0,0.010221484117209911
5.0,0.008973046205937862
6.0,0.007929472252726555
7.0,0.00715329684317112
8.0,0.006581015884876251
9.0,0.005996594205498695
10.0,0.005509418901056051
11.0,0.00506415544077754
12.0,0.004736216738820076
13.0,0.004541110713034868
14.0,0.004279609303921461
15.0,0.004107818007469177
16.0,0.003877178067341447
18.0,0.003567727282643318
20.0,0.0032540378160774708
22.0,0.0029878325294703245
24.0,0.002848000731319189
26.0,0.002764505334198475
28.0,0.0026186294853687286
30.0,0.0022436552681028843
32.0,0.0019460228504613042
36.0,0.0014216424897313118
40.0,0.0010781469754874706
44.0,0.0010967808775603771
48.0,0.000872449076268822
52.0,0.0008040331886149943
56.0,0.0010493103181943297
60.0,0.0011476526269689202
64.0,0.001290345098823309
72.0,0.0009989645332098007
80.0,0.0006123887142166495
88.0,0.0006931953830644488
96.0,0.0003953087725676596
104.0,0.00014944389113225043
112.0,0.00010840549657586962
120.0,0.00038274930557236075
128.0,0.0004832901759073138
144.0,0.0004036944010294974
160.0,0.000131820299429819
176.0,-0.0005504590226337314
192.0,-0.000399349897634238
208.0,-0.0001872477150755003
224.0,0.00016349289217032492
240.0,0.000452110223704949
256.0,0.00024027694598771632
288.0,-0.00030786218121647835
320.0,-0.0008275696891359985
352.0,-0.0003612635482568294
384.0,-0.0006915256381034851
416.0,-0.0007695684907957911
448.0,-0.0006027260678820312
480.0,8.220517338486388e-05
512.0,-0.0003876930568367243
576.0,-0.00010070071584777907
640.0,0.00024467462208122015
704.0,0.00023261776368599385
768.0,-8.172340312739834e-05
832.0,-0.00022549109417013824
896.0,-0.00034811452496796846
960.0,-0.0002497197419870645
1024.0,3.512285547913052e-05
1152.0,0.00037955312291160226
1280.0,0.00034390296787023544
1408.0,0.00019836191495414823
1536.0,-0.00014875366468913853
1664.0,-0.00038412949652411044
1792.0,-4.4140058889752254e-05
1920.0,0.00012955200509168208
2048.0,0.00013300369028002024
2304.0,0.000263896188698709
2560.0,-7.559070945717394e-05
2816.0,-0.0003058396396227181
3072.0,8.537499525118619e-05
3328.0,-4.363450898381416e-06
3584.0,0.00016867784142959863
3840.0,-0.000252569152507931
4096.0,-0.00022286325111053884
4608.0,0.00010586590360617265
5120.0,8.190801599994302e-05
5632.0,-8.118840923998505e-06
6144.0,-0.00016114900063257664
6656.0,-1.2907944437756669e-05
7168.0,0.00026879357756115496
7680.0,-0.0003112488775514066
8192.0,8.567952318117023e-05
end
