version,3.0
numOfCh,1
type,point
parent_name,c1204_3dot0-1dot0
ch_type,1_1
kcount,1
numberNandB,1
brightnessNandB,1
carpet pos,0
pc,0
Time (ms),CH1 Auto-Correlation
1.0,0.015742158517241478
2.0,0.012743242084980011
3.0,0.010609360411763191
4.0,0.009110662154853344
5.0,0.00795274693518877
6.0,0.007044620346277952
7.0,0.006246443837881088
8.0,0.0055519272573292255
9.0,0.004998300690203905
10.0,0.0045553650707006454
11.0,0.0041990745812654495
12.0,0.0038186218589544296
13.0,0.0035946271382272243
14.0,0.003350625280290842
15.0,0.003254916751757264
16.0,0.0032771939877420664
18.0,0.0030411132611334324
20.0,0.0027602962218225002
22.0,0.0024651868734508753
24.0,0.00219151028431952
26.0,0.0018630248960107565
28.0,0.0017001864034682512
30.0,0.0017631418304517865
32.0,0.0016461980994790792
36.0,0.0012735225027427077
40.0,0.0011765336384996772
44.0,0.001078398316167295
48.0,0.000781637616455555
52.0,0.00044607269228436053
56.0,0.00043590005952864885
60.0,0.0003968172241002321
64.0,0.0001731094962451607
72.0,0.00023364814114756882
80.0,-1.2605943084054161e-05
88.0,-0.00043714253115467727
96.0,-5.257424709270708e-05
104.0,-0.000176289162482135
112.0,5.6645938457222655e-05
120.0,0.0003222156665287912
128.0,0.00023476585920434445
144.0,0.00024700898211449385
160.0,0.00038447376573458314
176.0,0.00023048931325320154
192.0,-1.9940467609558254e-05
208.0,-0.0001066845579771325
224.0,-0.00032226977054961026
240.0,9.847879118751734e-05
256.0,9.359655086882412e-05
288.0,5.995522951707244e-05
320.0,0.0005363190430216491
352.0,0.0004523506504483521
384.0,-9.0655310486909e-05
416.0,0.00010435785952722654
448.0,0.0002890109026338905
480.0,0.0005010650493204594
512.0,-1.711070399323944e-05
576.0,-1.7394799215253443e-05
640.0,0.0003806394524872303
704.0,0.00041739773587323725
768.0,0.0003500941675156355
832.0,-0.00035696534905582666
896.0,0.00046997275785543025
960.0,0.0004992999602109194
1024.0,-0.00027063925517722964
1152.0,0.00013320719881448895
1280.0,-0.00010150403250008821
1408.0,0.00010661627311492339
1536.0,-0.00038945270352996886
1664.0,-0.00023020300432108343
1792.0,0.00014011583698447794
1920.0,0.00016508778207935393
2048.0,-0.00016400331514887512
2304.0,-0.00022187005379237235
2560.0,5.805289401905611e-05
2816.0,8.484633144689724e-05
3072.0,-0.00020248969667591155
3328.0,4.578560765367001e-05
3584.0,2.2520947823068127e-05
3840.0,7.052974979160354e-05
4096.0,-0.00017875629418995231
4608.0,-0.00031291486811824143
5120.0,-0.00013751117512583733
5632.0,-6.380058766808361e-05
6144.0,-8.806684490991756e-05
6656.0,-2.3123493519960903e-05
7168.0,-0.0002623520267661661
7680.0,-0.00030159892048686743
8192.0,-0.00016955197497736663
end
