version,3.0
numOfCh,1
type,point
parent_name,c1204_3dot0-1dot0
ch_type,1_1
kcount,1
numberNandB,1
brightnessNandB,1
carpet pos,0
pc,0
Time (ms),CH1 Auto-Correlation
1.0,0.01594894379377365
2.0,0.013078244403004646
3.0,0.011157822795212269
4.0,0.009710490703582764
5.0,0.008529205806553364
6.0,0.0076616741716861725
7.0,0.0068972972221672535
8.0,0.006337346974760294
9.0,0.0056890398263931274
10.0,0.005250829737633467
11.0,0.004907628986984491
12.0,0.004580361768603325
13.0,0.0042502982541918755
14.0,0.0040596043691039085
15.0,0.003785050706937909
16.0,0.0034804102033376694
18.0,0.0028826105408370495
20.0,0.0024389028549194336
22.0,0.0021525875199586153
24.0,0.0018221251666545868
26.0,0.0016434125136584044
28.0,0.0014301391784101725
30.0,0.0012816108064725995
32.0,0.001130863674916327
36.0,0.000997144146822393
40.0,0.0010087282862514257
44.0,0.0009390428313054144
48.0,0.00104679842479527
52.0,0.0006974574644118547
56.0,0.0007689326885156333
60.0,0.0009204025263898075
64.0,0.0011520452098920941
72.0,0.0010891698766499758
80.0,0.0008604892645962536
88.0,0.0006443139864131808
96.0,0.0004494756576605141
104.0,0.00019076156604569405
112.0,3.5521163226803765e-05
120.0,-4.527058626990765e-05
128.0,8.805661491351202e-05
144.0,0.00016345181211363524
160.0,2.4706750991754234e-05
176.0,-0.0001274485548492521
192.0,2.5595187253202312e-05
208.0,6.419369310606271e-05
224.0,0.000625072920229286
240.0,0.0005430759047158062
256.0,0.0003971710102632642
288.0,1.1292230738035869e-05
320.0,-0.00014018328511156142
352.0,0.0002460787072777748
384.0,-0.00014514535723719746
416.0,0.0004251642676535994
448.0,0.0002176695707021281
480.0,0.00036441205884329975
512.0,7.874249422457069e-05
576.0,0.00010210626351181418
640.0,-0.00045336748007684946
704.0,-0.0008349995478056371
768.0,-0.00029598752735182643
832.0,0.00025470374384894967
896.0,0.00016229477478191257
960.0,-0.0005042336997576058
1024.0,-0.00033450746559537947
1152.0,-0.000312369636958465
1280.0,2.9393690056167543e-05
1408.0,0.00024072160886134952
1536.0,-0.00024762662360444665
1664.0,-0.0001372301921946928
1792.0,-0.00023334821162279695
1920.0,0.0002035895304288715
2048.0,-1.5821935448911972e-05
2304.0,2.6564237487036735e-05
2560.0,-0.000291755743091926
2816.0,0.0002475080837029964
3072.0,-6.727774598402902e-05
3328.0,5.627117570838891e-05
3584.0,-0.0003299799282103777
3840.0,-0.000653384136967361
4096.0,-0.0002268122771056369
4608.0,0.00025217951042577624
5120.0,9.635661263018847e-05
5632.0,-0.00020774724544025958
6144.0,0.0001501954538980499
6656.0,0.00019105638784822077
7168.0,-0.00030461771530099213
7680.0,0.00015452250954695046
8192.0,-0.00014987065515015274
end
