version,3.0
numOfCh,1
type,point
parent_name,c1204_3dot0-1dot0
ch_type,1_1
kcount,1
numberNandB,1
brightnessNandB,1
carpet pos,0
pc,0
Time (ms),CH1 Auto-Correlation
1.0,0.01593538001179695
2.0,0.012967194430530071
3.0,0.0109410984441638
4.0,0.00940330047160387
5.0,0.008215779438614845
6.0,0.007331055589020252
7.0,0.006663613487035036
8.0,0.006080205552279949
9.0,0.005463985726237297
10.0,0.004948744084686041
11.0,0.004555816296488047
12.0,0.004232486709952354
13.0,0.003965932875871658
14.0,0.003771289484575391
15.0,0.003532044356688857
16.0,0.0032975676003843546
18.0,0.0029101597610861063
20.0,0.0025836487766355276
22.0,0.002184636425226927
24.0,0.0016964544774964452
26.0,0.0015311534516513348
28.0,0.0012915459228679538
30.0,0.0011344547383487225
32.0,0.0009477439452894032
36.0,0.0007767518982291222
40.0,0.0008055602665990591
44.0,0.0007689344347454607
48.0,0.0006257178029045463
52.0,0.0005636680871248245
56.0,0.000626297842245549
60.0,0.0004541788948699832
64.0,0.0004121341335121542
72.0,0.0004134342016186565
80.0,0.0003772993804886937
88.0,0.0005768886767327785
96.0,0.0006116123404353857
104.0,0.0005986213800497353
112.0,0.0006910839583724737
120.0,0.0007751545053906739
128.0,0.00045749242417514324
144.0,0.00012640310160350055
160.0,0.0003882713208440691
176.0,8.660359162604436e-05
192.0,6.663479143753648e-05
208.0,-1.3503190530173015e-05
224.0,-0.0002353909658268094
240.0,-0.0006479645962826908
256.0,-0.0005188154173083603
288.0,1.4399962310562842e-05
320.0,-0.00028895511059090495
352.0,-0.0004773741529788822
384.0,-0.00032321992330253124
416.0,-0.0001430682314094156
448.0,-0.0001330907252850011
480.0,-0.00025553483283147216
512.0,-0.00012608570978045464
576.0,-9.924583537213039e-06
640.0,-9.845811291597784e-05
704.0,-0.00029827322578057647
768.0,-0.0001768357615219429
832.0,1.5201458154479042e-06
896.0,0.0002493997453711927
960.0,-0.0003396267129573971
1024.0,-0.0001707799528958276
1152.0,3.6033384276379365e-06
1280.0,0.0004170769243501127
1408.0,-3.9056245441315696e-05
1536.0,-0.00033024841104634106
1664.0,0.00018700935470405966
1792.0,-4.0948572859633714e-05
1920.0,-0.0004172090848442167
2048.0,-0.00026422287919558585
2304.0,-0.00015666772378608584
2560.0,2.983860940730665e-05
2816.0,7.948852726258337e-05
3072.0,-0.0002520158013794571
3328.0,0.00020116996893193573
3584.0,-0.00012076107668690383
3840.0,6.166112871142104e-05
4096.0,-3.851456131087616e-05
4608.0,6.570968980668113e-05
5120.0,-2.8229424060555175e-06
5632.0,0.00010035865852842107
6144.0,5.9602982219075784e-05
6656.0,-0.0002994694223161787
7168.0,0.00010815312271006405
7680.0,-7.474129233742133e-05
8192.0,-6.461847988248337e-06
end
