version,3.0
numOfCh,1
type,point
parent_name,c1204_3dot0-1dot0
ch_type,1_1
kcount,1
numberNandB,1
brightnessNandB,1
carpet pos,0
pc,0
Time (ms),CH1 Auto-Correlation
1.0,0.016088109463453293
2.0,0.013194743543863297
3.0,0.011229310184717178
4.0,0.009633413515985012
5.0,0.008447335101664066
6.0,0.007558796554803848
7.0,0.006862099748104811
8.0,0.006204725243151188
9.0,0.005687105469405651
10.0,0.005170284770429134
11.0,0.0048000323586165905
12.0,0.0043579270131886005
13.0,0.004048043396323919
14.0,0.003836043644696474
15.0,0.003691591788083315
16.0,0.0034370676148682833
18.0,0.0030385039281100035
20.0,0.002675967290997505
22.0,0.0024940241128206253
24.0,0.0021401187404990196
26.0,0.0019203382544219494
28.0,0.0016962263034656644
30.0,0.001463164109736681
32.0,0.0013751648366451263
36.0,0.0015528749208897352
40.0,0.001608640537597239
44.0,0.0015486994525417686
48.0,0.0013065400999039412
52.0,0.001260212273336947
56.0,0.0007893213187344372
60.0,0.0006226211553439498
64.0,0.0005438898806460202
72.0,0.0006198954069986939
80.0,0.0002523840812500566
88.0,0.00010467252286616713
96.0,0.0001971035380847752
104.0,1.877232534752693e-05
112.0,7.253461080836132e-05
120.0,-2.2773507225792855e-05
128.0,-0.0001783035258995369
144.0,-0.0010669369949027896
160.0,-0.00042151057277806103
176.0,-0.00011855107004521415
192.0,-0.00041028918349184096
208.0,-0.0005422001122497022
224.0,-0.00042547681368887424
240.0,0.0002565332979429513
256.0,0.000580929743591696
288.0,0.00018397886015009135
320.0,-0.00031985927489586174
352.0,-0.0002884630230255425
384.0,-0.0005638327565975487
416.0,9.10345115698874e-05
448.0,0.0002587585768196732
480.0,0.00044809741666540504
512.0,0.0006657149642705917
576.0,0.00044383120257407427
640.0,-0.0001233871007570997
704.0,0.00029232288943603635
768.0,0.0003758932289201766
832.0,0.0004381914623081684
896.0,-0.00020059474627487361
960.0,-0.00040219430229626596
1024.0,-0.0004508947895374149
1152.0,-0.00039816880598664284
1280.0,0.0003764987632166594
1408.0,0.0005000976962037385
1536.0,-0.00010282319271937013
1664.0,-0.00036986396298743784
1792.0,-0.0002095056843245402
1920.0,0.0002545566821936518
2048.0,0.00025890234974212945
2304.0,-0.00023906351998448372
2560.0,-7.029635162325576e-05
2816.0,0.00035225070314481854
3072.0,-0.00016865451470948756
3328.0,0.00030877673998475075
3584.0,7.888119398558047e-06
3840.0,-0.00036248151445761323
4096.0,0.00015714541950728744
4608.0,4.1915103793144226e-05
5120.0,-0.0002970107307191938
5632.0,-0.00016527037951163948
6144.0,-0.00011221219756407663
6656.0,-0.00014787704276386648
7168.0,-0.0001814686693251133
7680.0,-0.00011822971282526851
8192.0,-0.00024990347446873784
end
