version,3.0
numOfCh,1
type,point
parent_name,c1204_3dot0-1dot0
ch_type,1_1
kcount,1
numberNandB,1
brightnessNandB,1
carpet pos,0
pc,0
Time (ms),CH1 Auto-Correlation
1.0,0.01595964841544628
2.0,0.013078275136649609
3.0,0.011004654690623283
4.0,0.009563478641211987
5.0,0.008511255495250225
6.0,0.007764093112200499
7.0,0.007134272716939449
8.0,0.006656805984675884
9.0,0.006128727458417416
10.0,0.005633751396089792
11.0,0.005243998486548662
12.0,0.004894081503152847
13.0,0.004680865444242954
14.0,0.004332281649112701
15.0,0.004024287220090628
16.0,0.0038035784382373095
18.0,0.0034266170114278793
20.0,0.003046184778213501
22.0,0.0027823233976960182
24.0,0.002587763825431466
26.0,0.002394555602222681
28.0,0.00215892493724823
30.0,0.0020295633003115654
32.0,0.0018767567817121744
36.0,0.0017533221980556846
40.0,0.001995896687731147
44.0,0.002107917796820402
48.0,0.0020952140912413597
52.0,0.0020424711983650923
56.0,0.0019293177174404263
60.0,0.0016257507959380746
64.0,0.0014050680911168456
72.0,0.0012842081487178802
80.0,0.0014529334148392081
88.0,0.0014918784145265818
96.0,0.0011703056516125798
104.0,0.00113321200478822
112.0,0.0008538417750969529
120.0,0.0009437203407287598
128.0,0.000844398105982691
144.0,0.00038660832797177136
160.0,0.00020762045460287482
176.0,-0.00013245434092823416
192.0,-1.7455868146498688e-05
208.0,0.00013420508184935898
224.0,-7.453258149325848e-05
240.0,0.0006664037937298417
256.0,0.0010146062122657895
288.0,0.00037774909287691116
320.0,7.302112499019131e-05
352.0,0.00015826908929739147
384.0,-0.0001718005514703691
416.0,-0.0003699396038427949
448.0,-0.0005594549584202468
480.0,-0.0005776701145805418
512.0,-0.0001848329120548442
576.0,-7.133914914447814e-05
640.0,2.3231888917507604e-05
704.0,-0.00011578212433960289
768.0,0.0003808161709457636
832.0,0.00036257258034311235
896.0,6.231139559531584e-05
960.0,-0.0004827824013773352
1024.0,-0.0004171431646682322
1152.0,-0.0008267833036370575
1280.0,-0.0010155054042115808
1408.0,0.0002813270257320255
1536.0,0.0005710894474759698
1664.0,0.0005128728807903826
1792.0,8.574093226343393e-05
1920.0,-0.0005072724889032543
2048.0,-0.0007526142289862037
2304.0,-3.685856063384563e-05
2560.0,-0.000330400129314512
2816.0,-0.00065927195828408
3072.0,-7.869809633120894e-05
3328.0,-2.5044298581633484e-06
3584.0,-2.3367181711364537e-05
3840.0,0.0003648936399258673
4096.0,0.00044631643686443567
4608.0,-0.00026482681278139353
5120.0,-0.00018531043315306306
5632.0,0.0005992169608362019
6144.0,0.0002578641870059073
6656.0,-0.00038999743992462754
7168.0,-0.00014328380348160863
7680.0,-1.2850196981162298e-05
8192.0,-0.00024257961194962263
end
