version,3.0
numOfCh,1
type,point
parent_name,34a6d_0dot6-1dot0
ch_type,1_1
kcount,1
numberNandB,1
brightnessNandB,1
carpet pos,0
pc,0
Time (ms),CH1 Auto-Correlation
1.0,0.04479154944419861
2.0,0.04256534203886986
3.0,0.04048008844256401
4.0,0.038639675825834274
5.0,0.03697140887379646
6.0,0.035489052534103394
7.0,0.03414522856473923
8.0,0.03290683031082153
9.0,0.03176305070519447
10.0,0.030643580481410027
11.0,0.02959098480641842
12.0,0.028626972809433937
13.0,0.02767477184534073
14.0,0.026764817535877228
15.0,0.025938574224710464
16.0,0.025182195007801056
18.0,0.023734765127301216
20.0,0.022365905344486237
22.0,0.02102525532245636
24.0,0.019799185916781425
26.0,0.01872691698372364
28.0,0.017730649560689926
30.0,0.016808412969112396
32.0,0.01581619121134281
36.0,0.014225715771317482
40.0,0.013034767471253872
44.0,0.012034709565341473
48.0,0.011373736895620823
52.0,0.010793467052280903
56.0,0.010393773205578327
60.0,0.009727638214826584
64.0,0.009284917265176773
72.0,0.008345955051481724
80.0,0.007501465268433094
88.0,0.0072346339002251625
96.0,0.006692650727927685
104.0,0.006348049268126488
112.0,0.0056820884346961975
120.0,0.005527937784790993
128.0,0.005260420963168144
144.0,0.003413970349356532
160.0,0.004093265160918236
176.0,0.005028977990150452
192.0,0.005081911105662584
208.0,0.004863273818045855
224.0,0.004270573146641254
240.0,0.0025635696947574615
256.0,0.001821027952246368
288.0,0.0008324262453243136
320.0,0.0011901184916496277
352.0,-0.00046591373393312097
384.0,-0.0011012587929144502
416.0,-0.000684826634824276
448.0,-0.0017447925638407469
480.0,-0.0020849979482591152
512.0,-0.00015841999265830964
576.0,-0.0027164302300661802
640.0,-0.0007974208565428853
704.0,-0.001164875808171928
768.0,-0.0027929542120546103
832.0,-0.00498918304219842
896.0,-0.0010189423337578773
960.0,0.00021841215493623167
1024.0,-0.0006336494698189199
1152.0,-0.0014687608927488327
1280.0,0.00019036010780837387
1408.0,0.001155794714577496
1536.0,0.0025450901594012976
1664.0,0.001189163071103394
1792.0,0.0010385744972154498
1920.0,0.000968686887063086
2048.0,0.0007988607394509017
2304.0,-0.0001816938747651875
2560.0,-0.0020665344782173634
2816.0,-0.0006782476557418704
3072.0,0.0005484356079250574
3328.0,0.0015218183398246765
3584.0,6.299433152889833e-05
3840.0,-0.0026887194253504276
4096.0,-0.0020040422677993774
4608.0,0.0003515013086143881
5120.0,0.0007175573846325278
5632.0,-0.0014698393642902374
6144.0,-0.0005524252192117274
6656.0,-0.0012167524546384811
7168.0,-0.0016812538960948586
7680.0,1.1364348210918251e-05
8192.0,6.562675844179466e-05
end
