version,3.0
numOfCh,1
type,point
parent_name,34a6d_0dot6-1dot0
ch_type,1_1
kcount,1
numberNandB,1
brightnessNandB,1
carpet pos,0
pc,0
Time (ms),CH1 Auto-Correlation
1.0,0.045796725898981094
2.0,0.04352755844593048
3.0,0.041543979197740555
4.0,0.03981081768870354
5.0,0.03821486234664917
6.0,0.03675441816449165
7.0,0.03542204201221466
8.0,0.03419773280620575
9.0,0.03307116776704788
10.0,0.03206799179315567
11.0,0.03110872395336628
12.0,0.03023478388786316
13.0,0.029360171407461166
14.0,0.028487680479884148
15.0,0.027679430320858955
16.0,0.027007462456822395
18.0,0.025899164378643036
20.0,0.02482655830681324
22.0,0.02379538305103779
24.0,0.02261868119239807
26.0,0.021492822095751762
28.0,0.020613156259059906
30.0,0.019928088411688805
32.0,0.019345127046108246
36.0,0.018333833664655685
40.0,0.01750124990940094
44.0,0.016616063192486763
48.0,0.015691354870796204
52.0,0.014666493982076645
56.0,0.013586717657744884
60.0,0.012722177430987358
64.0,0.01196284405887127
72.0,0.010408204980194569
80.0,0.009251534007489681
88.0,0.008475461974740028
96.0,0.008036833256483078
104.0,0.0070411283522844315
112.0,0.005669764243066311
120.0,0.005275090225040913
128.0,0.005070749204605818
144.0,0.0042752898298203945
160.0,0.004007624462246895
176.0,0.004623480141162872
192.0,0.0051745944656431675
208.0,0.005278163589537144
224.0,0.004805285483598709
240.0,0.003720253938809037
256.0,0.0037031518295407295
288.0,0.0025385560002177954
320.0,0.0012631757417693734
352.0,0.0018503537867218256
384.0,0.0015353576745837927
416.0,0.0013660633703693748
448.0,0.0018313764594495296
480.0,0.0016231575282290578
512.0,-9.116629371419549e-05
576.0,-0.0017087297746911645
640.0,-0.0002958000695798546
704.0,0.0024646406527608633
768.0,0.0012475175317376852
832.0,-0.0008977129473350942
896.0,-0.0008216341375373304
960.0,-0.0011389647843316197
1024.0,-0.0030353732872754335
1152.0,-0.001994744408875704
1280.0,-0.0027751692105084658
1408.0,-0.00251597398892045
1536.0,-0.0009701700764708221
1664.0,-0.0007150524179451168
1792.0,-0.0005791035364381969
1920.0,0.002580892527475953
2048.0,-0.0002630304079502821
2304.0,-0.0025217714719474316
2560.0,0.0016520166536793113
2816.0,0.00025900977198034525
3072.0,-0.000749758502934128
3328.0,-0.0011986859608441591
3584.0,-0.003120096167549491
3840.0,-0.0026333010755479336
4096.0,-0.002513331826776266
4608.0,-0.0008953926153481007
5120.0,-0.00035203935112804174
5632.0,0.0028466731309890747
6144.0,0.004284292459487915
6656.0,-0.001163513632491231
7168.0,-0.0005030598258599639
7680.0,0.0013815510319545865
8192.0,0.00181046430952847
end
