version,3.0
numOfCh,1
type,point
parent_name,34a6d_0dot6-1dot0
ch_type,1_1
kcount,1
numberNandB,1
brightnessNandB,1
carpet pos,0
pc,0
Time (ms),CH1 Auto-Correlation
1.0,0.045582883059978485
2.0,0.043344076722860336
3.0,0.041346922516822815
4.0,0.03958748281002045
5.0,0.03803415223956108
6.0,0.03661355376243591
7.0,0.03530304878950119
8.0,0.034087810665369034
9.0,0.0329677015542984
10.0,0.03188805282115936
11.0,0.0308285690844059
12.0,0.029894448816776276
13.0,0.028967462480068207
14.0,0.028119459748268127
15.0,0.02731178142130375
16.0,0.02652779035270214
18.0,0.025096949189901352
20.0,0.02388402633368969
22.0,0.022850926965475082
24.0,0.021845821291208267
26.0,0.021010326221585274
28.0,0.020216984674334526
30.0,0.01959078572690487
32.0,0.01899212785065174
36.0,0.01784902811050415
40.0,0.016710273921489716
44.0,0.015767868608236313
48.0,0.015115751884877682
52.0,0.014481058344244957
56.0,0.013718382455408573
60.0,0.01281858328729868
64.0,0.011983274482190609
72.0,0.010584433563053608
80.0,0.009480448439717293
88.0,0.008442333899438381
96.0,0.00749075785279274
104.0,0.00660039484500885
112.0,0.005858994089066982
120.0,0.004957770928740501
128.0,0.004233956336975098
144.0,0.0041165947914123535
160.0,0.004001163877546787
176.0,0.004407708998769522
192.0,0.003969796933233738
208.0,0.003652038984000683
224.0,0.004093795549124479
240.0,0.004515425767749548
256.0,0.00423575472086668
288.0,0.004206092096865177
320.0,0.0050138854421675205
352.0,0.004145206417888403
384.0,0.0027085335459560156
416.0,0.0019318109843879938
448.0,0.001366133219562471
480.0,0.00013294353266246617
512.0,-0.0001429303956683725
576.0,2.62388821283821e-05
640.0,-0.0012153929565101862
704.0,-0.003137623192742467
768.0,-0.003828515764325857
832.0,-0.004787122365087271
896.0,-0.004172489047050476
960.0,-0.0025146049447357655
1024.0,-0.002629331313073635
1152.0,-0.004156567621976137
1280.0,-0.0010339543223381042
1408.0,-0.0026304791681468487
1536.0,0.00046358222607523203
1664.0,-0.0014075692743062973
1792.0,-0.00018180250481236726
1920.0,-0.001198983401991427
2048.0,0.0018106161151081324
2304.0,-9.038324787979946e-05
2560.0,0.004851022735238075
2816.0,0.0027356501668691635
3072.0,0.0028060623444616795
3328.0,0.0005977458786219358
3584.0,0.0013616831274703145
3840.0,-0.0037979623302817345
4096.0,-0.00352243660017848
4608.0,-0.0025547414552420378
5120.0,0.0021980006713420153
5632.0,0.0027337681967765093
6144.0,0.0007874115253798664
6656.0,-0.0036550916265696287
7168.0,-0.002528468845412135
7680.0,0.00014687381917610765
8192.0,0.002216894878074527
end
