version,3.0
numOfCh,1
type,point
parent_name,34a6d_0dot6-1dot0
ch_type,1_1
kcount,1
numberNandB,1
brightnessNandB,1
carpet pos,0
pc,0
Time (ms),CH1 Auto-Correlation
1.0,0.04385838285088539
2.0,0.04156830161809921
3.0,0.039554398506879807
4.0,0.037728551775217056
5.0,0.03614275902509689
6.0,0.03467976674437523
7.0,0.03330659121274948
8.0,0.03195866569876671
9.0,0.030786775052547455
10.0,0.029680265113711357
11.0,0.028578320518136024
12.0,0.027495194226503372
13.0,0.026561059057712555
14.0,0.025682929903268814
15.0,0.0248490571975708
16.0,0.02406778186559677
18.0,0.022709526121616364
20.0,0.021540440618991852
22.0,0.020528016611933708
24.0,0.019599230960011482
26.0,0.0186665840446949
28.0,0.017670024186372757
30.0,0.0166607815772295
32.0,0.015676606446504593
36.0,0.014166587963700294
40.0,0.012830594554543495
44.0,0.012045678682625294
48.0,0.011483588255941868
52.0,0.011122798547148705
56.0,0.01073923148214817
60.0,0.010094509460031986
64.0,0.009333235211670399
72.0,0.008238783106207848
80.0,0.0077082994394004345
88.0,0.007283413782715797
96.0,0.006927652284502983
104.0,0.00658771488815546
112.0,0.005613071843981743
120.0,0.005259388126432896
128.0,0.004328048788011074
144.0,0.002717193914577365
160.0,0.002113544614985585
176.0,0.0025985881220549345
192.0,0.0027176979929208755
208.0,0.0026975772343575954
224.0,0.0035827490501105785
240.0,0.0035443678498268127
256.0,0.003037182381376624
288.0,0.0009407166508026421
320.0,-0.0005747409886680543
352.0,-0.0018262055236846209
384.0,-0.0036013226490467787
416.0,-0.004538135137408972
448.0,-0.0041466373950243
480.0,-0.0038761168252676725
512.0,-0.0025210727471858263
576.0,-0.0021616658195853233
640.0,-0.0022433113772422075
704.0,-0.0012329155579209328
768.0,0.0013290109345689416
832.0,0.0011858409270644188
896.0,0.0017883500549942255
960.0,0.001505231368355453
1024.0,0.0013950419379398227
1152.0,-0.0020098083186894655
1280.0,-0.002407289808616042
1408.0,-0.002347028348594904
1536.0,0.0006483229226432741
1664.0,-0.0001987861905945465
1792.0,0.0017533955397084355
1920.0,-0.0014822372468188405
2048.0,0.0003271382302045822
2304.0,-0.0009443231392651796
2560.0,-0.002253796672448516
2816.0,-0.0020543255377560854
3072.0,0.0004656142264138907
3328.0,0.0023396327160298824
3584.0,0.0022518294863402843
3840.0,-0.000785588868893683
4096.0,-0.003130599856376648
4608.0,-0.0024790854658931494
5120.0,3.6086164527660003e-06
5632.0,0.0025406137574464083
6144.0,-0.0006705740815959871
6656.0,0.001118343323469162
7168.0,0.0011878582881763577
7680.0,-0.002340018982067704
8192.0,-0.0007161673274822533
end
