version,3.0
numOfCh,1
type,point
parent_name,34a6d_0dot6-1dot0
ch_type,1_1
kcount,1
numberNandB,1
brightnessNandB,1
carpet pos,0
pc,0
Time (ms),CH1 Auto-Correlation
1.0,0.04434763267636299
2.0,0.042012374848127365
3.0,0.03990200534462929
4.0,0.03797608241438866
5.0,0.036279600113630295
6.0,0.03471052274107933
7.0,0.03326595947146416
8.0,0.03196604549884796
9.0,0.03077024593949318
10.0,0.029671277850866318
11.0,0.028726758435368538
12.0,0.02780173346400261
13.0,0.02691188082098961
14.0,0.02615215629339218
15.0,0.02537105605006218
16.0,0.024624500423669815
18.0,0.02312937192618847
20.0,0.021761473268270493
22.0,0.020451225340366364
24.0,0.019313521683216095
26.0,0.018276076763868332
28.0,0.017400013282895088
30.0,0.016672799363732338
32.0,0.016098516061902046
36.0,0.01540639903396368
40.0,0.014729788526892662
44.0,0.013725141994655132
48.0,0.012595023959875107
52.0,0.011719869449734688
56.0,0.010897846892476082
60.0,0.009906279854476452
64.0,0.008977259509265423
72.0,0.007933128625154495
80.0,0.007691686041653156
88.0,0.007376985624432564
96.0,0.007148928940296173
104.0,0.006674648262560368
112.0,0.006147142965346575
120.0,0.005633176304399967
128.0,0.004976707976311445
144.0,0.005438333377242088
160.0,0.004550110083073378
176.0,0.003403380513191223
192.0,0.0030725940596312284
208.0,0.00197067903354764
224.0,0.0019340665312483907
240.0,0.0019196142675355077
256.0,0.002295122714713216
288.0,0.0011485371505841613
320.0,0.0016501817153766751
352.0,0.0018111445242539048
384.0,0.0013893655268475413
416.0,0.001407055533491075
448.0,-0.0002466946025379002
480.0,0.0006810290506109595
512.0,0.0020948511082679033
576.0,0.0026271173264831305
640.0,0.001200483413413167
704.0,0.0009736320935189724
768.0,0.0014330294216051698
832.0,0.0005568562191911042
896.0,0.0016780277946963906
960.0,0.002388100838288665
1024.0,0.0010791441891342402
1152.0,0.0007588816806674004
1280.0,0.0008464942220598459
1408.0,-0.00047735022963024676
1536.0,-0.001378547982312739
1664.0,-0.0013549691066145897
1792.0,0.0003152408462483436
1920.0,-0.000383716425858438
2048.0,-0.0004566167772281915
2304.0,0.0010633583879098296
2560.0,0.001400692854076624
2816.0,0.00012642733054235578
3072.0,-0.0005916976951994002
3328.0,0.0008876974461600184
3584.0,-0.00010539005597820505
3840.0,-0.0018304605036973953
4096.0,-0.0011629710206761956
4608.0,-0.0007753826212137938
5120.0,-0.003629465587437153
5632.0,-0.001549498992972076
6144.0,-0.0016723193693906069
6656.0,-8.996034011943266e-05
7168.0,-0.0011393171735107899
7680.0,-0.0008277831948362291
8192.0,0.0012450816575437784
end
