version,3.0
numOfCh,1
type,point
parent_name,34a6d_0dot6-1dot0
ch_type,1_1
kcount,1
numberNandB,1
brightnessNandB,1
carpet pos,0
pc,0
Time (ms),CH1 Auto-Correlation
1.0,0.046207036823034286
2.0,0.043973349034786224
3.0,0.0420239195227623
4.0,0.04029043763875961
5.0,0.03873798996210098
6.0,0.03729948401451111
7.0,0.03598310053348541
8.0,0.034765761345624924
9.0,0.03363151103258133
10.0,0.0325792096555233
11.0,0.0315377451479435
12.0,0.030494114384055138
13.0,0.029552819207310677
14.0,0.028703568503260612
15.0,0.02788049913942814
16.0,0.02709391713142395
18.0,0.02569025382399559
20.0,0.02438979595899582
22.0,0.02334504947066307
24.0,0.02225617878139019
26.0,0.02118556946516037
28.0,0.02026662416756153
30.0,0.019344782456755638
32.0,0.018550638109445572
36.0,0.01721910759806633
40.0,0.016217732802033424
44.0,0.01531284861266613
48.0,0.014455901458859444
52.0,0.013305431231856346
56.0,0.012401372194290161
60.0,0.011616873554885387
64.0,0.010846501216292381
72.0,0.010552331805229187
80.0,0.010037620551884174
88.0,0.009370911866426468
96.0,0.00814890582114458
104.0,0.006795505527406931
112.0,0.005750185344368219
120.0,0.005208342336118221
128.0,0.004235920030623674
144.0,0.0027242000214755535
160.0,0.001934486790560186
176.0,0.0011263831984251738
192.0,0.0012592497514560819
208.0,0.0021918569691479206
224.0,0.002871135016903281
240.0,0.0034486385993659496
256.0,0.0034086292143911123
288.0,0.0025400544982403517
320.0,0.0032221628352999687
352.0,0.003133985446766019
384.0,0.0023232351522892714
416.0,-0.00019732752116397023
448.0,-0.0008601003792136908
480.0,-0.0014551334315910935
512.0,-0.0019087507389485836
576.0,-0.0016598254442214966
640.0,-0.00034509290708228946
704.0,-0.0017743870848789811
768.0,0.0024073589593172073
832.0,0.002420233329758048
896.0,0.0030781696550548077
960.0,0.002349074697121978
1024.0,0.0005959447589702904
1152.0,-0.0015381379052996635
1280.0,-0.003175784135237336
1408.0,-0.0016409503296017647
1536.0,-0.003659347305074334
1664.0,-0.002579775173217058
1792.0,-0.001548082916997373
1920.0,-0.003333009546622634
2048.0,-0.0016421733889728785
2304.0,-0.002771246014162898
2560.0,-0.0011517014354467392
2816.0,-0.00034421024611219764
3072.0,-0.0012525215279310942
3328.0,-8.35578830447048e-05
3584.0,0.00262658903375268
3840.0,0.002652368973940611
4096.0,-0.0006342342239804566
4608.0,0.002594512887299061
5120.0,-0.0008824717369861901
5632.0,0.0013463469222187996
6144.0,-0.005203372798860073
6656.0,-0.0008151797810569406
7168.0,0.00109446223359555
7680.0,0.0018968727672472596
8192.0,0.002739068353548646
end
