version,3.0
numOfCh,1
type,point
parent_name,34a6d_0dot6-1dot0
ch_type,1_1
kcount,1
numberNandB,1
brightnessNandB,1
carpet pos,0
pc,0
Time (ms),CH1 Auto-Correlation
1.0,0.044773783534765244
2.0,0.04250079765915871
3.0,0.0405152253806591
4.0,0.038713399320840836
5.0,0.03699873760342598
6.0,0.03541753441095352
7.0,0.0338619239628315
8.0,0.032455895096063614
9.0,0.03114800713956356
10.0,0.029899941757321358
11.0,0.02871476113796234
12.0,0.027671853080391884
13.0,0.026635639369487762
14.0,0.025810716673731804
15.0,0.025059925392270088
16.0,0.02435753308236599
18.0,0.023081868886947632
20.0,0.0218679029494524
22.0,0.02065608650445938
24.0,0.01958514004945755
26.0,0.018688751384615898
28.0,0.017803426831960678
30.0,0.01700589619576931
32.0,0.01629629358649254
36.0,0.014985042624175549
40.0,0.013659481890499592
44.0,0.012464677914977074
48.0,0.011350885033607483
52.0,0.010226141661405563
56.0,0.009083191864192486
60.0,0.007933231070637703
64.0,0.00685547012835741
72.0,0.0055173407308757305
80.0,0.004587790463119745
88.0,0.003371249185875058
96.0,0.002220249967649579
104.0,0.0015871417708694935
112.0,0.0014526272425428033
120.0,0.0013171398313716054
128.0,0.0006972228875383735
144.0,0.0014186565531417727
160.0,0.0025054269935935736
176.0,0.0032247116323560476
192.0,0.003507505403831601
208.0,0.002550613135099411
224.0,0.0022872884292155504
240.0,0.002050369046628475
256.0,0.0009010139619931579
288.0,0.00026707060169428587
320.0,0.0012013076338917017
352.0,0.001364838215522468
384.0,0.0023118210956454277
416.0,0.003444251138716936
448.0,0.002521086949855089
480.0,0.0009557959856465459
512.0,-0.0004904571105726063
576.0,-0.00019035596051253378
640.0,0.001561813405714929
704.0,-0.0011400015791878104
768.0,-0.0010511087020859122
832.0,0.0009977954905480146
896.0,-0.0014549887273460627
960.0,-0.0008462322293780744
1024.0,0.0010941667715087533
1152.0,0.001081992406398058
1280.0,0.00041774264536798
1408.0,-0.0013077337061986327
1536.0,-0.0007015055743977427
1664.0,-0.002063024090602994
1792.0,-0.0007808249210938811
1920.0,-0.004171541426330805
2048.0,-0.005046723876148462
2304.0,-0.0010273547377437353
2560.0,0.0008518737740814686
2816.0,0.0011307514505460858
3072.0,-0.0009672826854512095
3328.0,-0.00024511999799869955
3584.0,-0.0002556444669608027
3840.0,0.002727716928347945
4096.0,0.001902200048789382
4608.0,-0.0009171470301225781
5120.0,-4.946884291712195e-05
5632.0,-0.0013723054435104132
6144.0,-0.0002614706754684448
6656.0,0.0001095355037250556
7168.0,0.00022014153364580125
7680.0,0.0017506771255284548
8192.0,0.0005475762882269919
end
