version,3.0
numOfCh,1
type,point
parent_name,34a6d_0dot6-1dot0
ch_type,1_1
kcount,1
numberNandB,1
brightnessNandB,1
carpet pos,0
pc,0
Time (ms),CH1 Auto-Correlation
1.0,0.0415969155728817
2.0,0.03931661322712898
3.0,0.03737147897481918
4.0,0.035572778433561325
5.0,0.033980462700128555
6.0,0.03256088122725487
7.0,0.03126351535320282
8.0,0.030041148886084557
9.0,0.02893880382180214
10.0,0.027949495241045952
11.0,0.026950128376483917
12.0,0.025985822081565857
13.0,0.025131279602646828
14.0,0.024327050894498825
15.0,0.023512179031968117
16.0,0.02267494797706604
18.0,0.02118069864809513
20.0,0.01987813413143158
22.0,0.018616149201989174
24.0,0.017506666481494904
26.0,0.016667665913701057
28.0,0.015892744064331055
30.0,0.015146419405937195
32.0,0.014402019791305065
36.0,0.013119031675159931
40.0,0.012295187450945377
44.0,0.011477509513497353
48.0,0.010903771966695786
52.0,0.01058370154350996
56.0,0.010380583815276623
60.0,0.010172324255108833
64.0,0.009808856062591076
72.0,0.009580183774232864
80.0,0.009448342025279999
88.0,0.00899312924593687
96.0,0.00814303383231163
104.0,0.00744042219594121
112.0,0.006678272038698196
120.0,0.005810301750898361
128.0,0.005127608310431242
144.0,0.004841327667236328
160.0,0.005776730366051197
176.0,0.005910924170166254
192.0,0.006009499076753855
208.0,0.005349215120077133
224.0,0.004261702299118042
240.0,0.00430503161624074
256.0,0.004521476104855537
288.0,0.0026882037054747343
320.0,0.002605251967906952
352.0,0.002925767796114087
384.0,0.0016978215426206589
416.0,0.0005933470092713833
448.0,-0.00014420457591768354
480.0,-0.0005291200359351933
512.0,-0.0010923973750323057
576.0,-0.0018900514114648104
640.0,-0.0020946357399225235
704.0,-0.002975270850583911
768.0,-0.0033522972371429205
832.0,-0.002820111345499754
896.0,-0.003502900479361415
960.0,-0.0022030044347047806
1024.0,-5.3313950047595426e-05
1152.0,0.002807131502777338
1280.0,0.0034666615538299084
1408.0,0.0027510751970112324
1536.0,0.0034407349303364754
1664.0,0.0006398701225407422
1792.0,-0.001551689114421606
1920.0,-0.004153566434979439
2048.0,-0.0047829304821789265
2304.0,-0.004573449958115816
2560.0,-0.0033471393398940563
2816.0,-0.0010803977493196726
3072.0,-0.0018610419938340783
3328.0,-0.0025854052510112524
3584.0,-0.0025689122267067432
3840.0,-0.0008022858528420329
4096.0,-0.00011675834684865549
4608.0,0.0026771193370223045
5120.0,0.0022674198262393475
5632.0,0.0006885457551106811
6144.0,0.003591738408431411
6656.0,-0.0010107554262503982
7168.0,-0.002523967297747731
7680.0,0.00018753904441837221
8192.0,-0.0041301860474050045
end
