version,3.0
numOfCh,1
type,point
parent_name,34a6d_0dot6-1dot0
ch_type,1_1
kcount,1
numberNandB,1
brightnessNandB,1
carpet pos,0
pc,0
Time (ms),CH1 Auto-Correlation
1.0,0.040847036987543106
2.0,0.03839191421866417
3.0,0.03617065027356148
4.0,0.03419734165072441
5.0,0.03242483362555504
6.0,0.030811909586191177
7.0,0.029411911964416504
8.0,0.028149181976914406
9.0,0.026934776455163956
10.0,0.025738868862390518
11.0,0.024638734757900238
12.0,0.023591622710227966
13.0,0.022513503208756447
14.0,0.021536707878112793
15.0,0.02062292955815792
16.0,0.019771836698055267
18.0,0.018254650756716728
20.0,0.0170206930488348
22.0,0.01598363183438778
24.0,0.015084803104400635
26.0,0.014292672276496887
28.0,0.013791607692837715
30.0,0.013292147777974606
32.0,0.012841528281569481
36.0,0.01221897080540657
40.0,0.011370228603482246
44.0,0.010509463958442211
48.0,0.009632270783185959
52.0,0.009133881889283657
56.0,0.008764159865677357
60.0,0.00840031262487173
64.0,0.007926145568490028
72.0,0.007015774957835674
80.0,0.006184358615428209
88.0,0.005371956620365381
96.0,0.004879399202764034
104.0,0.004370901733636856
112.0,0.003851085202768445
120.0,0.0032001626677811146
128.0,0.002192362444475293
144.0,0.00037903213524259627
160.0,0.0010630071628838778
176.0,0.0033194255083799362
192.0,0.0031329821795225143
208.0,0.0016076519386842847
224.0,0.0009690332226455212
240.0,0.0003609406412579119
256.0,0.0010706559987738729
288.0,0.0016508725238963962
320.0,0.0005783840897493064
352.0,0.001141953282058239
384.0,0.0012423923471942544
416.0,0.001900293747894466
448.0,0.0015502289170399308
480.0,0.0008322245557792485
512.0,-0.0009313971968367696
576.0,-0.002295853104442358
640.0,-0.0032937433570623398
704.0,-0.0006713853217661381
768.0,0.0012170911068096757
832.0,0.0017892579780891538
896.0,0.0016735984245315194
960.0,-0.000490394129883498
1024.0,-0.0017269528470933437
1152.0,7.535549229942262e-05
1280.0,0.0016594371991232038
1408.0,0.0010732455411925912
1536.0,-0.0006933193653821945
1664.0,0.0011044186539947987
1792.0,0.001444321358576417
1920.0,0.0005503742140717804
2048.0,-0.0016061889473348856
2304.0,0.0012824867153540254
2560.0,-0.0011504546273499727
2816.0,-0.00270666996948421
3072.0,0.001692621037364006
3328.0,0.00023992839851416647
3584.0,-0.0021019030828028917
3840.0,-0.0020463422406464815
4096.0,-0.0012456795666366816
4608.0,0.0005945017328485847
5120.0,0.00023870285076554865
5632.0,0.0011399592040106654
6144.0,0.000471762876259163
6656.0,-0.001136847655288875
7168.0,-0.001850975677371025
7680.0,-0.00033307704143226147
8192.0,-0.0033286772668361664
end
