version,3.0
numOfCh,1
type,point
parent_name,34a6d_0dot6-1dot0
ch_type,1_1
kcount,1
numberNandB,1
brightnessNandB,1
carpet pos,0
pc,0
Time (ms),CH1 Auto-Correlation
1.0,0.04631126672029495
2.0,0.04403134435415268
3.0,0.04202743247151375
4.0,0.04020777344703674
5.0,0.038596875965595245
6.0,0.03709406778216362
7.0,0.035629983991384506
8.0,0.03429975360631943
9.0,0.03303912281990051
10.0,0.03188510239124298
11.0,0.030770843848586082
12.0,0.029761213809251785
13.0,0.02880309894680977
14.0,0.027902759611606598
15.0,0.026938175782561302
16.0,0.02598247490823269
18.0,0.024270692840218544
20.0,0.022648198530077934
22.0,0.021187935024499893
24.0,0.020040467381477356
26.0,0.01897348463535309
28.0,0.01816190406680107
30.0,0.017419124022126198
32.0,0.01669793389737606
36.0,0.015564336441457272
40.0,0.014488416723906994
44.0,0.013455062173306942
48.0,0.01244193036109209
52.0,0.011620944365859032
56.0,0.010803301818668842
60.0,0.00974070094525814
64.0,0.009031933732330799
72.0,0.007826928980648518
80.0,0.007629729341715574
88.0,0.007237859535962343
96.0,0.007144311908632517
104.0,0.007268370129168034
112.0,0.007460687775164843
120.0,0.007521719206124544
128.0,0.007147965952754021
144.0,0.005649844650179148
160.0,0.004400539677590132
176.0,0.003858156967908144
192.0,0.0038568901363760233
208.0,0.0040343450382351875
224.0,0.0034143191296607256
240.0,0.0027866933960467577
256.0,0.0023357297759503126
288.0,0.0030430227052420378
320.0,0.0038998564705252647
352.0,0.004391144961118698
384.0,0.0031901977490633726
416.0,0.0026232306845486164
448.0,0.0027406220324337482
480.0,0.0024625668302178383
512.0,0.002746020909398794
576.0,0.002899288898333907
640.0,0.0004861768684349954
704.0,-0.0007217355887405574
768.0,-0.0006612936267629266
832.0,-0.0010807722574099898
896.0,-0.0007339950534515083
960.0,-2.7238882466917858e-05
1024.0,-0.0007239482365548611
1152.0,0.001002216013148427
1280.0,-0.0020612392108887434
1408.0,-0.0031316603999584913
1536.0,-0.0017533955397084355
1664.0,-0.000255462306085974
1792.0,0.0010503280209377408
1920.0,0.001281274831853807
2048.0,0.001984827220439911
2304.0,0.0005543561419472098
2560.0,0.0004257664259057492
2816.0,0.001400024862959981
3072.0,0.0008701137267053127
3328.0,-0.0008300971821881831
3584.0,-0.0012743192492052913
3840.0,-8.744360820855945e-05
4096.0,-0.0011496531078591943
4608.0,-0.00016456135199405253
5120.0,0.002210484119132161
5632.0,0.0003459100844338536
6144.0,-0.001104222610592842
6656.0,-0.00047158196684904397
7168.0,-0.00046075269347056746
7680.0,-0.0003329231694806367
8192.0,-0.0014290332328528166
end
