version,3.0
numOfCh,1
type,point
parent_name,34a6d_0dot6-1dot0
ch_type,1_1
kcount,1
numberNandB,1
brightnessNandB,1
carpet pos,0
pc,0
Time (ms),CH1 Auto-Correlation
1.0,0.0461052842438221
2.0,0.04370787367224693
3.0,0.04163339361548424
4.0,0.039694152772426605
5.0,0.037970948964357376
6.0,0.03636600822210312
7.0,0.03489242121577263
8.0,0.033482618629932404
9.0,0.032258566468954086
10.0,0.031144456937909126
11.0,0.03005416877567768
12.0,0.029025018215179443
13.0,0.027998507022857666
14.0,0.02702753245830536
15.0,0.026168668642640114
16.0,0.025379229336977005
18.0,0.023890094831585884
20.0,0.022566448897123337
22.0,0.02145335078239441
24.0,0.020378414541482925
26.0,0.01938522607088089
28.0,0.018497630953788757
30.0,0.017703738063573837
32.0,0.017005980014801025
36.0,0.015743877738714218
40.0,0.014813383109867573
44.0,0.014059936627745628
48.0,0.01337456051260233
52.0,0.012466262094676495
56.0,0.011756118386983871
60.0,0.011082935146987438
64.0,0.010407078079879284
72.0,0.009393236599862576
80.0,0.009016339667141438
88.0,0.008889609016478062
96.0,0.00814353208988905
104.0,0.00703001394867897
112.0,0.005949416197836399
120.0,0.005129576660692692
128.0,0.004604929592460394
144.0,0.004536886233836412
160.0,0.003788793459534645
176.0,0.004419188015162945
192.0,0.005875594913959503
208.0,0.0065150186419487
224.0,0.0053163375705480576
240.0,0.004824444185942411
256.0,0.00535861449316144
288.0,0.0054405564442276955
320.0,0.004634955897927284
352.0,0.0034893194679170847
384.0,0.001742839114740491
416.0,0.0011241824831813574
448.0,-0.0016653983620926738
480.0,-0.0033063101582229137
512.0,-0.0025440009776502848
576.0,-0.001216851407662034
640.0,-0.00030825380235910416
704.0,-0.0007299201097339392
768.0,0.0021105341147631407
832.0,0.00046349683543667197
896.0,0.0018562531331554055
960.0,0.0017290221294388175
1024.0,0.0021835854277014732
1152.0,0.0009512726683169603
1280.0,0.002727346494793892
1408.0,0.0011383744422346354
1536.0,0.0013643361162394285
1664.0,0.0003798553079832345
1792.0,-0.0030661290511488914
1920.0,-0.0028099874034523964
2048.0,-0.0032606986351311207
2304.0,0.0005608422216027975
2560.0,0.0006970113608986139
2816.0,-0.0012127566151320934
3072.0,-0.0009839636040851474
3328.0,-0.0037943089846521616
3584.0,-0.005330918822437525
3840.0,-0.003367999568581581
4096.0,-0.002131836721673608
4608.0,-0.0013902788050472736
5120.0,0.0006759795360267162
5632.0,0.000501117086969316
6144.0,-0.0008798299822956324
6656.0,-0.0005156252300366759
7168.0,-0.0006501538446173072
7680.0,0.0004571956815198064
8192.0,0.0023029567673802376
end
