version,3.0
numOfCh,1
type,point
parent_name,34a6d_0dot6-1dot0
ch_type,1_1
kcount,1
numberNandB,1
brightnessNandB,1
carpet pos,0
pc,0
Time (ms),CH1 Auto-Correlation
1.0,0.04149968922138214
2.0,0.039380259811878204
3.0,0.03743823617696762
4.0,0.03578820824623108
5.0,0.03432542085647583
6.0,0.03292824327945709
7.0,0.031591832637786865
8.0,0.030367381870746613
9.0,0.029277844354510307
10.0,0.028262725099921227
11.0,0.027345135807991028
12.0,0.026462454348802567
13.0,0.02560955472290516
14.0,0.024808326736092567
15.0,0.024065975099802017
16.0,0.023417139425873756
18.0,0.022081779316067696
20.0,0.020843034610152245
22.0,0.019587518647313118
24.0,0.018370404839515686
26.0,0.017305715009570122
28.0,0.016269728541374207
30.0,0.015320406295359135
32.0,0.014394386671483517
36.0,0.012820937670767307
40.0,0.011461413465440273
44.0,0.010404652915894985
48.0,0.009434188716113567
52.0,0.008606279268860817
56.0,0.008026598952710629
60.0,0.007825675420463085
64.0,0.0076666600070893764
72.0,0.006540272850543261
80.0,0.005529883783310652
88.0,0.005413536448031664
96.0,0.0057005262933671474
104.0,0.00563369644805789
112.0,0.0050690448842942715
120.0,0.004944736137986183
128.0,0.005055296700447798
144.0,0.004589521326124668
160.0,0.004268508404493332
176.0,0.004791329149156809
192.0,0.005217718426138163
208.0,0.004713787697255611
224.0,0.004943429492413998
240.0,0.004469136707484722
256.0,0.003753297496587038
288.0,0.0038487552665174007
320.0,0.002834959886968136
352.0,0.002326376736164093
384.0,0.0026168515905737877
416.0,0.0021705045364797115
448.0,0.0010553518077358603
480.0,-0.0004609177412930876
512.0,-0.0004793991392944008
576.0,-0.000998005154542625
640.0,-0.0015825757291167974
704.0,0.0015496790874749422
768.0,0.0013443449279293418
832.0,-9.831036732066423e-05
896.0,-0.0007081741932779551
960.0,0.0001726218470139429
1024.0,0.0005698141176253557
1152.0,0.0032752228435128927
1280.0,0.0011472231708467007
1408.0,0.0013249260373413563
1536.0,0.0005712697166018188
1664.0,0.0015686205588281155
1792.0,0.0011590593494474888
1920.0,0.0027540146838873625
2048.0,0.0008627793285995722
2304.0,0.001008076942525804
2560.0,-0.0010410887189209461
2816.0,0.0004986881394870579
3072.0,0.0029104051645845175
3328.0,-0.00011177338456036523
3584.0,-0.0015594052383676171
3840.0,-0.0011162705486640334
4096.0,-0.001484252163209021
4608.0,-0.0007142269751057029
5120.0,8.864195115165785e-05
5632.0,-0.0003076307475566864
6144.0,-0.0024790882598608732
6656.0,-0.002994022099301219
7168.0,-0.0007017762400209904
7680.0,0.0002411123423371464
8192.0,-6.878054409753531e-05
end
