version,3.0
numOfCh,1
type,point
parent_name,34a6d_0dot6-1dot0
ch_type,1_1
kcount,1
numberNandB,1
brightnessNandB,1
carpet pos,0
pc,0
Time (ms),CH1 Auto-Correlation
1.0,0.045452482998371124
2.0,0.04309966415166855
3.0,0.04092942178249359
4.0,0.038936663419008255
5.0,0.03706144914031029
6.0,0.03539581596851349
7.0,0.03387631103396416
8.0,0.03245726600289345
9.0,0.031051190569996834
10.0,0.02973996102809906
11.0,0.02856009267270565
12.0,0.02748892642557621
13.0,0.026552073657512665
14.0,0.025657150894403458
15.0,0.024770205840468407
16.0,0.023895300924777985
18.0,0.022306904196739197
20.0,0.020900068804621696
22.0,0.019617224112153053
24.0,0.01844226010143757
26.0,0.01741691306233406
28.0,0.01648644171655178
30.0,0.01568632386624813
32.0,0.014934975653886795
36.0,0.013449438847601414
40.0,0.012369298376142979
44.0,0.011795547790825367
48.0,0.011201296001672745
52.0,0.01054487843066454
56.0,0.009810922667384148
60.0,0.009133294224739075
64.0,0.00870661810040474
72.0,0.008154047653079033
80.0,0.00742379343137145
88.0,0.006940653081983328
96.0,0.006914460565894842
104.0,0.00694128405302763
112.0,0.006245383992791176
120.0,0.005982499103993177
128.0,0.0054837483912706375
144.0,0.0055189309641718864
160.0,0.005327716935425997
176.0,0.0054481904953718185
192.0,0.003996639046818018
208.0,0.003463894361630082
224.0,0.003181644482538104
240.0,0.0031442465260624886
256.0,0.003382683964446187
288.0,0.0026490918826311827
320.0,0.001974188955500722
352.0,0.00129462662152946
384.0,0.0017360914498567581
416.0,0.002053942298516631
448.0,0.002199887065216899
480.0,0.0034732059575617313
512.0,0.0027441869024187326
576.0,0.0012409237679094076
640.0,-0.0007022034260444343
704.0,-0.0023313674610108137
768.0,-0.0023599329870194197
832.0,-0.003530422691255808
896.0,-0.0035616536624729633
960.0,-0.0036800289526581764
1024.0,-0.001924768672324717
1152.0,-0.0011516809463500977
1280.0,-0.0027899148408323526
1408.0,-0.003954549785703421
1536.0,-0.0018401407869532704
1664.0,-0.002059154212474823
1792.0,-0.001015745336189866
1920.0,-0.00135716306976974
2048.0,-0.001745749730616808
2304.0,-0.0014727754751220345
2560.0,-0.0011738245375454426
2816.0,0.0016992550808936357
3072.0,0.002072205301374197
3328.0,0.001383489347063005
3584.0,0.00047080672811716795
3840.0,0.0015382730634883046
4096.0,0.0028895882423967123
4608.0,0.0003471541276667267
5120.0,-0.0012256618356332183
5632.0,-0.00296425586566329
6144.0,-0.0009048756910488009
6656.0,0.002564913360401988
7168.0,0.0022209621965885162
7680.0,-0.0011711101979017258
8192.0,-0.0005997246480546892
end
