version,3.0
numOfCh,1
type,point
parent_name,34a6d_0dot6-1dot0
ch_type,1_1
kcount,1
numberNandB,1
brightnessNandB,1
carpet pos,0
pc,0
Time (ms),CH1 Auto-Correlation
1.0,0.04330412298440933
2.0,0.040955375880002975
3.0,0.03880569711327553
4.0,0.03676961734890938
5.0,0.03492419794201851
6.0,0.03325418755412102
7.0,0.031833600252866745
8.0,0.03051486611366272
9.0,0.02924596332013607
10.0,0.02808276005089283
11.0,0.02702355571091175
12.0,0.026038501411676407
13.0,0.025174448266625404
14.0,0.024391528218984604
15.0,0.02359759993851185
16.0,0.022961394861340523
18.0,0.021658921614289284
20.0,0.02058584615588188
22.0,0.0196041539311409
24.0,0.018729742616415024
26.0,0.01781309023499489
28.0,0.01682683266699314
30.0,0.0159138310700655
32.0,0.015154634602367878
36.0,0.013798004016280174
40.0,0.012660849839448929
44.0,0.012016775086522102
48.0,0.011675686575472355
52.0,0.011257954873144627
56.0,0.010692804120481014
60.0,0.010028110817074776
64.0,0.009452692233026028
72.0,0.00871216133236885
80.0,0.008656159974634647
88.0,0.009057547897100449
96.0,0.009290946647524834
104.0,0.009007071144878864
112.0,0.008018643595278263
120.0,0.007262530270963907
128.0,0.0067365230061113834
144.0,0.006122136954218149
160.0,0.006210607476532459
176.0,0.006882952991873026
192.0,0.00681545864790678
208.0,0.0069031198509037495
224.0,0.0058493223041296005
240.0,0.004332934971898794
256.0,0.0035530810710042715
288.0,0.004190471954643726
320.0,0.0027828083839267492
352.0,0.0025799048598855734
384.0,0.00374716822989285
416.0,0.002840352011844516
448.0,0.002086664317175746
480.0,0.002905850065872073
512.0,0.003949734847992659
576.0,0.003467272501438856
640.0,0.0024843248538672924
704.0,-0.0007450553239323199
768.0,-0.0016259804833680391
832.0,-0.000948997912928462
896.0,-0.0002640313468873501
960.0,7.60339098633267e-05
1024.0,0.0016556298360228539
1152.0,0.002271321602165699
1280.0,0.0020591116044670343
1408.0,0.000450300081865862
1536.0,0.001167371985502541
1664.0,0.0007611026521772146
1792.0,-0.0010153595358133316
1920.0,-0.003937337547540665
2048.0,-0.0036080905701965094
2304.0,-0.0036845493596047163
2560.0,-0.005222541745752096
2816.0,-0.003513495670631528
3072.0,-0.0031656629871577024
3328.0,-0.0018369834870100021
3584.0,-0.0023164376616477966
3840.0,-0.001229125657118857
4096.0,-0.001364152180030942
4608.0,0.0016028551617637277
5120.0,0.005447748117148876
5632.0,0.0007119354559108615
6144.0,0.0024423326831310987
6656.0,-0.00032250231015495956
7168.0,-0.003164083231240511
7680.0,-0.0017920812824741006
8192.0,-0.00395888602361083
end
