version,3.0
numOfCh,1
type,point
parent_name,34a6d_0dot6-1dot0
ch_type,1_1
kcount,1
numberNandB,1
brightnessNandB,1
carpet pos,0
pc,0
Time (ms),CH1 Auto-Correlation
1.0,0.040750786662101746
2.0,0.038390737026929855
3.0,0.03628917410969734
4.0,0.03449518233537674
5.0,0.03285915032029152
6.0,0.03132158890366554
7.0,0.029922276735305786
8.0,0.028610551729798317
9.0,0.027334092184901237
10.0,0.026184091344475746
11.0,0.025068799033761024
12.0,0.02399137243628502
13.0,0.023034872487187386
14.0,0.022094475105404854
15.0,0.02123820036649704
16.0,0.02043442241847515
18.0,0.018967321142554283
20.0,0.017663555219769478
22.0,0.01645142212510109
24.0,0.015290284529328346
26.0,0.014290996827185154
28.0,0.013422410003840923
30.0,0.012479386292397976
32.0,0.011630024760961533
36.0,0.010480539873242378
40.0,0.009561424143612385
44.0,0.008697113953530788
48.0,0.008147875778377056
52.0,0.007676811423152685
56.0,0.007436935789883137
60.0,0.007297876290977001
64.0,0.006700265221297741
72.0,0.0055990032851696014
80.0,0.004678057972341776
88.0,0.0037600407376885414
96.0,0.0031074821017682552
104.0,0.002577601233497262
112.0,0.0021812543272972107
120.0,0.0016677017556503415
128.0,0.0015434545930474997
144.0,0.001670162659138441
160.0,0.0024310883600264788
176.0,0.0026649998035281897
192.0,0.00236644153483212
208.0,0.0019233477069064975
224.0,0.0014765262603759766
240.0,0.0018271588487550616
256.0,0.002834598533809185
288.0,0.002958448138087988
320.0,0.002056754194200039
352.0,0.0010177984368056059
384.0,0.0006247523124329746
416.0,0.0013650896726176143
448.0,-0.00033526329207234085
480.0,0.0003628655103966594
512.0,8.928695024223998e-05
576.0,-0.00020993580983486027
640.0,5.732952922699042e-05
704.0,0.0006826351163908839
768.0,-0.0015611834824085236
832.0,3.4955817682202905e-05
896.0,-0.0011084149591624737
960.0,-0.00105211790651083
1024.0,-0.0005553539376705885
1152.0,-0.0010564550757408142
1280.0,0.00105192675255239
1408.0,0.0028528913389891386
1536.0,0.00020389283599797636
1664.0,-6.0104604926891625e-05
1792.0,0.0017797219334170222
1920.0,0.002732971217483282
2048.0,0.0009747237199917436
2304.0,-0.00044854418956674635
2560.0,-0.001348355202935636
2816.0,-0.0013143992982804775
3072.0,-0.0011310563422739506
3328.0,0.0002492764906492084
3584.0,0.000416393595514819
3840.0,0.002247203839942813
4096.0,-0.0003766400914173573
4608.0,0.0008912978228181601
5120.0,9.575514559401199e-05
5632.0,0.0008388771093450487
6144.0,-0.0010399067541584373
6656.0,-0.00044399109901860356
7168.0,-0.0005594685790129006
7680.0,-0.002038730541244149
8192.0,0.00022707629250362515
end
