version,3.0
numOfCh,1
type,point
parent_name,34a6d_0dot6-1dot0
ch_type,1_1
kcount,1
numberNandB,1
brightnessNandB,1
carpet pos,0
pc,0
Time (ms),CH1 Auto-Correlation
1.0,0.046850547194480896
2.0,0.04455152526497841
3.0,0.042504969984292984
4.0,0.040653668344020844
5.0,0.03895486518740654
6.0,0.03748564422130585
7.0,0.03609630838036537
8.0,0.03471604734659195
9.0,0.033419348299503326
10.0,0.032145190984010696
11.0,0.030959345400333405
12.0,0.029868777841329575
13.0,0.028746502473950386
14.0,0.02767806686460972
15.0,0.026695681735873222
16.0,0.025830017402768135
18.0,0.024387357756495476
20.0,0.02306399680674076
22.0,0.021893519908189774
24.0,0.02081843465566635
26.0,0.019706662744283676
28.0,0.018592672422528267
30.0,0.017605485394597054
32.0,0.01684427447617054
36.0,0.015382909215986729
40.0,0.014022786170244217
44.0,0.01292719878256321
48.0,0.012036561965942383
52.0,0.011271307244896889
56.0,0.010621614754199982
60.0,0.00988704338669777
64.0,0.009248271584510803
72.0,0.008720015175640583
80.0,0.007971658371388912
88.0,0.00757249491289258
96.0,0.007830420508980751
104.0,0.008610629476606846
112.0,0.009697160683572292
120.0,0.010558973997831345
128.0,0.010644727386534214
144.0,0.009195378050208092
160.0,0.008176191709935665
176.0,0.007716922555118799
192.0,0.006858145352452993
208.0,0.006480496842414141
224.0,0.0064364224672317505
240.0,0.006031297147274017
256.0,0.005876378621906042
288.0,0.0048817796632647514
320.0,0.0043497271835803986
352.0,0.005205968394875526
384.0,0.00488606421276927
416.0,0.003617305541411042
448.0,0.003578083124011755
480.0,0.004161465913057327
512.0,0.0043607912957668304
576.0,0.001062139286659658
640.0,0.0009821993298828602
704.0,0.0003040131414309144
768.0,-0.00034368212800472975
832.0,-0.0029708566144108772
896.0,-0.004659910686314106
960.0,-0.004215502645820379
1024.0,-0.0045046452432870865
1152.0,-0.00265488401055336
1280.0,-0.002599346684291959
1408.0,-0.003070488106459379
1536.0,-0.004510762635618448
1664.0,-0.003540070727467537
1792.0,-0.001048109494149685
1920.0,0.0004183209384791553
2048.0,-0.0011418928625062108
2304.0,0.0010937632760033011
2560.0,-0.0015534664271399379
2816.0,-0.001370999263599515
3072.0,-0.0013085342943668365
3328.0,-0.0013917163014411926
3584.0,0.0021859474945813417
3840.0,0.0033808208536356688
4096.0,0.003165828762575984
4608.0,-0.002698791678994894
5120.0,-0.0045684040524065495
5632.0,0.001563520054332912
6144.0,0.0019821624737232924
6656.0,-0.0012587361270561814
7168.0,-0.003423081012442708
7680.0,0.0027941728476434946
8192.0,0.0073797316290438175
end
