version,3.0
numOfCh,1
type,point
parent_name,484af_0dot4-0dot1
ch_type,1_1
kcount,1
numberNandB,1
brightnessNandB,1
carpet pos,0
pc,0
Time (ms),CH1 Auto-Correlation
1.0,0.027035368606448174
2.0,0.02595485746860504
3.0,0.02496333047747612
4.0,0.024019764736294746
5.0,0.023123452439904213
6.0,0.02230963483452797
7.0,0.02157149650156498
8.0,0.020889900624752045
9.0,0.020280780270695686
10.0,0.0196513794362545
11.0,0.019052358344197273
12.0,0.018484054133296013
13.0,0.017918942496180534
14.0,0.017409024760127068
15.0,0.016925903037190437
16.0,0.016478881239891052
18.0,0.015659349039196968
20.0,0.014870911836624146
22.0,0.014121589250862598
24.0,0.013472914695739746
26.0,0.012907633557915688
28.0,0.01236041635274887
30.0,0.011865122243762016
32.0,0.01142219640314579
36.0,0.010633016005158424
40.0,0.009802360087633133
44.0,0.009046397171914577
48.0,0.00833645835518837
52.0,0.007655272260308266
56.0,0.007049022242426872
60.0,0.006519068498164415
64.0,0.006191331893205643
72.0,0.00579253351315856
80.0,0.004873852711170912
88.0,0.004078891593962908
96.0,0.0037090436089783907
104.0,0.0036591922398656607
112.0,0.0032300034072250128
120.0,0.0029130273032933474
128.0,0.0026853603776544333
144.0,0.0023998538963496685
160.0,0.001974243437871337
176.0,0.0016595474444329739
192.0,0.0013748337514698505
208.0,0.0011583250015974045
224.0,0.0011372289154678583
240.0,0.0006119610625319183
256.0,-0.00018866466416511685
288.0,-0.0003827849286608398
320.0,-9.084807970793918e-05
352.0,-0.0011658568400889635
384.0,-0.00202089361846447
416.0,-0.0012296424247324467
448.0,-0.00047390477266162634
480.0,-9.447418415220454e-05
512.0,-7.83040959504433e-05
576.0,-0.0008805003017187119
640.0,0.00015809277829248458
704.0,0.000473946041893214
768.0,0.0010575231863185763
832.0,0.0009442847804166377
896.0,-0.0009558240417391062
960.0,-0.0009560310281813145
1024.0,-0.0010737890843302011
1152.0,-0.0009496128186583519
1280.0,-0.0006840219721198082
1408.0,-0.0011812883894890547
1536.0,-0.0007952287560328841
1664.0,0.0011603651801124215
1792.0,0.00040822813753038645
1920.0,0.00027877985849045217
2048.0,0.0010593609185889363
2304.0,0.00011001516395481303
2560.0,0.00024715776089578867
2816.0,-0.00011472095502540469
3072.0,-0.00154690642375499
3328.0,-0.0005374497268348932
3584.0,-0.001276444992981851
3840.0,0.0013097402406856418
4096.0,0.0025210038293153048
4608.0,-0.0006243570824153721
5120.0,0.0011655159760266542
5632.0,-0.00011662566248560324
6144.0,-0.0016398960724473
6656.0,-0.00010777792340377346
7168.0,-0.0010051658609881997
7680.0,4.601291584549472e-05
8192.0,-0.0031959887128323317
end
