version,3.0
numOfCh,1
type,point
parent_name,484af_0dot4-0dot1
ch_type,1_1
kcount,1
numberNandB,1
brightnessNandB,1
carpet pos,0
pc,0
Time (ms),CH1 Auto-Correlation
1.0,0.03563426062464714
2.0,0.03451743721961975
3.0,0.03345855697989464
4.0,0.03249634802341461
5.0,0.03161865845322609
6.0,0.030775200575590134
7.0,0.02997812069952488
8.0,0.02923126332461834
9.0,0.028538472950458527
10.0,0.027874315157532692
11.0,0.027248701080679893
12.0,0.026621609926223755
13.0,0.025988800451159477
14.0,0.02539873495697975
15.0,0.024874571710824966
16.0,0.024357344955205917
18.0,0.023358158767223358
20.0,0.022409873083233833
22.0,0.021516922861337662
24.0,0.020632527768611908
26.0,0.019781749695539474
28.0,0.019000425934791565
30.0,0.018267549574375153
32.0,0.017620595172047615
36.0,0.016517989337444305
40.0,0.01563701033592224
44.0,0.014923305250704288
48.0,0.014302520081400871
52.0,0.013713006861507893
56.0,0.013080482371151447
60.0,0.012615617364645004
64.0,0.012245241552591324
72.0,0.01130136288702488
80.0,0.010015432722866535
88.0,0.009140587411820889
96.0,0.008655761368572712
104.0,0.008240900002419949
112.0,0.008235572837293148
120.0,0.008657312951982021
128.0,0.009061148390173912
144.0,0.009046809747815132
160.0,0.008872352540493011
176.0,0.009108255617320538
192.0,0.009329528547823429
208.0,0.009006274864077568
224.0,0.00854827743023634
240.0,0.007972094230353832
256.0,0.007443322334438562
288.0,0.006178330630064011
320.0,0.005588689353317022
352.0,0.004844618029892445
384.0,0.004032419063150883
416.0,0.002562734531238675
448.0,0.002126790350303054
480.0,0.0018853769870474935
512.0,0.0007561375387012959
576.0,0.0006724726408720016
640.0,-8.234409324359149e-05
704.0,-0.0019151520682498813
768.0,-0.0020556594245135784
832.0,-0.001294830464757979
896.0,-0.0033056915272027254
960.0,-0.0028515183366835117
1024.0,-0.0018462109146639705
1152.0,0.0006748028099536896
1280.0,0.0008575430838391185
1408.0,0.002794052241370082
1536.0,0.0040572406724095345
1664.0,0.005196866579353809
1792.0,0.004962936043739319
1920.0,0.0020863553509116173
2048.0,0.0004186738806311041
2304.0,-0.0010718057164922357
2560.0,-0.0009169984259642661
2816.0,-0.0006547645316459239
3072.0,-0.0007532794843427837
3328.0,-0.0007702911389060318
3584.0,-0.0011712941341102123
3840.0,-0.0020896766800433397
4096.0,-0.002764370059594512
4608.0,-0.0028179227374494076
5120.0,-0.0015081162564456463
5632.0,-0.006183999124914408
6144.0,-0.0036013335920870304
6656.0,-0.0025097387842833996
7168.0,-0.004655038006603718
7680.0,-0.0042511774227023125
8192.0,0.0013272815849632025
end
