version,3.0
numOfCh,1
type,point
parent_name,484af_0dot4-0dot1
ch_type,1_1
kcount,1
numberNandB,1
brightnessNandB,1
carpet pos,0
pc,0
Time (ms),CH1 Auto-Correlation
1.0,0.02792339026927948
2.0,0.02689974009990692
3.0,0.02590923383831978
4.0,0.02501298300921917
5.0,0.024156061932444572
6.0,0.023338928818702698
7.0,0.02256852202117443
8.0,0.021825194358825684
9.0,0.02111922577023506
10.0,0.02044045366346836
11.0,0.01981201395392418
12.0,0.019233349710702896
13.0,0.01874825730919838
14.0,0.018292639404535294
15.0,0.01787785440683365
16.0,0.017456810921430588
18.0,0.016717983409762383
20.0,0.016008101403713226
22.0,0.015373690985143185
24.0,0.014780496247112751
26.0,0.01425233855843544
28.0,0.01380532793700695
30.0,0.013362147845327854
32.0,0.0129008824005723
36.0,0.01204676739871502
40.0,0.011413618922233582
44.0,0.010969223454594612
48.0,0.010621972382068634
52.0,0.010251336731016636
56.0,0.009779016487300396
60.0,0.009252204559743404
64.0,0.00866568461060524
72.0,0.007879973389208317
80.0,0.007351039443165064
88.0,0.006980782840400934
96.0,0.006626066751778126
104.0,0.006431554909795523
112.0,0.005881113465875387
120.0,0.005466927774250507
128.0,0.005232062190771103
144.0,0.0041498104110360146
160.0,0.0035410705022513866
176.0,0.003523946739733219
192.0,0.00309143029153347
208.0,0.0022456906735897064
224.0,0.001816478674300015
240.0,0.001332466839812696
256.0,0.0011365041136741638
288.0,0.0011052472982555628
320.0,0.0009194507147185504
352.0,-0.0005346605321392417
384.0,-0.0007555438787676394
416.0,-0.0003508958616293967
448.0,-8.83168468135409e-05
480.0,0.00021577012375928462
512.0,-0.0007673968211747706
576.0,-0.0018353344639763236
640.0,-0.0001823757338570431
704.0,-0.0010287078330293298
768.0,-0.001424352522008121
832.0,-0.0013545051915571094
896.0,-0.0021015764214098454
960.0,-0.0010186114814132452
1024.0,-0.0003735093050636351
1152.0,0.000509873905684799
1280.0,-1.4812155313848052e-05
1408.0,-0.002074106829240918
1536.0,-0.002979010110720992
1664.0,-0.002489448059350252
1792.0,-0.0025232736952602863
1920.0,-0.0012079790467396379
2048.0,-0.0003317552909720689
2304.0,0.00012144068023189902
2560.0,-0.001219033496454358
2816.0,0.0016293084481731057
3072.0,0.0002655077551025897
3328.0,0.002536616986617446
3584.0,-0.0014952683122828603
3840.0,-0.000965937040746212
4096.0,7.563956023659557e-05
4608.0,0.0013093987945467234
5120.0,0.00019854793208651245
5632.0,4.541831003734842e-05
6144.0,0.0004363343759905547
6656.0,0.0006127283559180796
7168.0,0.0009517947910353541
7680.0,-0.0007596375653520226
8192.0,-0.0010636219521984458
end
