version,3.0
numOfCh,1
type,point
parent_name,484af_0dot4-0dot1
ch_type,1_1
kcount,1
numberNandB,1
brightnessNandB,1
carpet pos,0
pc,0
Time (ms),CH1 Auto-Correlation
1.0,0.028414130210876465
2.0,0.027380578219890594
3.0,0.026422323659062386
4.0,0.025515154004096985
5.0,0.024646513164043427
6.0,0.02384960651397705
7.0,0.023100489750504494
8.0,0.022381413727998734
9.0,0.021714340895414352
10.0,0.021064724773168564
11.0,0.020472483709454536
12.0,0.01994432881474495
13.0,0.01941930130124092
14.0,0.018889114260673523
15.0,0.018377045169472694
16.0,0.017896538600325584
18.0,0.017030565068125725
20.0,0.01619885489344597
22.0,0.015352834947407246
24.0,0.014640793204307556
26.0,0.014014088548719883
28.0,0.013397683389484882
30.0,0.012871616519987583
32.0,0.012422948144376278
36.0,0.011683234944939613
40.0,0.011141424998641014
44.0,0.010541960597038269
48.0,0.010011913254857063
52.0,0.009300250560045242
56.0,0.008736224845051765
60.0,0.008102692663669586
64.0,0.00739346444606781
72.0,0.006680910475552082
80.0,0.006131888832896948
88.0,0.005737579893320799
96.0,0.0051817987114191055
104.0,0.00407989090308547
112.0,0.0032068025320768356
120.0,0.0024584783241152763
128.0,0.00213074404746294
144.0,0.0017451875610277057
160.0,0.001424458110705018
176.0,0.0008207076461985707
192.0,0.0004399346944410354
208.0,0.00011619138240348548
224.0,-0.00018923243624158204
240.0,-0.00011649406224023551
256.0,0.0008336157770827413
288.0,0.0013742450391873717
320.0,0.0010826587677001953
352.0,0.000532305974047631
384.0,-0.0003564840881153941
416.0,-0.0003308873565401882
448.0,0.0003888186765834689
480.0,0.0016006036894395947
512.0,0.0024311444722115993
576.0,0.0018015616806223989
640.0,0.0022619678638875484
704.0,0.0009450236684642732
768.0,0.0011108823819085956
832.0,0.000688666186761111
896.0,-0.00011569755588425323
960.0,-0.0007782555185258389
1024.0,-0.0010738042183220387
1152.0,-0.00018795607320498675
1280.0,-5.9553007304202765e-05
1408.0,-0.001092124031856656
1536.0,-9.284048428526148e-05
1664.0,-0.0007507377886213362
1792.0,-0.0006414128001779318
1920.0,-0.0008815561304800212
2048.0,-0.0019720608834177256
2304.0,-0.000313540396746248
2560.0,0.0009378125541843474
2816.0,-0.00047769121010787785
3072.0,0.0005750349955633283
3328.0,-0.0008604465983808041
3584.0,-0.0009236599435098469
3840.0,-0.0026432564482092857
4096.0,-0.0009516121353954077
4608.0,0.0008423221879638731
5120.0,0.0014606687473133206
5632.0,0.0006790844490751624
6144.0,-0.0005720551707781851
6656.0,-0.002271101111546159
7168.0,-0.001559581607580185
7680.0,-0.001609791535884142
8192.0,-0.003062300384044647
end
