version,3.0
numOfCh,1
type,point
parent_name,484af_0dot4-0dot1
ch_type,1_1
kcount,1
numberNandB,1
brightnessNandB,1
carpet pos,0
pc,0
Time (ms),CH1 Auto-Correlation
1.0,0.029340431094169617
2.0,0.028299231082201004
3.0,0.027369361370801926
4.0,0.026529554277658463
5.0,0.025734400376677513
6.0,0.02497917413711548
7.0,0.02429814636707306
8.0,0.023670172318816185
9.0,0.023018047213554382
10.0,0.022406084463000298
11.0,0.021814463660120964
12.0,0.02126171439886093
13.0,0.020718993619084358
14.0,0.020190801471471786
15.0,0.01967308111488819
16.0,0.019201569259166718
18.0,0.018346939235925674
20.0,0.017531059682369232
22.0,0.01677330769598484
24.0,0.0160615723580122
26.0,0.015392805449664593
28.0,0.014775723218917847
30.0,0.014191505499184132
32.0,0.013679646886885166
36.0,0.012689996510744095
40.0,0.011816096492111683
44.0,0.010971246287226677
48.0,0.010245367884635925
52.0,0.009761268272995949
56.0,0.009316403418779373
60.0,0.008890612982213497
64.0,0.00860277283936739
72.0,0.008023334667086601
80.0,0.007378205191344023
88.0,0.00671578710898757
96.0,0.006055846810340881
104.0,0.005416198167949915
112.0,0.005089492071419954
120.0,0.0049132248386740685
128.0,0.0048292544670403
144.0,0.0049654035829007626
160.0,0.004955472890287638
176.0,0.005020607728511095
192.0,0.0045282053761184216
208.0,0.004082557745277882
224.0,0.004204690456390381
240.0,0.0035436823964118958
256.0,0.002899316605180502
288.0,0.0029053969774395227
320.0,0.0022253526840358973
352.0,0.0012428512563928962
384.0,0.0008690753602422774
416.0,0.00023202727606985718
448.0,-0.00021099750301800668
480.0,0.00020898111688438803
512.0,-6.241745268198429e-06
576.0,0.0007046927348710597
640.0,0.0026912917383015156
704.0,0.002683955244719982
768.0,0.0019338011043146253
832.0,0.0018679712666198611
896.0,0.0015360501129180193
960.0,0.0016133119352161884
1024.0,-0.00022600045485887676
1152.0,0.0011916884686797857
1280.0,0.0009117450681515038
1408.0,0.0012381059350445867
1536.0,0.0004140856908634305
1664.0,0.0021051273215562105
1792.0,0.0015973853878676891
1920.0,0.002553410828113556
2048.0,0.002734197536483407
2304.0,0.0035953044425696135
2560.0,0.0005341306678019464
2816.0,-0.00045316354953683913
3072.0,0.0013418860035017133
3328.0,0.0010382152395322919
3584.0,0.001891084830276668
3840.0,-0.00028414660482667387
4096.0,0.0013618511147797108
4608.0,0.0011732915882021189
5120.0,-0.0011739504989236593
5632.0,-0.0012278985232114792
6144.0,-0.003307806793600321
6656.0,-0.0010193550260737538
7168.0,-0.001876522903330624
7680.0,-0.0029418151825666428
8192.0,-0.004280701745301485
end
