version,3.0
numOfCh,1
type,point
parent_name,484af_0dot4-0dot1
ch_type,1_1
kcount,1
numberNandB,1
brightnessNandB,1
carpet pos,0
pc,0
Time (ms),CH1 Auto-Correlation
1.0,0.03193747624754906
2.0,0.03088122047483921
3.0,0.029878728091716766
4.0,0.028886431828141212
5.0,0.027953287586569786
6.0,0.027071742340922356
7.0,0.026245618239045143
8.0,0.025461487472057343
9.0,0.024725554510951042
10.0,0.024011408910155296
11.0,0.023322639986872673
12.0,0.02264772169291973
13.0,0.022031016647815704
14.0,0.021444784477353096
15.0,0.020848242565989494
16.0,0.02027907408773899
18.0,0.01916584186255932
20.0,0.018101830035448074
22.0,0.017132768407464027
24.0,0.016313547268509865
26.0,0.015510080382227898
28.0,0.014764717780053616
30.0,0.014091087505221367
32.0,0.013507941737771034
36.0,0.012482034042477608
40.0,0.011691008694469929
44.0,0.010944939218461514
48.0,0.010388527065515518
52.0,0.009905652143061161
56.0,0.009452302940189838
60.0,0.008946425281465054
64.0,0.008407548069953918
72.0,0.007269933354109526
80.0,0.006391674280166626
88.0,0.005831065587699413
96.0,0.0053441389463841915
104.0,0.004975051153451204
112.0,0.004369479138404131
120.0,0.0038081896491348743
128.0,0.0031651530880481005
144.0,0.0023530202452093363
160.0,0.002275391248986125
176.0,0.0021608280949294567
192.0,0.0015599792823195457
208.0,0.0013190577737987041
224.0,0.001683733775280416
240.0,0.0027144202031195164
256.0,0.002530928933992982
288.0,0.003496822202578187
320.0,0.003255654126405716
352.0,0.002800140529870987
384.0,0.002180858049541712
416.0,0.0029199470300227404
448.0,0.0035854666493833065
480.0,0.004621478263288736
512.0,0.006265546195209026
576.0,0.0033529074862599373
640.0,0.0004654655640479177
704.0,0.0024664062075316906
768.0,0.004013448022305965
832.0,0.0018696170300245285
896.0,-0.0008060968830250204
960.0,-0.0015174533473327756
1024.0,-0.0004505414399318397
1152.0,0.0007711174548603594
1280.0,0.0023885422851890326
1408.0,-0.0005530504859052598
1536.0,-0.0018382397247478366
1664.0,0.00011804129462689161
1792.0,0.0002449131279718131
1920.0,-0.0009842105209827423
2048.0,-0.0003753217461053282
2304.0,-0.00018789360183291137
2560.0,-0.00037728442111983895
2816.0,-0.00038669299101457
3072.0,0.00046103415661491454
3328.0,0.00045286299427971244
3584.0,0.0009277325589209795
3840.0,0.0004658902180381119
4096.0,-0.0006178407929837704
4608.0,-0.001816497533582151
5120.0,-0.0013771974481642246
5632.0,0.00028420169837772846
6144.0,-0.0017098636599257588
6656.0,-0.001867252984084189
7168.0,-0.0006589226541109383
7680.0,-0.0004279325366951525
8192.0,-0.0020525932777673006
end
