version,3.0
numOfCh,1
type,point
parent_name,484af_0dot4-0dot1
ch_type,1_1
kcount,1
numberNandB,1
brightnessNandB,1
carpet pos,0
pc,0
Time (ms),CH1 Auto-Correlation
1.0,0.029879901558160782
2.0,0.028769398108124733
3.0,0.027700988575816154
4.0,0.02671266905963421
5.0,0.025795888155698776
6.0,0.02494318038225174
7.0,0.024142982438206673
8.0,0.023423340171575546
9.0,0.022748494520783424
10.0,0.02212512493133545
11.0,0.021517258137464523
12.0,0.020944274961948395
13.0,0.020417124032974243
14.0,0.01990227773785591
15.0,0.019420767202973366
16.0,0.018933884799480438
18.0,0.01802206039428711
20.0,0.017138071358203888
22.0,0.01633155718445778
24.0,0.015545778907835484
26.0,0.014832641929388046
28.0,0.014132336713373661
30.0,0.013433080166578293
32.0,0.0127346720546484
36.0,0.011652451939880848
40.0,0.010953408665955067
44.0,0.01040017232298851
48.0,0.009916162118315697
52.0,0.009377148002386093
56.0,0.008813045918941498
60.0,0.008334111422300339
64.0,0.008036626502871513
72.0,0.00717374961823225
80.0,0.006074974779039621
88.0,0.005308589432388544
96.0,0.005120274145156145
104.0,0.0050597647204995155
112.0,0.005347747355699539
120.0,0.005986624397337437
128.0,0.006230019964277744
144.0,0.005940934177488089
160.0,0.005276103969663382
176.0,0.005384641699492931
192.0,0.005674594081938267
208.0,0.004936354234814644
224.0,0.003765392815694213
240.0,0.0029164887964725494
256.0,0.0022312875371426344
288.0,0.002311548450961709
320.0,0.0029593997169286013
352.0,0.0023920678067952394
384.0,0.0026791016571223736
416.0,0.0034776257816702127
448.0,0.0031975896563380957
480.0,0.0020147222094237804
512.0,0.001234273542650044
576.0,0.0001382529444526881
640.0,-0.0012159596662968397
704.0,-0.002252466045320034
768.0,-0.0017545638838782907
832.0,-0.000929307600017637
896.0,-0.0012914654798805714
960.0,0.0003992387792095542
1024.0,-0.0005314917652867734
1152.0,-0.000218451619730331
1280.0,0.0003359684196766466
1408.0,0.0012115411227568984
1536.0,0.002166040940210223
1664.0,0.0028513281140476465
1792.0,0.00105550407897681
1920.0,0.0006878769490867853
2048.0,0.0007760386797599494
2304.0,-0.0004990223096683621
2560.0,0.001469178474508226
2816.0,0.001163456472568214
3072.0,0.0004126735730096698
3328.0,0.00022871674445923418
3584.0,-0.0017049608286470175
3840.0,-0.0028757990803569555
4096.0,-0.001340176328085363
4608.0,0.001442244159989059
5120.0,0.0020127734169363976
5632.0,-0.0013908036053180695
6144.0,-0.0019365287153050303
6656.0,-0.0021934309042990208
7168.0,-0.0021589985117316246
7680.0,-0.001148626790381968
8192.0,-0.0032342965714633465
end
