version,3.0
numOfCh,1
type,point
parent_name,484af_0dot4-0dot1
ch_type,1_1
kcount,1
numberNandB,1
brightnessNandB,1
carpet pos,0
pc,0
Time (ms),CH1 Auto-Correlation
1.0,0.03244265541434288
2.0,0.031403083354234695
3.0,0.03047811985015869
4.0,0.029612230136990547
5.0,0.028780002146959305
6.0,0.02797410637140274
7.0,0.02722146548330784
8.0,0.026533691212534904
9.0,0.025882458314299583
10.0,0.025281133130192757
11.0,0.02469179406762123
12.0,0.024160141125321388
13.0,0.023669468238949776
14.0,0.023162847384810448
15.0,0.0226588137447834
16.0,0.022209972143173218
18.0,0.021346403285861015
20.0,0.020536182448267937
22.0,0.01980171725153923
24.0,0.019189445301890373
26.0,0.018634745851159096
28.0,0.01817711815237999
30.0,0.017743375152349472
32.0,0.0172649584710598
36.0,0.01643591746687889
40.0,0.015804635360836983
44.0,0.015231587924063206
48.0,0.014647704549133778
52.0,0.014172730036079884
56.0,0.013712803833186626
60.0,0.013268494047224522
64.0,0.012803077697753906
72.0,0.011898229829967022
80.0,0.01113047357648611
88.0,0.010511628352105618
96.0,0.010052362456917763
104.0,0.009602727368474007
112.0,0.009134944528341293
120.0,0.008459356613457203
128.0,0.007646085694432259
144.0,0.007506843190640211
160.0,0.007473067846149206
176.0,0.007065012585371733
192.0,0.0065175872296094894
208.0,0.005703227128833532
224.0,0.005063263699412346
240.0,0.004519025795161724
256.0,0.004244290292263031
288.0,0.0028435164131224155
320.0,0.0011970128398388624
352.0,-6.225583638297394e-05
384.0,-0.0003995868901256472
416.0,0.0004908068804070354
448.0,0.0001419577602064237
480.0,-0.0002604853070806712
512.0,-0.0001706854091025889
576.0,-0.0017889232840389013
640.0,-0.0015118313021957874
704.0,-0.0012435335665941238
768.0,-0.0024648853577673435
832.0,-0.003314345609396696
896.0,-0.0037051106337457895
960.0,-0.0027197275776416063
1024.0,-0.0031905288342386484
1152.0,-0.003307810751721263
1280.0,-0.001958753215149045
1408.0,0.0014300395268946886
1536.0,0.0033060191199183464
1664.0,0.003454660065472126
1792.0,0.0018129941308870912
1920.0,0.0027859846595674753
2048.0,0.0029366326052695513
2304.0,-0.0027743184473365545
2560.0,-0.005045097321271896
2816.0,-0.004958994686603546
3072.0,-0.004120029974728823
3328.0,-0.0001662014692556113
3584.0,0.00034506068914197385
3840.0,0.001495165633969009
4096.0,0.001233364804647863
4608.0,-0.0010589702287688851
5120.0,0.0020877975039184093
5632.0,0.0022289040498435497
6144.0,0.001135187572799623
6656.0,-0.0012898723362013698
7168.0,0.003561680903658271
7680.0,-0.0017888502916321158
8192.0,-0.00560735072940588
end
