version,3.0
numOfCh,1
type,point
parent_name,484af_0dot4-0dot1
ch_type,1_1
kcount,1
numberNandB,1
brightnessNandB,1
carpet pos,0
pc,0
Time (ms),CH1 Auto-Correlation
1.0,0.036639515310525894
2.0,0.035225462168455124
3.0,0.03403111919760704
4.0,0.032903775572776794
5.0,0.03177962452173233
6.0,0.03077176958322525
7.0,0.02990896813571453
8.0,0.029086492955684662
9.0,0.028271712362766266
10.0,0.027493994683027267
11.0,0.026750002056360245
12.0,0.026015350595116615
13.0,0.025284281000494957
14.0,0.024603329598903656
15.0,0.02398846484720707
16.0,0.023405348882079124
18.0,0.022414017468690872
20.0,0.02143586240708828
22.0,0.020611369982361794
24.0,0.019755419343709946
26.0,0.019017526879906654
28.0,0.018276583403348923
30.0,0.01758417673408985
32.0,0.016808418557047844
36.0,0.015603344887495041
40.0,0.01467917300760746
44.0,0.014049842022359371
48.0,0.013192598707973957
52.0,0.012318174354732037
56.0,0.011476258747279644
60.0,0.010794504545629025
64.0,0.010204401798546314
72.0,0.00960735697299242
80.0,0.009044705890119076
88.0,0.00843126978725195
96.0,0.008157596923410892
104.0,0.007938012480735779
112.0,0.007725085597485304
120.0,0.0075193652883172035
128.0,0.007002543192356825
144.0,0.005731876473873854
160.0,0.004086000844836235
176.0,0.0027203154750168324
192.0,0.002756706904619932
208.0,0.0023311625700443983
224.0,0.0011270424583926797
240.0,0.00011877315409947187
256.0,0.000389523571357131
288.0,-0.0006870446377433836
320.0,-0.0008800480281934142
352.0,-0.0013345772167667747
384.0,-0.0024395391810685396
416.0,-0.0017451958265155554
448.0,-0.0017776564927771688
480.0,-0.0018011440988630056
512.0,-0.001521768281236291
576.0,-0.0020608550403267145
640.0,-0.0006715946365147829
704.0,0.0005896683433093131
768.0,2.8904611099278554e-05
832.0,0.00022708519827574492
896.0,-0.0018854206427931786
960.0,-0.0022938959300518036
1024.0,-0.004156898707151413
1152.0,-0.002666800282895565
1280.0,-0.0006835712119936943
1408.0,-0.0011693608248606324
1536.0,-0.0011710039107128978
1664.0,-1.5173820429481566e-05
1792.0,0.0007121650269255042
1920.0,0.0040738750249147415
2048.0,0.0023368247784674168
2304.0,-0.0005074929795227945
2560.0,-0.0005461688269861042
2816.0,-0.0011496375082060695
3072.0,-0.0002432069304632023
3328.0,0.0013284242013469338
3584.0,-0.0005319684278219938
3840.0,-0.0008226002682931721
4096.0,-0.0019813980907201767
4608.0,-0.0013026449596509337
5120.0,0.003653734689578414
5632.0,-0.002571767196059227
6144.0,0.00042690857662819326
6656.0,-0.0006288409349508584
7168.0,0.0031117023900151253
7680.0,-0.002990567358210683
8192.0,-0.00043034792179241776
end
