version,3.0
numOfCh,1
type,point
parent_name,484af_0dot4-0dot1
ch_type,1_1
kcount,1
numberNandB,1
brightnessNandB,1
carpet pos,0
pc,0
Time (ms),CH1 Auto-Correlation
1.0,0.031283292919397354
2.0,0.03025341033935547
3.0,0.029301408678293228
4.0,0.028403867036104202
5.0,0.027555836364626884
6.0,0.026735739782452583
7.0,0.025920486077666283
8.0,0.025143517181277275
9.0,0.024410700425505638
10.0,0.023721657693386078
11.0,0.02307591214776039
12.0,0.022474240511655807
13.0,0.02189323492348194
14.0,0.021320123225450516
15.0,0.020763473585247993
16.0,0.020247630774974823
18.0,0.019299937412142754
20.0,0.01840667985379696
22.0,0.017593596130609512
24.0,0.016866113990545273
26.0,0.016231754794716835
28.0,0.015599291771650314
30.0,0.015006567351520061
32.0,0.014492996037006378
36.0,0.013617977499961853
40.0,0.012769144028425217
44.0,0.012001089751720428
48.0,0.011233494617044926
52.0,0.010511760599911213
56.0,0.00985944177955389
60.0,0.009204723872244358
64.0,0.008630078285932541
72.0,0.007905371487140656
80.0,0.0074342298321425915
88.0,0.007087231148034334
96.0,0.0066142757423222065
104.0,0.0057419827207922935
112.0,0.005228433758020401
120.0,0.004846092779189348
128.0,0.004482341464608908
144.0,0.003727677743881941
160.0,0.003976781852543354
176.0,0.004793381784111261
192.0,0.005045152734965086
208.0,0.00511980289593339
224.0,0.005151940975338221
240.0,0.005106370896100998
256.0,0.004735189024358988
288.0,0.002569088712334633
320.0,0.0020046005956828594
352.0,0.0016267282189801335
384.0,0.0003543056664057076
416.0,-0.0010737794218584895
448.0,-0.0009316793293692172
480.0,-0.0008366837282665074
512.0,-0.0004904007073491812
576.0,-0.0017316668527200818
640.0,-0.0010063338559120893
704.0,-0.0010671315249055624
768.0,-0.0012379413237795234
832.0,-0.0008343075751326978
896.0,0.0011392207816243172
960.0,0.0012761441757902503
1024.0,0.0001209867259603925
1152.0,0.0003691214951686561
1280.0,0.0014307955279946327
1408.0,-0.0010869083926081657
1536.0,-3.651883525890298e-05
1664.0,-0.0003595045709516853
1792.0,-5.012567635276355e-05
1920.0,0.0005352819571271539
2048.0,-0.00111390498932451
2304.0,-0.001797113218344748
2560.0,-0.0002262566558783874
2816.0,-0.0004919246421195567
3072.0,-0.002226184355095029
3328.0,-0.0016397361177951097
3584.0,-0.001477070152759552
3840.0,-0.0011705115903168917
4096.0,-0.003961860202252865
4608.0,-0.0006591774872504175
5120.0,-0.000895115954335779
5632.0,-0.000479627720778808
6144.0,0.0028129538986831903
6656.0,0.0014564504381269217
7168.0,0.001470134942792356
7680.0,0.0013696643291041255
8192.0,-0.001092345453798771
end
