version,3.0
numOfCh,1
type,point
parent_name,484af_0dot4-0dot1
ch_type,1_1
kcount,1
numberNandB,1
brightnessNandB,1
carpet pos,0
pc,0
Time (ms),CH1 Auto-Correlation
1.0,0.03155086934566498
2.0,0.030420741066336632
3.0,0.029379580169916153
4.0,0.028401140123605728
5.0,0.02745034173130989
6.0,0.026491129770874977
7.0,0.02558145299553871
8.0,0.024745969101786613
9.0,0.023941051214933395
10.0,0.023216204717755318
11.0,0.022552231326699257
12.0,0.021936286240816116
13.0,0.021336296573281288
14.0,0.020775577053427696
15.0,0.020248493179678917
16.0,0.01973532885313034
18.0,0.018790733069181442
20.0,0.01792229898273945
22.0,0.017105046659708023
24.0,0.016385572031140327
26.0,0.01575104147195816
28.0,0.015154401771724224
30.0,0.014682749286293983
32.0,0.014261039905250072
36.0,0.013522429391741753
40.0,0.012828639708459377
44.0,0.012296768836677074
48.0,0.011895271018147469
52.0,0.011599232442677021
56.0,0.011137893423438072
60.0,0.01045417133718729
64.0,0.00982426106929779
72.0,0.00854012556374073
80.0,0.007531471084803343
88.0,0.007016464602202177
96.0,0.006562535651028156
104.0,0.00599678885191679
112.0,0.005256478674709797
120.0,0.00477468129247427
128.0,0.004186526872217655
144.0,0.003044000593945384
160.0,0.002093413146212697
176.0,0.001716950791887939
192.0,0.001987952273339033
208.0,0.0023020831868052483
224.0,0.0022338666021823883
240.0,0.0024527281057089567
256.0,0.0027210728731006384
288.0,0.0024128544609993696
320.0,0.002496144035831094
352.0,0.0011883407132700086
384.0,0.00037352999788708985
416.0,-0.0009961825562641025
448.0,-0.0007330954540520906
480.0,-0.0011727088131010532
512.0,-0.0005595183465629816
576.0,-0.0014129187911748886
640.0,-0.0023667330387979746
704.0,-0.003012243425473571
768.0,-0.0027793433982878923
832.0,-0.00032368337269872427
896.0,0.0005597880808636546
960.0,0.0001320503797614947
1024.0,-0.0013411908876150846
1152.0,0.001224067877046764
1280.0,0.0009452382801100612
1408.0,0.002244807779788971
1536.0,-0.0004359378945082426
1664.0,-0.0004091474402230233
1792.0,0.00028401013696566224
1920.0,-0.002087903209030628
2048.0,-0.0015929692890495062
2304.0,0.0034340200945734978
2560.0,0.0019716520328074694
2816.0,0.0006541801849380136
3072.0,0.00011899586388608441
3328.0,-0.0004730990622192621
3584.0,0.0006847641780041158
3840.0,-0.001380578032694757
4096.0,0.0026025332044810057
4608.0,-0.0030276216566562653
5120.0,-0.0005143734160810709
5632.0,0.0022195354104042053
6144.0,-0.002700153039768338
6656.0,0.0013619230594485998
7168.0,-0.002016488928347826
7680.0,-0.0005085607408545911
8192.0,-6.515441054943949e-05
end
