version,3.0
numOfCh,1
type,point
parent_name,484af_0dot4-0dot1
ch_type,1_1
kcount,1
numberNandB,1
brightnessNandB,1
carpet pos,0
pc,0
Time (ms),CH1 Auto-Correlation
1.0,0.031076088547706604
2.0,0.030016152188181877
3.0,0.029016193002462387
4.0,0.028052426874637604
5.0,0.027147233486175537
6.0,0.02627222053706646
7.0,0.02544482983648777
8.0,0.024675901979207993
9.0,0.023983201012015343
10.0,0.02332925982773304
11.0,0.02268005907535553
12.0,0.0220707468688488
13.0,0.021465912461280823
14.0,0.020883833989501
15.0,0.020331567153334618
16.0,0.019796214997768402
18.0,0.018781477585434914
20.0,0.01787584088742733
22.0,0.0171199981123209
24.0,0.016489190980792046
26.0,0.015926135703921318
28.0,0.015437529422342777
30.0,0.014975612051784992
32.0,0.014482901431620121
36.0,0.01339793112128973
40.0,0.012443319894373417
44.0,0.011764539405703545
48.0,0.011281627230346203
52.0,0.010740907862782478
56.0,0.010252189822494984
60.0,0.009813406504690647
64.0,0.009488853625953197
72.0,0.008789504878222942
80.0,0.00802638754248619
88.0,0.007014885079115629
96.0,0.0062631177715957165
104.0,0.005591413006186485
112.0,0.005279487930238247
120.0,0.0050444952212274075
128.0,0.0048909373581409454
144.0,0.004590956494212151
160.0,0.004842834081500769
176.0,0.0054611386731266975
192.0,0.005893375724554062
208.0,0.005959152709692717
224.0,0.005745317786931992
240.0,0.005155058111995459
256.0,0.004730237182229757
288.0,0.004540898837149143
320.0,0.0033267829567193985
352.0,0.0025724906008690596
384.0,0.0021793728228658438
416.0,0.0015602282946929336
448.0,0.0008994672098197043
480.0,0.000947752792853862
512.0,0.0010830891551449895
576.0,0.0007095432956703007
640.0,0.0006898930878378451
704.0,0.0002617810678202659
768.0,-0.00029212282970547676
832.0,0.0008874768391251564
896.0,0.0005659888847731054
960.0,0.0004963642568327487
1024.0,0.0007745245820842683
1152.0,-0.00011747820826712996
1280.0,-0.0006938434671610594
1408.0,-0.0014574956148862839
1536.0,-0.001812526024878025
1664.0,-0.0022248420864343643
1792.0,-0.002861327026039362
1920.0,-0.0011638213181868196
2048.0,4.270230056135915e-05
2304.0,-0.0002713701396714896
2560.0,0.0007400538306683302
2816.0,0.0012508322251960635
3072.0,0.0021481220610439777
3328.0,0.0018866327591240406
3584.0,0.0014558322727680206
3840.0,-0.0007927921251393855
4096.0,-0.002532749669626355
4608.0,0.0007298457203432918
5120.0,0.0002743304648902267
5632.0,-0.0019601034000515938
6144.0,-0.0028193548787385225
6656.0,-0.0018091100500896573
7168.0,0.0008543270523659885
7680.0,0.0022977525368332863
8192.0,0.00040661657112650573
end
