version,3.0
numOfCh,1
type,point
parent_name,484af_0dot4-0dot1
ch_type,1_1
kcount,1
numberNandB,1
brightnessNandB,1
carpet pos,0
pc,0
Time (ms),CH1 Auto-Correlation
1.0,0.03728353977203369
2.0,0.03613753616809845
3.0,0.03510117530822754
4.0,0.034119367599487305
5.0,0.03318427503108978
6.0,0.032323066145181656
7.0,0.031496889889240265
8.0,0.03074772283434868
9.0,0.03002069517970085
10.0,0.029310403391718864
11.0,0.028631767258048058
12.0,0.02793843485414982
13.0,0.027313439175486565
14.0,0.02670952118933201
15.0,0.02612336538732052
16.0,0.02555404044687748
18.0,0.02454545721411705
20.0,0.023594312369823456
22.0,0.022636935114860535
24.0,0.021777814254164696
26.0,0.020957743749022484
28.0,0.020141681656241417
30.0,0.01935567520558834
32.0,0.01862236298620701
36.0,0.0174079742282629
40.0,0.016308775171637535
44.0,0.01524368766695261
48.0,0.014268647879362106
52.0,0.013280447572469711
56.0,0.012489467859268188
60.0,0.011907503008842468
64.0,0.011441284790635109
72.0,0.010495981201529503
80.0,0.00952493492513895
88.0,0.008544489741325378
96.0,0.007653416134417057
104.0,0.006625098641961813
112.0,0.005887208040803671
120.0,0.005185348447412252
128.0,0.004715771414339542
144.0,0.0036626204382628202
160.0,0.00257617374882102
176.0,0.0024134761188179255
192.0,0.002810142934322357
208.0,0.00300161587074399
224.0,0.0024174849968403578
240.0,0.002090632217004895
256.0,0.002362422179430723
288.0,0.002150355139747262
320.0,0.002095176838338375
352.0,0.0009194448357447982
384.0,0.00011368818377377465
416.0,0.00070308952126652
448.0,0.0009390647755935788
480.0,0.0010123340180143714
512.0,0.001021800679154694
576.0,-0.0018792309565469623
640.0,-0.0039946152828633785
704.0,-0.0021299386862665415
768.0,-0.00038864320958964527
832.0,-0.00014833552995696664
896.0,-0.0019844325724989176
960.0,-0.0028385960031300783
1024.0,-0.002593124518170953
1152.0,-0.003208756912499666
1280.0,-0.0011812143493443727
1408.0,-0.0010724045569077134
1536.0,8.55169419082813e-05
1664.0,-0.0005821806262247264
1792.0,0.003665236523374915
1920.0,-0.001758950762450695
2048.0,-0.002483786316588521
2304.0,-0.003075552871450782
2560.0,-0.0015403489815071225
2816.0,-0.0007754787802696228
3072.0,0.0012236842885613441
3328.0,0.0010465647792443633
3584.0,0.000855709717143327
3840.0,0.0006345109432004392
4096.0,-0.0003789197653532028
4608.0,0.0006283594411797822
5120.0,-0.0008389630238525569
5632.0,-0.0004896909231320024
6144.0,0.0015350265894085169
6656.0,0.0008363439701497555
7168.0,0.002884131157770753
7680.0,-0.0019906547386199236
8192.0,-0.0015388010069727898
end
