version,3.0
numOfCh,1
type,point
parent_name,484af_0dot4-0dot1
ch_type,1_1
kcount,1
numberNandB,1
brightnessNandB,1
carpet pos,0
pc,0
Time (ms),CH1 Auto-Correlation
1.0,0.05169481411576271
2.0,0.04990784451365471
3.0,0.048274338245391846
4.0,0.046730831265449524
5.0,0.0453178808093071
6.0,0.04396408796310425
7.0,0.042601313441991806
8.0,0.04137310013175011
9.0,0.04011286422610283
10.0,0.03897581622004509
11.0,0.03785417601466179
12.0,0.03675152733922005
13.0,0.035697776824235916
14.0,0.03455657511949539
15.0,0.03337747976183891
16.0,0.03227665647864342
18.0,0.03031863644719124
20.0,0.028337057679891586
22.0,0.026498211547732353
24.0,0.024687448516488075
26.0,0.02279624715447426
28.0,0.02112095057964325
30.0,0.019602639600634575
32.0,0.01811138540506363
36.0,0.015032527968287468
40.0,0.011957875452935696
44.0,0.010754279792308807
48.0,0.009606675244867802
52.0,0.008535387925803661
56.0,0.007660665549337864
60.0,0.006773795932531357
64.0,0.005941940471529961
72.0,0.005398530513048172
80.0,0.004523892421275377
88.0,0.003901235992088914
96.0,0.003716937731951475
104.0,0.0038487613201141357
112.0,0.003965315409004688
120.0,0.004001083318144083
128.0,0.003992303740233183
144.0,0.004410805646330118
160.0,0.0050688572227954865
176.0,0.006415289361029863
192.0,0.0049215382896363735
208.0,0.003157146740704775
224.0,0.0020790421403944492
240.0,0.0006941407918930054
256.0,-0.00048728709225542843
288.0,0.004311664495617151
320.0,0.0038705256301909685
352.0,0.0021413974463939667
384.0,-0.0007873288705013692
416.0,-0.0013015572912991047
448.0,-0.0003598756738938391
480.0,0.00011907974840141833
512.0,0.0004747546336147934
576.0,-0.000577314174734056
640.0,0.00016254201182164252
704.0,-0.0011816677870228887
768.0,-7.1582348937226925e-06
832.0,-8.894949860405177e-05
896.0,-4.873618308920413e-06
960.0,0.0015079883160069585
1024.0,0.0007521419320255518
1152.0,0.0006177045870572329
1280.0,0.002113127149641514
1408.0,0.001851916196756065
1536.0,0.0013554372126236558
1664.0,0.0007677340763621032
1792.0,-0.00022469632676802576
1920.0,-0.0006860606954433024
2048.0,8.213275577872992e-05
2304.0,0.0006595974555239081
2560.0,0.0015073195099830627
2816.0,0.0018633558647707105
3072.0,-0.001071448903530836
3328.0,-0.0001947234122781083
3584.0,0.0024762917309999466
3840.0,-0.000369050248991698
4096.0,-0.0010318489512428641
4608.0,0.0005473398487083614
5120.0,-0.0007941510411910713
5632.0,-4.453973815543577e-05
6144.0,-0.0020458949729800224
6656.0,-0.0014897799119353294
7168.0,0.0002896923979278654
7680.0,-0.002009438583627343
8192.0,-0.001658959430642426
end
