version,3.0
numOfCh,1
type,point
parent_name,484af_0dot4-0dot1
ch_type,1_1
kcount,1
numberNandB,1
brightnessNandB,1
carpet pos,0
pc,0
Time (ms),CH1 Auto-Correlation
1.0,0.02927175536751747
2.0,0.02821086160838604
3.0,0.027235262095928192
4.0,0.026299582794308662
5.0,0.025424936786293983
6.0,0.02458847686648369
7.0,0.023787572979927063
8.0,0.023030443117022514
9.0,0.02228822186589241
10.0,0.021601634100079536
11.0,0.020932698622345924
12.0,0.020318498834967613
13.0,0.01968836970627308
14.0,0.019091282039880753
15.0,0.018500903621315956
16.0,0.01797102577984333
18.0,0.01703934744000435
20.0,0.016159743070602417
22.0,0.01528814248740673
24.0,0.014475950971245766
26.0,0.013744507916271687
28.0,0.01305481232702732
30.0,0.012467855587601662
32.0,0.01198914460837841
36.0,0.011299590580165386
40.0,0.010636168532073498
44.0,0.010028380900621414
48.0,0.009538952261209488
52.0,0.008956174366176128
56.0,0.008290115743875504
60.0,0.0075994995422661304
64.0,0.006903819739818573
72.0,0.005644748918712139
80.0,0.004769335966557264
88.0,0.0040849666111171246
96.0,0.0037193135358393192
104.0,0.0036836108192801476
112.0,0.003403449198231101
120.0,0.0030870772898197174
128.0,0.0026415600441396236
144.0,0.001517712022177875
160.0,0.000841332133859396
176.0,0.0008190582157112658
192.0,0.0008751837303861976
208.0,0.0008535716333426535
224.0,0.0008848053403198719
240.0,0.001018460956402123
256.0,0.0017020688392221928
288.0,0.0013850106624886394
320.0,0.0013023657957091928
352.0,0.001985669368878007
384.0,0.0026529934257268906
416.0,0.0010001511545851827
448.0,-8.416707828473591e-07
480.0,4.046564572490752e-05
512.0,-0.0005394962499849498
576.0,0.0006548353121615946
640.0,0.0004563976835925132
704.0,0.00040724570862948895
768.0,0.0013687582686543465
832.0,0.0023427868727594614
896.0,0.0006012094090692699
960.0,0.0006391299539245665
1024.0,-0.0005972537328489125
1152.0,-0.0002538046974223107
1280.0,-0.00018939640722237527
1408.0,-0.0013523328816518188
1536.0,-0.00021411738998722285
1664.0,0.0002549772325437516
1792.0,0.00010423007188364863
1920.0,0.001812670612707734
2048.0,0.0012369181495159864
2304.0,0.0015568847302347422
2560.0,0.00210826238617301
2816.0,0.000856489990837872
3072.0,-0.00012744231207761914
3328.0,0.0015680546639487147
3584.0,0.0011977970134466887
3840.0,-0.0011335131712257862
4096.0,6.105379725340754e-05
4608.0,-0.0005952533683739603
5120.0,-0.0005096190143376589
5632.0,0.0001090433361241594
6144.0,0.0014057675143703818
6656.0,-8.918397361412644e-05
7168.0,-0.0011861496604979038
7680.0,-0.0018062571762129664
8192.0,-0.00161938916426152
end
