version,3.0
numOfCh,1
type,point
parent_name,484af_0dot4-0dot1
ch_type,1_1
kcount,1
numberNandB,1
brightnessNandB,1
carpet pos,0
pc,0
Time (ms),CH1 Auto-Correlation
1.0,0.033615972846746445
2.0,0.0325167290866375
3.0,0.031448859721422195
4.0,0.030407877638936043
5.0,0.02945677377283573
6.0,0.028573617339134216
7.0,0.027742883190512657
8.0,0.027005938813090324
9.0,0.026265472173690796
10.0,0.02555481530725956
11.0,0.024888066574931145
12.0,0.024246394634246826
13.0,0.023635519668459892
14.0,0.023066435009241104
15.0,0.02252870239317417
16.0,0.021991798654198647
18.0,0.02102677896618843
20.0,0.02013169229030609
22.0,0.019315287470817566
24.0,0.018613867461681366
26.0,0.017971528694033623
28.0,0.017411580309271812
30.0,0.016921477392315865
32.0,0.016494497656822205
36.0,0.015742510557174683
40.0,0.015010204166173935
44.0,0.014217764139175415
48.0,0.013344358652830124
52.0,0.012465945445001125
56.0,0.01164588239043951
60.0,0.010914994403719902
64.0,0.010476925410330296
72.0,0.00981510803103447
80.0,0.009145705960690975
88.0,0.008172828704118729
96.0,0.007546818349510431
104.0,0.007554276846349239
112.0,0.007054014131426811
120.0,0.0063530458137393
128.0,0.005474507343024015
144.0,0.0047937179915606976
160.0,0.004506751429289579
176.0,0.003782745450735092
192.0,0.003328308928757906
208.0,0.003355927299708128
224.0,0.0034095835871994495
240.0,0.003377960529178381
256.0,0.0032471243757754564
288.0,0.00283019314520061
320.0,0.0019891990814357996
352.0,0.002235628431662917
384.0,0.003796030068770051
416.0,0.004798058420419693
448.0,0.004863052628934383
480.0,0.004383195657283068
512.0,0.0036820480599999428
576.0,0.0017925570718944073
640.0,0.0016494913725182414
704.0,-0.00021984124032314867
768.0,-0.0009492745157331228
832.0,0.00035095916246064007
896.0,0.0018266717670485377
960.0,0.0021306828130036592
1024.0,0.002225009258836508
1152.0,0.0010920377681031823
1280.0,0.00047947082202881575
1408.0,0.0007707690820097923
1536.0,0.0009014005772769451
1664.0,-0.000990072963759303
1792.0,-0.0009806678863242269
1920.0,-0.0010787724750116467
2048.0,-0.0011196228442713618
2304.0,-0.0011893591145053506
2560.0,0.0003058027650695294
2816.0,-0.0008112553623504937
3072.0,0.0015133224660530686
3328.0,8.345933565578889e-06
3584.0,0.0015589307295158505
3840.0,-0.001296341884881258
4096.0,-0.001965183764696121
4608.0,-2.083024082821794e-05
5120.0,-0.0008209470543079078
5632.0,-0.0008261976763606071
6144.0,-0.0022942228242754936
6656.0,-0.004541407339274883
7168.0,-0.005214550998061895
7680.0,-0.0021051913499832153
8192.0,0.0002935268566943705
end
