version,3.0
numOfCh,1
type,point
parent_name,484af_0dot4-0dot1
ch_type,1_1
kcount,1
numberNandB,1
brightnessNandB,1
carpet pos,0
pc,0
Time (ms),CH1 Auto-Correlation
1.0,0.03006228432059288
2.0,0.02889961376786232
3.0,0.027842164039611816
4.0,0.026821330189704895
5.0,0.025852011516690254
6.0,0.02497914433479309
7.0,0.024144114926457405
8.0,0.023350849747657776
9.0,0.022636335343122482
10.0,0.021959997713565826
11.0,0.0213176142424345
12.0,0.02070442959666252
13.0,0.020188970491290092
14.0,0.019693560898303986
15.0,0.019205285236239433
16.0,0.018696267157793045
18.0,0.017709782347083092
20.0,0.016710573807358742
22.0,0.015820205211639404
24.0,0.014951245859265327
26.0,0.014178672805428505
28.0,0.013485969044268131
30.0,0.012881798669695854
32.0,0.012369408272206783
36.0,0.011573168449103832
40.0,0.011038932017982006
44.0,0.010441462509334087
48.0,0.009792196564376354
52.0,0.009134972468018532
56.0,0.008605790324509144
60.0,0.008182047866284847
64.0,0.007912338711321354
72.0,0.007540022488683462
80.0,0.006783657241612673
88.0,0.0062034400179982185
96.0,0.0058111706748604774
104.0,0.005453619174659252
112.0,0.005073275417089462
120.0,0.005109167657792568
128.0,0.004916333593428135
144.0,0.00485477177426219
160.0,0.004914572928100824
176.0,0.004880380351096392
192.0,0.003991035744547844
208.0,0.002781262621283531
224.0,0.0023777487222105265
240.0,0.0012863834854215384
256.0,-0.0003258887736592442
288.0,-0.0018230685964226723
320.0,-0.0023919069208204746
352.0,-0.0030624784994870424
384.0,-0.001886989688500762
416.0,-0.002207038691267371
448.0,-0.002670766320079565
480.0,-0.0024185050278902054
512.0,-0.003072284394875169
576.0,-0.0010867113014683127
640.0,0.0012344736605882645
704.0,0.001734202727675438
768.0,0.0015033931704238057
832.0,0.0022420845925807953
896.0,0.000995757756754756
960.0,-0.0002134126116288826
1024.0,0.00029462791280820966
1152.0,-0.0014933138154447079
1280.0,-0.0007839975878596306
1408.0,0.0009550211252644658
1536.0,-0.0011469192104414105
1664.0,-0.0009814859367907047
1792.0,-0.0011493619531393051
1920.0,-0.0005035916692577302
2048.0,-0.0006607590476050973
2304.0,-0.0013698659604415298
2560.0,-0.00025657194782979786
2816.0,0.0011484661372378469
3072.0,0.0003734933852683753
3328.0,-0.002323075430467725
3584.0,-0.000388098182156682
3840.0,0.0022442834451794624
4096.0,-0.0009827815229073167
4608.0,6.5709668888302986e-06
5120.0,0.00032374379225075245
5632.0,-0.0018663814989849925
6144.0,-0.00031628712895326316
6656.0,7.940804061945528e-05
7168.0,-0.003332344349473715
7680.0,0.0012436122633516788
8192.0,-0.003945114556699991
end
