version,3.0
numOfCh,1
type,point
parent_name,484af_0dot4-0dot1
ch_type,1_1
kcount,1
numberNandB,1
brightnessNandB,1
carpet pos,0
pc,0
Time (ms),CH1 Auto-Correlation
1.0,0.027812907472252846
2.0,0.026785895228385925
3.0,0.025805894285440445
4.0,0.024876266717910767
5.0,0.024005286395549774
6.0,0.02318887785077095
7.0,0.02241409942507744
8.0,0.021689696237444878
9.0,0.021004067733883858
10.0,0.02033543400466442
11.0,0.019687296822667122
12.0,0.019062990322709084
13.0,0.01844441518187523
14.0,0.017826657742261887
15.0,0.017255961894989014
16.0,0.016713842749595642
18.0,0.015661295503377914
20.0,0.01466223131865263
22.0,0.013720262795686722
24.0,0.012811562046408653
26.0,0.012044984847307205
28.0,0.01132890209555626
30.0,0.010699138976633549
32.0,0.010078475810587406
36.0,0.008980597369372845
40.0,0.008098423480987549
44.0,0.0073177325539290905
48.0,0.006616611499339342
52.0,0.006043707951903343
56.0,0.005662461742758751
60.0,0.005258261691778898
64.0,0.004887058399617672
72.0,0.004456864669919014
80.0,0.004074627533555031
88.0,0.004048298113048077
96.0,0.004212432540953159
104.0,0.004434951115399599
112.0,0.004422179888933897
120.0,0.00427019689232111
128.0,0.003998854663223028
144.0,0.0038017781917005777
160.0,0.003673989325761795
176.0,0.004126299172639847
192.0,0.00407560495659709
208.0,0.0037104752846062183
224.0,0.003170906798914075
240.0,0.003385877935215831
256.0,0.004103376995772123
288.0,0.0038090073503553867
320.0,0.003304615616798401
352.0,0.002954270225018263
384.0,0.0032663042657077312
416.0,0.003135444363579154
448.0,0.003002794226631522
480.0,0.003253116738051176
512.0,0.0027759745717048645
576.0,0.0012105415808036923
640.0,0.001821282785385847
704.0,0.002573600271716714
768.0,0.0006753630586899817
832.0,-0.0002698858443181962
896.0,-0.0008856982458382845
960.0,0.001849793829023838
1024.0,0.0004794056876562536
1152.0,0.0008312754798680544
1280.0,0.0010813712142407894
1408.0,0.0009847406763583422
1536.0,2.1258576452964917e-05
1664.0,0.0008184393518604338
1792.0,0.0016259821131825447
1920.0,0.0018053014064207673
2048.0,0.0018152986885979772
2304.0,0.0030231343116611242
2560.0,0.0025791507214307785
2816.0,0.0017689538653939962
3072.0,0.0016204272396862507
3328.0,0.0003300183161627501
3584.0,-0.0007650402840226889
3840.0,-0.0007772328099235892
4096.0,-0.001621115836314857
4608.0,-0.00023351050913333893
5120.0,-0.0009534809505566955
5632.0,-0.0017391536384820938
6144.0,-0.0012755132047459483
6656.0,-0.0023876745253801346
7168.0,-0.0024373438209295273
7680.0,-0.0023402213118970394
8192.0,-0.0013195318169891834
end
