version,3.0
numOfCh,1
type,point
parent_name,484af_0dot4-0dot1
ch_type,1_1
kcount,1
numberNandB,1
brightnessNandB,1
carpet pos,0
pc,0
Time (ms),CH1 Auto-Correlation
1.0,0.03505687788128853
2.0,0.03398352116346359
3.0,0.03296336904168129
4.0,0.0320204459130764
5.0,0.031129218637943268
6.0,0.030290113762021065
7.0,0.029496125876903534
8.0,0.028758153319358826
9.0,0.028049657121300697
10.0,0.027390843257308006
11.0,0.026780935004353523
12.0,0.02622058056294918
13.0,0.02565944381058216
14.0,0.025099676102399826
15.0,0.02455468662083149
16.0,0.024051658809185028
18.0,0.023084497079253197
20.0,0.022160638123750687
22.0,0.02133026532828808
24.0,0.020507246255874634
26.0,0.01970832608640194
28.0,0.019036032259464264
30.0,0.018416978418827057
32.0,0.01789255067706108
36.0,0.016964087262749672
40.0,0.016079390421509743
44.0,0.015379286371171474
48.0,0.014818531461060047
52.0,0.0141947316005826
56.0,0.013619371689856052
60.0,0.013035496696829796
64.0,0.012602191418409348
72.0,0.011886638589203358
80.0,0.011119109578430653
88.0,0.010307829827070236
96.0,0.009511378593742847
104.0,0.008565076626837254
112.0,0.00761965150013566
120.0,0.007027786690741777
128.0,0.006526460871100426
144.0,0.005277360789477825
160.0,0.0043600574135780334
176.0,0.003929619677364826
192.0,0.002967222360894084
208.0,0.002143331803381443
224.0,0.0014047735603526235
240.0,0.0016789063811302185
256.0,0.001887620659545064
288.0,0.0012705129338428378
320.0,0.0009080012678168714
352.0,0.002085489220917225
384.0,0.0029988600872457027
416.0,0.0020646664779633284
448.0,0.0024254745803773403
480.0,0.002355539705604315
512.0,0.001863711280748248
576.0,0.000567516777664423
640.0,-0.000404014514060691
704.0,0.0004630505864042789
768.0,0.0010847683297470212
832.0,0.002095561008900404
896.0,0.002692912006750703
960.0,0.0014360561035573483
1024.0,-0.0014018523506820202
1152.0,-0.0030614109709858894
1280.0,-0.0017944563878700137
1408.0,-0.000696603674441576
1536.0,-0.0014811719302088022
1664.0,-0.0022005196660757065
1792.0,-0.001775832730345428
1920.0,4.959955549566075e-05
2048.0,0.0013677526731044054
2304.0,7.717694097664207e-05
2560.0,-0.0009001930593512952
2816.0,0.0006100430618971586
3072.0,-0.000908541027456522
3328.0,0.00020637284615077078
3584.0,0.0006404041778296232
3840.0,0.0010115244658663869
4096.0,0.002049374859780073
4608.0,0.000378248980268836
5120.0,-0.00012583652278408408
5632.0,0.0005347129190340638
6144.0,0.001586166094057262
6656.0,-0.0028179956134408712
7168.0,-0.0031219860538840294
7680.0,-0.004605674184858799
8192.0,-0.0008821781375445426
end
