version,3.0
numOfCh,1
type,point
parent_name,484af_0dot4-0dot1
ch_type,1_1
kcount,1
numberNandB,1
brightnessNandB,1
carpet pos,0
pc,0
Time (ms),CH1 Auto-Correlation
1.0,0.0307324081659317
2.0,0.029689250513911247
3.0,0.02874433621764183
4.0,0.027851684018969536
5.0,0.02700825035572052
6.0,0.026189245283603668
7.0,0.025439715012907982
8.0,0.024742882698774338
9.0,0.02409846894443035
10.0,0.023507623001933098
11.0,0.02296033687889576
12.0,0.022418977692723274
13.0,0.021903658285737038
14.0,0.02144218049943447
15.0,0.02101566269993782
16.0,0.020595567300915718
18.0,0.019868355244398117
20.0,0.0191443283110857
22.0,0.018447982147336006
24.0,0.01776135340332985
26.0,0.01719021238386631
28.0,0.016620511189103127
30.0,0.016064345836639404
32.0,0.015592498704791069
36.0,0.0147105623036623
40.0,0.013826029375195503
44.0,0.013057499192655087
48.0,0.012381201609969139
52.0,0.011812028475105762
56.0,0.011220654472708702
60.0,0.010607819072902203
64.0,0.00995188020169735
72.0,0.009230460040271282
80.0,0.00886808056384325
88.0,0.00836088601499796
96.0,0.007873814553022385
104.0,0.0075163692235946655
112.0,0.007079046685248613
120.0,0.006674851290881634
128.0,0.0063222553580999374
144.0,0.005918874405324459
160.0,0.005283513572067022
176.0,0.004445828963071108
192.0,0.0039952280931174755
208.0,0.0038192446809262037
224.0,0.0033876763191074133
240.0,0.002936155768111348
256.0,0.0025805504992604256
288.0,0.00273080519400537
320.0,0.002828063676133752
352.0,0.0022332363296300173
384.0,0.0016042296774685383
416.0,0.0012274921173229814
448.0,0.0012181282509118319
480.0,0.0007178933010436594
512.0,0.0010623747948557138
576.0,0.0023595932871103287
640.0,0.0015559324529021978
704.0,0.0009507532813586295
768.0,0.00114734610542655
832.0,0.0022204190026968718
896.0,0.0014359442284330726
960.0,0.0014215382980182767
1024.0,0.00016528874402865767
1152.0,-0.0008645556517876685
1280.0,-0.00149519182741642
1408.0,-0.0006380656850524247
1536.0,-0.0014048758894205093
1664.0,-0.001993199111893773
1792.0,-0.0007624740246683359
1920.0,-0.00040913105476647615
2048.0,-0.001751543371938169
2304.0,-2.094443334499374e-05
2560.0,-0.0011816851329058409
2816.0,-0.0027989158406853676
3072.0,-0.0028179921209812164
3328.0,-0.000263055699178949
3584.0,4.0791484934743494e-05
3840.0,0.0015238687628880143
4096.0,0.001352111459709704
4608.0,0.0015831281198188663
5120.0,0.0003120971960015595
5632.0,-0.0007279589190147817
6144.0,-0.0023332517594099045
6656.0,-0.000671920133754611
7168.0,-0.002334470860660076
7680.0,-0.0011449612211436033
8192.0,-0.002340344013646245
end
