version,3.0
numOfCh,1
type,point
parent_name,mod-filtering
ch_type,1_1
kcount,1
numberNandB,1
brightnessNandB,1
carpet pos,0
pc,0
Time (ms),CH1 Auto-Correlation
1.0,0.04438094536839832
2.0,0.04330744308747492
3.0,0.04223281748612173
4.0,0.041244713814113654
5.0,0.040052950804608356
6.0,0.03927813947759051
7.0,0.03864872385064455
8.0,0.038101484576458455
9.0,0.03740950901794804
10.0,0.036851724379360684
11.0,0.036170377547931176
12.0,0.03566122670284333
13.0,0.03516268047137494
14.0,0.034938617702766406
15.0,0.034618991298466684
16.0,0.03433175338770722
18.0,0.03352867726257247
20.0,0.03302788697657855
22.0,0.03236229323155326
24.0,0.031620529047103885
26.0,0.030917924085650972
28.0,0.03047255666796911
30.0,0.030338327039623803
32.0,0.030049835978773753
36.0,0.028925871540517623
40.0,0.02786318531006149
44.0,0.0274515680237859
48.0,0.027318854402177184
52.0,0.02685248268956153
56.0,0.02586345671424617
60.0,0.024405151456716068
64.0,0.023118065126280563
72.0,0.022490261514381382
80.0,0.022446270116946998
88.0,0.021606523277154954
96.0,0.020642339769091578
104.0,0.01988199317703976
112.0,0.01904493538071117
120.0,0.018421529133645587
128.0,0.01798733589174706
144.0,0.017469388610879433
160.0,0.01682239831492316
176.0,0.016083289814802226
192.0,0.01719312624138647
208.0,0.01840996528833605
224.0,0.01799430537302671
240.0,0.016908079556863465
256.0,0.01626483011701718
288.0,0.016889438270027313
320.0,0.018826143762531
352.0,0.019626574259071772
384.0,0.02244212163898096
416.0,0.026421905944888024
448.0,0.02828417531084404
480.0,0.02705422361185006
512.0,0.024308541683913054
576.0,0.020816749780481425
640.0,0.021225182404278398
704.0,0.01922422788931777
768.0,0.019688836022848655
832.0,0.021517440626660944
896.0,0.018666342185929885
960.0,0.017963022077924773
1024.0,0.02341289297493332
1152.0,0.024992126405313675
1280.0,0.018605514110725307
1408.0,0.016817039465319983
1536.0,0.012828902172714596
1664.0,0.009107343913469457
1792.0,0.004297309292859763
1920.0,0.008869700025661231
2048.0,0.011619626313597253
2304.0,0.02300793463232198
2560.0,0.03052547746249834
2816.0,0.024950043672586464
3072.0,0.0073567336320889964
3328.0,-0.006091627991575588
3584.0,-0.017500674328618793
3840.0,0.00786788251511461
4096.0,0.017235203337976346
4608.0,0.0025334968818988557
5120.0,-0.020849820919985995
5632.0,-0.008444772117770838
6144.0,-0.028002472741740614
6656.0,-0.02887079789460223
7168.0,-0.023970968169476192
7680.0,-0.03968325036963316
8192.0,-0.03393803362296721
9216.0,-0.01982597935534569
10240.0,-0.005088116765521233
11264.0,0.009565009044389283
12288.0,0.0054652083424775455
13312.0,0.034228697188478874
14336.0,0.048787025050416766
end
