version,3.0
numOfCh,1
type,point
parent_name,mod-filtering
ch_type,1_1
kcount,1
numberNandB,1
brightnessNandB,1
carpet pos,0
pc,0
Time (ms),CH1 Auto-Correlation
1.0,0.031394241015973545
2.0,0.031067643491741848
3.0,0.030975123415048822
4.0,0.030805604773177064
5.0,0.030661041862049654
6.0,0.030531844713884926
7.0,0.030350148998531168
8.0,0.030182297267525415
9.0,0.030128867965122375
10.0,0.0299954412591652
11.0,0.02978355373616215
12.0,0.029657483320225442
13.0,0.029538964763766495
14.0,0.029442860528338555
15.0,0.029369981937015233
16.0,0.02927190680486591
18.0,0.029110735275748256
20.0,0.02881453170648962
22.0,0.028584434140391135
24.0,0.028350694939501597
26.0,0.02810756301627615
28.0,0.027904640394381452
30.0,0.027672783043031668
32.0,0.027472142235201558
36.0,0.027038948702767573
40.0,0.026566647143127176
44.0,0.025995403146015672
48.0,0.02551658399213763
52.0,0.02505531004423056
56.0,0.024642517338118397
60.0,0.02428291283342565
64.0,0.02380921887028009
72.0,0.022993893121613596
80.0,0.022272675640921946
88.0,0.021811140349850433
96.0,0.021550390856408974
104.0,0.021508832879608475
112.0,0.021453734326213114
120.0,0.021311210979147788
128.0,0.021088818209954896
144.0,0.020654501382848967
160.0,0.020299854972509745
176.0,0.020409577644006527
192.0,0.020792992755440443
208.0,0.02130919919495966
224.0,0.02157682442387432
240.0,0.02145752790572497
256.0,0.02118598101601643
288.0,0.02013884253108711
320.0,0.01867264601241514
352.0,0.01739350183441557
384.0,0.015516518307404192
416.0,0.01300336707171601
448.0,0.010736932776700847
480.0,0.009953592750845619
512.0,0.0076109647173698836
576.0,0.0019981512161497683
640.0,-0.0016507942403106712
704.0,-0.004468131811671383
768.0,-0.0064749626176964226
832.0,-0.0092653658321592
896.0,-0.012442207764337021
960.0,-0.01960183515756897
1024.0,-0.023920714087178552
1152.0,-0.02742338349286244
1280.0,-0.03228878643071953
1408.0,-0.03864493771123745
1536.0,-0.0405461403052676
1664.0,-0.03637443613893565
1792.0,-0.03341634061804499
1920.0,-0.024083167988812493
2048.0,-0.016229949443901326
2304.0,-0.005110769628700829
2560.0,0.007392816376654343
2816.0,0.019597959000922538
3072.0,0.02938523909547963
3328.0,0.0302041476743673
3584.0,0.019897164388122057
3840.0,0.01708076351372889
4096.0,0.006062902783976032
4608.0,-0.014542739842115848
5120.0,-0.023473651857564448
5632.0,-0.0037520133287618496
6144.0,0.013752399614163968
6656.0,0.05237216846769255
7168.0,0.03322173148391272
7680.0,0.012546132115848874
8192.0,-0.0270039815162586
9216.0,-0.007630818646104376
10240.0,0.002684595623367425
11264.0,-0.03694672129584908
12288.0,0.01061746130090846
13312.0,-0.008057355671271749
14336.0,0.005826485912763024
end
