version,3.0
numOfCh,1
type,point
parent_name,mod-filtering
ch_type,1_1
kcount,1
numberNandB,1
brightnessNandB,1
carpet pos,0
pc,0
Time (ms),CH1 Auto-Correlation
1.0,0.08276840679984176
2.0,0.07952807656430494
3.0,0.07675183782213746
4.0,0.0745974233330362
5.0,0.07242037439909543
6.0,0.0711154704032737
7.0,0.07007623458658552
8.0,0.0692273232832441
9.0,0.06725872012535405
10.0,0.06494565305757938
11.0,0.065075004606441
12.0,0.06393173734643165
13.0,0.06355010575914499
14.0,0.06304215822112136
15.0,0.06203894143471089
16.0,0.06115921936282165
18.0,0.06038903694806241
20.0,0.060279490268549285
22.0,0.05910491743713253
24.0,0.057802576759758084
26.0,0.0557422468618296
28.0,0.05434631464783868
30.0,0.05300620903297393
32.0,0.05149194462275375
36.0,0.049578750381308545
40.0,0.04820461998771397
44.0,0.045833713585402114
48.0,0.04350997555659908
52.0,0.0410185580155471
56.0,0.03869589270605589
60.0,0.037124719366722125
64.0,0.03544757481456906
72.0,0.03106250883742878
80.0,0.02703538042334319
88.0,0.023466893379602727
96.0,0.02164981411686262
104.0,0.020310534318902507
112.0,0.01803120488103649
120.0,0.01704033195731358
128.0,0.014831780415786255
144.0,0.009760941197387796
160.0,0.006936400286345901
176.0,0.004007318139714666
192.0,0.0020092035665644215
208.0,-0.0006091249636128726
224.0,-0.000733872480659592
240.0,0.0011763500830104245
256.0,0.0033646919344285653
288.0,0.0018377144706402948
320.0,-0.003413812347595413
352.0,-0.007989181776508314
384.0,-0.00883977776438527
416.0,-0.011345686351079465
448.0,-0.013886981151451705
480.0,-0.01790278976871762
512.0,-0.017096829043708905
576.0,-0.012374854633313892
640.0,-0.02112800079289756
704.0,-0.027419275694197998
768.0,-0.027308480135258884
832.0,-0.020341203069496938
896.0,-0.02302846101451561
960.0,-0.020565717249838023
1024.0,-0.02176445204728017
1152.0,-0.019360969542894346
1280.0,-0.02149867072382894
1408.0,-0.01536292467818845
1536.0,-0.027713042503764496
1664.0,-0.03511872784753445
1792.0,-0.05092917450092571
1920.0,-0.0361041779162804
2048.0,-0.025577367461434797
2304.0,-0.019130197953641126
2560.0,0.005585913026972422
2816.0,0.002113231662438819
3072.0,-0.000949968011652369
3328.0,-0.003076510433498325
3584.0,-0.008897158485512313
3840.0,-0.035141839716952505
4096.0,-0.054592504238951234
4608.0,-0.05700647949573778
5120.0,-0.027739191689970633
5632.0,-0.006317387153617404
6144.0,0.010553512049331193
6656.0,0.01248025501370953
7168.0,0.007227001714702697
7680.0,0.033175912869527036
8192.0,0.05515902705604425
9216.0,0.059222948105243534
10240.0,0.009777233962384946
11264.0,0.016441892114288592
12288.0,0.09296445021169242
13312.0,0.017560708577229134
14336.0,-0.02327801169457422
end
