version,3.0
numOfCh,1
type,point
parent_name,mod-filtering
ch_type,1_1
kcount,1
numberNandB,1
brightnessNandB,1
carpet pos,0
pc,0
Time (ms),CH1 Auto-Correlation
1.0,0.07965548376918807
2.0,0.07772784765880414
3.0,0.0768815266496723
4.0,0.07524849727495653
5.0,0.07410322958219795
6.0,0.07317477822340313
7.0,0.0727163440473173
8.0,0.0715771554319824
9.0,0.07057802546796887
10.0,0.07000206453324642
11.0,0.06914168898304696
12.0,0.06831401134499737
13.0,0.0676508217526739
14.0,0.06720462913601022
15.0,0.06690477392021421
16.0,0.06589788360504456
18.0,0.06567615589514775
20.0,0.065970638776915
22.0,0.06635031917784562
24.0,0.06612988762086003
26.0,0.06571626064278768
28.0,0.0652061510535753
30.0,0.06484028642253103
32.0,0.06418118269458084
36.0,0.06277230492359132
40.0,0.061655602726695014
44.0,0.0608244369362867
48.0,0.05958073772832062
52.0,0.05807589144462577
56.0,0.056335751538744816
60.0,0.05505564991377332
64.0,0.05484038634132293
72.0,0.05419557125236363
80.0,0.05373953715939006
88.0,0.05179044418929357
96.0,0.05052347945964386
104.0,0.04867796527262391
112.0,0.04784651346492841
120.0,0.04626089347256679
128.0,0.04570198068047926
144.0,0.041914325947055575
160.0,0.035763075596252136
176.0,0.03181277286005946
192.0,0.029805378070650645
208.0,0.025773795650746223
224.0,0.025350996770340695
240.0,0.023943957465841548
256.0,0.02114118907948237
288.0,0.016954394278889673
320.0,0.012910806988013945
352.0,0.010864407679641142
384.0,0.009115795286074091
416.0,0.006588662568261849
448.0,0.0023512058751467
480.0,-0.0005336953940565659
512.0,-0.003289595123011857
576.0,-0.006687108597366653
640.0,-0.011739010154203755
704.0,-0.010016947294104517
768.0,-0.006787888470768388
832.0,-0.005022531675236697
896.0,-0.0059539470521149385
960.0,0.00020869526675237893
1024.0,0.006666402260928628
1152.0,0.003668132667163926
1280.0,-0.00198098751886433
1408.0,-0.0054559211436326915
1536.0,-0.008979255150576959
1664.0,-0.016826271712558794
1792.0,-0.01594816229293816
1920.0,-0.013583353172871515
2048.0,-0.01045325186271262
2304.0,0.00017719695956053272
2560.0,-0.00540179921813011
2816.0,0.0008486988703297893
3072.0,-0.003610521058103777
3328.0,-0.005336631269493131
3584.0,0.002539715194155079
3840.0,0.018680308814506663
4096.0,0.024385361419153373
4608.0,-0.012290367549132708
5120.0,0.013640666917345667
5632.0,-0.01003040002249167
6144.0,0.009677178593369806
6656.0,-0.011125716631953164
7168.0,0.0044732289257851665
7680.0,-0.007820550960826123
8192.0,-0.008049083036673954
9216.0,-0.014401085005506187
10240.0,-0.00209760638812051
11264.0,0.009762357198908056
12288.0,0.00182433901616319
13312.0,-0.017183254691252037
14336.0,-0.01855001639654219
end
