version,3.0
numOfCh,1
type,point
parent_name,mod-filtering
ch_type,1_1
kcount,1
numberNandB,1
brightnessNandB,1
carpet pos,0
pc,0
Time (ms),CH1 Auto-Correlation
1.0,0.10111131396785211
2.0,0.09898728187302219
3.0,0.09734063216155842
4.0,0.09693510692121943
5.0,0.09654572404335804
6.0,0.09607439476972468
7.0,0.09527137210896242
8.0,0.09380227073283676
9.0,0.09292396966210958
10.0,0.09213964298635591
11.0,0.09206673686205691
12.0,0.09253065808689054
13.0,0.09245456785524686
14.0,0.09244934913915936
15.0,0.09221812351207492
16.0,0.09174745138260176
18.0,0.0915264141227603
20.0,0.09112744197711375
22.0,0.09020608653649931
24.0,0.08939690273791134
26.0,0.08866162761484087
28.0,0.0877094669647076
30.0,0.08700779241621759
32.0,0.0866386085094435
36.0,0.0856567548730276
40.0,0.08448968731037043
44.0,0.08346872952808626
48.0,0.08277651144260156
52.0,0.08204833350622631
56.0,0.0816427701949527
60.0,0.08080002642123385
64.0,0.080107331064873
72.0,0.07879672688593664
80.0,0.07762461926824882
88.0,0.07636635321723229
96.0,0.07510981026044106
104.0,0.07363262713252006
112.0,0.07215416840182964
120.0,0.07067133637205258
128.0,0.06899287208170213
144.0,0.06730786269344113
160.0,0.06644965129021707
176.0,0.06523693813937759
192.0,0.061981236914882665
208.0,0.05916411281766387
224.0,0.057202899827130116
240.0,0.056319897382395956
256.0,0.055946335796157154
288.0,0.05422322179770367
320.0,0.05046361896753582
352.0,0.04587687499540505
384.0,0.043763732018429646
416.0,0.04028630763336638
448.0,0.0377172298496391
480.0,0.03902974287993777
512.0,0.041808582885249024
576.0,0.0391482643622072
640.0,0.03429512171918736
704.0,0.03539178802914389
768.0,0.029364188769808175
832.0,0.021167383802443096
896.0,0.018970339139043668
960.0,0.015595293781335062
1024.0,0.007749199647942406
1152.0,-0.01835447286104508
1280.0,-0.029969065312496324
1408.0,-0.03626289816015171
1536.0,-0.03781544850302243
1664.0,-0.03468182446257129
1792.0,-0.03404184115134545
1920.0,-0.03338593907827225
2048.0,-0.011210514754561252
2304.0,0.028172451778225582
2560.0,0.05184899281525279
2816.0,0.054909351936305306
3072.0,0.05232786148725399
3328.0,0.02200788175039259
3584.0,-0.008396133739660416
3840.0,-0.017540031283661106
4096.0,-0.028622195677658002
4608.0,-0.022670567294775235
5120.0,-0.008196526364055767
5632.0,0.017269393215659345
6144.0,-0.02128308578394067
6656.0,-0.03057548642146901
7168.0,-0.02643795925762027
7680.0,-0.034732525627863886
8192.0,-0.022718266077919602
9216.0,-0.015442011254566235
10240.0,-0.02744455647287669
11264.0,-0.007619080850329585
12288.0,0.07065881695038634
13312.0,-0.023698118145537905
14336.0,-0.019357794682966722
end
