version,3.0
numOfCh,1
type,point
parent_name,mod-filtering
ch_type,1_1
kcount,1
numberNandB,1
brightnessNandB,1
carpet pos,0
pc,0
Time (ms),CH1 Auto-Correlation
1.0,0.07630420904992663
2.0,0.07496774645295035
3.0,0.07380005903562048
4.0,0.07318970405216718
5.0,0.07204112178931465
6.0,0.07098628291070619
7.0,0.07004157154965895
8.0,0.06923258881614203
9.0,0.06848330272201397
10.0,0.06772048478028725
11.0,0.06730240482219707
12.0,0.0666390458927848
13.0,0.06612258022701578
14.0,0.06537741919197426
15.0,0.06503937997279663
16.0,0.06471293862933813
18.0,0.0642874728579419
20.0,0.0635759137166414
22.0,0.06301333043902457
24.0,0.06255271655476968
26.0,0.06186440946258909
28.0,0.06117978150810455
30.0,0.060528516893955775
32.0,0.05984733144118226
36.0,0.05854048149605462
40.0,0.056684550580275106
44.0,0.05523121968579292
48.0,0.05357854993508626
52.0,0.051856057551585844
56.0,0.050364199482792804
60.0,0.048827266865661745
64.0,0.04716731645057326
72.0,0.04481914790349517
80.0,0.04253432418103342
88.0,0.03972195780959975
96.0,0.037136124377477264
104.0,0.035293183275469264
112.0,0.033337542160480016
120.0,0.03183459481448225
128.0,0.030526687129663
144.0,0.027389850911090807
160.0,0.02421410249927769
176.0,0.02252885212351119
192.0,0.020330924486258617
208.0,0.018953415945990315
224.0,0.01786952579193124
240.0,0.015792847633997464
256.0,0.013149911486966426
288.0,0.010650396182231292
320.0,0.012265429506309156
352.0,0.014004923266272229
384.0,0.011579844201112577
416.0,0.006542498999119184
448.0,0.0024831654388943747
480.0,0.002873869618270408
512.0,0.002411926396816755
576.0,0.002133516584191142
640.0,0.0017332775195744166
704.0,0.0023616315335466265
768.0,0.0009544998898340928
832.0,0.003825562308616748
896.0,0.009595514707170905
960.0,0.017819707445030808
1024.0,0.020084362671698885
1152.0,0.016296944197363716
1280.0,0.013089326432614179
1408.0,0.012076416022983372
1536.0,0.011273809173862004
1664.0,0.005007495740726897
1792.0,0.00747439773429992
1920.0,0.01796570132828168
2048.0,0.02126281182608447
2304.0,0.024815925214447532
2560.0,0.01827981200532025
2816.0,0.013173414441607578
3072.0,0.0020299440309607952
3328.0,-0.007202672804022869
3584.0,-0.002450204049167848
3840.0,-0.004057026671293262
4096.0,-0.02992529626222329
4608.0,-0.039113868097963134
5120.0,-0.016500612062600784
5632.0,0.019429127174259708
6144.0,0.006639246872149229
6656.0,0.01307189645779161
7168.0,0.01700053824920822
7680.0,0.012431096064046798
8192.0,0.006540092242282247
9216.0,-0.028973394535865782
10240.0,-0.028976910362387587
11264.0,-0.02152752391743984
12288.0,-0.00192295403430498
13312.0,0.0022781476742930185
14336.0,-0.0012567038014176246
end
