version,3.0
numOfCh,1
type,point
parent_name,mod-filtering
ch_type,1_1
kcount,1
numberNandB,1
brightnessNandB,1
carpet pos,0
pc,0
Time (ms),CH1 Auto-Correlation
1.0,0.017822791684424466
2.0,0.017167424924922292
3.0,0.016840828722763712
4.0,0.016450635109302336
5.0,0.016029519209425303
6.0,0.015620828380965568
7.0,0.01532828095445371
8.0,0.015073630728011045
9.0,0.014768581255960367
10.0,0.0144620185113713
11.0,0.014101578663360037
12.0,0.013854224626791423
13.0,0.013554920595141962
14.0,0.01319126115464142
15.0,0.012886703840042424
16.0,0.012662516057097895
18.0,0.012138882228872827
20.0,0.011559173239348075
22.0,0.01101410269097558
24.0,0.010515296166633048
26.0,0.010123774539121833
28.0,0.009763470985826528
30.0,0.009337131731662618
32.0,0.008921965085896932
36.0,0.008171198267497903
40.0,0.007523197314262209
44.0,0.006724705439204559
48.0,0.00600661268588687
52.0,0.005297579412482989
56.0,0.004663387127608942
60.0,0.004026309838008224
64.0,0.0034683869215004215
72.0,0.002300755719638392
80.0,0.0011218074811485401
88.0,0.00021569644366969953
96.0,-0.0007145555091283562
104.0,-0.0017017005928582352
112.0,-0.0028976316449652595
120.0,-0.004315373328951155
128.0,-0.00546750433844978
144.0,-0.007687959602127981
160.0,-0.009711417038974823
176.0,-0.011539154783480443
192.0,-0.013248463030769764
208.0,-0.015113960196187715
224.0,-0.01624888526374957
240.0,-0.016878905995591498
256.0,-0.01700270899808054
288.0,-0.015822819758247286
320.0,-0.01626146107451154
352.0,-0.016950281360718633
384.0,-0.01713697608218756
416.0,-0.018133720238795226
448.0,-0.018539963225285616
480.0,-0.019791143366828856
512.0,-0.02096964583094807
576.0,-0.022031945929927632
640.0,-0.01834119449485605
704.0,-0.014974037501126136
768.0,-0.016297706584537663
832.0,-0.019030286377988093
896.0,-0.022351396999664597
960.0,-0.021647783674774046
1024.0,-0.021228127515485973
1152.0,-0.026838105115313815
1280.0,-0.03147531912152035
1408.0,-0.026404239022107534
1536.0,-0.025211234046263686
1664.0,-0.026658980393777454
1792.0,-0.024424315197598245
1920.0,-0.024643510988981432
2048.0,-0.02147014412496928
2304.0,-0.025577478149773958
2560.0,-0.020495025234021025
2816.0,-0.008227911723269643
3072.0,0.003997472538801006
3328.0,0.01071469596629293
3584.0,0.017263533843310697
3840.0,0.007571458387544583
4096.0,0.02417071867575582
4608.0,0.041028218473757816
5120.0,0.04025316588094552
5632.0,0.05597822363081306
6144.0,0.05952378039402095
6656.0,0.03486697132177241
7168.0,0.045442291753783115
7680.0,0.042266362955975856
8192.0,0.017500247005576952
9216.0,-0.010422039899062208
10240.0,-0.05490179346015145
11264.0,-0.06546571819385871
12288.0,-0.0045380850666209005
13312.0,0.012110925104513282
14336.0,0.07336454817554872
end
