version,3.0
numOfCh,1
type,point
parent_name,mod-filtering
ch_type,1_1
kcount,1
numberNandB,1
brightnessNandB,1
carpet pos,0
pc,0
Time (ms),CH1 Auto-Correlation
1.0,0.0695294942743776
2.0,0.06890714917855068
3.0,0.0687111397175344
4.0,0.06843974044297618
5.0,0.06808599933105985
6.0,0.06757391202628882
7.0,0.06703697021184496
8.0,0.06652543518217624
9.0,0.06619921819054064
10.0,0.06583812080338336
11.0,0.06536696714966861
12.0,0.06501630299669348
13.0,0.06457926258897762
14.0,0.0640881299434346
15.0,0.06351931972744351
16.0,0.06311144936827273
18.0,0.06224360559245867
20.0,0.061190638176377155
22.0,0.060385148908816744
24.0,0.05966254128760995
26.0,0.059074228138332074
28.0,0.05844031505984448
30.0,0.0577504874653072
32.0,0.05729506859212696
36.0,0.05610047170549359
40.0,0.05467051165455983
44.0,0.053359136659176354
48.0,0.052253227047504014
52.0,0.05147654152226866
56.0,0.051151875582658324
60.0,0.050925871744904594
64.0,0.050507020411650894
72.0,0.04939693824549751
80.0,0.048936305635987276
88.0,0.048412624396703574
96.0,0.047376255636954356
104.0,0.04665873788017971
112.0,0.04593622278944842
120.0,0.04571501308796533
128.0,0.045104788603592905
144.0,0.04340307840131108
160.0,0.04108343488573696
176.0,0.03800920027244392
192.0,0.035906931838840306
208.0,0.03410854462787194
224.0,0.03194678355570302
240.0,0.0309052169172217
256.0,0.029930665980117066
288.0,0.027269736536803313
320.0,0.02340146702675794
352.0,0.019494076959638562
384.0,0.017700300703692218
416.0,0.019806598819704035
448.0,0.021925108538400462
480.0,0.022192012331618383
512.0,0.02035925312403264
576.0,0.0181014046753023
640.0,0.012952080895974882
704.0,0.0072230455977444485
768.0,0.002808736186580063
832.0,-0.001080434149504872
896.0,-0.0026517501432553603
960.0,-0.003152678735705683
1024.0,-0.004939597086207392
1152.0,-0.008455864627105014
1280.0,-0.007171469032236644
1408.0,-0.012339044550129685
1536.0,-0.011929258404706489
1664.0,-0.00933377026634985
1792.0,-0.005218750946831441
1920.0,-0.008131138771480306
2048.0,-0.012671272011475443
2304.0,-0.025699168198883626
2560.0,-0.02601936898573065
2816.0,-0.021535485159166146
3072.0,-0.02019009698035179
3328.0,-0.013976568672981804
3584.0,-0.0016953972332819367
3840.0,0.007117796092655393
4096.0,0.013705321931517078
4608.0,0.0204154770110192
5120.0,0.014011498562616076
5632.0,0.006924695318897722
6144.0,0.0005783528509419877
6656.0,-0.012713715727439179
7168.0,-0.015874711353569215
7680.0,-0.005459866417687587
8192.0,-0.005701197004431724
9216.0,0.003747758595270767
10240.0,0.003253572132882132
11264.0,0.007714904033954806
12288.0,0.012927815034776025
13312.0,-0.01084310118785925
14336.0,-0.009263345653602317
end
