version,3.0
numOfCh,1
type,point
parent_name,mod-filtering
ch_type,1_1
kcount,1
numberNandB,1
brightnessNandB,1
carpet pos,0
pc,0
Time (ms),CH1 Auto-Correlation
1.0,0.04500245463694075
2.0,0.042441517974261656
3.0,0.04064783504896363
4.0,0.0394192246607874
5.0,0.038605351540803134
6.0,0.03798961531905798
7.0,0.03754484803793945
8.0,0.03686871806081915
9.0,0.03657326355584378
10.0,0.03647439664921737
11.0,0.03625425188256348
12.0,0.0363259053122682
13.0,0.03585946369671378
14.0,0.0354424307501946
15.0,0.034978480589633376
16.0,0.034541106544845546
18.0,0.03454850301219392
20.0,0.03398369613347163
22.0,0.033424607544695784
24.0,0.03263941117021352
26.0,0.032277759581362364
28.0,0.031654270468851164
30.0,0.031241277940773804
32.0,0.03071558763597304
36.0,0.0302141501914579
40.0,0.029205346060971804
44.0,0.028109283614681235
48.0,0.027766321381121672
52.0,0.027553895814620866
56.0,0.027012350209798752
60.0,0.026545449263638554
64.0,0.025718063593942242
72.0,0.023788039877176814
80.0,0.023078696504884144
88.0,0.022341986864041763
96.0,0.02210396764489997
104.0,0.021573878354281817
112.0,0.0224463413522491
120.0,0.023027911473135765
128.0,0.023019278028642676
144.0,0.022201422341339372
160.0,0.020078602615282604
176.0,0.017649325252857118
192.0,0.014966004005051214
208.0,0.01337719983295993
224.0,0.012233592920100733
240.0,0.010914782458147698
256.0,0.007725607287244252
288.0,0.005759837665989753
320.0,0.007564429575400933
352.0,0.007665792084759815
384.0,0.007174674358594313
416.0,0.008423873590267528
448.0,0.0073987618645845465
480.0,0.005829487520901733
512.0,0.0008044854177784444
576.0,0.000824960017588916
640.0,-0.0037620189257766556
704.0,-0.005314475517837591
768.0,-0.004349160703879362
832.0,-0.004100293117936804
896.0,-0.0049773071915998335
960.0,-0.003256427865674816
1024.0,-0.005330809423738092
1152.0,-0.005102879231653645
1280.0,0.007366507123939936
1408.0,0.014625207811719942
1536.0,0.022195723709376836
1664.0,0.024282096192395075
1792.0,0.01753438092542714
1920.0,0.01455044748739609
2048.0,0.011561446021401522
2304.0,-0.008148684836495668
2560.0,-0.023975844223261933
2816.0,0.0005303669145495515
3072.0,0.011593472574678909
3328.0,0.011502560713965382
3584.0,0.017960860743422513
3840.0,0.0028194459362813618
4096.0,-0.014673225031328063
4608.0,-0.005387225883691893
5120.0,-0.01685098615395042
5632.0,-0.022935359867165883
6144.0,-0.011472168231929203
6656.0,0.005863864661528995
7168.0,-0.005805253718521808
7680.0,-0.005320204927047434
8192.0,-0.01053095768186152
9216.0,0.001972632588217893
10240.0,0.03560486950266539
11264.0,-0.014022673167797484
12288.0,0.004773216641969169
13312.0,0.012506393759063927
14336.0,-0.0175911290090085
end
