version,3.0
numOfCh,1
type,point
parent_name,mod-filtering
ch_type,1_1
kcount,1
numberNandB,1
brightnessNandB,1
carpet pos,0
pc,0
Time (ms),CH1 Auto-Correlation
1.0,0.04673783547530297
2.0,0.044798402488086086
3.0,0.04310666144550268
4.0,0.041756934257888734
5.0,0.04059518254088745
6.0,0.039131203720768504
7.0,0.03807251112261545
8.0,0.03737613087982883
9.0,0.03659885945386199
10.0,0.03581210405541446
11.0,0.035047348816411805
12.0,0.03464262292065201
13.0,0.03425808219207993
14.0,0.03368828387257161
15.0,0.03317356023507578
16.0,0.03255666501802135
18.0,0.03134585807411194
20.0,0.030163017000147452
22.0,0.028872307406418107
24.0,0.027835175021647007
26.0,0.027104423982636572
28.0,0.026268850278476696
30.0,0.02570104595566347
32.0,0.025021975522103057
36.0,0.023181067185064075
40.0,0.021624931970247063
44.0,0.02047241606556449
48.0,0.019273789338098313
52.0,0.017280940900574526
56.0,0.016190280528330492
60.0,0.014812738177723217
64.0,0.013338815547092375
72.0,0.010359213850611004
80.0,0.008101315386596974
88.0,0.007218538376102757
96.0,0.006636523439028208
104.0,0.005748242016539562
112.0,0.0046454478735236115
120.0,0.003581591543252438
128.0,0.0022215146138262476
144.0,0.001949972569182945
160.0,0.0016149704234926787
176.0,0.00037381805995684303
192.0,0.0007149180710908087
208.0,0.002562618770413083
224.0,0.00391529471777452
240.0,0.0029185736499748316
256.0,0.003572353792711258
288.0,0.005959998710652448
320.0,0.007742565936430079
352.0,0.009934633305486162
384.0,0.010067465486308658
416.0,0.011295365217030673
448.0,0.012459615929783396
480.0,0.012935093780783724
512.0,0.010134451678565304
576.0,0.00046938456283363017
640.0,-0.003184286079098153
704.0,-0.004815337811261866
768.0,-0.00842973085186205
832.0,-0.013646302194511684
896.0,-0.016005979242011303
960.0,-0.02141790378691677
1024.0,-0.01795363122461291
1152.0,-0.0033552007762239766
1280.0,-0.008697512991239997
1408.0,-0.002435195327389228
1536.0,-0.002809744177143192
1664.0,0.014259387147812719
1792.0,0.02218882262983457
1920.0,0.0176963012793816
2048.0,0.010638665772800149
2304.0,-0.0062850088872674625
2560.0,-0.005570564671855793
2816.0,0.007812979067836956
3072.0,0.0015994035580859656
3328.0,0.006028392516371106
3584.0,-0.010300514058685817
3840.0,-0.010802333330365843
4096.0,0.00012106244181664394
4608.0,-0.0056807293596352615
5120.0,0.014431348582642611
5632.0,-0.007633681940422465
6144.0,0.006524975073916028
6656.0,-0.012195274664549949
7168.0,0.004110216844210868
7680.0,-0.007441814869811547
8192.0,-0.005099486029810585
9216.0,0.006303509717130007
10240.0,0.0015468077726856766
11264.0,-0.013084051999120883
12288.0,-0.02019147131337462
13312.0,0.014705965493870599
14336.0,0.016771448800345867
end
