version,3.0
numOfCh,1
type,point
parent_name,mod-filtering
ch_type,1_1
kcount,1
numberNandB,1
brightnessNandB,1
carpet pos,0
pc,0
Time (ms),CH1 Auto-Correlation
1.0,0.022302570159922652
2.0,0.021853780852884475
3.0,0.021363466491459926
4.0,0.02096971522439328
5.0,0.02064568341707429
6.0,0.020535162474359492
7.0,0.020166785687492528
8.0,0.019822462892649995
9.0,0.019517512888242106
10.0,0.019242365371669568
11.0,0.01900682147363031
12.0,0.0188244737885932
13.0,0.01864139772925788
14.0,0.01848410300379033
15.0,0.01822065717574617
16.0,0.01795236967956515
18.0,0.01734829433902152
20.0,0.017048407671875765
22.0,0.01655264165347159
24.0,0.01601593801515655
26.0,0.015680670420264997
28.0,0.015156505360392147
30.0,0.014582809528221441
32.0,0.01416760332120659
36.0,0.01365594584954466
40.0,0.013306711475916888
44.0,0.012874513057361092
48.0,0.01243162221532379
52.0,0.011942603870648938
56.0,0.01150020119962103
60.0,0.011016334050079957
64.0,0.010516671936360522
72.0,0.009658283686694746
80.0,0.008843580361503234
88.0,0.00825308898157262
96.0,0.007866459468338416
104.0,0.007179668756157387
112.0,0.006725403404214569
120.0,0.00630272708692714
128.0,0.005884332075648313
144.0,0.005013560974767461
160.0,0.003771874434556066
176.0,0.0027553342194786
192.0,0.0021762251839667623
208.0,0.0016471914140419042
224.0,0.0014353513599225654
240.0,0.0013396278652832994
256.0,0.001277496643635967
288.0,0.0003236144202358737
320.0,-0.000673111890758471
352.0,-0.0016764835504116116
384.0,-0.0025628663533935336
416.0,-0.003202945234375365
448.0,-0.0031724891688484913
480.0,-0.0027776298489763374
512.0,-0.0031037121538732837
576.0,-0.00445054282774926
640.0,-0.007871360581473419
704.0,-0.01154800803524847
768.0,-0.011483339155576422
832.0,-0.009301730480857029
896.0,-0.009600242493618016
960.0,-0.010723757100960185
1024.0,-0.010070725847019402
1152.0,-0.013181095370880969
1280.0,-0.019902776209758444
1408.0,-0.022982250138025462
1536.0,-0.0218250515004923
1664.0,-0.018359592045331996
1792.0,-0.01788558537864826
1920.0,-0.01631477402853987
2048.0,-0.013262648269858235
2304.0,-0.013316377462832985
2560.0,-0.014006825086053554
2816.0,-0.00507442376010947
3072.0,0.0018033772491647948
3328.0,0.0021770094921245153
3584.0,0.002287122341460446
3840.0,-5.371661778497128e-06
4096.0,0.003085070490429054
4608.0,0.0003055749190166157
5120.0,-0.00896133458785997
5632.0,0.0031541779933976777
6144.0,0.002000627487086737
6656.0,0.008943610196881613
7168.0,0.005737946321506815
7680.0,0.018402478529748745
8192.0,0.028050484450807822
9216.0,0.000858337026650835
10240.0,-0.01332848149659549
11264.0,0.02096111909604237
12288.0,0.027732207189212765
13312.0,-0.001346418267669458
14336.0,-0.008543983289391544
end
