version,3.0
numOfCh,1
type,point
parent_name,mod-filtering
ch_type,1_1
kcount,1
numberNandB,1
brightnessNandB,1
carpet pos,0
pc,0
Time (ms),CH1 Auto-Correlation
1.0,0.06435139195147155
2.0,0.06301518101323356
3.0,0.061668702488553384
4.0,0.06054242030973689
5.0,0.05965334681603607
6.0,0.05829572886279322
7.0,0.057725788545395895
8.0,0.05709236566850073
9.0,0.05663809695542743
10.0,0.05631238971649766
11.0,0.05566016341673885
12.0,0.05514019609946508
13.0,0.05430138837579479
14.0,0.05370761106350708
15.0,0.05315710747123803
16.0,0.05275574716965492
18.0,0.05207518902495756
20.0,0.05103031616555809
22.0,0.05012061681664726
24.0,0.049326653429645706
26.0,0.048825961928122386
28.0,0.04810362926575129
30.0,0.047121147377735983
32.0,0.04585974541480442
36.0,0.04346886331809863
40.0,0.04159478434051089
44.0,0.03955395538455386
48.0,0.037747073295756994
52.0,0.03609207442545315
56.0,0.03417406846300186
60.0,0.032863609979849606
64.0,0.032175013026858545
72.0,0.03238132500574764
80.0,0.03219788662077039
88.0,0.031747258887422136
96.0,0.030497407168026847
104.0,0.02887259676619225
112.0,0.02687243331126754
120.0,0.02477136163834781
128.0,0.02264597282261316
144.0,0.02017172079668028
160.0,0.020073723962289014
176.0,0.020563822222924077
192.0,0.02188732235539348
208.0,0.021265039701569677
224.0,0.019735907901103467
240.0,0.018382373917527062
256.0,0.016227119074084362
288.0,0.014377831744637026
320.0,0.009826951360813574
352.0,0.008679581583027174
384.0,0.01014867253733076
416.0,0.004589424650677465
448.0,0.006458406636536296
480.0,0.008281407364457705
512.0,0.005257251259262796
576.0,0.0032525084000745164
640.0,0.0032082351401889753
704.0,-9.76989970065123e-05
768.0,0.00691653029085737
832.0,0.009459997801773978
896.0,0.005619739552868097
960.0,0.0025985306933824504
1024.0,0.0005351112426845717
1152.0,-0.0018172676599857995
1280.0,-0.0008227785836296686
1408.0,0.0006554089897230497
1536.0,-0.0029792206767244034
1664.0,-0.007487056879157183
1792.0,-0.008365475378792508
1920.0,-0.006202481105527458
2048.0,-0.009623470796480182
2304.0,-0.008218598774266228
2560.0,-0.004786632386857281
2816.0,-0.00395953388161796
3072.0,-0.0018451988746063241
3328.0,-0.000995704844673151
3584.0,-0.0017151223888686173
3840.0,0.005655217835777604
4096.0,0.006678179492638936
4608.0,0.006147588526056236
5120.0,0.006435042224882004
5632.0,-0.0007906423288109865
6144.0,-0.005300465258616827
6656.0,-0.002955247826199936
7168.0,-0.009638245941494095
7680.0,-0.005718172126658483
8192.0,0.004663722510412249
9216.0,0.005026217120278176
10240.0,-0.007812213193577944
11264.0,-0.011013214155534246
12288.0,-0.01914837793795643
13312.0,0.004784863643891413
14336.0,0.016918170493741558
end
