version,3.0
numOfCh,1
type,point
parent_name,mod-filtering
ch_type,1_1
kcount,1
numberNandB,1
brightnessNandB,1
carpet pos,0
pc,0
Time (ms),CH1 Auto-Correlation
1.0,0.02277255090672914
2.0,0.02251230119355685
3.0,0.022266847025327108
4.0,0.022089010295968325
5.0,0.02194525367554423
6.0,0.021781793709643615
7.0,0.021618750405107967
8.0,0.021437583731838572
9.0,0.021248889626536815
10.0,0.02105838988881592
11.0,0.02086956961466946
12.0,0.02069058879546004
13.0,0.02051164509263592
14.0,0.020357787628249024
15.0,0.020187238902135807
16.0,0.02001808751841927
18.0,0.019651372824347257
20.0,0.019322155864024193
22.0,0.019035390751414694
24.0,0.01875131769503735
26.0,0.01843832548576474
28.0,0.018169170506399546
30.0,0.017937010660775687
32.0,0.01768566641153102
36.0,0.01717777766181028
40.0,0.016683555491512347
44.0,0.016247560013124884
48.0,0.0158123512806001
52.0,0.01538191172285619
56.0,0.014955043813963398
60.0,0.014547330895931188
64.0,0.014179598608354826
72.0,0.013511466416150197
80.0,0.012971367449631899
88.0,0.012505588516351418
96.0,0.012166532607500447
104.0,0.01190024959464231
112.0,0.011831993406031138
120.0,0.011824797055398184
128.0,0.011742877557891385
144.0,0.011658492141600751
160.0,0.01159659780733957
176.0,0.011228259966678644
192.0,0.010828009786350234
208.0,0.010272397257186094
224.0,0.009595145455236764
240.0,0.008700984924294275
256.0,0.007772763873855615
288.0,0.006400497014977136
320.0,0.005377522266403645
352.0,0.004625258310211988
384.0,0.004161600611536365
416.0,0.003927059741331007
448.0,0.003475979551160524
480.0,0.0027579190589932523
512.0,0.0018160135142872846
576.0,-0.0005129020814175211
640.0,-0.0012279745489643945
704.0,-0.0013701019365846001
768.0,-0.0007144045339917415
832.0,0.0007962861472659011
896.0,0.00022730483241839572
960.0,-0.00011185733606122739
1024.0,-7.638152820987898e-05
1152.0,0.0007927017820261728
1280.0,0.0007023011693343406
1408.0,0.0006606367636290411
1536.0,0.00035905870084396163
1664.0,0.0007743996743319048
1792.0,0.0015957660692937914
1920.0,0.0024796420413608633
2048.0,0.0034644802397478802
2304.0,0.005483000389345127
2560.0,0.0032241992696482313
2816.0,0.0024685883473367642
3072.0,0.0002526208798427909
3328.0,-0.00018589148063985483
3584.0,-0.001324355862828086
3840.0,-0.0009806617072055657
4096.0,0.00054199487660056
4608.0,-0.0007368433989333179
5120.0,-0.0024627316236199848
5632.0,3.819737773036458e-05
6144.0,-0.0007483414441969982
6656.0,-0.0022178007348825357
7168.0,-0.004902879329377163
7680.0,-0.006181529669770702
8192.0,-0.0014205832696367882
9216.0,-0.0010938201864479913
10240.0,-0.00424123068600879
11264.0,0.00033227424136828
12288.0,0.0019833900100876267
13312.0,-0.001990259779177106
14336.0,0.006126355341339096
end
