version,3.0
numOfCh,1
type,point
parent_name,mod-filtering
ch_type,1_1
kcount,1
numberNandB,1
brightnessNandB,1
carpet pos,0
pc,0
Time (ms),CH1 Auto-Correlation
1.0,0.05060783696063842
2.0,0.04664567127112229
3.0,0.044473462927060003
4.0,0.04271550652080536
5.0,0.041152378590538996
6.0,0.040439924129477944
7.0,0.03881500253323322
8.0,0.03792997374320928
9.0,0.03696106111086439
10.0,0.03603748439947396
11.0,0.035357810900265685
12.0,0.03499564407612432
13.0,0.03436138406709799
14.0,0.03372617197912775
15.0,0.03347955665547375
16.0,0.03240146037062397
18.0,0.03172846755924885
20.0,0.030864134787097264
22.0,0.02991422862202775
24.0,0.028892309510762715
26.0,0.02829026123271805
28.0,0.027598903926632445
30.0,0.02682734681762966
32.0,0.02585820092514446
36.0,0.023916785704318988
40.0,0.0223138332112387
44.0,0.020249690925518316
48.0,0.01838979738744073
52.0,0.01691421689192274
56.0,0.014892916724655425
60.0,0.01278317631362702
64.0,0.010955048505911558
72.0,0.008266518486397034
80.0,0.00641450657635434
88.0,0.005920755993173543
96.0,0.0036346239650220102
104.0,0.0011917176797784368
112.0,0.0002692246732518555
120.0,-0.000994661612691905
128.0,-0.0029271313720606873
144.0,-0.0037627964648954126
160.0,-0.006476313976634507
176.0,-0.008112515572137102
192.0,-0.009454867620280138
208.0,-0.007848785966970362
224.0,-0.0071000795880499235
240.0,-0.006611111923516599
256.0,-0.007449661272649122
288.0,-0.0072884895001348315
320.0,-0.006803929905335404
352.0,-0.005534970578114695
384.0,-0.009082470390751385
416.0,-0.011881275399092561
448.0,-0.010812583093560035
480.0,-0.007076148707629848
512.0,-0.00840929313509231
576.0,-0.02608091546103597
640.0,-0.04212666174229629
704.0,-0.04089081526258287
768.0,-0.037272613816723976
832.0,-0.021221009541911195
896.0,-0.018938060071603813
960.0,-0.01821270130198127
1024.0,-0.020101212065191998
1152.0,-0.018896127967083842
1280.0,-0.00873853340717301
1408.0,-0.004277767723769088
1536.0,-0.006770954304157972
1664.0,-0.009491071313253774
1792.0,-0.00028594620295296913
1920.0,-0.0026644302628091587
2048.0,0.004567445090574163
2304.0,0.00459839777888571
2560.0,0.0019433848575867163
2816.0,-0.0025736053336291587
3072.0,-0.018093907321172553
3328.0,-0.025189835763957613
3584.0,-0.03619310269638032
3840.0,-0.004802182717424275
4096.0,0.018724005998363547
4608.0,0.0066890283622520474
5120.0,0.005681947987767666
5632.0,0.020201265500354948
6144.0,0.03918573766961475
6656.0,0.056420368860596426
7168.0,0.026490471963631856
7680.0,-0.02909533628081451
8192.0,-0.019781717030976864
9216.0,0.002364945664707019
10240.0,-0.02342085932226967
11264.0,0.07573585394997973
12288.0,0.005795823957553514
13312.0,-0.039133646381266596
14336.0,-0.11280351289925705
end
