version,3.0
numOfCh,1
type,point
parent_name,mod-filtering
ch_type,1_1
kcount,1
numberNandB,1
brightnessNandB,1
carpet pos,0
pc,0
Time (ms),CH1 Auto-Correlation
1.0,0.0489267526915782
2.0,0.04750508339418591
3.0,0.04662802708175473
4.0,0.045864798357959424
5.0,0.04553369473229263
6.0,0.044580839807520256
7.0,0.044270126129586584
8.0,0.044115454543439014
9.0,0.043650706674106754
10.0,0.0432833466632736
11.0,0.0426812962890879
12.0,0.04237065426512299
13.0,0.04212379755436002
14.0,0.04153511685445577
15.0,0.04122300509751531
16.0,0.040845001256292424
18.0,0.04020687320713168
20.0,0.03941630046623601
22.0,0.03851148945484639
24.0,0.03759930617325824
26.0,0.03685572812846649
28.0,0.036255414735098856
30.0,0.03575254382708981
32.0,0.035144502521704535
36.0,0.034237846043719156
40.0,0.033578596216544465
44.0,0.033055794176528375
48.0,0.03274506735571037
52.0,0.03207479080384079
56.0,0.031888502246154804
60.0,0.03131761148241252
64.0,0.0302450694526053
72.0,0.028829277634288886
80.0,0.027959613098060387
88.0,0.02771573924635673
96.0,0.027432827216470113
104.0,0.02709927904431564
112.0,0.02716616169471675
120.0,0.02647811539516498
128.0,0.02559200593958999
144.0,0.024132450714936304
160.0,0.022999353315079407
176.0,0.02067104611115478
192.0,0.018946242901906496
208.0,0.018396543067192184
224.0,0.018028236649564544
240.0,0.016983316327930043
256.0,0.016799324082938494
288.0,0.01536372462368818
320.0,0.014528199940428754
352.0,0.01501233733809837
384.0,0.01528515839286615
416.0,0.016096511110506473
448.0,0.0161743190841368
480.0,0.016421520416915136
512.0,0.01722718552664504
576.0,0.013733646219188378
640.0,0.010975568278996928
704.0,0.011571761816447923
768.0,0.016202745254263462
832.0,0.017367863401219097
896.0,0.0166574329911795
960.0,0.015978641943891425
1024.0,0.013006624321056481
1152.0,0.005579706034960941
1280.0,0.0035456149397723458
1408.0,0.0088030628818212
1536.0,0.017371799667824206
1664.0,0.013570306075342708
1792.0,0.008301794933577966
1920.0,0.003863978052285999
2048.0,0.005910059228195541
2304.0,-0.0038558624319126045
2560.0,-0.0036821422434848428
2816.0,0.007731983969276879
3072.0,0.00285519326209549
3328.0,0.005273391215100398
3584.0,0.01554969667068673
3840.0,0.006068662581509621
4096.0,0.014719989225290941
4608.0,-0.009021190282307523
5120.0,-0.010013963706615336
5632.0,-0.02002131813408392
6144.0,-0.009978824549438547
6656.0,-0.013664987736137113
7168.0,-0.004798933577001341
7680.0,-0.008608517398803528
8192.0,0.0010643440183784048
9216.0,-0.016370502241414564
10240.0,-0.003312598628325003
11264.0,0.020422218445554474
12288.0,-0.02284775554613272
13312.0,-0.007571976522604551
14336.0,-0.024267712477619274
end
