version,3.0
numOfCh,1
type,point
parent_name,mod-filtering
ch_type,1_1
kcount,1
numberNandB,1
brightnessNandB,1
carpet pos,0
pc,0
Time (ms),CH1 Auto-Correlation
1.0,0.05344998523271349
2.0,0.05149871534441108
3.0,0.05022656850798102
4.0,0.04898430019277322
5.0,0.0479314306749532
6.0,0.04743339435899818
7.0,0.04662512554754317
8.0,0.04623973399846304
9.0,0.045493255553129774
10.0,0.04509905867749975
11.0,0.04424964706723178
12.0,0.044032345840735454
13.0,0.04359030394239438
14.0,0.04294776806254097
15.0,0.04307563830853267
16.0,0.04227491231780944
18.0,0.041617391002263915
20.0,0.04054009157327165
22.0,0.03936889420866474
24.0,0.037982880478725
26.0,0.03679567612606616
28.0,0.03576047664883486
30.0,0.03506707969489553
32.0,0.03452070195493184
36.0,0.03316326806010639
40.0,0.032026622195614474
44.0,0.030415008182174796
48.0,0.02905559261626678
52.0,0.028257652536967326
56.0,0.026976164340735576
60.0,0.026009000524386705
64.0,0.024667124669195628
72.0,0.022065384696825507
80.0,0.02058702828922443
88.0,0.020410653526728773
96.0,0.020145678293676417
104.0,0.020272526260573853
112.0,0.020668816154718828
120.0,0.021025866616793953
128.0,0.021400159751254533
144.0,0.019797681219249297
160.0,0.017942846932490042
176.0,0.016877501914162263
192.0,0.017805612162612006
208.0,0.019768454359691212
224.0,0.021029228218354623
240.0,0.02077934176666374
256.0,0.017402530829657703
288.0,0.01134765986537678
320.0,0.007383764649503188
352.0,0.00544364246178608
384.0,0.0043651784283611494
416.0,0.0025614849664079564
448.0,0.0008017287532409156
480.0,0.0020103831410187567
512.0,0.0015110489364735802
576.0,-0.002692352743076998
640.0,-0.0047297864994325645
704.0,-0.010992318279593793
768.0,-0.020083916782067557
832.0,-0.021796989139612144
896.0,-0.02783731926886912
960.0,-0.028676144420293093
1024.0,-0.02758296819814121
1152.0,-0.01636885280773015
1280.0,-0.01447138149420002
1408.0,-0.012849237481633802
1536.0,-0.010519589961180631
1664.0,-0.007399484940681655
1792.0,-0.008856545985351794
1920.0,-0.006491662595230929
2048.0,-0.002216481052225272
2304.0,0.008786024530746062
2560.0,0.0056707282203962706
2816.0,0.006372495769823017
3072.0,-0.002712475529699221
3328.0,0.005599322531451234
3584.0,0.003761037313182669
3840.0,-0.004131502036503698
4096.0,0.009860983713312343
4608.0,0.011245359552072287
5120.0,0.009292693014850695
5632.0,0.004421616553467622
6144.0,-0.018375132422318363
6656.0,-0.017624760796228323
7168.0,0.0052857573982096895
7680.0,0.021603368615488394
8192.0,0.0007137820980773757
9216.0,-0.006179123587384039
10240.0,0.006520774248759631
11264.0,-0.01798079939729913
12288.0,0.02375986575831246
13312.0,-0.019914898493505917
14336.0,0.008220260921302902
end
