version,3.0
numOfCh,1
type,point
parent_name,mod-filtering
ch_type,1_1
kcount,1
numberNandB,1
brightnessNandB,1
carpet pos,0
pc,0
Time (ms),CH1 Auto-Correlation
1.0,0.03242535766932786
2.0,0.031850347096675335
3.0,0.031296400467656804
4.0,0.030927851843459253
5.0,0.030471116868133974
6.0,0.030221675627700062
7.0,0.02982539563282738
8.0,0.029400984976550415
9.0,0.028969329452441572
10.0,0.028698465998551637
11.0,0.028511129323358864
12.0,0.028282930228470393
13.0,0.02816186207962823
14.0,0.0281297272729355
15.0,0.027786889727490216
16.0,0.027521633423874148
18.0,0.02708897244881392
20.0,0.026671616255242725
22.0,0.02626401289092417
24.0,0.02576041021691733
26.0,0.02528517030337185
28.0,0.024807730249297055
30.0,0.024408942113001375
32.0,0.024100743995743468
36.0,0.02315836776683744
40.0,0.022552251590172823
44.0,0.021544084470178415
48.0,0.020744049048530444
52.0,0.020130800003951066
56.0,0.019794962868621147
60.0,0.01901259076873152
64.0,0.018348239615802564
72.0,0.017334886199005917
80.0,0.016214151014359413
88.0,0.015408438503611288
96.0,0.014449107276348627
104.0,0.013318578560358452
112.0,0.012144873578094906
120.0,0.011398892910281955
128.0,0.01083483906203453
144.0,0.010161775326930078
160.0,0.00941132557174651
176.0,0.008334373990750654
192.0,0.007234595584029169
208.0,0.006322293737033968
224.0,0.005579977764351707
240.0,0.00513645706464394
256.0,0.004617444991157793
288.0,0.003986770109388527
320.0,0.0030402220331902097
352.0,0.001480113082960921
384.0,0.0011228210092650848
416.0,0.0011719740492683872
448.0,0.002412556782073416
480.0,0.002480096990820302
512.0,0.0007811625173312908
576.0,-0.0043605302023739245
640.0,-0.008247697606926008
704.0,-0.012012930560112989
768.0,-0.016235352864343855
832.0,-0.02289396462563642
896.0,-0.02915537321415973
960.0,-0.03331613800340272
1024.0,-0.039989024457795175
1152.0,-0.04211163171695109
1280.0,-0.04783439512460508
1408.0,-0.058654752848601444
1536.0,-0.05898325877648891
1664.0,-0.05829993000583322
1792.0,-0.055332600343497185
1920.0,-0.062669959802926
2048.0,-0.07626258421584853
2304.0,-0.09284652803729743
2560.0,-0.11031737995407731
2816.0,-0.11664656678566099
3072.0,-0.09505762265006346
3328.0,-0.08428341829684427
3584.0,-0.06460294220915452
3840.0,-0.05663994529610228
4096.0,-0.03279769866766169
4608.0,0.01230536908754587
5120.0,0.033897998758780856
5632.0,0.06419082855081526
6144.0,0.08442287967554485
6656.0,0.08617713399260607
7168.0,0.08049847114544639
7680.0,0.05603830567138335
8192.0,0.027838350070588547
9216.0,-0.047831381619354185
10240.0,-0.06264945977791325
11264.0,0.08088347941608176
12288.0,0.1801148642791628
13312.0,0.26748349036087715
14336.0,0.09126128720537352
end
