version,3.0
numOfCh,1
type,point
parent_name,mod-filtering
ch_type,1_1
kcount,1
numberNandB,1
brightnessNandB,1
carpet pos,0
pc,0
Time (ms),CH1 Auto-Correlation
1.0,0.040762569677510685
2.0,0.03776022148083169
3.0,0.035091933405534625
4.0,0.03333189066361153
5.0,0.03209976739080145
6.0,0.03065030248907119
7.0,0.02920006439638878
8.0,0.02820205393740416
9.0,0.02727398452661811
10.0,0.026474090567516484
11.0,0.025775880904325144
12.0,0.025102048479214156
13.0,0.02453142391041574
14.0,0.023895422733480443
15.0,0.023491290862973857
16.0,0.02287773907746926
18.0,0.022585575210306574
20.0,0.021972489924530603
22.0,0.02188126094441989
24.0,0.021378396398342048
26.0,0.020361689320478105
28.0,0.019117204958494893
30.0,0.018530245792433453
32.0,0.017464487555238994
36.0,0.01629976367917907
40.0,0.015408069035582228
44.0,0.014647995138758585
48.0,0.014048594065659392
52.0,0.012941193865011025
56.0,0.011905294522033483
60.0,0.011208530991775767
64.0,0.010582901681021939
72.0,0.011124071630910004
80.0,0.01096757408172655
88.0,0.010952671550065185
96.0,0.01107402450908257
104.0,0.01138026730800834
112.0,0.012312380138923329
120.0,0.012007035555819723
128.0,0.010224251595183809
144.0,0.00904061353349861
160.0,0.008657508530579783
176.0,0.00738087883869043
192.0,0.005515012813952724
208.0,0.004749332175270959
224.0,0.005965664641190971
240.0,0.006183168473102629
256.0,0.008126602050136045
288.0,0.011773157723423466
320.0,0.013126213459935032
352.0,0.014334880002899064
384.0,0.015208639627686926
416.0,0.013763433366915878
448.0,0.014254704453174227
480.0,0.013856435031377234
512.0,0.012595291034813272
576.0,0.01164129224297139
640.0,0.015294098334931672
704.0,0.013335056684151692
768.0,0.0031425409445491326
832.0,-0.005909372450356387
896.0,-0.006607414257134958
960.0,0.0007540432588624135
1024.0,0.007589092421586674
1152.0,0.009438083247543805
1280.0,0.0017441813421585906
1408.0,-0.005844331649750623
1536.0,-0.0019123333686624777
1664.0,0.008270828523805118
1792.0,0.0021882598010447563
1920.0,-0.013796846224226833
2048.0,-0.026257743975294456
2304.0,-0.012733212221364032
2560.0,-0.0006764209475944583
2816.0,-0.020210973778918895
3072.0,-0.03133813132696128
3328.0,-0.019074841328263092
3584.0,-0.0028062632285311695
3840.0,-0.008621027562229044
4096.0,-0.03355915041954338
4608.0,-0.03620042182789285
5120.0,-0.019578261677439368
5632.0,-0.032276173334844116
6144.0,-0.024199880733542845
6656.0,0.003843001223680087
7168.0,0.02813383786119128
7680.0,0.012775741307103905
8192.0,0.03212617759474079
9216.0,0.01912806245019527
10240.0,0.06330160956927489
11264.0,0.008253687093040307
12288.0,0.0004323474121465942
13312.0,0.044058967232373014
14336.0,-0.018985035904508174
end
