version,3.0
numOfCh,1
type,point
parent_name,mod-filtering
ch_type,1_1
kcount,1
numberNandB,1
brightnessNandB,1
carpet pos,0
pc,0
Time (ms),CH1 Auto-Correlation
1.0,0.06333435502305296
2.0,0.06166181293224349
3.0,0.06043005582322469
4.0,0.059072269338527716
5.0,0.05837757267672328
6.0,0.05729336647140704
7.0,0.05666025525058038
8.0,0.05623318310770564
9.0,0.055609368438521045
10.0,0.05498122012914619
11.0,0.054728171088214594
12.0,0.053915857638975107
13.0,0.05352008596481839
14.0,0.05289084336635397
15.0,0.05247848189598159
16.0,0.05225581333256435
18.0,0.05137476384383599
20.0,0.050803303536567146
22.0,0.05020793907904064
24.0,0.04945452442947906
26.0,0.048794209170917924
28.0,0.048382139850182915
30.0,0.04799633256869318
32.0,0.04791646816130446
36.0,0.04651364662204083
40.0,0.04555500694297865
44.0,0.044480334716902714
48.0,0.0437648618395472
52.0,0.04293222022401766
56.0,0.04232318253602685
60.0,0.04180825042226566
64.0,0.04119646575392433
72.0,0.04020245116957577
80.0,0.04019515301986987
88.0,0.03987183134760097
96.0,0.039627163981400315
104.0,0.03984337449987141
112.0,0.04006909528255531
120.0,0.0392728565843361
128.0,0.03814585624447164
144.0,0.03652681212011566
160.0,0.03498068216747119
176.0,0.03534641166276953
192.0,0.035197520515048986
208.0,0.03506298410403663
224.0,0.034785440022826464
240.0,0.03287116433331905
256.0,0.03231361989646597
288.0,0.03169156356415925
320.0,0.030789600634690384
352.0,0.028540414161864813
384.0,0.02438662549281423
416.0,0.021027196757054112
448.0,0.018230502922936598
480.0,0.016237743010968586
512.0,0.017673613921247666
576.0,0.013274468566542463
640.0,0.009394762849659566
704.0,0.01207900785934668
768.0,0.014461700102498254
832.0,0.013617019824439636
896.0,0.013172764319342889
960.0,0.01263166633129309
1024.0,0.013307496433220045
1152.0,0.016726648243604147
1280.0,0.020699983402640898
1408.0,0.008242900065297931
1536.0,-0.010754999591697123
1664.0,-0.024189822951491524
1792.0,-0.0414554723535463
1920.0,-0.06246335749855325
2048.0,-0.07005587844379946
2304.0,-0.0706873258155859
2560.0,-0.057446545998219856
2816.0,-0.0460207968861327
3072.0,-0.03195538711866519
3328.0,-0.02075110220360854
3584.0,-0.015224896260932597
3840.0,0.008168056759251474
4096.0,0.00985872516883246
4608.0,0.014452429057614236
5120.0,0.05552030780285344
5632.0,0.05530078387873538
6144.0,0.0340003580531294
6656.0,-0.005795834511362896
7168.0,-0.048624209373240634
7680.0,-0.05973343978996737
8192.0,-0.05227337597783932
9216.0,0.020222953285538692
10240.0,0.0631634126784606
11264.0,0.021776334331593095
12288.0,-0.031054076553362453
13312.0,0.023806384233691302
14336.0,0.028577896878768883
end
