version,3.0
numOfCh,1
type,point
parent_name,mod-filtering
ch_type,1_1
kcount,1
numberNandB,1
brightnessNandB,1
carpet pos,0
pc,0
Time (ms),CH1 Auto-Correlation
1.0,0.02304158111668375
2.0,0.022378784480980185
3.0,0.02189546537835807
4.0,0.02138642129879087
5.0,0.02092801194955607
6.0,0.020514898548996685
7.0,0.020228030459561674
8.0,0.02002710399137042
9.0,0.019806261999423036
10.0,0.019583987089271337
11.0,0.019370735682796125
12.0,0.019129207215293764
13.0,0.01895381284873432
14.0,0.018663463504344113
15.0,0.01844806328370563
16.0,0.01814844449312636
18.0,0.01770161526454328
20.0,0.017198442605493636
22.0,0.01680009574301522
24.0,0.01651358716117035
26.0,0.016351580300077107
28.0,0.01605986378095836
30.0,0.01586334629145969
32.0,0.0157038923893289
36.0,0.015356195949043805
40.0,0.014802562297671962
44.0,0.01418433799687735
48.0,0.013482281885290881
52.0,0.012869087310789062
56.0,0.01241958920807873
60.0,0.011951877435001812
64.0,0.011311979862828503
72.0,0.009947347831086306
80.0,0.008695005675785294
88.0,0.007639557160494137
96.0,0.006708509798447837
104.0,0.005920955881034029
112.0,0.004932360192590801
120.0,0.004006620400286209
128.0,0.003021492247126334
144.0,0.0014624017341933193
160.0,0.00026897674982362396
176.0,-0.0006733451068721141
192.0,-0.0017027485549026
208.0,-0.002677133572608792
224.0,-0.003825931676489036
240.0,-0.005371270602669065
256.0,-0.006509994047289802
288.0,-0.007822588244008166
320.0,-0.009140320562521786
352.0,-0.010487871543720662
384.0,-0.011619238591586756
416.0,-0.011947859089430413
448.0,-0.011447739496183607
480.0,-0.01145576808973714
512.0,-0.012167326558406022
576.0,-0.01118100145815748
640.0,-0.008624085640254409
704.0,-0.006109824588303003
768.0,-0.0022608790202384155
832.0,-0.00021450561444602556
896.0,-0.001284334952369126
960.0,-0.003009036592413916
1024.0,-0.00625720940245289
1152.0,-0.010183108399493324
1280.0,-0.010791455867547484
1408.0,-0.008545651362957374
1536.0,-0.0021831503754269344
1664.0,0.009420477182675357
1792.0,0.015153213449847325
1920.0,0.01379950056190471
2048.0,0.011457997727362557
2304.0,0.007223742777841657
2560.0,0.007989569390715046
2816.0,0.007633058969537032
3072.0,0.0033883286459219786
3328.0,0.006018498164725772
3584.0,0.01949471909174294
3840.0,0.0022639410099372093
4096.0,0.0033779859420637326
4608.0,0.0019597299603144602
5120.0,0.005611355375950033
5632.0,0.0147410736152227
6144.0,0.006736815800796103
6656.0,0.004523336387278087
7168.0,0.0008168732743931706
7680.0,-0.006104061936180849
8192.0,-0.007944643802571982
9216.0,-0.0026487281161020615
10240.0,-0.022702250411880676
11264.0,0.0019671085385011278
12288.0,0.0007867853892351562
13312.0,-0.015307175493076697
14336.0,-0.04982182029283666
end
