version,3.0
numOfCh,1
type,point
parent_name,mod-filtering
ch_type,1_1
kcount,1
numberNandB,1
brightnessNandB,1
carpet pos,0
pc,0
Time (ms),CH1 Auto-Correlation
1.0,0.08763516654349246
2.0,0.08562002250729606
3.0,0.08411381596241463
4.0,0.08321496921312788
5.0,0.08208442762568002
6.0,0.08096088192795281
7.0,0.08078147124292023
8.0,0.07972479952831235
9.0,0.07896431172924334
10.0,0.07784895502619182
11.0,0.07753470383534689
12.0,0.07723843876139025
13.0,0.07699699519570746
14.0,0.07673563615137224
15.0,0.07622094688105907
16.0,0.07630474978710278
18.0,0.07596507529265462
20.0,0.07504370041305308
22.0,0.07423716655519619
24.0,0.0730949195083217
26.0,0.07240774429135377
28.0,0.07154680377538924
30.0,0.07143068391047347
32.0,0.07054821850330217
36.0,0.06949740463098864
40.0,0.06802417733880373
44.0,0.06635785730587851
48.0,0.06488500405979059
52.0,0.06403208709756547
56.0,0.06317113700692789
60.0,0.062076090488667024
64.0,0.060626603152779346
72.0,0.05918895050726203
80.0,0.05789644418061535
88.0,0.05673967141001879
96.0,0.055655509600218256
104.0,0.05476437436115522
112.0,0.05320749131171154
120.0,0.05143622561957217
128.0,0.04943912917611071
144.0,0.04622333227170006
160.0,0.04580576196190478
176.0,0.04539102345162571
192.0,0.04473152994635643
208.0,0.04490814147857991
224.0,0.044898311588125184
240.0,0.04374046809516563
256.0,0.04212865506842456
288.0,0.037296779175177486
320.0,0.030608405887187606
352.0,0.02653819943513236
384.0,0.023892745701780793
416.0,0.0209311656372555
448.0,0.019646313070364352
480.0,0.01994473475485692
512.0,0.01833498333500616
576.0,0.012868612832562132
640.0,0.008522872227491929
704.0,0.006467620105342853
768.0,0.005256679468351733
832.0,0.005956777493469012
896.0,0.007457741720806599
960.0,0.013719174850761462
1024.0,0.01622298366358832
1152.0,0.01855073577855637
1280.0,0.01723546982131885
1408.0,0.019944024127157345
1536.0,0.017398216858510063
1664.0,0.01193231201228162
1792.0,0.010518271103440613
1920.0,0.00996824829169296
2048.0,0.010321729478589114
2304.0,0.022807172876311066
2560.0,0.02757221450948899
2816.0,0.019108418169801356
3072.0,0.0057717173006877065
3328.0,-0.001475581798084491
3584.0,0.0012506917237244952
3840.0,0.001414665237319035
4096.0,0.0015816361168206061
4608.0,0.010806061223897379
5120.0,0.005429822216115321
5632.0,-0.007288369646797355
6144.0,-0.014467329363622605
6656.0,-0.013220437503648763
7168.0,-0.01597957327499966
7680.0,-0.002543677049223758
8192.0,-0.019259655263206055
9216.0,-0.02313032789891878
10240.0,-0.014740395237836434
11264.0,-0.02455355708213547
12288.0,-0.03560440162525291
13312.0,-0.018070523582730647
14336.0,-0.02747858682972948
end
