version,3.0
numOfCh,1
type,point
parent_name,mod-filtering
ch_type,1_1
kcount,1
numberNandB,1
brightnessNandB,1
carpet pos,0
pc,0
Time (ms),CH1 Auto-Correlation
1.0,0.025595476836839826
2.0,0.02517015097589148
3.0,0.02488548196811835
4.0,0.024374494371306676
5.0,0.024042314028279055
6.0,0.02364756819962377
7.0,0.023225199025640908
8.0,0.022890442959595525
9.0,0.022579887122685216
10.0,0.022262542146598063
11.0,0.02202962672666753
12.0,0.021759172845622565
13.0,0.021457985890088516
14.0,0.021114191577476626
15.0,0.020777274052194983
16.0,0.02046122684726792
18.0,0.019949893911846095
20.0,0.019435548119064894
22.0,0.018972902941378766
24.0,0.01857276586384038
26.0,0.018140246368606228
28.0,0.017778094707765923
30.0,0.017529612823634855
32.0,0.017209371951966146
36.0,0.016673764144400582
40.0,0.015961792592681157
44.0,0.015327360803579548
48.0,0.01476053322951243
52.0,0.014255306853978134
56.0,0.013856673309168732
60.0,0.013493462176036308
64.0,0.01310434384898862
72.0,0.01206816176515968
80.0,0.011166413543965525
88.0,0.010475795376564845
96.0,0.00971761889920475
104.0,0.009074148447912656
112.0,0.008660386121153385
120.0,0.0085504629005968
128.0,0.008521185056172165
144.0,0.00855986242190454
160.0,0.008674602222655148
176.0,0.008206236399031397
192.0,0.007591539964180827
208.0,0.007079014388989391
224.0,0.00660654307581332
240.0,0.0061474441316469175
256.0,0.005130833594545692
288.0,0.0032335145564654777
320.0,0.0019083750797110888
352.0,0.0009619134254161832
384.0,0.0008341904885007523
416.0,0.001034719204613399
448.0,0.0008221908520302801
480.0,0.0014305849187290498
512.0,0.0023489792962378964
576.0,0.004012965159002624
640.0,0.005398860468619704
704.0,0.004860778657390208
768.0,0.0039660296564598685
832.0,0.0032106644410834217
896.0,0.004077660583871046
960.0,0.0050257630143519805
1024.0,0.00670608542484219
1152.0,0.00974778638981677
1280.0,0.012146815550857948
1408.0,0.014400028206450033
1536.0,0.010276369418517062
1664.0,0.006674782808374191
1792.0,0.007859431396212369
1920.0,0.01323164887603867
2048.0,0.017977480924096678
2304.0,0.019474639898507506
2560.0,0.01197198282121148
2816.0,0.01292749285258532
3072.0,0.017028509802588854
3328.0,0.015439447868395684
3584.0,0.01208642699079876
3840.0,0.010498682203973653
4096.0,0.008954610477407421
4608.0,0.004968981463973066
5120.0,0.006364665771410483
5632.0,-0.0036560296474419385
6144.0,-0.007314325409493616
6656.0,-0.010930095353490321
7168.0,-0.0152678245151191
7680.0,-0.0300265434210345
8192.0,-0.03879775348005532
9216.0,-0.03667650216120222
10240.0,-0.013882850449868256
11264.0,-0.02000886682021419
12288.0,0.0007230557462574172
13312.0,0.006750302939696917
14336.0,0.0766499816961792
end
