version,3.0
numOfCh,1
type,point
parent_name,mod-filtering
ch_type,1_1
kcount,1
numberNandB,1
brightnessNandB,1
carpet pos,0
pc,0
Time (ms),CH1 Auto-Correlation
1.0,0.05295933928798391
2.0,0.051417578011611065
3.0,0.049538454451269365
4.0,0.048765175801720684
5.0,0.04786005239910285
6.0,0.047286436232481854
7.0,0.04656154806132484
8.0,0.045637561157255035
9.0,0.04441207757462973
10.0,0.043319123694996575
11.0,0.04245480864245499
12.0,0.04203009288697279
13.0,0.04150976579141785
14.0,0.04104063434231886
15.0,0.04108417041205281
16.0,0.04014741625992224
18.0,0.03937588773665901
20.0,0.03920085521757155
22.0,0.038561442544320146
24.0,0.037399076734458525
26.0,0.03638113886254457
28.0,0.03540105776016933
30.0,0.03479866999618486
32.0,0.034334101446331866
36.0,0.033361331436799535
40.0,0.032333806273089793
44.0,0.03131922852258939
48.0,0.030606955788320178
52.0,0.030001406777222295
56.0,0.02996790134979288
60.0,0.029620068631339702
64.0,0.02880780797554916
72.0,0.026587952137072435
80.0,0.024689002511217417
88.0,0.022654448506718605
96.0,0.020883231323038265
104.0,0.019296067972575104
112.0,0.0180887464919417
120.0,0.01776128510235986
128.0,0.016932188319864316
144.0,0.014991984919326073
160.0,0.01406906944797015
176.0,0.01244086847593806
192.0,0.010448962935964312
208.0,0.009267472437217927
224.0,0.007027223149585815
240.0,0.004142630863366081
256.0,0.0028621826190349253
288.0,0.001967261494149053
320.0,-0.0008436443775355906
352.0,-0.0014039337882606473
384.0,-0.002033411428941312
416.0,-0.00269992971998978
448.0,-0.003425196413937126
480.0,-0.0039477497331473765
512.0,-0.002157506850830715
576.0,-0.00185782684327096
640.0,-0.0012704545586040839
704.0,-5.726311971787634e-05
768.0,0.006244861001745816
832.0,0.004800298053414975
896.0,-0.0015441511047191714
960.0,0.0013884010306153272
1024.0,0.0012654931189262086
1152.0,0.010199835478341912
1280.0,0.010771009657889241
1408.0,0.01915217303100758
1536.0,0.02671396924388514
1664.0,0.008117148420364817
1792.0,-0.00028992135338601344
1920.0,-0.006642708470776415
2048.0,-0.008827677235746956
2304.0,-0.012431366969033242
2560.0,-0.011308559857502454
2816.0,0.014082447551315713
3072.0,0.0030388460999581923
3328.0,-0.0020064376376794923
3584.0,0.006027126487035961
3840.0,0.007363766071448952
4096.0,0.020061990977793265
4608.0,0.008100870728508403
5120.0,-0.00010214401684749408
5632.0,-0.009806429801625716
6144.0,-0.006265936984563236
6656.0,-0.0029773919107614066
7168.0,-0.003290984826838095
7680.0,-0.007288802188423316
8192.0,-0.005327076863162694
9216.0,-0.0041113451355219155
10240.0,-0.002761579194021424
11264.0,-0.013865619175250643
12288.0,-0.010271116141149172
13312.0,-0.009257878510194995
14336.0,0.006587051649128206
end
