version,3.0
numOfCh,1
type,point
parent_name,mod-filtering
ch_type,1_1
kcount,1
numberNandB,1
brightnessNandB,1
carpet pos,0
pc,0
Time (ms),CH1 Auto-Correlation
1.0,0.06912572160085029
2.0,0.06584210177907268
3.0,0.06336775738116529
4.0,0.061869622739993524
5.0,0.06138641483696006
6.0,0.060014228503453504
7.0,0.05923239409634995
8.0,0.05793327548478411
9.0,0.05741661038055157
10.0,0.05628853779414511
11.0,0.054952512193590985
12.0,0.053915698975685045
13.0,0.05378294457194244
14.0,0.05339443638693053
15.0,0.05322184322656209
16.0,0.05320757208082738
18.0,0.051472377056034135
20.0,0.05059418366206336
22.0,0.05055791407785715
24.0,0.0493179915261468
26.0,0.04793440722154396
28.0,0.046819137073987216
30.0,0.045901779417843125
32.0,0.045030629258171695
36.0,0.04396490269441311
40.0,0.04276688565921383
44.0,0.04126707288138731
48.0,0.040423745774591735
52.0,0.0386092382526122
56.0,0.03687473753990278
60.0,0.03566642216356475
64.0,0.03521617013985079
72.0,0.033643657064160504
80.0,0.03042962533661009
88.0,0.028154789692283133
96.0,0.026051823724101197
104.0,0.023891037161908324
112.0,0.02242274724767057
120.0,0.020974525542705846
128.0,0.019213574985985638
144.0,0.017914446751809532
160.0,0.015076010712334886
176.0,0.013881145598637845
192.0,0.011384420014789898
208.0,0.009612875351697525
224.0,0.008267683075175558
240.0,0.008017060519037722
256.0,0.007656442002338615
288.0,0.008795908909817074
320.0,0.011232576184097898
352.0,0.011521323974255537
384.0,0.012697962827695308
416.0,0.014144430504176686
448.0,0.013606763871154781
480.0,0.014427556367838434
512.0,0.01590720329951023
576.0,0.013662745390894182
640.0,0.005201567830435572
704.0,-0.0030860465552648986
768.0,-0.003898231648118644
832.0,0.0002637158577660781
896.0,0.008587031244757126
960.0,0.0024035340330146315
1024.0,-0.007577701840135287
1152.0,-0.011493005100402076
1280.0,-0.01463005785134408
1408.0,0.000236270503938929
1536.0,-0.0002759467206404631
1664.0,-0.0122627606227238
1792.0,-0.02353681522732931
1920.0,-0.026955845331224193
2048.0,-0.02418935747160289
2304.0,-0.02375406334335739
2560.0,-0.029325868012720635
2816.0,-0.027645259549981094
3072.0,-0.01597457797195634
3328.0,-0.04155451535240129
3584.0,-0.03004729378184312
3840.0,-0.04451385133085306
4096.0,-0.030758353962872742
4608.0,-0.028000919700293392
5120.0,-0.02909258129070802
5632.0,-0.03576960442822741
6144.0,-0.026230294644309815
6656.0,0.010887172835185366
7168.0,-0.000170339625390592
7680.0,0.052012538059036384
8192.0,0.11443995471158797
9216.0,0.05261335765321529
10240.0,0.019595341864861338
11264.0,-0.05591745139691062
12288.0,-0.01055904918444528
13312.0,0.04680206113355534
14336.0,0.08720331748888976
end
