version,3.0
numOfCh,1
type,point
parent_name,34a6d_0dot6-0dot1
ch_type,1_1
kcount,1
numberNandB,1
brightnessNandB,1
carpet pos,0
pc,0
Time (ms),CH1 Auto-Correlation
1.0,0.02554340846836567
2.0,0.02438666671514511
3.0,0.023349568247795105
4.0,0.02240738831460476
5.0,0.021544676274061203
6.0,0.02072552591562271
7.0,0.01996794529259205
8.0,0.01932368613779545
9.0,0.0187288299202919
10.0,0.01817266270518303
11.0,0.01763453334569931
12.0,0.017111722379922867
13.0,0.016639310866594315
14.0,0.01619090884923935
15.0,0.015758125111460686
16.0,0.015369899570941925
18.0,0.014608995988965034
20.0,0.013876697048544884
22.0,0.013185556046664715
24.0,0.012587959878146648
26.0,0.012015308253467083
28.0,0.011478349566459656
30.0,0.011044281534850597
32.0,0.01063254103064537
36.0,0.009952704422175884
40.0,0.009244837798178196
44.0,0.008586843498051167
48.0,0.008015837520360947
52.0,0.007430217694491148
56.0,0.006873654667288065
60.0,0.006341666914522648
64.0,0.005899307318031788
72.0,0.0052080415189266205
80.0,0.0046419426798820496
88.0,0.0041929273866117
96.0,0.003941054455935955
104.0,0.0036697511095553637
112.0,0.0032862871885299683
120.0,0.0026992098428308964
128.0,0.002105460735037923
144.0,0.0015566342044621706
160.0,0.0011408641003072262
176.0,0.0007693239022046328
192.0,0.00044815754517912865
208.0,-0.00028263102285563946
224.0,-0.0007344323094002903
240.0,-0.0011646528728306293
256.0,-0.0014252420514822006
288.0,-0.0008489838801324368
320.0,-0.0008021891699172556
352.0,-0.0008476549410261214
384.0,-0.0005483073182404041
416.0,-0.0005170024232938886
448.0,0.00014842198288533837
480.0,0.00021652175928466022
512.0,-0.0004304434987716377
576.0,-0.0010115352924913168
640.0,-0.0019494350999593735
704.0,-0.0015107030048966408
768.0,-0.0008880635141395032
832.0,-0.000840625143609941
896.0,-0.00028349022613838315
960.0,0.0006546802469529212
1024.0,-0.0005005394923500717
1152.0,-0.0015916957054287195
1280.0,9.39306482905522e-05
1408.0,-0.0002141891891369596
1536.0,-0.0011797710321843624
1664.0,-0.0016252825735136867
1792.0,0.0009470562799833715
1920.0,0.001060657436028123
2048.0,0.00100599299184978
2304.0,-0.0013280942803248763
2560.0,-0.00048084137961268425
2816.0,0.00039081607246771455
3072.0,0.0010315945837646723
3328.0,-0.0002623144828248769
3584.0,-0.0019803401082754135
3840.0,0.0009319515665993094
4096.0,0.0013752162922173738
4608.0,-0.0005100493435747921
5120.0,0.0006050121155567467
5632.0,-0.00037150856223888695
6144.0,-0.0003479815204627812
6656.0,-0.00021118861332070082
7168.0,0.0002289909025421366
7680.0,0.0008650242816656828
8192.0,0.0010303014423698187
end
