version,3.0
numOfCh,1
type,point
parent_name,34a6d_0dot6-0dot1
ch_type,1_1
kcount,1
numberNandB,1
brightnessNandB,1
carpet pos,0
pc,0
Time (ms),CH1 Auto-Correlation
1.0,0.02364574559032917
2.0,0.022464055567979813
3.0,0.0214028712362051
4.0,0.020391004160046577
5.0,0.019481102004647255
6.0,0.018626568838953972
7.0,0.017859505489468575
8.0,0.01715073548257351
9.0,0.016486352309584618
10.0,0.01587555930018425
11.0,0.015281535685062408
12.0,0.014760506339371204
13.0,0.014291061088442802
14.0,0.013879071921110153
15.0,0.013515795581042767
16.0,0.013131579384207726
18.0,0.01244313083589077
20.0,0.011874358169734478
22.0,0.011351821944117546
24.0,0.010917076840996742
26.0,0.010482778772711754
28.0,0.009974080137908459
30.0,0.009426918812096119
32.0,0.008871112950146198
36.0,0.00800257083028555
40.0,0.007436626125127077
44.0,0.007096951827406883
48.0,0.006995995528995991
52.0,0.006928998976945877
56.0,0.00690329959616065
60.0,0.006725596264004707
64.0,0.006533498875796795
72.0,0.006128339562565088
80.0,0.005676554515957832
88.0,0.004859196953475475
96.0,0.004421127960085869
104.0,0.0040304092690348625
112.0,0.003911891020834446
120.0,0.003763598157092929
128.0,0.0034793964587152004
144.0,0.003117775311693549
160.0,0.0020886673592031
176.0,0.0013677634997293353
192.0,0.0016682167770341039
208.0,0.0017671809764578938
224.0,0.0008603211608715355
240.0,0.0004468194965738803
256.0,0.0005122620495967567
288.0,0.0013144181575626135
320.0,0.0017844635294750333
352.0,0.0014631632948294282
384.0,0.001623604097403586
416.0,0.0007581721874885261
448.0,0.0003122121561318636
480.0,-0.00036214868305251
512.0,-0.0006727563450112939
576.0,-0.00039060701965354383
640.0,0.00015856882964726537
704.0,0.00044152478221803904
768.0,-0.0003012836095876992
832.0,-0.0006290350575000048
896.0,-0.0012936864513903856
960.0,-0.0006837649270892143
1024.0,-9.001742910186294e-06
1152.0,-0.0007523586973547935
1280.0,-0.0004269653873052448
1408.0,-0.0005470157484523952
1536.0,-0.0005090184859000146
1664.0,-0.0019282931461930275
1792.0,-0.0018326406134292483
1920.0,-0.0010944284731522202
2048.0,-0.0017437844071537256
2304.0,-9.909494110615924e-05
2560.0,0.0009619352640584111
2816.0,-0.00017130072228610516
3072.0,-0.0017840876244008541
3328.0,-0.0016038529574871063
3584.0,0.00043311549234203994
3840.0,0.0014311695704236627
4096.0,0.0002752474101725966
4608.0,-0.00017123269208241254
5120.0,0.000408834865083918
5632.0,-0.0007796372519806027
6144.0,0.00012437711120583117
6656.0,0.0014736338052898645
7168.0,0.0015983053017407656
7680.0,5.575916475208942e-07
8192.0,-0.0011753500439226627
end
