version,3.0
numOfCh,1
type,point
parent_name,34a6d_0dot6-0dot1
ch_type,1_1
kcount,1
numberNandB,1
brightnessNandB,1
carpet pos,0
pc,0
Time (ms),CH1 Auto-Correlation
1.0,0.02520121820271015
2.0,0.024022698402404785
3.0,0.02300572581589222
4.0,0.022089065983891487
5.0,0.021241867914795876
6.0,0.020468819886446
7.0,0.01973673515021801
8.0,0.019066274166107178
9.0,0.01843140833079815
10.0,0.01781993918120861
11.0,0.0172212366014719
12.0,0.016645006835460663
13.0,0.016080567613244057
14.0,0.015490105375647545
15.0,0.014957324601709843
16.0,0.014480410143733025
18.0,0.013637460768222809
20.0,0.012895659543573856
22.0,0.012211641296744347
24.0,0.011612072587013245
26.0,0.01099887490272522
28.0,0.010400530882179737
30.0,0.009852834045886993
32.0,0.009368703700602055
36.0,0.008541622199118137
40.0,0.007917323149740696
44.0,0.007251065224409103
48.0,0.0065747834742069244
52.0,0.005980782676488161
56.0,0.005446324590593576
60.0,0.004914379213005304
64.0,0.004526776261627674
72.0,0.004301163833588362
80.0,0.004535752348601818
88.0,0.004760604351758957
96.0,0.004566926509141922
104.0,0.004087849520146847
112.0,0.0037934361025691032
120.0,0.0035172852221876383
128.0,0.0035956865176558495
144.0,0.0036030898336321115
160.0,0.0034289408940821886
176.0,0.0027902135625481606
192.0,0.0015980734024196863
208.0,0.0012486553750932217
224.0,0.001393497339449823
240.0,0.00113815872464329
256.0,0.0010534869506955147
288.0,0.002254335442557931
320.0,0.003321385243907571
352.0,0.0025139853823930025
384.0,0.0013449043035507202
416.0,0.0007669220794923604
448.0,0.001201530802063644
480.0,0.0007568522705696523
512.0,-0.00013427113299258053
576.0,2.8923093850607984e-05
640.0,0.0009971695253625512
704.0,-0.00021224650845397264
768.0,-0.0010101823136210442
832.0,-0.0008428137516602874
896.0,-0.00036757992347702384
960.0,-0.0005178998108021915
1024.0,-0.0009777287486940622
1152.0,-0.00023426128609571606
1280.0,-0.00010860543261514977
1408.0,0.00041491285082884133
1536.0,-0.00015569415700156242
1664.0,0.0001519650686532259
1792.0,-4.1169041651301086e-05
1920.0,-0.00019635255739558488
2048.0,-0.0006257109926082194
2304.0,-0.0015443115262314677
2560.0,-0.001037106616422534
2816.0,-0.00046653958270326257
3072.0,-0.0006988624227233231
3328.0,-0.0011020993115380406
3584.0,-0.0022865687496960163
3840.0,-0.003407316980883479
4096.0,0.0003791856288444251
4608.0,0.0011097472161054611
5120.0,-7.82480765337823e-06
5632.0,0.0013558807549998164
6144.0,0.0002985784085467458
6656.0,-0.0013601618120446801
7168.0,-0.0009254040196537971
7680.0,0.0006117072189226747
8192.0,-0.00111798953730613
end
