version,3.0
numOfCh,1
type,point
parent_name,34a6d_0dot6-0dot1
ch_type,1_1
kcount,1
numberNandB,1
brightnessNandB,1
carpet pos,0
pc,0
Time (ms),CH1 Auto-Correlation
1.0,0.022511281073093414
2.0,0.021310754120349884
3.0,0.020239222794771194
4.0,0.019320528954267502
5.0,0.018481984734535217
6.0,0.017701271921396255
7.0,0.016990382224321365
8.0,0.016367491334676743
9.0,0.015762178227305412
10.0,0.015186550095677376
11.0,0.014647228643298149
12.0,0.014146890491247177
13.0,0.013672771863639355
14.0,0.013256787322461605
15.0,0.01286759227514267
16.0,0.012498831376433372
18.0,0.01183275505900383
20.0,0.011206083931028843
22.0,0.010619832202792168
24.0,0.010077224113047123
26.0,0.009579198434948921
28.0,0.009124638512730598
30.0,0.00877644307911396
32.0,0.008449722081422806
36.0,0.007910593412816525
40.0,0.0073699080385267735
44.0,0.006930201780050993
48.0,0.006488613318651915
52.0,0.006098966114223003
56.0,0.005707073025405407
60.0,0.005196461454033852
64.0,0.004737858194857836
72.0,0.004086018074303865
80.0,0.003580176504328847
88.0,0.0033342353999614716
96.0,0.003255577990785241
104.0,0.0031176069751381874
112.0,0.003202738706022501
120.0,0.0029913296457380056
128.0,0.0026993616484105587
144.0,0.002116663847118616
160.0,0.0017943711718544364
176.0,0.001409615040756762
192.0,0.0009128149831667542
208.0,0.00044645811431109905
224.0,0.00015178558533079922
240.0,-0.0003691031306516379
256.0,-0.0010471373097971082
288.0,-0.001995236612856388
320.0,-0.0016215287614613771
352.0,-0.0005740567576140165
384.0,-0.0013851564144715667
416.0,-0.0019027268281206489
448.0,-0.0017172591760754585
480.0,-0.0004975638003088534
512.0,-0.0004415347066242248
576.0,0.0003621603245846927
640.0,-0.00018299365183338523
704.0,0.0003789945039898157
768.0,0.0009345748112536967
832.0,0.0005322227370925248
896.0,-6.746769940946251e-05
960.0,0.000496838241815567
1024.0,0.0004568100266624242
1152.0,0.00011283394997008145
1280.0,-0.0017905051354318857
1408.0,-0.0031936292070895433
1536.0,-0.0004522973031271249
1664.0,0.0013865078799426556
1792.0,-3.6588095099432394e-05
1920.0,-0.001668570563197136
2048.0,-0.001195658347569406
2304.0,-2.7231484637013637e-05
2560.0,0.0008446847787126899
2816.0,-0.00029297027504071593
3072.0,-0.0008655516430735588
3328.0,0.0003001989680342376
3584.0,-0.0003845801402349025
3840.0,0.0005205860361456871
4096.0,-0.00032689591171219945
4608.0,0.00011448543227743357
5120.0,-0.0011023093247786164
5632.0,-0.00019867185619659722
6144.0,0.0005298114265315235
6656.0,0.0007283520535565913
7168.0,0.0007382627227343619
7680.0,-2.904764551203698e-05
8192.0,0.0005457697552628815
end
