version,3.0
numOfCh,1
type,point
parent_name,34a6d_0dot6-0dot1
ch_type,1_1
kcount,1
numberNandB,1
brightnessNandB,1
carpet pos,0
pc,0
Time (ms),CH1 Auto-Correlation
1.0,0.019658228382468224
2.0,0.01858060248196125
3.0,0.01758265122771263
4.0,0.016686584800481796
5.0,0.01583000458776951
6.0,0.015029381029307842
7.0,0.014278419315814972
8.0,0.013607854954898357
9.0,0.01299450546503067
10.0,0.012422436848282814
11.0,0.01189439743757248
12.0,0.01139721367508173
13.0,0.010917275212705135
14.0,0.010504711419343948
15.0,0.010131662711501122
16.0,0.009793753735721111
18.0,0.00920792855322361
20.0,0.008597098290920258
22.0,0.007991708815097809
24.0,0.007506123278290033
26.0,0.007082710508257151
28.0,0.006713071372359991
30.0,0.00637725880369544
32.0,0.0060415021143853664
36.0,0.005456030368804932
40.0,0.005094738211482763
44.0,0.004724989645183086
48.0,0.004343576263636351
52.0,0.004132471047341824
56.0,0.004073815885931253
60.0,0.003964550793170929
64.0,0.0038705954793840647
72.0,0.0035495669580996037
80.0,0.002823054324835539
88.0,0.0022100370842963457
96.0,0.002064630389213562
104.0,0.0018016112735494971
112.0,0.0014445888809859753
120.0,0.0011972433421760798
128.0,0.0012068216456100345
144.0,0.0015655605820938945
160.0,0.0015650225104764104
176.0,0.001560969976708293
192.0,0.001467707334086299
208.0,0.0017451404128223658
224.0,0.00173882523085922
240.0,0.0013027105014771223
256.0,0.0010975830955430865
288.0,0.0008812621817924082
320.0,0.0003314916684757918
352.0,0.0001335717097390443
384.0,-0.00030574758420698345
416.0,-0.0007148795411922038
448.0,-0.00022542137594427913
480.0,0.00023646220506634563
512.0,0.0002443132980260998
576.0,-0.000367876113159582
640.0,-0.0006282397080212831
704.0,-0.00027531577507033944
768.0,0.000504984287545085
832.0,-0.00017606880282983184
896.0,-0.0006763250567018986
960.0,-0.00039987152558751404
1024.0,-0.0002962978614959866
1152.0,-0.0007264790474437177
1280.0,-0.000412363646319136
1408.0,0.00016454700380563736
1536.0,0.00010089902207255363
1664.0,0.0002043827553279698
1792.0,8.442747639492154e-05
1920.0,-0.00044393292046152055
2048.0,9.504693298367783e-05
2304.0,-0.0010037760948762298
2560.0,-0.001566283404827118
2816.0,-0.00013904526713304222
3072.0,0.0005550355999730527
3328.0,-0.0003536072326824069
3584.0,0.00022382561292033643
3840.0,0.0007644524448551238
4096.0,3.0676197638968006e-05
4608.0,-0.0002094393566949293
5120.0,0.00041990590398199856
5632.0,0.0003458682622294873
6144.0,-0.00017494529311079532
6656.0,-0.0010224622674286366
7168.0,-0.0010125284316018224
7680.0,-9.160518675344065e-05
8192.0,9.921240234689321e-06
end
