version,3.0
numOfCh,1
type,point
parent_name,34a6d_0dot6-0dot1
ch_type,1_1
kcount,1
numberNandB,1
brightnessNandB,1
carpet pos,0
pc,0
Time (ms),CH1 Auto-Correlation
1.0,0.02265683002769947
2.0,0.021484697237610817
3.0,0.02040908858180046
4.0,0.01947125233709812
5.0,0.01864474266767502
6.0,0.017922427505254745
7.0,0.017253786325454712
8.0,0.016580654308199883
9.0,0.015927473083138466
10.0,0.015283672139048576
11.0,0.014717529527842999
12.0,0.01417586300522089
13.0,0.013616134412586689
14.0,0.013123026117682457
15.0,0.012691957876086235
16.0,0.012319650501012802
18.0,0.011676553636789322
20.0,0.0110764866694808
22.0,0.010561894625425339
24.0,0.010081705637276173
26.0,0.009618346579372883
28.0,0.009092592634260654
30.0,0.008579391986131668
32.0,0.00818667747080326
36.0,0.007580270059406757
40.0,0.007050327491015196
44.0,0.006579660810530186
48.0,0.0062961820513010025
52.0,0.006103085353970528
56.0,0.0060171508230268955
60.0,0.005867476109415293
64.0,0.0056777396239340305
72.0,0.005035238806158304
80.0,0.0043106903322041035
88.0,0.0035701475571841
96.0,0.0031948783434927464
104.0,0.002819546964019537
112.0,0.0024107838980853558
120.0,0.0024499804712831974
128.0,0.0024946474004536867
144.0,0.0019289391348138452
160.0,0.001605565776117146
176.0,0.0015717765782028437
192.0,0.0017057190416380763
208.0,0.001593052176758647
224.0,0.0016976204933598638
240.0,0.0018268621060997248
256.0,0.0018562537152320147
288.0,0.0012380273547023535
320.0,0.001624719356186688
352.0,0.0007754906546324492
384.0,0.0006355610676109791
416.0,-5.077691457699984e-05
448.0,-0.00011554112279554829
480.0,-5.853588299942203e-05
512.0,-6.206602847669274e-05
576.0,0.0003305957652628422
640.0,-0.0006166202947497368
704.0,-0.0023225550539791584
768.0,-0.0012783693382516503
832.0,-0.0003817293618340045
896.0,-0.0004914421588182449
960.0,-0.0015361818950623274
1024.0,-0.0009657350019551814
1152.0,0.0007361198659054935
1280.0,-0.00020059723465237767
1408.0,-0.0012093759141862392
1536.0,-0.0006891029188409448
1664.0,6.685116386506706e-05
1792.0,0.0004784795455634594
1920.0,-0.0003660712973214686
2048.0,0.0007320200675167143
2304.0,0.001801254809834063
2560.0,9.624959056964144e-05
2816.0,-0.001702843583188951
3072.0,-0.0020333260763436556
3328.0,-0.0008345230598933995
3584.0,-0.0012111954856663942
3840.0,-0.0019060891354456544
4096.0,-0.0005840451922267675
4608.0,0.000490560254547745
5120.0,-0.00019170438463333994
5632.0,0.0002657314471434802
6144.0,-0.00025665576686151326
6656.0,0.0006768166786059737
7168.0,0.0005124983144924045
7680.0,0.0004648338945116848
8192.0,-0.00016358884749934077
end
