version,3.0
numOfCh,1
type,point
parent_name,34a6d_0dot6-0dot1
ch_type,1_1
kcount,1
numberNandB,1
brightnessNandB,1
carpet pos,0
pc,0
Time (ms),CH1 Auto-Correlation
1.0,0.02263116091489792
2.0,0.021482782438397408
3.0,0.020431576296687126
4.0,0.019475240260362625
5.0,0.0186180230230093
6.0,0.017796216532588005
7.0,0.017058031633496284
8.0,0.016362307593226433
9.0,0.015739545226097107
10.0,0.015164424665272236
11.0,0.014669010415673256
12.0,0.014194944873452187
13.0,0.013751584105193615
14.0,0.013312597759068012
15.0,0.01290452666580677
16.0,0.012522765435278416
18.0,0.011855421587824821
20.0,0.011281687766313553
22.0,0.010799252428114414
24.0,0.01031555887311697
26.0,0.00987636111676693
28.0,0.009495656006038189
30.0,0.009072085842490196
32.0,0.008694526739418507
36.0,0.008128616027534008
40.0,0.0076062241569161415
44.0,0.007116341032087803
48.0,0.0067180609330534935
52.0,0.006399696227163076
56.0,0.00605974392965436
60.0,0.005841278936713934
64.0,0.005748003255575895
72.0,0.005339788272976875
80.0,0.004994097165763378
88.0,0.00532224727794528
96.0,0.00537452707067132
104.0,0.005001875106245279
112.0,0.004284978378564119
120.0,0.003917243797332048
128.0,0.0038686469197273254
144.0,0.0035542442928999662
160.0,0.0030003883875906467
176.0,0.001722941524349153
192.0,0.0009674896718934178
208.0,0.000852043682243675
224.0,0.0010084578534588218
240.0,0.0015526094939559698
256.0,0.00202166591770947
288.0,0.002251531695947051
320.0,0.0017054766649380326
352.0,0.0012941710883751512
384.0,0.0018609340768307447
416.0,0.0010088615817949176
448.0,-0.0005972752114757895
480.0,-0.0009122032206505537
512.0,-0.0018514987314119935
576.0,-0.0016371033852919936
640.0,-0.0012241860385984182
704.0,-0.0006331555778160691
768.0,-0.0008686073124408722
832.0,-0.001544523169286549
896.0,-0.001097461092285812
960.0,0.0001405335497111082
1024.0,0.0009857482509687543
1152.0,0.00020499457605183125
1280.0,-0.0010988361900672317
1408.0,-0.0009878838900476694
1536.0,-0.00038046619738452137
1664.0,-0.0005808132700622082
1792.0,-0.0003119122702628374
1920.0,0.0015336028300225735
2048.0,0.001264879945665598
2304.0,0.0007886897656135261
2560.0,-0.0009609611588530242
2816.0,-0.0022894914727658033
3072.0,-0.0022345937322825193
3328.0,-0.0011438610963523388
3584.0,-0.00044535918277688324
3840.0,0.00014810248103458434
4096.0,0.001449925359338522
4608.0,-0.000328207912389189
5120.0,-0.0016130602452903986
5632.0,-0.0009123023482970893
6144.0,0.0015632400754839182
6656.0,-0.0003256310592405498
7168.0,-0.0008138713892549276
7680.0,-0.00020156876416876912
8192.0,0.003318504197522998
end
