version,3.0
numOfCh,1
type,point
parent_name,34a6d_0dot6-0dot1
ch_type,1_1
kcount,1
numberNandB,1
brightnessNandB,1
carpet pos,0
pc,0
Time (ms),CH1 Auto-Correlation
1.0,0.022031890228390694
2.0,0.020901236683130264
3.0,0.01989753358066082
4.0,0.01896832510828972
5.0,0.018104078248143196
6.0,0.017330434173345566
7.0,0.01659860834479332
8.0,0.015903392806649208
9.0,0.015269102528691292
10.0,0.014681032858788967
11.0,0.014166063629090786
12.0,0.01369862537831068
13.0,0.01323013473302126
14.0,0.012806323356926441
15.0,0.012368801981210709
16.0,0.011943028308451176
18.0,0.01121046207845211
20.0,0.010477814823389053
22.0,0.009809187613427639
24.0,0.009210221469402313
26.0,0.008739564567804337
28.0,0.008362413384020329
30.0,0.007997173815965652
32.0,0.007680585142225027
36.0,0.007114393636584282
40.0,0.006595187820494175
44.0,0.006160997319966555
48.0,0.005917605943977833
52.0,0.005584965460002422
56.0,0.0051772515289485455
60.0,0.004909940529614687
64.0,0.004539262503385544
72.0,0.0038053886964917183
80.0,0.003276678966358304
88.0,0.0028872229158878326
96.0,0.0026625527534633875
104.0,0.0023786434903740883
112.0,0.0023762129712849855
120.0,0.002074729185551405
128.0,0.0017934482311829925
144.0,0.0012451355578377843
160.0,0.0010036667808890343
176.0,0.0008553090156055987
192.0,0.0007900365744717419
208.0,0.0010183728300035
224.0,0.0011950192274525762
240.0,0.0017763071227818727
256.0,0.001742715248838067
288.0,0.00028900912730023265
320.0,0.0004519144131336361
352.0,0.001394732971675694
384.0,0.0012494942639023066
416.0,0.0005122473812662065
448.0,-0.00022552907466888428
480.0,-0.00036409960011951625
512.0,-7.884972001193091e-05
576.0,-0.0006854604580439627
640.0,0.0002476353256497532
704.0,0.0011273500276729465
768.0,0.0011736946180462837
832.0,0.0009432854712940753
896.0,0.0013148310827091336
960.0,0.0013000767212361097
1024.0,0.0008838534122332931
1152.0,0.000781296519562602
1280.0,-0.0014528571628034115
1408.0,-0.0010464568622410297
1536.0,-0.0007402744959108531
1664.0,-0.0006758671952411532
1792.0,-0.001228845794685185
1920.0,-0.00014825689140707254
2048.0,-0.0008353358716703951
2304.0,-0.00018553539121057838
2560.0,-0.0018400410190224648
2816.0,-0.0009792243363335729
3072.0,0.0007796714780852199
3328.0,0.00028439928428269923
3584.0,-0.000841043540276587
3840.0,0.0005711085395887494
4096.0,0.0019926053937524557
4608.0,0.00039942128933034837
5120.0,0.0002900203107856214
5632.0,0.00018662803631741554
6144.0,-0.00035696846316568553
6656.0,-0.0021405015140771866
7168.0,0.00011131008068332449
7680.0,-0.0011251094983890653
8192.0,0.0016695852391421795
end
