version,3.0
numOfCh,1
type,point
parent_name,34a6d_0dot6-0dot1
ch_type,1_1
kcount,1
numberNandB,1
brightnessNandB,1
carpet pos,0
pc,0
Time (ms),CH1 Auto-Correlation
1.0,0.024206707254052162
2.0,0.02302977256476879
3.0,0.02194056287407875
4.0,0.020973244681954384
5.0,0.02011420577764511
6.0,0.019322732463479042
7.0,0.018589068204164505
8.0,0.01792834885418415
9.0,0.01733977720141411
10.0,0.01682683639228344
11.0,0.016324732452630997
12.0,0.0158680509775877
13.0,0.015429899096488953
14.0,0.015049422159790993
15.0,0.014632522128522396
16.0,0.014232293702661991
18.0,0.013456693850457668
20.0,0.012719565071165562
22.0,0.012031902559101582
24.0,0.011352484114468098
26.0,0.01077280007302761
28.0,0.010289914906024933
30.0,0.009852253831923008
32.0,0.009525230154395103
36.0,0.008991226553916931
40.0,0.008412811905145645
44.0,0.007780467625707388
48.0,0.0071535492315888405
52.0,0.00659648422151804
56.0,0.006193916779011488
60.0,0.006025274284183979
64.0,0.005862184334546328
72.0,0.005463655572384596
80.0,0.005339831113815308
88.0,0.005068724974989891
96.0,0.004519808571785688
104.0,0.003989125601947308
112.0,0.0038412241265177727
120.0,0.0035511364694684744
128.0,0.003069519530981779
144.0,0.0021753355395048857
160.0,0.001706025912426412
176.0,0.0010918689658865333
192.0,0.0005880502867512405
208.0,0.0003448332427069545
224.0,0.0004309364303480834
240.0,0.0008106736931949854
256.0,0.0011171618243679404
288.0,0.0008288246463052928
320.0,0.0009441871079616249
352.0,0.000889170856680721
384.0,0.0008136843098327518
416.0,0.0010870759142562747
448.0,0.0015100378077477217
480.0,0.001486651599407196
512.0,0.001417602994479239
576.0,0.0018068660283461213
640.0,0.0004952287999913096
704.0,-4.6156197640812024e-05
768.0,0.00027296660118736327
832.0,0.00043608294799923897
896.0,0.0007083307136781514
960.0,-0.00025263987481594086
1024.0,-0.0006866654148325324
1152.0,-0.0008676485158503056
1280.0,-0.0023643122985959053
1408.0,-0.0018895742250606418
1536.0,-0.001184060238301754
1664.0,-0.0006787267047911882
1792.0,-0.0023508588783442974
1920.0,-0.0009872406953945756
2048.0,-6.625807873206213e-05
2304.0,-0.0001731275551719591
2560.0,0.0006346970330923796
2816.0,0.003142326371744275
3072.0,0.0025880951434373856
3328.0,0.001688096090219915
3584.0,-0.0006709404988214374
3840.0,0.00036126241320744157
4096.0,-0.00063650484662503
4608.0,-0.001727142371237278
5120.0,-0.0006524576456286013
5632.0,0.0011084898142144084
6144.0,0.002196989255025983
6656.0,-0.001404196722432971
7168.0,-0.001919823233038187
7680.0,-0.0020582310389727354
8192.0,-0.0008906819857656956
end
