version,3.0
numOfCh,1
type,point
parent_name,34a6d_0dot6-0dot1
ch_type,1_1
kcount,1
numberNandB,1
brightnessNandB,1
carpet pos,0
pc,0
Time (ms),CH1 Auto-Correlation
1.0,0.02385924942791462
2.0,0.02265036851167679
3.0,0.021560508757829666
4.0,0.02057342417538166
5.0,0.019656427204608917
6.0,0.01880500651896
7.0,0.018032897263765335
8.0,0.01733667403459549
9.0,0.016650650650262833
10.0,0.016063382849097252
11.0,0.015465493313968182
12.0,0.01494122575968504
13.0,0.014440638944506645
14.0,0.013930718414485455
15.0,0.01344327162951231
16.0,0.012990664690732956
18.0,0.012132537551224232
20.0,0.011335560120642185
22.0,0.010584807023406029
24.0,0.009918340481817722
26.0,0.009294826537370682
28.0,0.008676378056406975
30.0,0.008032180368900299
32.0,0.007408555131405592
36.0,0.006403484847396612
40.0,0.005619054660201073
44.0,0.004908210132271051
48.0,0.004167054779827595
52.0,0.003537324722856283
56.0,0.0030212500132620335
60.0,0.00264477520249784
64.0,0.0023220619186758995
72.0,0.0016390160890296102
80.0,0.0012604881776496768
88.0,0.0012196038151159883
96.0,0.0010955873876810074
104.0,0.0008535209926776588
112.0,0.0007358211441896856
120.0,0.0006563887582160532
128.0,0.0007147162104956806
144.0,0.0008518281392753124
160.0,0.0007364435005001724
176.0,0.0007549879956059158
192.0,0.0013687171740457416
208.0,0.0019987730775028467
224.0,0.0026281680911779404
240.0,0.0024471303913742304
256.0,0.001670490950345993
288.0,0.0013046548701822758
320.0,0.0008896056097000837
352.0,0.0007195264915935695
384.0,0.0008879574597813189
416.0,0.00028490895056165755
448.0,-0.0006103103514760733
480.0,-0.00039722854853607714
512.0,0.0001907811820274219
576.0,-1.4750217815162614e-05
640.0,0.0006979298777878284
704.0,0.0013652693014591932
768.0,0.0010036767926067114
832.0,-0.0003922802861779928
896.0,-0.00033809919841587543
960.0,0.00047437637113034725
1024.0,0.0010127199348062277
1152.0,0.0004097147029824555
1280.0,8.423201506957412e-05
1408.0,0.001556973671540618
1536.0,-0.00038932161987759173
1664.0,-0.0010383839253336191
1792.0,0.0005078979884274304
1920.0,-2.8148637284175493e-05
2048.0,0.0010181603720411658
2304.0,-0.0006723481928929687
2560.0,0.0005636985297314823
2816.0,-0.0005931311752647161
3072.0,-0.0016705410089343786
3328.0,0.0004753174143843353
3584.0,0.0013571891468018293
3840.0,0.0004181441036053002
4096.0,-0.0011001572711393237
4608.0,0.0010724578751251101
5120.0,-0.0010618418455123901
5632.0,-0.0006361284176819026
6144.0,-0.0009825017768889666
6656.0,-0.002203951822593808
7168.0,0.0012382433051243424
7680.0,0.0009623433579690754
8192.0,-0.0009672273299656808
end
