version,3.0
numOfCh,1
type,point
parent_name,34a6d_0dot6-0dot1
ch_type,1_1
kcount,1
numberNandB,1
brightnessNandB,1
carpet pos,0
pc,0
Time (ms),CH1 Auto-Correlation
1.0,0.0390138104557991
2.0,0.037369392812252045
3.0,0.03584973141551018
4.0,0.03459172695875168
5.0,0.033487796783447266
6.0,0.03254573047161102
7.0,0.0315936803817749
8.0,0.030634703114628792
9.0,0.029784074053168297
10.0,0.02890927903354168
11.0,0.028043344616889954
12.0,0.027285633608698845
13.0,0.026600347831845284
14.0,0.025975435972213745
15.0,0.025376416742801666
16.0,0.024778218939900398
18.0,0.023715319111943245
20.0,0.022632651031017303
22.0,0.021473539993166924
24.0,0.020446034148335457
26.0,0.01947886496782303
28.0,0.018568305298686028
30.0,0.01762593351304531
32.0,0.016796734184026718
36.0,0.015670401975512505
40.0,0.014744476415216923
44.0,0.013945112004876137
48.0,0.01283071469515562
52.0,0.011531336233019829
56.0,0.010766958817839622
60.0,0.009846165776252747
64.0,0.009036343544721603
72.0,0.007956886664032936
80.0,0.006869241129606962
88.0,0.005204094108194113
96.0,0.003155485726892948
104.0,0.0015012708026915789
112.0,0.0010183976264670491
120.0,0.0013454490108415484
128.0,0.0016756788827478886
144.0,0.0016023815842345357
160.0,0.0010098132770508528
176.0,0.0003644156386144459
192.0,-0.0003413846716284752
208.0,-0.0008537211106158793
224.0,-0.0005389217403717339
240.0,-0.00017999416741076857
256.0,-0.000853232981171459
288.0,0.0008174926042556763
320.0,0.0012642198707908392
352.0,0.0004810442915186286
384.0,0.00014862595708109438
416.0,-0.0013926448300480843
448.0,-0.0023854870814830065
480.0,-0.004885200411081314
512.0,-0.006058032158762217
576.0,-0.004565157927572727
640.0,-0.0016757800476625562
704.0,-0.001137812971137464
768.0,-0.0010531633161008358
832.0,-0.00106175581458956
896.0,-0.0008987370529212058
960.0,0.00034948167740367353
1024.0,0.0020628890488296747
1152.0,0.002215953776612878
1280.0,0.0008793668821454048
1408.0,0.0012361470144242048
1536.0,-0.0005442434921860695
1664.0,-0.00027551938546821475
1792.0,-0.001583595760166645
1920.0,-0.001656625303439796
2048.0,-0.0009704685071483254
2304.0,-0.0018233548616990447
2560.0,-0.001110738841816783
2816.0,0.0004550275334622711
3072.0,0.0024932583328336477
3328.0,0.0010104863904416561
3584.0,-0.002104660030454397
3840.0,-0.002152550034224987
4096.0,0.0013586165150627494
4608.0,-0.0009239351493306458
5120.0,-0.001801474136300385
5632.0,-0.0008740736520849168
6144.0,0.002104781335219741
6656.0,-0.0006233328022062778
7168.0,0.0025361625012010336
7680.0,0.0016943386290222406
8192.0,-0.005152042955160141
end
