version,3.0
numOfCh,1
type,point
parent_name,34a6d_0dot6-0dot1
ch_type,1_1
kcount,1
numberNandB,1
brightnessNandB,1
carpet pos,0
pc,0
Time (ms),CH1 Auto-Correlation
1.0,0.02054411545395851
2.0,0.019366949796676636
3.0,0.018316831439733505
4.0,0.017380857840180397
5.0,0.0165440421551466
6.0,0.01581343449652195
7.0,0.015159757807850838
8.0,0.014561287127435207
9.0,0.014030986465513706
10.0,0.013540003448724747
11.0,0.013051746413111687
12.0,0.012604061514139175
13.0,0.012224323116242886
14.0,0.011832112446427345
15.0,0.011445768177509308
16.0,0.01106770895421505
18.0,0.010382965207099915
20.0,0.009710028767585754
22.0,0.009159731678664684
24.0,0.008702144026756287
26.0,0.008287407457828522
28.0,0.007879339158535004
30.0,0.007570164278149605
32.0,0.007293621078133583
36.0,0.006773157976567745
40.0,0.006333041470497847
44.0,0.005935654044151306
48.0,0.005651981104165316
52.0,0.005363851319998503
56.0,0.005030170548707247
60.0,0.00461379811167717
64.0,0.004207944497466087
72.0,0.003776578465476632
80.0,0.0034173817839473486
88.0,0.0030543175525963306
96.0,0.002615155652165413
104.0,0.002431752858683467
112.0,0.0022891105618327856
120.0,0.0024621416814625263
128.0,0.00269380584359169
144.0,0.0026146606542170048
160.0,0.0022585003171116114
176.0,0.0021378782112151384
192.0,0.0018325388664379716
208.0,0.0018576617585495114
224.0,0.0019844593480229378
240.0,0.0017044499982148409
256.0,0.0012514840345829725
288.0,0.0012430171482264996
320.0,0.0009013694361783564
352.0,0.0009137325687333941
384.0,0.0015419332776218653
416.0,0.0019368850626051426
448.0,0.0018124288180842996
480.0,0.000644458457827568
512.0,-0.000472042738692835
576.0,0.001225378131493926
640.0,0.0015720454975962639
704.0,0.0005742390058003366
768.0,0.000285818096017465
832.0,0.00021844511502422392
896.0,-0.0007026118109934032
960.0,-0.0014186083571985364
1024.0,-0.0005260714096948504
1152.0,-0.0014632035745307803
1280.0,-0.0011162273585796356
1408.0,-0.00082595698768273
1536.0,0.00023171480279415846
1664.0,-8.658421575091779e-05
1792.0,-0.0007119736983440816
1920.0,-0.00100469752214849
2048.0,-0.0006065091583877802
2304.0,-0.0004485453537199646
2560.0,0.00046668053255416453
2816.0,0.0007483745575882494
3072.0,0.0016120627988129854
3328.0,0.0017088318709284067
3584.0,0.000795509316958487
3840.0,-0.00034606968984007835
4096.0,-0.0008292127749882638
4608.0,0.00011545113375177607
5120.0,-0.00036270145210437477
5632.0,-0.0004081915831193328
6144.0,0.00020614104869309813
6656.0,-3.368587567820214e-05
7168.0,-0.0003640241629909724
7680.0,3.207863119314425e-05
8192.0,-0.000620530336163938
end
