version,3.0
numOfCh,1
type,point
parent_name,34a6d_0dot6-0dot1
ch_type,1_1
kcount,1
numberNandB,1
brightnessNandB,1
carpet pos,0
pc,0
Time (ms),CH1 Auto-Correlation
1.0,0.022944742813706398
2.0,0.021586529910564423
3.0,0.02031225897371769
4.0,0.01934894174337387
5.0,0.01846633106470108
6.0,0.01765080727636814
7.0,0.016891567036509514
8.0,0.01622968167066574
9.0,0.015634432435035706
10.0,0.01506294496357441
11.0,0.014591175131499767
12.0,0.014150409959256649
13.0,0.01371005829423666
14.0,0.013257361017167568
15.0,0.012844585813581944
16.0,0.01248195394873619
18.0,0.011793996207416058
20.0,0.011175778694450855
22.0,0.010682783089578152
24.0,0.010170494206249714
26.0,0.009626917541027069
28.0,0.009247398003935814
30.0,0.008893770165741444
32.0,0.00853001419454813
36.0,0.007847151719033718
40.0,0.007366074714809656
44.0,0.00695638544857502
48.0,0.006622261367738247
52.0,0.006135538686066866
56.0,0.005812698043882847
60.0,0.005597100127488375
64.0,0.0054485066793859005
72.0,0.005101518239825964
80.0,0.004677345510572195
88.0,0.004472013097256422
96.0,0.0037116704043000937
104.0,0.002978879027068615
112.0,0.002838965505361557
120.0,0.0026325159706175327
128.0,0.0025176312774419785
144.0,0.0020804894156754017
160.0,0.0016460714396089315
176.0,0.0014661032473668456
192.0,0.0010006838710978627
208.0,0.00022727303439751267
224.0,-0.0007062830845825374
240.0,-0.0012493070680648088
256.0,-0.0008014852064661682
288.0,0.00035804533399641514
320.0,0.000582673295866698
352.0,0.0014260360039770603
384.0,0.0008155499235726893
416.0,0.0005696669686585665
448.0,0.0009078031871467829
480.0,0.000566793663892895
512.0,0.0006133015849627554
576.0,0.0013339138822630048
640.0,0.0008814563625492156
704.0,0.000174845103174448
768.0,-0.00042420090176165104
832.0,-0.0002706022933125496
896.0,0.0004980548401363194
960.0,-0.00047480224748142064
1024.0,-0.0004204473807476461
1152.0,-0.000635835574939847
1280.0,-0.00040445791091769934
1408.0,-0.00027445610612630844
1536.0,-0.0011117048561573029
1664.0,-0.0004645244334824383
1792.0,-0.0009092034306377172
1920.0,-0.0013022881466895342
2048.0,-0.001123699825257063
2304.0,-0.0015481491573154926
2560.0,-0.0014390430878847837
2816.0,-0.0008272099657915533
3072.0,-0.0020125755108892918
3328.0,-0.0004869830154348165
3584.0,0.0012828345643356442
3840.0,0.0016476195305585861
4096.0,0.0014216650743037462
4608.0,0.0015993325505405664
5120.0,-0.0006554134306497872
5632.0,0.0009700741502456367
6144.0,-0.0014687258517369628
6656.0,-0.0011263280175626278
7168.0,-0.00015128051745705307
7680.0,-0.0013438818277791142
8192.0,0.002245422452688217
end
