version,3.0
numOfCh,1
type,point
parent_name,34a6d_0dot6-0dot1
ch_type,1_1
kcount,1
numberNandB,1
brightnessNandB,1
carpet pos,0
pc,0
Time (ms),CH1 Auto-Correlation
1.0,0.02478136122226715
2.0,0.023597009479999542
3.0,0.02249782346189022
4.0,0.021479006856679916
5.0,0.02054067701101303
6.0,0.01971534639596939
7.0,0.018936768174171448
8.0,0.018216252326965332
9.0,0.01757284253835678
10.0,0.016961723566055298
11.0,0.01640634983778
12.0,0.01590081676840782
13.0,0.015437292866408825
14.0,0.014988692477345467
15.0,0.014592104591429234
16.0,0.014213034883141518
18.0,0.013481607660651207
20.0,0.012792375870049
22.0,0.012135661207139492
24.0,0.011539105325937271
26.0,0.011038731783628464
28.0,0.010590645484626293
30.0,0.010138737969100475
32.0,0.00969275925308466
36.0,0.008907077834010124
40.0,0.008191985078155994
44.0,0.007657936308532953
48.0,0.0071902405470609665
52.0,0.006782734300941229
56.0,0.00632971478626132
60.0,0.005953896790742874
64.0,0.0056932056322693825
72.0,0.004892056807875633
80.0,0.004511745646595955
88.0,0.004249708727002144
96.0,0.004456814844161272
104.0,0.0045326342806220055
112.0,0.0046847001649439335
120.0,0.004842646420001984
128.0,0.005109571851789951
144.0,0.005526646971702576
160.0,0.005455329082906246
176.0,0.005291503854095936
192.0,0.0042894380167126656
208.0,0.0031359028071165085
224.0,0.0022902637720108032
240.0,0.00195966474711895
256.0,0.0017669862136244774
288.0,0.0015210288111120462
320.0,0.001661319169215858
352.0,0.001917898771353066
384.0,0.001086449483409524
416.0,0.0003649940190371126
448.0,1.2313329534663353e-05
480.0,0.0006594444857910275
512.0,-9.589039837010205e-05
576.0,-0.0015290563460439444
640.0,-0.0010410083923488855
704.0,-0.000926201872061938
768.0,-0.0011133369989693165
832.0,-0.002037008525803685
896.0,-0.0018021980067715049
960.0,-0.0017766348319128156
1024.0,-0.0023578426335006952
1152.0,-0.0019820132292807102
1280.0,-0.0011579415295273066
1408.0,0.0002799112698994577
1536.0,0.0016398061998188496
1664.0,0.0025418612640351057
1792.0,0.0019639842212200165
1920.0,0.0011028028093278408
2048.0,0.0009429231286048889
2304.0,0.0006704208208248019
2560.0,-0.00014648229989688843
2816.0,-0.0007748159114271402
3072.0,0.0002086815220536664
3328.0,0.0009938544826582074
3584.0,0.0017421547090634704
3840.0,0.0009310155874118209
4096.0,-0.0012008757330477238
4608.0,-0.0009152988204732537
5120.0,-0.00036603983608074486
5632.0,0.0012531643733382225
6144.0,0.0016046834643930197
6656.0,-0.0025877247098833323
7168.0,-0.0004745042824652046
7680.0,0.0011007088469341397
8192.0,-0.0029108000453561544
end
