version,3.0
numOfCh,1
type,point
parent_name,34a6d_0dot6-0dot1
ch_type,1_1
kcount,1
numberNandB,1
brightnessNandB,1
carpet pos,0
pc,0
Time (ms),CH1 Auto-Correlation
1.0,0.02135317213833332
2.0,0.02019970864057541
3.0,0.019197648391127586
4.0,0.018292374908924103
5.0,0.017468534409999847
6.0,0.01674474962055683
7.0,0.016097750514745712
8.0,0.01549552846699953
9.0,0.014962506480515003
10.0,0.014433341100811958
11.0,0.013923878781497478
12.0,0.013407979160547256
13.0,0.012941894121468067
14.0,0.012513777241110802
15.0,0.012106250040233135
16.0,0.011728473007678986
18.0,0.010967854410409927
20.0,0.010298878885805607
22.0,0.009666459634900093
24.0,0.0090048061683774
26.0,0.00839282013475895
28.0,0.007795043755322695
30.0,0.007209884934127331
32.0,0.006684756372123957
36.0,0.005900721065700054
40.0,0.005213472526520491
44.0,0.004571711178869009
48.0,0.00406936090439558
52.0,0.0036317622289061546
56.0,0.00335448095574975
60.0,0.003041474847123027
64.0,0.0028104078955948353
72.0,0.00233396771363914
80.0,0.0018877661786973476
88.0,0.0015035888645797968
96.0,0.0010072544682770967
104.0,0.000772886152844876
112.0,0.0006127301603555679
120.0,0.00048826172132976353
128.0,6.115943688200787e-05
144.0,7.769859075779095e-05
160.0,0.0002746509271673858
176.0,0.00017013172328006476
192.0,0.00023328204406425357
208.0,-0.00014663209731224924
224.0,-0.0004466861137188971
240.0,-0.0003069789381697774
256.0,-0.00011619899305514991
288.0,0.0012296470813453197
320.0,0.0010217053350061178
352.0,0.0002140164579031989
384.0,-0.0005545075400732458
416.0,-0.0005015270435251296
448.0,-0.001130569726228714
480.0,-0.001848147134296596
512.0,-0.0020844622049480677
576.0,-0.00025472824927419424
640.0,0.0009040494915097952
704.0,0.0009911723900586367
768.0,0.0012226620456203818
832.0,2.652408329595346e-05
896.0,0.0006356016965582967
960.0,0.0009370684856548905
1024.0,0.0014285034267231822
1152.0,0.00028457658481784165
1280.0,0.0005560569697991014
1408.0,-0.0004741473530884832
1536.0,-0.0009452881058678031
1664.0,-0.0011207411298528314
1792.0,-9.401149145560339e-05
1920.0,0.00033522845478728414
2048.0,0.0010396376019343734
2304.0,-0.0006717736832797527
2560.0,-4.562866251944797e-06
2816.0,0.0005549646448343992
3072.0,-3.638912312453613e-05
3328.0,-0.0013826843351125717
3584.0,-0.0011605746112763882
3840.0,-0.0006553136627189815
4096.0,-0.00041924146353267133
4608.0,-4.4895001337863505e-05
5120.0,0.00048692396376281977
5632.0,0.0007100917282514274
6144.0,0.0003273403854109347
6656.0,0.0002938259276561439
7168.0,-6.115582800703123e-05
7680.0,0.00136103096883744
8192.0,-0.00035287044011056423
end
