version,3.0
numOfCh,1
type,point
parent_name,34a6d_0dot6-0dot1
ch_type,1_1
kcount,1
numberNandB,1
brightnessNandB,1
carpet pos,0
pc,0
Time (ms),CH1 Auto-Correlation
1.0,0.027143435552716255
2.0,0.025943240150809288
3.0,0.024858921766281128
4.0,0.023858632892370224
5.0,0.022945586591959
6.0,0.022076193243265152
7.0,0.021294308826327324
8.0,0.020592493936419487
9.0,0.019911523908376694
10.0,0.019296344369649887
11.0,0.01873745024204254
12.0,0.018206652253866196
13.0,0.01775810308754444
14.0,0.017394153401255608
15.0,0.017043694853782654
16.0,0.01671806536614895
18.0,0.016054630279541016
20.0,0.015377593226730824
22.0,0.014683873392641544
24.0,0.014024312607944012
26.0,0.013391595333814621
28.0,0.012860897928476334
30.0,0.01234382577240467
32.0,0.011816459707915783
36.0,0.01078586746007204
40.0,0.010058616288006306
44.0,0.009589114226400852
48.0,0.009187809191644192
52.0,0.008632474578917027
56.0,0.008081639185547829
60.0,0.0077019850723445415
64.0,0.0075560943223536015
72.0,0.007178046274930239
80.0,0.006846581120043993
88.0,0.006275990512222052
96.0,0.005634434055536985
104.0,0.005404788069427013
112.0,0.00555264949798584
120.0,0.005789806600660086
128.0,0.005944539327174425
144.0,0.006120356731116772
160.0,0.005410994868725538
176.0,0.004779051523655653
192.0,0.004097877535969019
208.0,0.0035908424761146307
224.0,0.004014586564153433
240.0,0.004329537972807884
256.0,0.004298600368201733
288.0,0.003991628065705299
320.0,0.004153150599449873
352.0,0.004777801223099232
384.0,0.004494510591030121
416.0,0.0032615927048027515
448.0,0.0038739126175642014
480.0,0.00418784050270915
512.0,0.004495522473007441
576.0,0.003991966135799885
640.0,0.003908309619873762
704.0,0.003993592225015163
768.0,0.0037703942507505417
832.0,0.003570189932361245
896.0,0.0015566654037684202
960.0,0.002200457965955138
1024.0,0.002380413468927145
1152.0,0.0017684082267805934
1280.0,0.001067403587512672
1408.0,0.0003120543551631272
1536.0,0.001824434264563024
1664.0,0.0015743528492748737
1792.0,0.0013827714137732983
1920.0,0.00026557649835012853
2048.0,4.201665069558658e-05
2304.0,-0.0021730924490839243
2560.0,-0.0014160529244691133
2816.0,-0.0019075375748798251
3072.0,-0.0027609849348664284
3328.0,-0.0032193013466894627
3584.0,-0.001811176654882729
3840.0,-0.0014272094704210758
4096.0,-0.004613474477082491
4608.0,-0.0014538950053974986
5120.0,-0.0011031446047127247
5632.0,0.00021686634863726795
6144.0,-0.00040950372931547463
6656.0,0.0004064036766067147
7168.0,-0.0014057332882657647
7680.0,-0.0023733163252472878
8192.0,-0.0022571831941604614
end
