version,3.0
numOfCh,1
type,point
parent_name,34a6d_0dot6-0dot1
ch_type,1_1
kcount,1
numberNandB,1
brightnessNandB,1
carpet pos,0
pc,0
Time (ms),CH1 Auto-Correlation
1.0,0.02246997505426407
2.0,0.021177927032113075
3.0,0.02005191147327423
4.0,0.01905924268066883
5.0,0.018140584230422974
6.0,0.017277181148529053
7.0,0.01645943708717823
8.0,0.01571243815124035
9.0,0.015012072399258614
10.0,0.014315333217382431
11.0,0.013631243258714676
12.0,0.013007615692913532
13.0,0.01246146485209465
14.0,0.011923903599381447
15.0,0.011400275863707066
16.0,0.010936705395579338
18.0,0.010149313136935234
20.0,0.009431631304323673
22.0,0.008775126188993454
24.0,0.008251522667706013
26.0,0.007866631262004375
28.0,0.007541974540799856
30.0,0.007264713756740093
32.0,0.007061567157506943
36.0,0.0066071320325136185
40.0,0.006063355132937431
44.0,0.005515524186193943
48.0,0.0049131992273032665
52.0,0.004251021891832352
56.0,0.0037368685007095337
60.0,0.0032731511164456606
64.0,0.003004378406330943
72.0,0.0028690556064248085
80.0,0.0027485969476401806
88.0,0.0025180880911648273
96.0,0.0020473506301641464
104.0,0.0017421344527974725
112.0,0.0016017415327951312
120.0,0.0017054228810593486
128.0,0.0020791117567569017
144.0,0.002769150072708726
160.0,0.0030132001265883446
176.0,0.0030367861036211252
192.0,0.0032665501348674297
208.0,0.002507163677364588
224.0,0.0025064849760383368
240.0,0.0024519453290849924
256.0,0.0017113825306296349
288.0,0.001778414356522262
320.0,0.0014344677329063416
352.0,0.001499509671702981
384.0,0.0013992367312312126
416.0,0.0005775060853920877
448.0,0.00039878737879917026
480.0,0.0005903847049921751
512.0,0.0009757717489264905
576.0,0.00047815387370064855
640.0,0.0006915199919603765
704.0,0.0005814353353343904
768.0,0.0003686241980176419
832.0,0.00034870131639763713
896.0,0.0016290403436869383
960.0,0.002056556288152933
1024.0,0.0012974052224308252
1152.0,0.0010436975862830877
1280.0,0.0014948993921279907
1408.0,0.0004239192930981517
1536.0,0.00048678868915885687
1664.0,0.00011664109479170293
1792.0,-0.0003776195808313787
1920.0,0.00016086369578260928
2048.0,0.0006671400624327362
2304.0,9.593339927960187e-05
2560.0,-0.0022304500453174114
2816.0,-0.0013741065049543977
3072.0,0.0002979542769026011
3328.0,0.0011240439489483833
3584.0,-0.0010861762566491961
3840.0,-0.00214272178709507
4096.0,-0.0010730932699516416
4608.0,-0.0015768083976581693
5120.0,-0.0011926867300644517
5632.0,-0.0009749039309099317
6144.0,-0.00213454756885767
6656.0,0.0009172898135147989
7168.0,-2.7571961254579946e-05
7680.0,0.0002837131323758513
8192.0,0.00024561784812249243
end
