version,3.0
numOfCh,1
type,point
parent_name,34a6d_0dot6-0dot1
ch_type,1_1
kcount,1
numberNandB,1
brightnessNandB,1
carpet pos,0
pc,0
Time (ms),CH1 Auto-Correlation
1.0,0.023417871445417404
2.0,0.022212708368897438
3.0,0.021084226667881012
4.0,0.020056767389178276
5.0,0.01912306435406208
6.0,0.018249303102493286
7.0,0.01747499220073223
8.0,0.01677749864757061
9.0,0.016108190640807152
10.0,0.015489224344491959
11.0,0.014886217191815376
12.0,0.014320554211735725
13.0,0.013782842084765434
14.0,0.013275271281599998
15.0,0.012819195166230202
16.0,0.012362614274024963
18.0,0.011520707979798317
20.0,0.010787763632833958
22.0,0.010129164904356003
24.0,0.009569887071847916
26.0,0.0090880636125803
28.0,0.008611425757408142
30.0,0.008239206857979298
32.0,0.007955498062074184
36.0,0.00756348529830575
40.0,0.007291801273822784
44.0,0.0070963529869914055
48.0,0.007094511296600103
52.0,0.006929848343133926
56.0,0.0066793267615139484
60.0,0.006489124149084091
64.0,0.006423092447221279
72.0,0.005946141667664051
80.0,0.00550983427092433
88.0,0.005158619023859501
96.0,0.004802313633263111
104.0,0.0045266845263540745
112.0,0.004122310318052769
120.0,0.003988759592175484
128.0,0.003916356712579727
144.0,0.00349483173340559
160.0,0.0029411036521196365
176.0,0.002085315063595772
192.0,0.0019924603402614594
208.0,0.0026877084746956825
224.0,0.0025104484520852566
240.0,0.0017236539861187339
256.0,0.001169276423752308
288.0,0.000514171551913023
320.0,0.00012405986490193754
352.0,-0.0008910023025237024
384.0,-0.0009995484724640846
416.0,-0.001031022286042571
448.0,-0.0016313917003571987
480.0,-0.002021470805630088
512.0,-0.0022438541054725647
576.0,-0.0019295286620035768
640.0,-0.001581773511134088
704.0,-0.0019641907420009375
768.0,-0.0015222684014588594
832.0,-0.0013546852860599756
896.0,-0.0005666538490913808
960.0,0.0006162374629639089
1024.0,0.002250904683023691
1152.0,0.002190567785874009
1280.0,0.0017006394919008017
1408.0,0.0008570832433179021
1536.0,1.7421398297301494e-05
1664.0,-0.0007199059473350644
1792.0,-0.0016576260095462203
1920.0,-0.0013181844260543585
2048.0,0.0003152097633574158
2304.0,0.0007197088561952114
2560.0,0.001337108900770545
2816.0,0.0007146935095079243
3072.0,-0.0015041353181004524
3328.0,1.3040915291639976e-05
3584.0,0.0012802149867638946
3840.0,0.0012059544678777456
4096.0,-0.00031011149985715747
4608.0,0.0008610081276856363
5120.0,0.0011723072966560721
5632.0,-0.001664492767304182
6144.0,0.0006357776001095772
6656.0,-0.0016124106477946043
7168.0,8.636288112029433e-05
7680.0,0.0003458223072811961
8192.0,-0.0029222830198705196
end
