version,3.0
numOfCh,1
type,point
parent_name,34a6d_0dot6-0dot1
ch_type,1_1
kcount,1
numberNandB,1
brightnessNandB,1
carpet pos,0
pc,0
Time (ms),CH1 Auto-Correlation
1.0,0.01986468769609928
2.0,0.01869228109717369
3.0,0.017631426453590393
4.0,0.01668737642467022
5.0,0.01582331955432892
6.0,0.015049048699438572
7.0,0.01432472001761198
8.0,0.013655086047947407
9.0,0.013032130897045135
10.0,0.012453913688659668
11.0,0.01194493193179369
12.0,0.011451574973762035
13.0,0.011020149104297161
14.0,0.010610080324113369
15.0,0.010224702768027782
16.0,0.009879815392196178
18.0,0.009184508584439754
20.0,0.008523437194526196
22.0,0.007989331148564816
24.0,0.007525639142841101
26.0,0.007117037195712328
28.0,0.0066955056972801685
30.0,0.006290921941399574
32.0,0.005955579224973917
36.0,0.005394210573285818
40.0,0.004807570483535528
44.0,0.004298220854252577
48.0,0.003831695532426238
52.0,0.00347640598192811
56.0,0.0032827460672706366
60.0,0.0032049957662820816
64.0,0.0030992296524345875
72.0,0.002708926098421216
80.0,0.0025260893162339926
88.0,0.0020196845289319754
96.0,0.0014178093988448381
104.0,0.0008919400279410183
112.0,0.0005993712111376226
120.0,0.000912365794647485
128.0,0.0011652918765321374
144.0,0.0012217677431181073
160.0,0.0008241352043114603
176.0,0.000755241431761533
192.0,0.0007091480074450374
208.0,0.0005776607431471348
224.0,0.0006689611473120749
240.0,0.0008913807687349617
256.0,0.0015912031522020698
288.0,0.0012495486298575997
320.0,0.0010603906121104956
352.0,0.00036203573108650744
384.0,-0.00019260143744759262
416.0,-0.000275433121714741
448.0,-2.7270318241789937e-05
480.0,0.0008575732936151326
512.0,0.0008276112494058907
576.0,0.0016030922997742891
640.0,0.00030433424399234354
704.0,0.0005711503326892853
768.0,0.000163588862051256
832.0,0.0008009822922758758
896.0,0.0006199225317686796
960.0,0.00029611398349516094
1024.0,-0.0004668649344239384
1152.0,-8.018188236746937e-05
1280.0,0.00011124598677270114
1408.0,1.5100950804480817e-05
1536.0,0.00041719808359630406
1664.0,-0.0005614259862340987
1792.0,-0.0018848860636353493
1920.0,-0.0008396643097512424
2048.0,-0.0009442441514693201
2304.0,-0.0011935064103454351
2560.0,-0.001117466832511127
2816.0,0.0003976773004978895
3072.0,-0.0003950571408495307
3328.0,0.00044796214206144214
3584.0,3.2322172046406195e-05
3840.0,1.7908250811160542e-05
4096.0,0.0010010463884100318
4608.0,0.00019625938148237765
5120.0,-0.0006395037635229528
5632.0,-0.0007174277561716735
6144.0,2.8419353839126416e-05
6656.0,0.00022509069822262973
7168.0,0.0009878672426566482
7680.0,0.0012891722144559026
8192.0,-5.053415225120261e-05
end
