version,3.0
numOfCh,1
type,point
parent_name,34a6d_0dot6-0dot1
ch_type,1_1
kcount,1
numberNandB,1
brightnessNandB,1
carpet pos,0
pc,0
Time (ms),CH1 Auto-Correlation
1.0,0.022306431084871292
2.0,0.021141264587640762
3.0,0.020107107236981392
4.0,0.019174834713339806
5.0,0.018321366980671883
6.0,0.017520474269986153
7.0,0.01680302619934082
8.0,0.01611175201833248
9.0,0.01548029389232397
10.0,0.014877751469612122
11.0,0.014320961199700832
12.0,0.013785293325781822
13.0,0.01326711941510439
14.0,0.01279516238719225
15.0,0.012379330582916737
16.0,0.011974303983151913
18.0,0.01120093185454607
20.0,0.010517255403101444
22.0,0.009922480210661888
24.0,0.009368669241666794
26.0,0.008813823573291302
28.0,0.008341867476701736
30.0,0.007980169728398323
32.0,0.007682617288082838
36.0,0.007128556724637747
40.0,0.006553566083312035
44.0,0.005973712541162968
48.0,0.00555653078481555
52.0,0.005293463356792927
56.0,0.0050225635059177876
60.0,0.004824511241167784
64.0,0.004609809257090092
72.0,0.004482527729123831
80.0,0.004405780229717493
88.0,0.004262726753950119
96.0,0.003974989987909794
104.0,0.0038268137723207474
112.0,0.00364327454008162
120.0,0.0030703581869602203
128.0,0.0024309272412210703
144.0,0.0015580789186060429
160.0,0.001481398125179112
176.0,0.0012942663161084056
192.0,0.0005856931093148887
208.0,0.0007441781926900148
224.0,0.00031268864404410124
240.0,-2.791921724565327e-05
256.0,-0.0006041578599251807
288.0,-0.0008718937169760466
320.0,-0.0005716676823794842
352.0,-0.00032577908132225275
384.0,-0.00020052162290085107
416.0,-0.00023033833713270724
448.0,2.5832658138824627e-05
480.0,-0.0004244184528943151
512.0,-0.0008716111187823117
576.0,-0.0005931530031375587
640.0,-0.0002628652728162706
704.0,0.00019587059796322137
768.0,0.0008086920133791864
832.0,-0.0002498311805538833
896.0,-0.001576090231537819
960.0,-0.0010147743159905076
1024.0,-0.0017144795274361968
1152.0,0.0003389945486560464
1280.0,-0.0005220946040935814
1408.0,-0.0002482687996234745
1536.0,0.0005196916172280908
1664.0,0.00019735774549189955
1792.0,0.00010867587116081268
1920.0,0.000948134227655828
2048.0,0.0002634224365465343
2304.0,-0.0012436440447345376
2560.0,0.0006075474084354937
2816.0,-0.000926731969229877
3072.0,-0.0004646989982575178
3328.0,0.00027767548453994095
3584.0,0.00018905849719885737
3840.0,0.000911564624402672
4096.0,-0.0005107540055178106
4608.0,-0.00019174123008269817
5120.0,-0.00023545384465251118
5632.0,-0.000331214745528996
6144.0,-0.0006578987813554704
6656.0,-0.0003710243327077478
7168.0,-0.0009503478650003672
7680.0,9.970550308935344e-05
8192.0,0.0006340268300846219
end
