version,3.0
numOfCh,1
type,point
parent_name,fe81d_0dot08-0dot1
ch_type,1_1
kcount,1
numberNandB,1
brightnessNandB,1
carpet pos,0
pc,0
Time (ms),CH1 Auto-Correlation
1.0,0.08386210352182388
2.0,0.08303219079971313
3.0,0.08222918212413788
4.0,0.08142302930355072
5.0,0.08069609105587006
6.0,0.07994930446147919
7.0,0.07926837354898453
8.0,0.07855262607336044
9.0,0.0778481662273407
10.0,0.07718339562416077
11.0,0.0765082985162735
12.0,0.07590220123529434
13.0,0.07526851445436478
14.0,0.07466955482959747
15.0,0.0740797370672226
16.0,0.07347425818443298
18.0,0.07229136675596237
20.0,0.07119881361722946
22.0,0.07016021758317947
24.0,0.06916943937540054
26.0,0.06817827373743057
28.0,0.06727796047925949
30.0,0.0663544237613678
32.0,0.06537216156721115
36.0,0.06341904401779175
40.0,0.06153227761387825
44.0,0.05990812927484512
48.0,0.05856138467788696
52.0,0.05727666616439819
56.0,0.05605205148458481
60.0,0.054838962852954865
64.0,0.053638964891433716
72.0,0.05137578770518303
80.0,0.0494435615837574
88.0,0.04752705618739128
96.0,0.04551996663212776
104.0,0.04354890063405037
112.0,0.04190219193696976
120.0,0.04049849510192871
128.0,0.03919659182429314
144.0,0.036235008388757706
160.0,0.03338759019970894
176.0,0.03081396594643593
192.0,0.028205253183841705
208.0,0.02544328011572361
224.0,0.023242490366101265
240.0,0.021026935428380966
256.0,0.01834431104362011
288.0,0.013719987124204636
320.0,0.010208363644778728
352.0,0.0074247270822525024
384.0,0.006902841851115227
416.0,0.006021898705512285
448.0,0.00293837976641953
480.0,0.0009177902829833329
512.0,-0.00016701084678061306
576.0,0.005501655396074057
640.0,0.009195586666464806
704.0,0.012234687805175781
768.0,0.01837902143597603
832.0,0.019043127074837685
896.0,0.014467000029981136
960.0,0.01046973466873169
1024.0,0.006410269066691399
1152.0,-0.001465741777792573
1280.0,-0.004654701799154282
1408.0,-0.005058278329670429
1536.0,-0.0050278217531740665
1664.0,-0.0026234525721520185
1792.0,-0.00509297288954258
1920.0,-0.0074207978323102
2048.0,-0.012630254961550236
2304.0,-0.021666381508111954
2560.0,-0.00826147012412548
2816.0,-0.004567669704556465
3072.0,-0.005633941851556301
3328.0,-0.008132455870509148
3584.0,-0.004790909122675657
3840.0,0.006278675515204668
4096.0,-0.0027133228722959757
4608.0,-0.0038573448546230793
5120.0,-0.009930096566677094
5632.0,-0.012427886947989464
6144.0,-0.012653080746531487
6656.0,0.011650371365249157
7168.0,0.010436675511300564
7680.0,0.02903655357658863
8192.0,0.00819812435656786
end
