version,3.0
numOfCh,1
type,point
parent_name,fe81d_0dot08-0dot1
ch_type,1_1
kcount,1
numberNandB,1
brightnessNandB,1
carpet pos,0
pc,0
Time (ms),CH1 Auto-Correlation
1.0,0.07012835890054703
2.0,0.06923516094684601
3.0,0.06839528679847717
4.0,0.06760643422603607
5.0,0.06683734804391861
6.0,0.06609488278627396
7.0,0.065379798412323
8.0,0.06470844149589539
9.0,0.06407605856657028
10.0,0.063413605093956
11.0,0.06276808679103851
12.0,0.06214381381869316
13.0,0.06153157725930214
14.0,0.06090415269136429
15.0,0.06033710017800331
16.0,0.05979717895388603
18.0,0.05879156291484833
20.0,0.05788833275437355
22.0,0.0570235550403595
24.0,0.056213025003671646
26.0,0.055432796478271484
28.0,0.054647594690322876
30.0,0.05377890542149544
32.0,0.052944038063287735
36.0,0.051204826682806015
40.0,0.04927670583128929
44.0,0.047437749803066254
48.0,0.0459774024784565
52.0,0.04464011639356613
56.0,0.04345575347542763
60.0,0.04221287742257118
64.0,0.04089588671922684
72.0,0.03793720528483391
80.0,0.035539958626031876
88.0,0.03390737250447273
96.0,0.03229415789246559
104.0,0.030357932671904564
112.0,0.028553228825330734
120.0,0.02705400064587593
128.0,0.02621130272746086
144.0,0.025027696043252945
160.0,0.023419799283146858
176.0,0.021204646676778793
192.0,0.019557883962988853
208.0,0.01772182062268257
224.0,0.015531203709542751
240.0,0.014059743843972683
256.0,0.012866254895925522
288.0,0.011464495211839676
320.0,0.011227776296436787
352.0,0.011749898083508015
384.0,0.010097653605043888
416.0,0.0070740641094744205
448.0,0.0032946374267339706
480.0,-0.00026171241188421845
512.0,-0.0017765010707080364
576.0,-0.001724399859085679
640.0,-0.002884876448661089
704.0,-0.0007955027977004647
768.0,0.002104570623487234
832.0,0.003997049294412136
896.0,0.004230569116771221
960.0,0.00684109702706337
1024.0,0.008505631238222122
1152.0,0.007572909817099571
1280.0,0.003002858255058527
1408.0,0.002670752350240946
1536.0,0.0006196439499035478
1664.0,-0.0005156993865966797
1792.0,-0.00026684353360906243
1920.0,-0.0008676255820319057
2048.0,0.005341306794434786
2304.0,0.002487835241481662
2560.0,-0.007697565481066704
2816.0,-0.010615422390401363
3072.0,-0.003401273861527443
3328.0,-0.004241439513862133
3584.0,-0.0012438975973054767
3840.0,0.0026897252537310123
4096.0,0.0020005113910883665
4608.0,-0.004403544124215841
5120.0,0.0002852759207598865
5632.0,-0.011009971611201763
6144.0,0.008496510796248913
6656.0,-0.010707749053835869
7168.0,-0.020865630358457565
7680.0,-0.014560829848051071
8192.0,-0.01040142122656107
end
