version,3.0
numOfCh,1
type,point
parent_name,fe81d_0dot08-0dot1
ch_type,1_1
kcount,1
numberNandB,1
brightnessNandB,1
carpet pos,0
pc,0
Time (ms),CH1 Auto-Correlation
1.0,0.07058074325323105
2.0,0.06982254236936569
3.0,0.06910596042871475
4.0,0.06837327033281326
5.0,0.06767012923955917
6.0,0.06701444089412689
7.0,0.06639270484447479
8.0,0.06581821292638779
9.0,0.06521148234605789
10.0,0.06461778283119202
11.0,0.06404133886098862
12.0,0.0635003075003624
13.0,0.06294586509466171
14.0,0.06242717429995537
15.0,0.06192253902554512
16.0,0.06144745647907257
18.0,0.06046944111585617
20.0,0.05949960649013519
22.0,0.05851452425122261
24.0,0.05753302201628685
26.0,0.05660653114318848
28.0,0.05567577853798866
30.0,0.05479967221617699
32.0,0.053995173424482346
36.0,0.05236663296818733
40.0,0.050810202956199646
44.0,0.04946986585855484
48.0,0.048101723194122314
52.0,0.046688999980688095
56.0,0.045400772243738174
60.0,0.04417423531413078
64.0,0.04303476959466934
72.0,0.04088342934846878
80.0,0.03905459865927696
88.0,0.03724885731935501
96.0,0.03589608147740364
104.0,0.03450392931699753
112.0,0.033531952649354935
120.0,0.032292407006025314
128.0,0.030780239030718803
144.0,0.027569593861699104
160.0,0.024976860731840134
176.0,0.02266724966466427
192.0,0.020350713282823563
208.0,0.018407408148050308
224.0,0.01670878753066063
240.0,0.01566971465945244
256.0,0.014817815274000168
288.0,0.013426024466753006
320.0,0.011614606715738773
352.0,0.0107646519318223
384.0,0.010769742541015148
416.0,0.00952574610710144
448.0,0.009841313585639
480.0,0.01064879447221756
512.0,0.00998472049832344
576.0,0.003998191095888615
640.0,0.0016947533003985882
704.0,-0.0020776516757905483
768.0,-0.0035050995647907257
832.0,-0.005839372985064983
896.0,-0.008974006399512291
960.0,-0.007943390868604183
1024.0,-0.005420563742518425
1152.0,-0.002264657523483038
1280.0,-0.002452592831104994
1408.0,-0.0006427328335121274
1536.0,2.961151403724216e-05
1664.0,-0.00018113433907274157
1792.0,0.0023496977519243956
1920.0,-0.002147622173652053
2048.0,-0.006567598786205053
2304.0,-0.0031284724827855825
2560.0,0.0027061381842941046
2816.0,0.003959349822252989
3072.0,0.002537473337724805
3328.0,-0.0002463941345922649
3584.0,-0.0005294674774631858
3840.0,0.003196924226358533
4096.0,0.005014517810195684
4608.0,-0.006412705406546593
5120.0,-0.005359765142202377
5632.0,0.005548393819481134
6144.0,-0.009139633737504482
6656.0,-0.009446448646485806
7168.0,0.004006682895123959
7680.0,0.0011707935482263565
8192.0,0.005193291697651148
end
