version,3.0
numOfCh,1
type,point
parent_name,fe81d_0dot08-0dot1
ch_type,1_1
kcount,1
numberNandB,1
brightnessNandB,1
carpet pos,0
pc,0
Time (ms),CH1 Auto-Correlation
1.0,0.057884931564331055
2.0,0.057111456990242004
3.0,0.056322045624256134
4.0,0.055768076330423355
5.0,0.05527493357658386
6.0,0.054833777248859406
7.0,0.05438512936234474
8.0,0.05393846705555916
9.0,0.053502898663282394
10.0,0.05308489874005318
11.0,0.05268177390098572
12.0,0.0522887296974659
13.0,0.05189273878931999
14.0,0.051509760320186615
15.0,0.051137082278728485
16.0,0.05074780806899071
18.0,0.04989298805594444
20.0,0.04906344413757324
22.0,0.04829975217580795
24.0,0.04756893962621689
26.0,0.0468720942735672
28.0,0.04623424634337425
30.0,0.045611388981342316
32.0,0.044985633343458176
36.0,0.04378214478492737
40.0,0.04261961206793785
44.0,0.0415385477244854
48.0,0.04040069505572319
52.0,0.03916923329234123
56.0,0.03804758936166763
60.0,0.03692244738340378
64.0,0.03579336032271385
72.0,0.03379620611667633
80.0,0.0319984145462513
88.0,0.030505964532494545
96.0,0.029090534895658493
104.0,0.027541348710656166
112.0,0.026052283123135567
120.0,0.024825407192111015
128.0,0.023647543042898178
144.0,0.02145656943321228
160.0,0.01931375078856945
176.0,0.017042214050889015
192.0,0.015054339542984962
208.0,0.01306093018501997
224.0,0.011206615716218948
240.0,0.009730264544487
256.0,0.008437388576567173
288.0,0.005991293583065271
320.0,0.004623522516340017
352.0,0.0047554876655340195
384.0,0.005387316923588514
416.0,0.0049843452870845795
448.0,0.00358355650678277
480.0,0.0023138721007853746
512.0,0.00143191940151155
576.0,0.0002457398222759366
640.0,-0.0020787538960576057
704.0,-0.0020117193926125765
768.0,-0.0016977426130324602
832.0,-0.00014904951967764646
896.0,0.0022130142897367477
960.0,0.0026110727339982986
1024.0,0.00359359267167747
1152.0,0.008079614490270615
1280.0,0.005205750465393066
1408.0,0.0018554279813542962
1536.0,-0.0011927267769351602
1664.0,-0.002616219688206911
1792.0,0.0010786318453028798
1920.0,0.003176099853590131
2048.0,0.0031481552869081497
2304.0,0.0066949366591870785
2560.0,0.002292200457304716
2816.0,-0.0025953385047614574
3072.0,-0.007815519347786903
3328.0,-0.007581642828881741
3584.0,0.00021414236107375473
3840.0,-0.005309137515723705
4096.0,-1.4253357676352607e-06
4608.0,-3.831791036645882e-05
5120.0,-0.006754047702997923
5632.0,-0.0031466230284422636
6144.0,-0.0008573157247155905
6656.0,-0.00391137320548296
7168.0,-0.0025722449645400047
7680.0,0.0002519399859011173
8192.0,0.006985894870012999
end
