version,3.0
numOfCh,1
type,point
parent_name,fe81d_0dot08-0dot1
ch_type,1_1
kcount,1
numberNandB,1
brightnessNandB,1
carpet pos,0
pc,0
Time (ms),CH1 Auto-Correlation
1.0,0.08314874023199081
2.0,0.08237199485301971
3.0,0.08165444433689117
4.0,0.08095226436853409
5.0,0.08031810075044632
6.0,0.0796830877661705
7.0,0.07905140519142151
8.0,0.07842797785997391
9.0,0.07781058549880981
10.0,0.07725588977336884
11.0,0.07672800123691559
12.0,0.07621109485626221
13.0,0.0757049173116684
14.0,0.07517152279615402
15.0,0.07465817034244537
16.0,0.07416658103466034
18.0,0.07323396950960159
20.0,0.07227928191423416
22.0,0.07138274610042572
24.0,0.07048007100820541
26.0,0.06959597766399384
28.0,0.06883519142866135
30.0,0.0681116059422493
32.0,0.06743127852678299
36.0,0.06614477932453156
40.0,0.06478866934776306
44.0,0.06340929120779037
48.0,0.06207731366157532
52.0,0.06075107678771019
56.0,0.05939731374382973
60.0,0.058106884360313416
64.0,0.056935183703899384
72.0,0.054906103760004044
80.0,0.05352173373103142
88.0,0.05227450653910637
96.0,0.050966717302799225
104.0,0.049502287060022354
112.0,0.04776548594236374
120.0,0.04597596451640129
128.0,0.04435666650533676
144.0,0.04107283055782318
160.0,0.037989407777786255
176.0,0.03565473482012749
192.0,0.03385916352272034
208.0,0.03252071514725685
224.0,0.03139077499508858
240.0,0.03040952794253826
256.0,0.02874293550848961
288.0,0.02565103769302368
320.0,0.022408995777368546
352.0,0.01984802447259426
384.0,0.017853759229183197
416.0,0.01591440662741661
448.0,0.013673299923539162
480.0,0.014185762964189053
512.0,0.014406120404601097
576.0,0.014092128723859787
640.0,0.01521316822618246
704.0,0.014962560497224331
768.0,0.009049556218087673
832.0,0.0034480667673051357
896.0,0.002046221634373069
960.0,0.0024058541748672724
1024.0,-0.0010652461787685752
1152.0,-0.005353598389774561
1280.0,-0.00617165258154273
1408.0,-0.010360561311244965
1536.0,-0.012334657832980156
1664.0,-0.012273871339857578
1792.0,-0.013108019717037678
1920.0,-0.0012594012077897787
2048.0,0.00805265735834837
2304.0,0.0027830239851027727
2560.0,-0.004160935524851084
2816.0,-0.008525610901415348
3072.0,-0.010063431225717068
3328.0,-0.00795613881200552
3584.0,-0.0009874256793409586
3840.0,-0.0018675989704206586
4096.0,0.009041921235620975
4608.0,0.013303699903190136
5120.0,-0.005888490471988916
5632.0,-0.018768370151519775
6144.0,-0.018293745815753937
6656.0,-0.01629376970231533
7168.0,-0.018876971676945686
7680.0,-0.006010882556438446
8192.0,0.004197512753307819
end
