version,3.0
numOfCh,1
type,point
parent_name,fe81d_0dot08-0dot1
ch_type,1_1
kcount,1
numberNandB,1
brightnessNandB,1
carpet pos,0
pc,0
Time (ms),CH1 Auto-Correlation
1.0,0.06600544601678848
2.0,0.06537802517414093
3.0,0.06478417664766312
4.0,0.06420108675956726
5.0,0.06362468004226685
6.0,0.06305928528308868
7.0,0.06250018626451492
8.0,0.06197119504213333
9.0,0.06145356222987175
10.0,0.060946930199861526
11.0,0.0604698583483696
12.0,0.05999240651726723
13.0,0.059518277645111084
14.0,0.059065546840429306
15.0,0.058598842471838
16.0,0.058151762932538986
18.0,0.05731906741857529
20.0,0.05655916407704353
22.0,0.05578567460179329
24.0,0.05502030625939369
26.0,0.05426963418722153
28.0,0.053508542478084564
30.0,0.05275150015950203
32.0,0.051990360021591187
36.0,0.05052517354488373
40.0,0.0490780845284462
44.0,0.047686025500297546
48.0,0.04645315930247307
52.0,0.04532110318541527
56.0,0.04408671706914902
60.0,0.0427747406065464
64.0,0.04148280248045921
72.0,0.03898154944181442
80.0,0.03661111369729042
88.0,0.034560367465019226
96.0,0.0328608863055706
104.0,0.0313243567943573
112.0,0.029752233996987343
120.0,0.028173835948109627
128.0,0.026844214648008347
144.0,0.02460133470594883
160.0,0.022668207064270973
176.0,0.02076558768749237
192.0,0.018864737823605537
208.0,0.01702222414314747
224.0,0.015289507806301117
240.0,0.014267745427787304
256.0,0.014136604964733124
288.0,0.013580936007201672
320.0,0.012535300105810165
352.0,0.011381224729120731
384.0,0.009898019023239613
416.0,0.00827732402831316
448.0,0.008054493926465511
480.0,0.008408871479332447
512.0,0.008412495255470276
576.0,0.006166709121316671
640.0,0.003983273636549711
704.0,5.490543117048219e-05
768.0,-0.00378564209677279
832.0,-0.006468869745731354
896.0,-0.010860606096684933
960.0,-0.013398867100477219
1024.0,-0.010919876396656036
1152.0,-0.00916304625570774
1280.0,-0.009149688296020031
1408.0,-0.009539308957755566
1536.0,-0.0065870885737240314
1664.0,-0.009427087381482124
1792.0,-0.005354295950382948
1920.0,-0.0004549361183308065
2048.0,0.005044615361839533
2304.0,0.004568709991872311
2560.0,0.0035256820265203714
2816.0,0.0003188155242241919
3072.0,-0.006002848967909813
3328.0,-0.005450964905321598
3584.0,-0.00648429524153471
3840.0,-0.005987315438687801
4096.0,-0.006480664014816284
4608.0,-0.0002728284162003547
5120.0,-0.0024647810496389866
5632.0,-0.0030957465060055256
6144.0,0.014699993655085564
6656.0,0.009515010751783848
7168.0,-0.002161966869607568
7680.0,-0.006386842578649521
8192.0,0.004595605190843344
end
