version,3.0
numOfCh,1
type,point
parent_name,fe81d_0dot08-0dot1
ch_type,1_1
kcount,1
numberNandB,1
brightnessNandB,1
carpet pos,0
pc,0
Time (ms),CH1 Auto-Correlation
1.0,0.08107980340719223
2.0,0.08039139956235886
3.0,0.07972554117441177
4.0,0.0790843516588211
5.0,0.0784711018204689
6.0,0.07790262252092361
7.0,0.07734816521406174
8.0,0.07678239792585373
9.0,0.07621234655380249
10.0,0.07566415518522263
11.0,0.07510647922754288
12.0,0.07453688234090805
13.0,0.07398992031812668
14.0,0.07347282022237778
15.0,0.07297011464834213
16.0,0.07249575853347778
18.0,0.07158585637807846
20.0,0.07067137956619263
22.0,0.06978216767311096
24.0,0.06893765181303024
26.0,0.06810706108808517
28.0,0.06731247901916504
30.0,0.06652135401964188
32.0,0.06573573499917984
36.0,0.06433553248643875
40.0,0.0630355253815651
44.0,0.06182394176721573
48.0,0.060669802129268646
52.0,0.05957556143403053
56.0,0.05858392268419266
60.0,0.05767754837870598
64.0,0.05686284229159355
72.0,0.055355362594127655
80.0,0.05374342203140259
88.0,0.0521838553249836
96.0,0.05070735141634941
104.0,0.04912741109728813
112.0,0.04736202210187912
120.0,0.045791011303663254
128.0,0.04454405605792999
144.0,0.042505331337451935
160.0,0.04050402715802193
176.0,0.03882210701704025
192.0,0.03662360832095146
208.0,0.03451964631676674
224.0,0.03309682756662369
240.0,0.03183295577764511
256.0,0.03062976524233818
288.0,0.028945444151759148
320.0,0.027087947353720665
352.0,0.02555426023900509
384.0,0.02535545639693737
416.0,0.024891968816518784
448.0,0.024423714727163315
480.0,0.02382677234709263
512.0,0.022764265537261963
576.0,0.021229630336165428
640.0,0.01935451291501522
704.0,0.019155314192175865
768.0,0.021748531609773636
832.0,0.022814959287643433
896.0,0.025357773527503014
960.0,0.02461087703704834
1024.0,0.022520998492836952
1152.0,0.020243821665644646
1280.0,0.02153165079653263
1408.0,0.02524196170270443
1536.0,0.02295149676501751
1664.0,0.015071379020810127
1792.0,0.010374828241765499
1920.0,0.013940681703388691
2048.0,0.01554006990045309
2304.0,0.018361758440732956
2560.0,0.021274451166391373
2816.0,0.016407040879130363
3072.0,0.003292324487119913
3328.0,0.0010333792306482792
3584.0,0.008521584793925285
3840.0,0.010170618072152138
4096.0,0.0023759829346090555
4608.0,-0.004410626832395792
5120.0,-0.007975807413458824
5632.0,-0.02203611098229885
6144.0,-0.03145945817232132
6656.0,-0.026530440896749496
7168.0,-0.028012020513415337
7680.0,-0.020549606531858444
8192.0,-0.025623193010687828
end
