version,3.0
numOfCh,1
type,point
parent_name,fe81d_0dot08-0dot1
ch_type,1_1
kcount,1
numberNandB,1
brightnessNandB,1
carpet pos,0
pc,0
Time (ms),CH1 Auto-Correlation
1.0,0.0701804980635643
2.0,0.06935593485832214
3.0,0.0685628354549408
4.0,0.06783128529787064
5.0,0.06714527308940887
6.0,0.06645315885543823
7.0,0.0658336728811264
8.0,0.06521885097026825
9.0,0.06463632732629776
10.0,0.06404594331979752
11.0,0.06345341354608536
12.0,0.06289004534482956
13.0,0.06234315410256386
14.0,0.06179223209619522
15.0,0.06126626580953598
16.0,0.060755450278520584
18.0,0.0597710981965065
20.0,0.05880416929721832
22.0,0.057886429131031036
24.0,0.05697598680853844
26.0,0.05613941326737404
28.0,0.05527647212147713
30.0,0.05441427603363991
32.0,0.053618066012859344
36.0,0.052131008356809616
40.0,0.05074290186166763
44.0,0.049411363899707794
48.0,0.04819361865520477
52.0,0.04696546122431755
56.0,0.04594093933701515
60.0,0.04500920698046684
64.0,0.044034868478775024
72.0,0.0422210767865181
80.0,0.04007604718208313
88.0,0.03775174543261528
96.0,0.03545031324028969
104.0,0.03359200805425644
112.0,0.032314449548721313
120.0,0.031334005296230316
128.0,0.030516916885972023
144.0,0.028380516916513443
160.0,0.02639356069266796
176.0,0.02397853322327137
192.0,0.02190788835287094
208.0,0.020532889291644096
224.0,0.018760832026600838
240.0,0.016384614631533623
256.0,0.015082566067576408
288.0,0.014284040778875351
320.0,0.013632528483867645
352.0,0.013858549296855927
384.0,0.01307763159275055
416.0,0.012848906219005585
448.0,0.013678204268217087
480.0,0.01400252990424633
512.0,0.014603369869291782
576.0,0.011302388273179531
640.0,0.008902858942747116
704.0,0.008124405518174171
768.0,0.004772137850522995
832.0,0.0021519267465919256
896.0,-0.0012243731180205941
960.0,-0.0037690973840653896
1024.0,-0.005548848304897547
1152.0,-0.008352172560989857
1280.0,-0.006038527935743332
1408.0,-0.005758413579314947
1536.0,-0.004827128257602453
1664.0,-0.002298309002071619
1792.0,-0.006848684977740049
1920.0,-0.0059720976278185844
2048.0,0.0014248137595131993
2304.0,0.0030079777352511883
2560.0,-0.005529114045202732
2816.0,0.0017699792515486479
3072.0,0.004001089837402105
3328.0,0.0019373268587514758
3584.0,0.008692811243236065
3840.0,0.006371400319039822
4096.0,0.00251773395575583
4608.0,-0.003919372335076332
5120.0,-0.00024207383103203028
5632.0,0.004718148615211248
6144.0,0.007185807917267084
6656.0,-0.022753681987524033
7168.0,-0.03017624467611313
7680.0,-0.015648702159523964
8192.0,0.0061508589424192905
end
