version,3.0
numOfCh,1
type,point
parent_name,fe81d_0dot08-0dot1
ch_type,1_1
kcount,1
numberNandB,1
brightnessNandB,1
carpet pos,0
pc,0
Time (ms),CH1 Auto-Correlation
1.0,0.04825479909777641
2.0,0.04764266312122345
3.0,0.047079309821128845
4.0,0.04654494300484657
5.0,0.04603046551346779
6.0,0.04555881395936012
7.0,0.045071810483932495
8.0,0.04458354786038399
9.0,0.044109128415584564
10.0,0.04363231733441353
11.0,0.04313892126083374
12.0,0.04266826808452606
13.0,0.04220518469810486
14.0,0.04173843935132027
15.0,0.04129645600914955
16.0,0.04087172448635101
18.0,0.04002056270837784
20.0,0.03915194794535637
22.0,0.038251299411058426
24.0,0.03736289218068123
26.0,0.0364590622484684
28.0,0.03559674695134163
30.0,0.03480621799826622
32.0,0.034017413854599
36.0,0.032551608979701996
40.0,0.031210171058773994
44.0,0.029893990606069565
48.0,0.028625518083572388
52.0,0.027441343292593956
56.0,0.026285147294402122
60.0,0.025145873427391052
64.0,0.023912079632282257
72.0,0.021643077954649925
80.0,0.019659511744976044
88.0,0.017877837643027306
96.0,0.016258103772997856
104.0,0.014891671016812325
112.0,0.013686655089259148
120.0,0.012740688398480415
128.0,0.011748077347874641
144.0,0.009905945509672165
160.0,0.008607796393334866
176.0,0.007857154123485088
192.0,0.0077705467119812965
208.0,0.00790742039680481
224.0,0.007717343047261238
240.0,0.007569264620542526
256.0,0.007657133508473635
288.0,0.0072980886325240135
320.0,0.005587165709584951
352.0,0.0032887239940464497
384.0,0.001653042621910572
416.0,0.0010123869869858027
448.0,0.00016149302246049047
480.0,0.00034705360303632915
512.0,0.0011355706956237555
576.0,0.0013976490590721369
640.0,0.0031752712093293667
704.0,0.0049794623628258705
768.0,0.003473900491371751
832.0,0.003927646204829216
896.0,0.003475260455161333
960.0,0.0012743863044306636
1024.0,-0.0017877554055303335
1152.0,0.0021072374656796455
1280.0,0.0024644772056490183
1408.0,0.0009512620745226741
1536.0,-0.002027180977165699
1664.0,0.0011979389237239957
1792.0,-6.60855948808603e-05
1920.0,0.0024476172402501106
2048.0,0.001907510799355805
2304.0,0.0006204860401339829
2560.0,-0.0006810268969275057
2816.0,-0.006526159588247538
3072.0,-0.0016461400082334876
3328.0,-0.00841330736875534
3584.0,-0.008444849401712418
3840.0,-0.004274058621376753
4096.0,-0.003779937047511339
4608.0,-0.001579136005602777
5120.0,0.001321314019151032
5632.0,-0.00010995087359333411
6144.0,0.001756063662469387
6656.0,0.0026788681279867887
7168.0,0.0021403837017714977
7680.0,-0.00037758410326205194
8192.0,-0.007626492530107498
end
