version,3.0
numOfCh,1
type,point
parent_name,fe81d_0dot08-0dot1
ch_type,1_1
kcount,1
numberNandB,1
brightnessNandB,1
carpet pos,0
pc,0
Time (ms),CH1 Auto-Correlation
1.0,0.05019822716712952
2.0,0.049644067883491516
3.0,0.04910673573613167
4.0,0.04855870455503464
5.0,0.04800727590918541
6.0,0.04747268930077553
7.0,0.04695446044206619
8.0,0.046465326100587845
9.0,0.04596838727593422
10.0,0.04549384489655495
11.0,0.045039232820272446
12.0,0.044572729617357254
13.0,0.04411768913269043
14.0,0.04367266967892647
15.0,0.043229859322309494
16.0,0.042786575853824615
18.0,0.041895415633916855
20.0,0.041033461689949036
22.0,0.040198247879743576
24.0,0.039349813014268875
26.0,0.03849729150533676
28.0,0.037663038820028305
30.0,0.036863360553979874
32.0,0.03609791025519371
36.0,0.03466377034783363
40.0,0.03324279934167862
44.0,0.03187129274010658
48.0,0.030610747635364532
52.0,0.029382791370153427
56.0,0.028147893026471138
60.0,0.026919489726424217
64.0,0.025737430900335312
72.0,0.023267118260264397
80.0,0.02110193856060505
88.0,0.019218135625123978
96.0,0.017801450565457344
104.0,0.016596244648098946
112.0,0.015592226758599281
120.0,0.014787965454161167
128.0,0.014098092913627625
144.0,0.012455182150006294
160.0,0.010298658162355423
176.0,0.008392002433538437
192.0,0.006845948752015829
208.0,0.0054560452699661255
224.0,0.004513351246714592
240.0,0.003889302955940366
256.0,0.00338349724188447
288.0,0.0030031611677259207
320.0,0.001975970808416605
352.0,0.0008969485643319786
384.0,-0.0009019183926284313
416.0,-0.0029400817584246397
448.0,-0.003973277751356363
480.0,-0.004450468346476555
512.0,-0.005822575185447931
576.0,-0.004451829008758068
640.0,-0.0012736661592498422
704.0,-0.002687205094844103
768.0,-0.0032029603607952595
832.0,0.00028064288198947906
896.0,-9.542405314277858e-05
960.0,-1.2250185136508662e-05
1024.0,-3.3168307709274814e-05
1152.0,-0.001228534267283976
1280.0,-0.004483124706894159
1408.0,0.00028447835939005017
1536.0,0.0013783429749310017
1664.0,-0.003812385257333517
1792.0,-0.009348532184958458
1920.0,-0.009500165469944477
2048.0,-0.003250346751883626
2304.0,0.001470225746743381
2560.0,0.003261375706642866
2816.0,0.0017591220093891025
3072.0,-0.001213243929669261
3328.0,0.0007560952799394727
3584.0,0.002213858999311924
3840.0,-0.0007137379143387079
4096.0,-0.0017834597965702415
4608.0,-0.0014591156505048275
5120.0,-0.0033965667244046926
5632.0,0.0007600461831316352
6144.0,0.0025222324766218662
6656.0,0.0006887330091558397
7168.0,0.0026269645895808935
7680.0,-0.005170249845832586
8192.0,-0.0011045299470424652
end
