version,3.0
numOfCh,1
type,point
parent_name,fe81d_0dot08-0dot1
ch_type,1_1
kcount,1
numberNandB,1
brightnessNandB,1
carpet pos,0
pc,0
Time (ms),CH1 Auto-Correlation
1.0,0.06255640089511871
2.0,0.0620119608938694
3.0,0.061485227197408676
4.0,0.060968734323978424
5.0,0.06046144664287567
6.0,0.05995655804872513
7.0,0.05942777171730995
8.0,0.058907587081193924
9.0,0.058409854769706726
10.0,0.057920459657907486
11.0,0.057434454560279846
12.0,0.05694570764899254
13.0,0.05646124854683876
14.0,0.05599961057305336
15.0,0.05553840473294258
16.0,0.05507363751530647
18.0,0.05419141426682472
20.0,0.053338661789894104
22.0,0.052512940019369125
24.0,0.051712993532419205
26.0,0.05096723511815071
28.0,0.05024547874927521
30.0,0.04956846684217453
32.0,0.04888619855046272
36.0,0.04759771749377251
40.0,0.046441394835710526
44.0,0.04537944868206978
48.0,0.044389139860868454
52.0,0.04346400871872902
56.0,0.042583826929330826
60.0,0.0416419543325901
64.0,0.04062952846288681
72.0,0.038736436516046524
80.0,0.03714245557785034
88.0,0.035649798810482025
96.0,0.034231141209602356
104.0,0.03303193300962448
112.0,0.03187955915927887
120.0,0.030660446733236313
128.0,0.029686426743865013
144.0,0.028157314285635948
160.0,0.026911050081253052
176.0,0.02595498226583004
192.0,0.025440804660320282
208.0,0.024698978289961815
224.0,0.02346779964864254
240.0,0.022592058405280113
256.0,0.022085322067141533
288.0,0.021910039708018303
320.0,0.021376512944698334
352.0,0.020930418744683266
384.0,0.020410126075148582
416.0,0.019301429390907288
448.0,0.017800353467464447
480.0,0.016032034531235695
512.0,0.015293426811695099
576.0,0.015707850456237793
640.0,0.015129831619560719
704.0,0.01377480011433363
768.0,0.013252033852040768
832.0,0.011557107791304588
896.0,0.007976371794939041
960.0,0.005780532956123352
1024.0,0.007807769346982241
1152.0,0.007039898075163364
1280.0,2.916413541242946e-05
1408.0,-0.007421356160193682
1536.0,-0.006572032812982798
1664.0,-0.007346635218709707
1792.0,-0.00607626186683774
1920.0,-0.005648083984851837
2048.0,-0.008650953881442547
2304.0,-0.0008389877621084452
2560.0,0.0017643937608227134
2816.0,0.007468821946531534
3072.0,0.004865833092480898
3328.0,0.0004617871018126607
3584.0,0.00915304571390152
3840.0,0.005496695172041655
4096.0,0.0008827355923131108
4608.0,-0.0005783402593806386
5120.0,-0.0030575247947126627
5632.0,0.004492675419896841
6144.0,-0.0029782166238874197
6656.0,-0.0044005620293319225
7168.0,-0.011265861801803112
7680.0,-0.016459912061691284
8192.0,-0.018624480813741684
end
