version,3.0
numOfCh,1
type,point
parent_name,fe81d_0dot08-0dot1
ch_type,1_1
kcount,1
numberNandB,1
brightnessNandB,1
carpet pos,0
pc,0
Time (ms),CH1 Auto-Correlation
1.0,0.06415727734565735
2.0,0.06348367780447006
3.0,0.06283710896968842
4.0,0.06223705783486366
5.0,0.06166355684399605
6.0,0.06109580025076866
7.0,0.06053865700960159
8.0,0.060013871639966965
9.0,0.05951089784502983
10.0,0.05904364958405495
11.0,0.05856407806277275
12.0,0.058100104331970215
13.0,0.057628992944955826
14.0,0.057166945189237595
15.0,0.056749943643808365
16.0,0.05635916069149971
18.0,0.05559301748871803
20.0,0.05488022044301033
22.0,0.05420218035578728
24.0,0.05358972027897835
26.0,0.05298159644007683
28.0,0.05236835032701492
30.0,0.05174057558178902
32.0,0.05112459138035774
36.0,0.0499907024204731
40.0,0.04889292269945145
44.0,0.04786340519785881
48.0,0.046830303966999054
52.0,0.045864738523960114
56.0,0.044762324541807175
60.0,0.04367653653025627
64.0,0.04260838404297829
72.0,0.040462296456098557
80.0,0.03837457671761513
88.0,0.036390483379364014
96.0,0.034542810171842575
104.0,0.032705117017030716
112.0,0.031246542930603027
120.0,0.029917800799012184
128.0,0.028448740020394325
144.0,0.025409001857042313
160.0,0.022326016798615456
176.0,0.019811928272247314
192.0,0.017366649582982063
208.0,0.015232788398861885
224.0,0.013652852736413479
240.0,0.012987612746655941
256.0,0.012149740010499954
288.0,0.009730985388159752
320.0,0.007075293455272913
352.0,0.004357971716672182
384.0,0.0012261782540008426
416.0,-0.00113052933011204
448.0,-0.0028443338815122843
480.0,-0.0044645569287240505
512.0,-0.005167463328689337
576.0,-0.004861028864979744
640.0,-0.004909403622150421
704.0,-0.002036051591858268
768.0,0.0014682100154459476
832.0,0.00379866361618042
896.0,0.00032199922134168446
960.0,-0.0034778339322656393
1024.0,-0.007155551575124264
1152.0,-0.00989738292992115
1280.0,-0.008428831584751606
1408.0,-0.005790898576378822
1536.0,-0.004574406426399946
1664.0,-0.0035300212912261486
1792.0,-0.005146063398569822
1920.0,-0.005551856942474842
2048.0,-0.0030567513313144445
2304.0,-0.00412049749866128
2560.0,-0.0036078710108995438
2816.0,-0.0006067582289688289
3072.0,0.0030649113468825817
3328.0,0.0014846273697912693
3584.0,0.008494209498167038
3840.0,0.006015519145876169
4096.0,-0.003472620155662298
4608.0,-0.0028709000907838345
5120.0,-0.008262031711637974
5632.0,-0.004717675503343344
6144.0,-0.0015384075231850147
6656.0,0.008032257668673992
7168.0,0.004886713344603777
7680.0,-0.007262313738465309
8192.0,-0.001475384458899498
end
