version,3.0
numOfCh,1
type,point
parent_name,fe81d_0dot08-0dot1
ch_type,1_1
kcount,1
numberNandB,1
brightnessNandB,1
carpet pos,0
pc,0
Time (ms),CH1 Auto-Correlation
1.0,0.053879283368587494
2.0,0.05341499671339989
3.0,0.05295658856630325
4.0,0.05250876769423485
5.0,0.05206988379359245
6.0,0.051640111953020096
7.0,0.05122853443026543
8.0,0.050811558961868286
9.0,0.05039769411087036
10.0,0.04998217895627022
11.0,0.0495811402797699
12.0,0.04918690025806427
13.0,0.048810891807079315
14.0,0.04844305291771889
15.0,0.0480792261660099
16.0,0.047729168087244034
18.0,0.04702809825539589
20.0,0.04635518789291382
22.0,0.04570580646395683
24.0,0.04506394639611244
26.0,0.04443538933992386
28.0,0.043842848390340805
30.0,0.04326007887721062
32.0,0.04270573705434799
36.0,0.04166283458471298
40.0,0.04064048454165459
44.0,0.03966284543275833
48.0,0.03873820602893829
52.0,0.037908460944890976
56.0,0.03712758794426918
60.0,0.03634505718946457
64.0,0.035568512976169586
72.0,0.03422604128718376
80.0,0.03294019028544426
88.0,0.03158313408493996
96.0,0.03038368932902813
104.0,0.02932208776473999
112.0,0.028329795226454735
120.0,0.027431273832917213
128.0,0.026763997972011566
144.0,0.02578653208911419
160.0,0.02487192302942276
176.0,0.023585498332977295
192.0,0.022202476859092712
208.0,0.021197082474827766
224.0,0.02025875821709633
240.0,0.018974578008055687
256.0,0.01761540025472641
288.0,0.016101298853754997
320.0,0.014234243892133236
352.0,0.011846807785332203
384.0,0.009905115701258183
416.0,0.008642308413982391
448.0,0.00801759958267212
480.0,0.008026646450161934
512.0,0.00846016500145197
576.0,0.008588282391428947
640.0,0.010329514741897583
704.0,0.01011946052312851
768.0,0.009852075017988682
832.0,0.009905141778290272
896.0,0.007182379253208637
960.0,0.00469964137300849
1024.0,0.0011119788978248835
1152.0,-0.0035400576889514923
1280.0,-0.00511776702478528
1408.0,-0.001757465535774827
1536.0,0.0012859746348112822
1664.0,0.00522626144811511
1792.0,0.004815063904970884
1920.0,0.004682573955506086
2048.0,0.005596855655312538
2304.0,0.007349755149334669
2560.0,0.010611177422106266
2816.0,0.00652060704305768
3072.0,-0.001306650578044355
3328.0,-0.002753837965428829
3584.0,-0.0009541634353809059
3840.0,-0.007086164318025112
4096.0,-0.0018648261902853847
4608.0,0.0007619541720487177
5120.0,0.005578245967626572
5632.0,-0.002767514204606414
6144.0,-0.00797492079436779
6656.0,0.002515737898647785
7168.0,0.004558712709695101
7680.0,0.005348191596567631
8192.0,-0.003182339947670698
end
