version,3.0
numOfCh,1
type,point
parent_name,fe81d_0dot08-0dot1
ch_type,1_1
kcount,1
numberNandB,1
brightnessNandB,1
carpet pos,0
pc,0
Time (ms),CH1 Auto-Correlation
1.0,0.06723272055387497
2.0,0.06653750687837601
3.0,0.06591366231441498
4.0,0.06530768424272537
5.0,0.06471583992242813
6.0,0.06420008838176727
7.0,0.06367464363574982
8.0,0.06311872601509094
9.0,0.06257093697786331
10.0,0.06202787905931473
11.0,0.06148340925574303
12.0,0.060945942997932434
13.0,0.060415737330913544
14.0,0.05986400693655014
15.0,0.059344276785850525
16.0,0.05884149298071861
18.0,0.05783572047948837
20.0,0.0568167008459568
22.0,0.055827125906944275
24.0,0.054838672280311584
26.0,0.05388368293642998
28.0,0.052946560084819794
30.0,0.0521082878112793
32.0,0.05137241259217262
36.0,0.049992240965366364
40.0,0.04866060987114906
44.0,0.04751269891858101
48.0,0.04645517095923424
52.0,0.04552173614501953
56.0,0.04466746374964714
60.0,0.04395391419529915
64.0,0.04331139102578163
72.0,0.042313314974308014
80.0,0.04142898693680763
88.0,0.04019391909241676
96.0,0.038761626929044724
104.0,0.037222735583782196
112.0,0.03584189713001251
120.0,0.03462052717804909
128.0,0.03339160978794098
144.0,0.03155682235956192
160.0,0.030052056536078453
176.0,0.028722932562232018
192.0,0.026711998507380486
208.0,0.024882949888706207
224.0,0.023650044575333595
240.0,0.023247137665748596
256.0,0.02236688882112503
288.0,0.020472459495067596
320.0,0.019502712413668633
352.0,0.01728186570107937
384.0,0.01634705439209938
416.0,0.017235370352864265
448.0,0.01700429804623127
480.0,0.015551590360701084
512.0,0.013340713456273079
576.0,0.007563601713627577
640.0,0.000995800830423832
704.0,-0.0011390545405447483
768.0,-0.0007104295655153692
832.0,-0.002322118729352951
896.0,-0.003807825967669487
960.0,-0.0057985526509583
1024.0,-0.005397710483521223
1152.0,-0.00817720964550972
1280.0,-0.005243397317826748
1408.0,-0.0057443310506641865
1536.0,-0.00939437560737133
1664.0,-0.00904892385005951
1792.0,-0.00563958240672946
1920.0,-0.004086900036782026
2048.0,-0.0039156279526650906
2304.0,-0.0024474826641380787
2560.0,0.00039206125074997544
2816.0,-0.002712823683395982
3072.0,-0.006493091117590666
3328.0,-0.008658760227262974
3584.0,-0.01362305786460638
3840.0,-0.013144084252417088
4096.0,-0.00840512290596962
4608.0,-0.0018262569792568684
5120.0,0.006558380089700222
5632.0,0.01839486137032509
6144.0,0.0026148397009819746
6656.0,-0.00676315650343895
7168.0,-0.006613601930439472
7680.0,0.003821366233751178
8192.0,0.00566168362274766
end
