version,3.0
numOfCh,1
type,point
parent_name,fe81d_0dot08-0dot1
ch_type,1_1
kcount,1
numberNandB,1
brightnessNandB,1
carpet pos,0
pc,0
Time (ms),CH1 Auto-Correlation
1.0,0.0755929946899414
2.0,0.0750095471739769
3.0,0.07444367557764053
4.0,0.07390706986188889
5.0,0.07340428233146667
6.0,0.07293087244033813
7.0,0.07246436923742294
8.0,0.07200170308351517
9.0,0.07155520468950272
10.0,0.07111883908510208
11.0,0.07068988680839539
12.0,0.07026487588882446
13.0,0.06983990222215652
14.0,0.06943470239639282
15.0,0.06902579218149185
16.0,0.06864138692617416
18.0,0.06788188219070435
20.0,0.0671427845954895
22.0,0.06636834889650345
24.0,0.06559525430202484
26.0,0.06484904140233994
28.0,0.06409220397472382
30.0,0.06335264444351196
32.0,0.0626525804400444
36.0,0.06128651276230812
40.0,0.05987459421157837
44.0,0.05844009295105934
48.0,0.05703914165496826
52.0,0.05573807656764984
56.0,0.05457918718457222
60.0,0.053462397307157516
64.0,0.05239588022232056
72.0,0.05041017755866051
80.0,0.04870302602648735
88.0,0.047147806733846664
96.0,0.045839764177799225
104.0,0.044643402099609375
112.0,0.0435008630156517
120.0,0.042294081300497055
128.0,0.04085459187626839
144.0,0.038265880197286606
160.0,0.03605137765407562
176.0,0.03381733223795891
192.0,0.0314704068005085
208.0,0.029190655797719955
224.0,0.027279429137706757
240.0,0.025151439011096954
256.0,0.02300562709569931
288.0,0.01961558125913143
320.0,0.015969280153512955
352.0,0.012685311958193779
384.0,0.010377690196037292
416.0,0.009273494593799114
448.0,0.00901063997298479
480.0,0.008145127445459366
512.0,0.006651665549725294
576.0,0.005537000019103289
640.0,0.005853400565683842
704.0,0.004197313450276852
768.0,0.001353643136098981
832.0,-0.0028594026807695627
896.0,-0.006715492811053991
960.0,-0.008720355108380318
1024.0,-0.008485328406095505
1152.0,-0.00601222924888134
1280.0,0.0011328962864354253
1408.0,0.0029148547910153866
1536.0,-0.0002192361280322075
1664.0,-0.00044612455531023443
1792.0,0.003641636809334159
1920.0,0.005875791888684034
2048.0,0.005975807085633278
2304.0,-0.0012914147228002548
2560.0,-0.001864147838205099
2816.0,0.003440945642068982
3072.0,0.0002450901665724814
3328.0,0.0022478625178337097
3584.0,0.00712582329288125
3840.0,0.014647594653069973
4096.0,0.010233570821583271
4608.0,-0.013379416428506374
5120.0,-0.020951924845576286
5632.0,-0.010292607359588146
6144.0,-0.0012678434140980244
6656.0,-0.006817027926445007
7168.0,-0.011513021774590015
7680.0,0.0002441237447783351
8192.0,-0.0045898049138486385
end
