version,3.0
numOfCh,1
type,point
parent_name,fe81d_0dot08-0dot1
ch_type,1_1
kcount,1
numberNandB,1
brightnessNandB,1
carpet pos,0
pc,0
Time (ms),CH1 Auto-Correlation
1.0,0.07337550073862076
2.0,0.07268952578306198
3.0,0.07204999029636383
4.0,0.07143330574035645
5.0,0.07084546983242035
6.0,0.07025139033794403
7.0,0.06969556212425232
8.0,0.06914518773555756
9.0,0.06862078607082367
10.0,0.0680919662117958
11.0,0.06757152080535889
12.0,0.06703150272369385
13.0,0.06649962812662125
14.0,0.065981924533844
15.0,0.06544610857963562
16.0,0.06488331407308578
18.0,0.0638132095336914
20.0,0.062770776450634
22.0,0.061760302633047104
24.0,0.06083708256483078
26.0,0.05992554873228073
28.0,0.05910203978419304
30.0,0.05825643613934517
32.0,0.05744181200861931
36.0,0.05604373663663864
40.0,0.05473693087697029
44.0,0.053383391350507736
48.0,0.052067145705223083
52.0,0.05082712695002556
56.0,0.049594417214393616
60.0,0.048455171287059784
64.0,0.04735430330038071
72.0,0.045179568231105804
80.0,0.0430736280977726
88.0,0.04106159508228302
96.0,0.039129726588726044
104.0,0.03761589154601097
112.0,0.03610236197710037
120.0,0.03430251404643059
128.0,0.032434962689876556
144.0,0.029768554493784904
160.0,0.027851000428199768
176.0,0.02706855535507202
192.0,0.02713746950030327
208.0,0.02678230032324791
224.0,0.026059994474053383
240.0,0.025855055078864098
256.0,0.026198768988251686
288.0,0.027334967628121376
320.0,0.027488647028803825
352.0,0.02657296322286129
384.0,0.024453099817037582
416.0,0.022527996450662613
448.0,0.01971122995018959
480.0,0.01612723618745804
512.0,0.012405774556100368
576.0,0.008756257593631744
640.0,0.009584878571331501
704.0,0.011642640456557274
768.0,0.013110743835568428
832.0,0.0074452366679906845
896.0,0.0023930587340146303
960.0,0.0030247250106185675
1024.0,0.0037363760638982058
1152.0,-0.0005889874300919473
1280.0,-0.00045713744475506246
1408.0,-0.0034917565062642097
1536.0,-0.0009049862856045365
1664.0,-0.002622981322929263
1792.0,-0.005379658658057451
1920.0,-0.012153524905443192
2048.0,-0.016032133251428604
2304.0,-0.0183174479752779
2560.0,-0.014236412942409515
2816.0,-0.015784937888383865
3072.0,-0.01234147697687149
3328.0,-0.008158227428793907
3584.0,-0.007252810522913933
3840.0,-0.004648893140256405
4096.0,0.0031735352240502834
4608.0,0.010885142721235752
5120.0,0.007883447222411633
5632.0,0.0038720464799553156
6144.0,0.0019211858743801713
6656.0,-0.007876500487327576
7168.0,-0.007999804802238941
7680.0,-0.011182890273630619
8192.0,-0.012107500806450844
end
