version,3.0
numOfCh,1
type,point
parent_name,fe81d_0dot08-0dot1
ch_type,1_1
kcount,1
numberNandB,1
brightnessNandB,1
carpet pos,0
pc,0
Time (ms),CH1 Auto-Correlation
1.0,0.0651991218328476
2.0,0.0646425113081932
3.0,0.06409155577421188
4.0,0.06354908645153046
5.0,0.06302745640277863
6.0,0.06249850615859032
7.0,0.06197022274136543
8.0,0.061442047357559204
9.0,0.06091472879052162
10.0,0.06038622558116913
11.0,0.059856005012989044
12.0,0.05932634696364403
13.0,0.05880763381719589
14.0,0.05830797180533409
15.0,0.05779721960425377
16.0,0.05729224905371666
18.0,0.05628345161676407
20.0,0.05530758202075958
22.0,0.05437317118048668
24.0,0.05346810445189476
26.0,0.052595414221286774
28.0,0.051768217235803604
30.0,0.050968192517757416
32.0,0.050198402255773544
36.0,0.04874201864004135
40.0,0.04732199385762215
44.0,0.04598327726125717
48.0,0.044713620096445084
52.0,0.04351666569709778
56.0,0.04235711321234703
60.0,0.04124373942613602
64.0,0.040145814418792725
72.0,0.03819470852613449
80.0,0.03648725524544716
88.0,0.034802261739969254
96.0,0.03303827717900276
104.0,0.031477175652980804
112.0,0.03018411062657833
120.0,0.02918817289173603
128.0,0.028342340141534805
144.0,0.026162000373005867
160.0,0.02365999110043049
176.0,0.021543020382523537
192.0,0.019812889397144318
208.0,0.018062857910990715
224.0,0.0169304758310318
240.0,0.01682019606232643
256.0,0.01741870492696762
288.0,0.017854373902082443
320.0,0.017531681805849075
352.0,0.01600852608680725
384.0,0.014627116732299328
416.0,0.013596299104392529
448.0,0.012464634142816067
480.0,0.010435217060148716
512.0,0.009397875517606735
576.0,0.008077435195446014
640.0,0.0054833851754665375
704.0,0.004041746724396944
768.0,0.0019488318357616663
832.0,0.0005970068741589785
896.0,0.0007894719019532204
960.0,0.0003159460611641407
1024.0,-0.0013269362971186638
1152.0,-0.005136290565133095
1280.0,-0.0014886140124872327
1408.0,-0.00013588182628154755
1536.0,0.0004769599763676524
1664.0,0.002182664582505822
1792.0,0.0014687497168779373
1920.0,-0.0018231342546641827
2048.0,-0.001134947407990694
2304.0,0.0001896695903269574
2560.0,-0.00016969212447293103
2816.0,-0.006257144268602133
3072.0,-0.0011750218691304326
3328.0,0.0006674444884993136
3584.0,0.0009835490491241217
3840.0,0.0014319086913019419
4096.0,0.0031071281991899014
4608.0,0.0024848170578479767
5120.0,0.006825690157711506
5632.0,0.002677250886335969
6144.0,0.001517927972599864
6656.0,0.002960935467854142
7168.0,-0.002042213222011924
7680.0,-0.013288380578160286
8192.0,-0.014691918157041073
end
