version,3.0
numOfCh,1
type,point
parent_name,fe81d_0dot08-0dot1
ch_type,1_1
kcount,1
numberNandB,1
brightnessNandB,1
carpet pos,0
pc,0
Time (ms),CH1 Auto-Correlation
1.0,0.05903783068060875
2.0,0.05842723324894905
3.0,0.05782286822795868
4.0,0.05723663792014122
5.0,0.05666489899158478
6.0,0.056085385382175446
7.0,0.0555403046309948
8.0,0.05500910431146622
9.0,0.05448700860142708
10.0,0.05397022143006325
11.0,0.05346120148897171
12.0,0.05297042801976204
13.0,0.05249422788619995
14.0,0.05203302577137947
15.0,0.05157983675599098
16.0,0.05114656686782837
18.0,0.05029819905757904
20.0,0.04951847344636917
22.0,0.04875835403800011
24.0,0.04801330715417862
26.0,0.04731470346450806
28.0,0.04658614099025726
30.0,0.04586997255682945
32.0,0.0451393723487854
36.0,0.0437350831925869
40.0,0.04237418994307518
44.0,0.04102148115634918
48.0,0.039658114314079285
52.0,0.03839976340532303
56.0,0.03716979920864105
60.0,0.03600478917360306
64.0,0.034874077886343
72.0,0.032742660492658615
80.0,0.030783837661147118
88.0,0.0289445910602808
96.0,0.027318831533193588
104.0,0.0255363080650568
112.0,0.023950651288032532
120.0,0.0225004181265831
128.0,0.02124731056392193
144.0,0.018944470211863518
160.0,0.016491107642650604
176.0,0.014792145229876041
192.0,0.01363674458116293
208.0,0.012932820245623589
224.0,0.012081136927008629
240.0,0.011389870196580887
256.0,0.01076809037476778
288.0,0.00941515527665615
320.0,0.008915673941373825
352.0,0.008267637342214584
384.0,0.007276174612343311
416.0,0.005772032774984837
448.0,0.00435405969619751
480.0,0.002775173867121339
512.0,0.0017061152029782534
576.0,0.0038621844723820686
640.0,0.005820256657898426
704.0,0.004788833670318127
768.0,0.00085844611749053
832.0,-0.0001141056782216765
896.0,0.001376819796860218
960.0,0.0013122537638992071
1024.0,0.003189025679603219
1152.0,-0.00016394983686041087
1280.0,-0.0052366554737091064
1408.0,-0.003921134397387505
1536.0,-0.0006840506102889776
1664.0,0.0026432620361447334
1792.0,0.0007790406234562397
1920.0,-0.004146784543991089
2048.0,-0.00206786603666842
2304.0,-0.0018160621402785182
2560.0,-0.009282160550355911
2816.0,-0.004996813368052244
3072.0,-0.0036726214457303286
3328.0,-0.008084402419626713
3584.0,-0.008581751957535744
3840.0,0.0003275034832768142
4096.0,0.0018510118825361133
4608.0,-0.0034773254301398993
5120.0,0.004827214404940605
5632.0,-4.517497291089967e-05
6144.0,0.0065194726921617985
6656.0,0.0069173527881503105
7168.0,0.005039408337324858
7680.0,-0.00997965782880783
8192.0,-0.0017820850480347872
end
