version,3.0
numOfCh,1
type,point
parent_name,fe81d_0dot08-0dot1
ch_type,1_1
kcount,1
numberNandB,1
brightnessNandB,1
carpet pos,0
pc,0
Time (ms),CH1 Auto-Correlation
1.0,0.06814363598823547
2.0,0.0675184577703476
3.0,0.06693164259195328
4.0,0.06638624519109726
5.0,0.06586871296167374
6.0,0.0653422623872757
7.0,0.06482810527086258
8.0,0.064315564930439
9.0,0.06379185616970062
10.0,0.06325342506170273
11.0,0.06275506317615509
12.0,0.06226221099495888
13.0,0.061772167682647705
14.0,0.06128226965665817
15.0,0.06079120561480522
16.0,0.06030993536114693
18.0,0.05935051664710045
20.0,0.0583958700299263
22.0,0.05744600668549538
24.0,0.05649735778570175
26.0,0.05560527369379997
28.0,0.054772935807704926
30.0,0.05395715683698654
32.0,0.05314826965332031
36.0,0.05161097273230553
40.0,0.05009860545396805
44.0,0.04870812967419624
48.0,0.04736798256635666
52.0,0.046078357845544815
56.0,0.04479236155748367
60.0,0.04354001581668854
64.0,0.04234160855412483
72.0,0.04003804549574852
80.0,0.03792869672179222
88.0,0.035938799381256104
96.0,0.034035153687000275
104.0,0.032092608511447906
112.0,0.030263306573033333
120.0,0.02856917306780815
128.0,0.027130264788866043
144.0,0.024663394317030907
160.0,0.021879002451896667
176.0,0.0194137804210186
192.0,0.017640521749854088
208.0,0.015866635367274284
224.0,0.01420106366276741
240.0,0.012795370072126389
256.0,0.012159275822341442
288.0,0.011875857599079609
320.0,0.01211636420339346
352.0,0.012580621987581253
384.0,0.010595984756946564
416.0,0.009333512745797634
448.0,0.007455439772456884
480.0,0.0051017277874052525
512.0,0.00364347780123353
576.0,0.005895046517252922
640.0,0.006768384948372841
704.0,0.006005678325891495
768.0,0.0038492796011269093
832.0,0.0017931313486769795
896.0,-0.001036550966091454
960.0,-0.0014758695615455508
1024.0,-0.0020751182455569506
1152.0,-0.0027064920868724585
1280.0,-0.0019536069594323635
1408.0,0.0012760709505528212
1536.0,0.0025871586985886097
1664.0,0.0004046684189233929
1792.0,-0.0020004690159112215
1920.0,-0.0044462108053267
2048.0,-0.00617940491065383
2304.0,-0.0005000382661819458
2560.0,0.005211117677390575
2816.0,0.002215543296188116
3072.0,0.002245130017399788
3328.0,0.012942953035235405
3584.0,0.013558866456151009
3840.0,0.011387541890144348
4096.0,0.006674658972769976
4608.0,-0.006071256007999182
5120.0,-0.002692325972020626
5632.0,-0.01194704044610262
6144.0,-0.007248628884553909
6656.0,0.0065549747087061405
7168.0,0.000850827491376549
7680.0,-0.0008908592280931771
8192.0,-0.0163390152156353
end
