version,3.0
numOfCh,1
type,point
parent_name,fe81d_0dot08-0dot1
ch_type,1_1
kcount,1
numberNandB,1
brightnessNandB,1
carpet pos,0
pc,0
Time (ms),CH1 Auto-Correlation
1.0,0.06528136134147644
2.0,0.06457692384719849
3.0,0.0638798177242279
4.0,0.06324376910924911
5.0,0.06262633949518204
6.0,0.06204747408628464
7.0,0.06148262321949005
8.0,0.060920827090740204
9.0,0.06039554253220558
10.0,0.05988285690546036
11.0,0.05937784165143967
12.0,0.058864254504442215
13.0,0.05837098881602287
14.0,0.05786537006497383
15.0,0.05739252269268036
16.0,0.05695027858018875
18.0,0.055984385311603546
20.0,0.05506785586476326
22.0,0.0541718415915966
24.0,0.05330144986510277
26.0,0.05248010531067848
28.0,0.051648546010255814
30.0,0.05084835737943649
32.0,0.05011763423681259
36.0,0.048519816249608994
40.0,0.04688369482755661
44.0,0.045246902853250504
48.0,0.04369029402732849
52.0,0.04221870377659798
56.0,0.040742091834545135
60.0,0.0392117016017437
64.0,0.037722889333963394
72.0,0.03495456650853157
80.0,0.032469555735588074
88.0,0.030052538961172104
96.0,0.027727216482162476
104.0,0.025537852197885513
112.0,0.02375582791864872
120.0,0.02220808155834675
128.0,0.020907636731863022
144.0,0.018480800092220306
160.0,0.016925882548093796
176.0,0.015930533409118652
192.0,0.015097017399966717
208.0,0.014616904780268669
224.0,0.014529271982610226
240.0,0.014754701405763626
256.0,0.015190297737717628
288.0,0.01453466434031725
320.0,0.013781461864709854
352.0,0.012319422326982021
384.0,0.010440331883728504
416.0,0.009063971228897572
448.0,0.008368355222046375
480.0,0.007017203141003847
512.0,0.005473045632243156
576.0,0.002117267344146967
640.0,0.0020776193123310804
704.0,0.0026501247193664312
768.0,0.001955274026840925
832.0,0.0026371635030955076
896.0,-0.0026188823394477367
960.0,-0.005498242098838091
1024.0,-0.007326413877308369
1152.0,-0.004394128452986479
1280.0,0.0034886382054537535
1408.0,0.0016488415421918035
1536.0,0.0010751120280474424
1664.0,-0.0018904341850429773
1792.0,-0.00016337471606675535
1920.0,0.003625466488301754
2048.0,0.0025450976099818945
2304.0,-0.0037819326389580965
2560.0,-0.00418050354346633
2816.0,0.007820933125913143
3072.0,0.010102318599820137
3328.0,0.0017538318643346429
3584.0,-0.0024362860713154078
3840.0,-0.008927118964493275
4096.0,-0.005107967648655176
4608.0,-0.012179328128695488
5120.0,-0.010059889405965805
5632.0,-0.007970262318849564
6144.0,0.0012846199097111821
6656.0,-0.003385280491784215
7168.0,-0.013936204835772514
7680.0,-0.010292020626366138
8192.0,-0.004675411619246006
end
