version,3.0
numOfCh,1
type,point
parent_name,fe81d_0dot08-0dot1
ch_type,1_1
kcount,1
numberNandB,1
brightnessNandB,1
carpet pos,0
pc,0
Time (ms),CH1 Auto-Correlation
1.0,0.06488829106092453
2.0,0.06412451714277267
3.0,0.06339404731988907
4.0,0.06272408366203308
5.0,0.0620734877884388
6.0,0.06145084649324417
7.0,0.06089787557721138
8.0,0.06032567471265793
9.0,0.05979406088590622
10.0,0.05927290394902229
11.0,0.05877518281340599
12.0,0.05830356851220131
13.0,0.05783455818891525
14.0,0.057352811098098755
15.0,0.05687670409679413
16.0,0.0563841238617897
18.0,0.055504586547613144
20.0,0.054635386914014816
22.0,0.05379597097635269
24.0,0.05296948179602623
26.0,0.05214756354689598
28.0,0.05134236440062523
30.0,0.050517912954092026
32.0,0.04974763095378876
36.0,0.048072587698698044
40.0,0.04662543162703514
44.0,0.045387834310531616
48.0,0.044287070631980896
52.0,0.043240733444690704
56.0,0.042250581085681915
60.0,0.04117739573121071
64.0,0.040115419775247574
72.0,0.03798869624733925
80.0,0.03606940060853958
88.0,0.034313153475522995
96.0,0.03271230682730675
104.0,0.03142225369811058
112.0,0.029985174536705017
120.0,0.028555484488606453
128.0,0.027463583275675774
144.0,0.025955336168408394
160.0,0.024272704496979713
176.0,0.02284226194024086
192.0,0.022046728059649467
208.0,0.021443618461489677
224.0,0.020880186930298805
240.0,0.020201267674565315
256.0,0.018653027713298798
288.0,0.014093372970819473
320.0,0.011718385852873325
352.0,0.011211786419153214
384.0,0.011118818074464798
416.0,0.009598874486982822
448.0,0.006602035835385323
480.0,0.004150724969804287
512.0,0.0023361369967460632
576.0,-0.0006103875348344445
640.0,-0.0008689211099408567
704.0,-0.0004682939616031945
768.0,-0.0004035970487166196
832.0,-0.0036749287974089384
896.0,-0.005637423135340214
960.0,-0.008206098340451717
1024.0,-0.008109929040074348
1152.0,-0.0066789318807423115
1280.0,-0.005631850101053715
1408.0,-0.01135538425296545
1536.0,-0.010779882781207561
1664.0,-0.012778198346495628
1792.0,-0.011875399388372898
1920.0,-0.011072952300310135
2048.0,-0.009969925507903099
2304.0,-0.017539007589221
2560.0,-0.013035349547863007
2816.0,0.00229442585259676
3072.0,0.007602747995406389
3328.0,0.011590957641601562
3584.0,0.007155559957027435
3840.0,0.0073691136203706264
4096.0,0.007864623330533504
4608.0,0.006650657393038273
5120.0,-0.0033508092164993286
5632.0,-0.004341824911534786
6144.0,-0.0026818281039595604
6656.0,-0.000503211107570678
7168.0,-0.005009117070585489
7680.0,0.006907223723828793
8192.0,-0.008677167817950249
end
