version,3.0
numOfCh,1
type,point
parent_name,fe81d_0dot08-0dot1
ch_type,1_1
kcount,1
numberNandB,1
brightnessNandB,1
carpet pos,0
pc,0
Time (ms),CH1 Auto-Correlation
1.0,0.05800962075591087
2.0,0.05748426914215088
3.0,0.05697456747293472
4.0,0.056486550718545914
5.0,0.056012578308582306
6.0,0.055529266595840454
7.0,0.05505013465881348
8.0,0.054583583027124405
9.0,0.0541231669485569
10.0,0.05367884784936905
11.0,0.05324889346957207
12.0,0.05282367020845413
13.0,0.05239240080118179
14.0,0.05196394771337509
15.0,0.05154293403029442
16.0,0.05113949999213219
18.0,0.050327468663454056
20.0,0.04955040290951729
22.0,0.04881870001554489
24.0,0.048110343515872955
26.0,0.0474165603518486
28.0,0.046728987246751785
30.0,0.046070896089076996
32.0,0.04542439058423042
36.0,0.04419049993157387
40.0,0.04298265278339386
44.0,0.04183252155780792
48.0,0.04077031835913658
52.0,0.03968754783272743
56.0,0.03855377435684204
60.0,0.03747051954269409
64.0,0.03647679090499878
72.0,0.03461345285177231
80.0,0.03292778506875038
88.0,0.03153296932578087
96.0,0.030389554798603058
104.0,0.029322586953639984
112.0,0.02846507914364338
120.0,0.02782181277871132
128.0,0.027240805327892303
144.0,0.026610374450683594
160.0,0.026176463812589645
176.0,0.025874171406030655
192.0,0.02600962482392788
208.0,0.026596765965223312
224.0,0.02676222287118435
240.0,0.026278061792254448
256.0,0.025640664622187614
288.0,0.025579361245036125
320.0,0.02424657717347145
352.0,0.021524133160710335
384.0,0.019299212843179703
416.0,0.017561908811330795
448.0,0.0171697735786438
480.0,0.01672595553100109
512.0,0.01642238162457943
576.0,0.017114946618676186
640.0,0.014523775316774845
704.0,0.012019217014312744
768.0,0.010910466313362122
832.0,0.01022411324083805
896.0,0.008535798639059067
960.0,0.006244263146072626
1024.0,0.006446147803217173
1152.0,0.005640518385916948
1280.0,0.0026917681097984314
1408.0,0.00035666394978761673
1536.0,0.002674812451004982
1664.0,0.004285244736820459
1792.0,0.0032787160016596317
1920.0,-0.0010995037155225873
2048.0,-0.0017844161484390497
2304.0,-0.0010089408606290817
2560.0,-0.0009187389514409006
2816.0,-0.004334680270403624
3072.0,-0.006651249248534441
3328.0,-0.008353166282176971
3584.0,-0.014969452284276485
3840.0,-0.016967281699180603
4096.0,-0.015784768387675285
4608.0,-0.01285393163561821
5120.0,-0.009756376966834068
5632.0,-0.007930321618914604
6144.0,-0.01494546141475439
6656.0,-0.010284190066158772
7168.0,0.005561689380556345
7680.0,0.011823955923318863
8192.0,0.012664426118135452
end
