version,3.0
numOfCh,1
type,point
parent_name,fe81d_0dot08-0dot1
ch_type,1_1
kcount,1
numberNandB,1
brightnessNandB,1
carpet pos,0
pc,0
Time (ms),CH1 Auto-Correlation
1.0,0.05848938971757889
2.0,0.057996127754449844
3.0,0.05751868709921837
4.0,0.05704118683934212
5.0,0.05658842250704765
6.0,0.056154076009988785
7.0,0.05571569502353668
8.0,0.055291928350925446
9.0,0.05486958846449852
10.0,0.05446266755461693
11.0,0.05406121164560318
12.0,0.053668055683374405
13.0,0.05326700210571289
14.0,0.052861761301755905
15.0,0.05245532840490341
16.0,0.052057698369026184
18.0,0.051304515451192856
20.0,0.050579141825437546
22.0,0.04988593980669975
24.0,0.049222659319639206
26.0,0.04857568070292473
28.0,0.04795398563146591
30.0,0.047388989478349686
32.0,0.04686940461397171
36.0,0.04596637189388275
40.0,0.045094918459653854
44.0,0.04421461001038551
48.0,0.04332655295729637
52.0,0.04235782474279404
56.0,0.04144025966525078
60.0,0.04050985351204872
64.0,0.03962036222219467
72.0,0.037997253239154816
80.0,0.03649645671248436
88.0,0.035205189138650894
96.0,0.033862125128507614
104.0,0.032485123723745346
112.0,0.03118162415921688
120.0,0.029997125267982483
128.0,0.028745371848344803
144.0,0.026208890601992607
160.0,0.02392573282122612
176.0,0.021862931549549103
192.0,0.020180022343993187
208.0,0.018950801342725754
224.0,0.01770837977528572
240.0,0.016420673578977585
256.0,0.01501291710883379
288.0,0.012383977882564068
320.0,0.009707622230052948
352.0,0.007287697866559029
384.0,0.004840527195483446
416.0,0.0027323183603584766
448.0,0.00032873457530513406
480.0,-0.0013311707880347967
512.0,-0.001876006368547678
576.0,-0.0016077045584097505
640.0,-0.0012694033794105053
704.0,-0.0008073466597124934
768.0,-0.0013363388134166598
832.0,-0.0030651341658085585
896.0,-0.004300779663026333
960.0,-0.004286948125809431
1024.0,-0.004650601651519537
1152.0,-0.005318674258887768
1280.0,-0.002210622187703848
1408.0,0.00026825815439224243
1536.0,0.0038784993812441826
1664.0,0.006755616515874863
1792.0,0.006251143291592598
1920.0,0.006395371165126562
2048.0,0.00840329471975565
2304.0,0.002505336422473192
2560.0,0.0010940273059532046
2816.0,-0.002031545853242278
3072.0,-0.001299746334552765
3328.0,0.0024641244672238827
3584.0,0.0012671974254772067
3840.0,-0.00352267874404788
4096.0,-0.003163954708725214
4608.0,-0.003286511404439807
5120.0,0.001145414775237441
5632.0,-0.009535973891615868
6144.0,-0.009848278015851974
6656.0,-0.002282926347106695
7168.0,0.00059544324176386
7680.0,0.004165612626820803
8192.0,-0.009897887706756592
end
