version,3.0
numOfCh,1
type,point
parent_name,fe81d_0dot08-0dot1
ch_type,1_1
kcount,1
numberNandB,1
brightnessNandB,1
carpet pos,0
pc,0
Time (ms),CH1 Auto-Correlation
1.0,0.06795119494199753
2.0,0.06705115735530853
3.0,0.06625466048717499
4.0,0.06547851860523224
5.0,0.06471123546361923
6.0,0.06398848444223404
7.0,0.06328552961349487
8.0,0.06263317167758942
9.0,0.0619836151599884
10.0,0.06137426942586899
11.0,0.06078093498945236
12.0,0.06021517887711525
13.0,0.05962527170777321
14.0,0.05904198810458183
15.0,0.05844610929489136
16.0,0.057864055037498474
18.0,0.056625381112098694
20.0,0.055358607321977615
22.0,0.054114148020744324
24.0,0.05296490341424942
26.0,0.051885467022657394
28.0,0.05091717839241028
30.0,0.05000544711947441
32.0,0.04909170791506767
36.0,0.047398217022418976
40.0,0.045733630657196045
44.0,0.04418015480041504
48.0,0.04240995645523071
52.0,0.04051942378282547
56.0,0.03875560685992241
60.0,0.03714941814541817
64.0,0.03577939420938492
72.0,0.03340572118759155
80.0,0.031412310898303986
88.0,0.029502924531698227
96.0,0.02780563198029995
104.0,0.02604181319475174
112.0,0.024196624755859375
120.0,0.022402755916118622
128.0,0.02056267485022545
144.0,0.017642468214035034
160.0,0.015008890070021152
176.0,0.01280584093183279
192.0,0.011068497784435749
208.0,0.009878028184175491
224.0,0.008651555515825748
240.0,0.007186397910118103
256.0,0.005759169813245535
288.0,0.004413335584104061
320.0,0.003769065486267209
352.0,0.0031751063652336597
384.0,0.003457865444943309
416.0,0.00322106946259737
448.0,0.004613183438777924
480.0,0.008297136053442955
512.0,0.00962189119309187
576.0,0.010671387426555157
640.0,0.012929403223097324
704.0,0.018177248537540436
768.0,0.018529850989580154
832.0,0.017919154837727547
896.0,0.015419995412230492
960.0,0.011477285996079445
1024.0,0.011539064347743988
1152.0,0.011304094456136227
1280.0,0.0075479838997125626
1408.0,0.009079404175281525
1536.0,0.011661423370242119
1664.0,0.012157956138253212
1792.0,0.006739850156009197
1920.0,0.00451376847922802
2048.0,-0.001336019136942923
2304.0,0.00962921604514122
2560.0,0.005933328531682491
2816.0,-0.011049853637814522
3072.0,0.003305463818833232
3328.0,0.0009234080789610744
3584.0,-0.00978306494653225
3840.0,-0.005778709892183542
4096.0,-0.003461745334789157
4608.0,-0.012431278824806213
5120.0,-0.010397796519100666
5632.0,-0.009544086642563343
6144.0,-0.010803119279444218
6656.0,-0.005744525697082281
7168.0,-0.009325826540589333
7680.0,-0.010631730780005455
8192.0,-0.00353308510966599
end
