version,3.0
numOfCh,1
type,point
parent_name,fe81d_0dot08-0dot1
ch_type,1_1
kcount,1
numberNandB,1
brightnessNandB,1
carpet pos,0
pc,0
Time (ms),CH1 Auto-Correlation
1.0,0.06529314070940018
2.0,0.06441541016101837
3.0,0.06361725181341171
4.0,0.06286435574293137
5.0,0.06210349500179291
6.0,0.06137031689286232
7.0,0.06069248542189598
8.0,0.05999844893813133
9.0,0.05934007465839386
10.0,0.058714065700769424
11.0,0.058068253099918365
12.0,0.057397861033678055
13.0,0.05675048381090164
14.0,0.05612451583147049
15.0,0.05550588294863701
16.0,0.0548984557390213
18.0,0.053797315806150436
20.0,0.052789993584156036
22.0,0.051772452890872955
24.0,0.05071788281202316
26.0,0.04965098947286606
28.0,0.048516951501369476
30.0,0.04739554226398468
32.0,0.04631005972623825
36.0,0.044223424047231674
40.0,0.04227892681956291
44.0,0.04040518030524254
48.0,0.03850627690553665
52.0,0.036664482206106186
56.0,0.034845009446144104
60.0,0.03303932771086693
64.0,0.031187107786536217
72.0,0.027870984748005867
80.0,0.02516782283782959
88.0,0.022792315110564232
96.0,0.0205360259860754
104.0,0.018724719062447548
112.0,0.01699397712945938
120.0,0.015132476575672626
128.0,0.013471629470586777
144.0,0.011646348983049393
160.0,0.009937011636793613
176.0,0.007338325493037701
192.0,0.00475084874778986
208.0,0.002779641654342413
224.0,0.0015676373150199652
240.0,0.0013238382525742054
256.0,0.0012288849102333188
288.0,0.0019482328789308667
320.0,0.003453690791502595
352.0,0.004602537956088781
384.0,0.004701681435108185
416.0,0.0040896921418607235
448.0,0.004148942418396473
480.0,0.005308324936777353
512.0,0.006680554244667292
576.0,0.004375755786895752
640.0,0.007167635019868612
704.0,0.009415129199624062
768.0,0.005403268616646528
832.0,0.0013484780211001635
896.0,-0.006069990806281567
960.0,-0.010165708139538765
1024.0,-0.01085016131401062
1152.0,-0.005507561843842268
1280.0,-0.0035911952145397663
1408.0,-0.008274650201201439
1536.0,-0.013224040158092976
1664.0,-0.00609344569966197
1792.0,-0.005266781430691481
1920.0,0.0021101359743624926
2048.0,0.003836710238829255
2304.0,0.007863998413085938
2560.0,0.007006615865975618
2816.0,0.0036382863763719797
3072.0,0.007614997681230307
3328.0,0.0016550607979297638
3584.0,-0.00663908151909709
3840.0,-0.011987465433776379
4096.0,-0.006468167528510094
4608.0,-0.002767864614725113
5120.0,0.006467338185757399
5632.0,0.006356645375490189
6144.0,-0.0017490475438535213
6656.0,-0.010769173502922058
7168.0,-0.0030721137300133705
7680.0,-0.0022344286553561687
8192.0,0.00015591795090585947
end
