version,3.0
numOfCh,1
type,point
parent_name,fe81d_0dot08-0dot1
ch_type,1_1
kcount,1
numberNandB,1
brightnessNandB,1
carpet pos,0
pc,0
Time (ms),CH1 Auto-Correlation
1.0,0.05334525555372238
2.0,0.052513763308525085
3.0,0.051771074533462524
4.0,0.05107448995113373
5.0,0.05037844553589821
6.0,0.049644362181425095
7.0,0.048899438232183456
8.0,0.04837868735194206
9.0,0.04788551107048988
10.0,0.04741814732551575
11.0,0.046966955065727234
12.0,0.046520110219717026
13.0,0.04610347002744675
14.0,0.04568999260663986
15.0,0.045297443866729736
16.0,0.04491523280739784
18.0,0.044154100120067596
20.0,0.04340536519885063
22.0,0.04264801740646362
24.0,0.04190485179424286
26.0,0.0411585308611393
28.0,0.04048227518796921
30.0,0.03986867889761925
32.0,0.03931929171085358
36.0,0.03831080347299576
40.0,0.037300627678632736
44.0,0.03629743680357933
48.0,0.03524007275700569
52.0,0.03428492695093155
56.0,0.03339141234755516
60.0,0.032421357929706573
64.0,0.0314764529466629
72.0,0.02986520528793335
80.0,0.028077132999897003
88.0,0.026275187730789185
96.0,0.024685824289917946
104.0,0.023382510989904404
112.0,0.02228747121989727
120.0,0.021307198330760002
128.0,0.020483843982219696
144.0,0.019026270136237144
160.0,0.017683187499642372
176.0,0.016314735636115074
192.0,0.014615225605666637
208.0,0.013648079708218575
224.0,0.013320405036211014
240.0,0.012513780035078526
256.0,0.011829236522316933
288.0,0.011474047787487507
320.0,0.011323373764753342
352.0,0.010952561162412167
384.0,0.011927514337003231
416.0,0.012735733762383461
448.0,0.01212277077138424
480.0,0.0100930230692029
512.0,0.007040385622531176
576.0,0.004658469930291176
640.0,0.006665403489023447
704.0,0.00883322674781084
768.0,0.011129784397780895
832.0,0.012024135328829288
896.0,0.010102583095431328
960.0,0.006812345702201128
1024.0,0.003277325304225087
1152.0,0.00033511113724671304
1280.0,-0.00441613607108593
1408.0,-0.005759686231613159
1536.0,-0.004799727816134691
1664.0,-0.005172222852706909
1792.0,-0.0053995042107999325
1920.0,-0.004667424131184816
2048.0,-0.004095117561519146
2304.0,-0.010898284614086151
2560.0,-0.013765416108071804
2816.0,-0.006802670191973448
3072.0,-0.004370002541691065
3328.0,-0.004555596970021725
3584.0,-0.0008245607605203986
3840.0,0.008019640110433102
4096.0,0.008232232183218002
4608.0,0.0060001858510077
5120.0,0.0017266850918531418
5632.0,-0.005102158524096012
6144.0,-0.006449365522712469
6656.0,-0.0028422989416867495
7168.0,0.002439080737531185
7680.0,0.0056021311320364475
8192.0,0.01116260141134262
end
