version,3.0
numOfCh,1
type,point
parent_name,34a6d_0dot4-1dot0
ch_type,1_1
kcount,1
numberNandB,1
brightnessNandB,1
carpet pos,0
pc,0
Time (ms),CH1 Auto-Correlation
1.0,0.10530096292495728
2.0,0.10030285269021988
3.0,0.09608576446771622
4.0,0.09225020557641983
5.0,0.08882466703653336
6.0,0.08556916564702988
7.0,0.08238580077886581
8.0,0.07953808456659317
9.0,0.07715123891830444
10.0,0.07466288655996323
11.0,0.07236658036708832
12.0,0.07047345489263535
13.0,0.06853583455085754
14.0,0.06681691110134125
15.0,0.06506294012069702
16.0,0.06335862725973129
18.0,0.06087721884250641
20.0,0.05840996280312538
22.0,0.056244853883981705
24.0,0.0543067641556263
26.0,0.052622728049755096
28.0,0.0510232150554657
30.0,0.04924694821238518
32.0,0.04718498885631561
36.0,0.04446012154221535
40.0,0.04247486591339111
44.0,0.04023713991045952
48.0,0.03844074159860611
52.0,0.03726975619792938
56.0,0.03558044508099556
60.0,0.033102478832006454
64.0,0.03031229041516781
72.0,0.025909245014190674
80.0,0.023769527673721313
88.0,0.02204490639269352
96.0,0.01984991878271103
104.0,0.016977300867438316
112.0,0.013842787593603134
120.0,0.01091379951685667
128.0,0.008554456755518913
144.0,0.009038395248353481
160.0,0.011120920069515705
176.0,0.009441087953746319
192.0,0.006952263414859772
208.0,0.00726530235260725
224.0,0.009148397482931614
240.0,0.008931059390306473
256.0,0.008990329690277576
288.0,0.009980743750929832
320.0,0.009017369709908962
352.0,0.008944773115217686
384.0,0.007191925309598446
416.0,0.008411739021539688
448.0,0.011216595768928528
480.0,0.011698003858327866
512.0,0.012545580044388771
576.0,0.009575632400810719
640.0,0.006329445168375969
704.0,0.007031806744635105
768.0,0.010705916211009026
832.0,0.008240211755037308
896.0,0.0033946430776268244
960.0,0.00040377405821345747
1024.0,0.00390592310577631
1152.0,0.0017609468195587397
1280.0,0.003900992451235652
1408.0,0.0024474961683154106
1536.0,0.004482067655771971
1664.0,0.001212729373946786
1792.0,0.0014023194089531898
1920.0,0.0010892412392422557
2048.0,-0.006153424270451069
2304.0,-0.0018048291094601154
2560.0,-0.0019872570410370827
2816.0,-0.002684903098270297
3072.0,-0.00165418884716928
3328.0,-0.004270461387932301
3584.0,-0.004327588714659214
3840.0,-0.0034469724632799625
4096.0,-0.006117448676377535
4608.0,-0.007848992943763733
5120.0,-0.009671824984252453
5632.0,-0.007803404238075018
6144.0,-0.0052972640842199326
6656.0,-0.00862882100045681
7168.0,-0.0026310328394174576
7680.0,0.0020832058507949114
8192.0,0.004000027198344469
end
