version,3.0
numOfCh,1
type,point
parent_name,34a6d_0dot4-1dot0
ch_type,1_1
kcount,1
numberNandB,1
brightnessNandB,1
carpet pos,0
pc,0
Time (ms),CH1 Auto-Correlation
1.0,0.08894704282283783
2.0,0.08429922163486481
3.0,0.08032150566577911
4.0,0.07680783420801163
5.0,0.07369595766067505
6.0,0.07066009938716888
7.0,0.06806939840316772
8.0,0.0656299740076065
9.0,0.06314857304096222
10.0,0.06081383302807808
11.0,0.058526258915662766
12.0,0.056665584444999695
13.0,0.05480988696217537
14.0,0.053149230778217316
15.0,0.051335081458091736
16.0,0.04963667318224907
18.0,0.04678172618150711
20.0,0.04418794438242912
22.0,0.041943080723285675
24.0,0.039796922355890274
26.0,0.03745334595441818
28.0,0.03530607372522354
30.0,0.03332270681858063
32.0,0.031811654567718506
36.0,0.02852657623589039
40.0,0.025840027257800102
44.0,0.024027278646826744
48.0,0.02304275892674923
52.0,0.021974673494696617
56.0,0.02083616890013218
60.0,0.019689368084073067
64.0,0.01940176449716091
72.0,0.01940280757844448
80.0,0.019283926114439964
88.0,0.018490765243768692
96.0,0.01777668669819832
104.0,0.016233567148447037
112.0,0.014352451078593731
120.0,0.014755403622984886
128.0,0.014698228798806667
144.0,0.013835573568940163
160.0,0.011114808730781078
176.0,0.011325584724545479
192.0,0.00947465468198061
208.0,0.006700317375361919
224.0,0.005705977790057659
240.0,0.003585896687582135
256.0,0.0030210602562874556
288.0,0.002352777635678649
320.0,0.006333773955702782
352.0,0.0049477736465632915
384.0,0.0019306328613311052
416.0,0.0012782388366758823
448.0,0.006474591791629791
480.0,0.004599191248416901
512.0,-0.0012352975318208337
576.0,-0.0043379878625273705
640.0,-0.009492938406765461
704.0,-0.007778808940201998
768.0,-0.0064955782145261765
832.0,-0.009985669516026974
896.0,-0.00693149259313941
960.0,-0.0036396312061697245
1024.0,-0.0031369312200695276
1152.0,-0.0008928871829994023
1280.0,-0.0025533733423799276
1408.0,0.00042325753020122647
1536.0,-0.0008578706765547395
1664.0,0.0020589660853147507
1792.0,0.00030511635122820735
1920.0,0.0029292721301317215
2048.0,0.0019527932163327932
2304.0,0.0022597559727728367
2560.0,-0.004672063980251551
2816.0,-0.004213801585137844
3072.0,-0.0012575630098581314
3328.0,-0.0018998421728610992
3584.0,-0.004265752620995045
3840.0,0.00045229250099509954
4096.0,0.00256901141256094
4608.0,0.001620587194338441
5120.0,-0.005231739953160286
5632.0,0.005195101257413626
6144.0,0.0006618686020374298
6656.0,-0.0015458299312740564
7168.0,-0.004793977364897728
7680.0,0.004398806486278772
8192.0,0.0005683941417373717
end
