version,3.0
numOfCh,1
type,point
parent_name,34a6d_0dot4-1dot0
ch_type,1_1
kcount,1
numberNandB,1
brightnessNandB,1
carpet pos,0
pc,0
Time (ms),CH1 Auto-Correlation
1.0,0.09965189546346664
2.0,0.09568310528993607
3.0,0.09215289354324341
4.0,0.08899570256471634
5.0,0.08607327193021774
6.0,0.08336859196424484
7.0,0.08090070635080338
8.0,0.07860571891069412
9.0,0.07626024633646011
10.0,0.07397676259279251
11.0,0.07189834117889404
12.0,0.06992785632610321
13.0,0.06807325035333633
14.0,0.06642792373895645
15.0,0.06497199833393097
16.0,0.06365567445755005
18.0,0.06121624633669853
20.0,0.05909191817045212
22.0,0.05717017501592636
24.0,0.055444326251745224
26.0,0.053916506469249725
28.0,0.052636969834566116
30.0,0.05149209871888161
32.0,0.050339240580797195
36.0,0.04842868819832802
40.0,0.046269312500953674
44.0,0.0440792590379715
48.0,0.04192729294300079
52.0,0.03984615579247475
56.0,0.037322528660297394
60.0,0.03512461483478546
64.0,0.03251616656780243
72.0,0.028917253017425537
80.0,0.02598273754119873
88.0,0.023013191297650337
96.0,0.021153118461370468
104.0,0.01978728547692299
112.0,0.0183302853256464
120.0,0.01653434708714485
128.0,0.014815768226981163
144.0,0.013879875652492046
160.0,0.011492902413010597
176.0,0.00959199108183384
192.0,0.008892158977687359
208.0,0.0076185730285942554
224.0,0.0066838255152106285
240.0,0.005934753455221653
256.0,0.0031156428158283234
288.0,-0.0007460704073309898
320.0,-0.0020141801796853542
352.0,-0.003236339893192053
384.0,-0.004218719433993101
416.0,-0.005178296007215977
448.0,-0.0037190280854701996
480.0,-0.0020013488829135895
512.0,-0.0015748587902635336
576.0,0.00023698490986134857
640.0,0.0029908057767897844
704.0,-0.0017301026964560151
768.0,-0.009118284098803997
832.0,-0.011429590173065662
896.0,-0.01168662216514349
960.0,-0.006823411677032709
1024.0,-0.004967850632965565
1152.0,0.00041992650949396193
1280.0,0.0026894393377006054
1408.0,-0.003917347174137831
1536.0,-0.0075444369576871395
1664.0,-0.0035756046418100595
1792.0,-0.0007906025857664645
1920.0,0.004420543555170298
2048.0,0.006105252541601658
2304.0,0.006212247535586357
2560.0,0.0005362228257581592
2816.0,-0.0008915587677620351
3072.0,-0.006195432040840387
3328.0,-8.592935046181083e-05
3584.0,-0.005771167576313019
3840.0,-4.164431447861716e-05
4096.0,0.008424135856330395
4608.0,-0.0006096350261941552
5120.0,-0.003820470068603754
5632.0,-0.003927269950509071
6144.0,-0.0010475885355845094
6656.0,0.0030380594544112682
7168.0,-0.004354171920567751
7680.0,-0.001649780897423625
8192.0,-0.007175376173108816
end
