version,3.0
numOfCh,1
type,point
parent_name,34a6d_0dot4-1dot0
ch_type,1_1
kcount,1
numberNandB,1
brightnessNandB,1
carpet pos,0
pc,0
Time (ms),CH1 Auto-Correlation
1.0,0.09297510236501694
2.0,0.08868008106946945
3.0,0.08495426177978516
4.0,0.08147290349006653
5.0,0.07821281999349594
6.0,0.07519598305225372
7.0,0.07242610305547714
8.0,0.06975623220205307
9.0,0.0672433003783226
10.0,0.06480751186609268
11.0,0.0622970312833786
12.0,0.05996403843164444
13.0,0.05778117850422859
14.0,0.05582524836063385
15.0,0.05391736328601837
16.0,0.05212591215968132
18.0,0.04877573996782303
20.0,0.04590592533349991
22.0,0.04340781271457672
24.0,0.04109467938542366
26.0,0.0387028269469738
28.0,0.03701029345393181
30.0,0.03527739271521568
32.0,0.03375303000211716
36.0,0.030963266268372536
40.0,0.029241260141134262
44.0,0.028390230610966682
48.0,0.027098331600427628
52.0,0.025680450722575188
56.0,0.02401610277593136
60.0,0.022267481312155724
64.0,0.020561350509524345
72.0,0.018252478912472725
80.0,0.01699427142739296
88.0,0.01641801930963993
96.0,0.01599014922976494
104.0,0.014379269443452358
112.0,0.012574875727295876
120.0,0.011376282200217247
128.0,0.010716001503169537
144.0,0.009649495594203472
160.0,0.008518828079104424
176.0,0.008895693346858025
192.0,0.01042543537914753
208.0,0.01000218465924263
224.0,0.00854705274105072
240.0,0.008976873941719532
256.0,0.00944142322987318
288.0,0.007394192274659872
320.0,0.010702323168516159
352.0,0.011831221170723438
384.0,0.012337597087025642
416.0,0.012372891418635845
448.0,0.011783500202000141
480.0,0.006810094229876995
512.0,0.0028845330234616995
576.0,0.003012913977727294
640.0,0.0021716079208999872
704.0,0.0008235177374444902
768.0,0.0033340274821966887
832.0,6.713851325912401e-05
896.0,0.0006251747254282236
960.0,0.0004149859305471182
1024.0,-0.002065318636596203
1152.0,-0.0033030021004378796
1280.0,-0.0009933753171935678
1408.0,-0.002505514770746231
1536.0,-0.002658885670825839
1664.0,-0.00493310671299696
1792.0,-0.004566878546029329
1920.0,0.0004290594661142677
2048.0,0.0002753583830781281
2304.0,0.003705371869727969
2560.0,0.00021852622739970684
2816.0,0.0025297219399362803
3072.0,0.0006871055229566991
3328.0,-0.0006197799812071025
3584.0,-0.002178695984184742
3840.0,-0.0016756394179537892
4096.0,-0.0015521475579589605
4608.0,-0.0009779497049748898
5120.0,-0.001969933742657304
5632.0,-0.006868593394756317
6144.0,-0.005761495791375637
6656.0,0.00013486237730830908
7168.0,0.001687592826783657
7680.0,-0.0032952704932540655
8192.0,-0.009691438637673855
end
