version,3.0
numOfCh,1
type,point
parent_name,34a6d_0dot4-1dot0
ch_type,1_1
kcount,1
numberNandB,1
brightnessNandB,1
carpet pos,0
pc,0
Time (ms),CH1 Auto-Correlation
1.0,0.09738916158676147
2.0,0.09373100847005844
3.0,0.09043671190738678
4.0,0.08736565709114075
5.0,0.08444808423519135
6.0,0.08161964267492294
7.0,0.07895755767822266
8.0,0.07646728307008743
9.0,0.0741906687617302
10.0,0.07199594378471375
11.0,0.06992729753255844
12.0,0.06792864948511124
13.0,0.06601889431476593
14.0,0.0642196461558342
15.0,0.0625731572508812
16.0,0.06105222925543785
18.0,0.05846714973449707
20.0,0.055913712829351425
22.0,0.053383685648441315
24.0,0.05079895257949829
26.0,0.04819146543741226
28.0,0.045625656843185425
30.0,0.043264225125312805
32.0,0.04100087285041809
36.0,0.03681439906358719
40.0,0.0335281603038311
44.0,0.030527323484420776
48.0,0.0279235802590847
52.0,0.0259415153414011
56.0,0.02415427938103676
60.0,0.022704854607582092
64.0,0.02166491001844406
72.0,0.019589930772781372
80.0,0.017125798389315605
88.0,0.014724643900990486
96.0,0.013541361317038536
104.0,0.012220735661685467
112.0,0.010528342798352242
120.0,0.009143996052443981
128.0,0.008321822620928288
144.0,0.004162190947681665
160.0,0.002222612500190735
176.0,0.0007205490255728364
192.0,-0.0003537260345183313
208.0,-0.0006551286205649376
224.0,0.0001416324230376631
240.0,0.0009082771721296012
256.0,0.0012084776535630226
288.0,0.0006931317620910704
320.0,-2.783612217172049e-05
352.0,-0.0007935503381304443
384.0,-0.0035613111685961485
416.0,-0.005532268434762955
448.0,-0.004199751187115908
480.0,-0.003358585061505437
512.0,-0.0024350066669285297
576.0,-0.002921758219599724
640.0,-0.000825396622531116
704.0,0.0018666471587494016
768.0,0.0008452268084511161
832.0,-0.007582748308777809
896.0,-0.00814616959542036
960.0,-0.002614835510030389
1024.0,0.004637307487428188
1152.0,0.0028899803292006254
1280.0,-0.0025532280560582876
1408.0,-0.0028616723138839006
1536.0,-0.0016255307709798217
1664.0,-0.0013234956422820687
1792.0,-0.0020162409637123346
1920.0,-0.005174959544092417
2048.0,-0.004548874218016863
2304.0,-0.002907262882217765
2560.0,-0.0037364521995186806
2816.0,0.004886883310973644
3072.0,0.005443147383630276
3328.0,0.00029144276049919426
3584.0,-0.0030353611800819635
3840.0,0.0014808961423113942
4096.0,0.003196691395714879
4608.0,-0.0031468316446989775
5120.0,-0.00295759504660964
5632.0,0.001123471069149673
6144.0,0.002020533662289381
6656.0,0.002837468171492219
7168.0,0.003874037880450487
7680.0,-0.0008509870385751128
8192.0,-0.0059880344197154045
end
