version,3.0
numOfCh,1
type,point
parent_name,34a6d_0dot4-1dot0
ch_type,1_1
kcount,1
numberNandB,1
brightnessNandB,1
carpet pos,0
pc,0
Time (ms),CH1 Auto-Correlation
1.0,0.10735467821359634
2.0,0.10241100192070007
3.0,0.09795306622982025
4.0,0.09419742971658707
5.0,0.09097238630056381
6.0,0.0880647674202919
7.0,0.08503730595111847
8.0,0.08226794004440308
9.0,0.08002322167158127
10.0,0.07766623795032501
11.0,0.07547558099031448
12.0,0.07354263216257095
13.0,0.07162073254585266
14.0,0.06976264715194702
15.0,0.06823360919952393
16.0,0.06660213321447372
18.0,0.0632188469171524
20.0,0.060144439339637756
22.0,0.05778500810265541
24.0,0.05559144169092178
26.0,0.053535301238298416
28.0,0.05185556411743164
30.0,0.05012977868318558
32.0,0.04832303151488304
36.0,0.04452070593833923
40.0,0.04241816699504852
44.0,0.040481965988874435
48.0,0.03862398862838745
52.0,0.03713297098875046
56.0,0.03554943948984146
60.0,0.034722257405519485
64.0,0.03407123312354088
72.0,0.033440642058849335
80.0,0.030930399894714355
88.0,0.02840684913098812
96.0,0.025526873767375946
104.0,0.023885438218712807
112.0,0.0229641180485487
120.0,0.023352010175585747
128.0,0.024026881903409958
144.0,0.022390440106391907
160.0,0.018395014107227325
176.0,0.014978175051510334
192.0,0.014179941266775131
208.0,0.012472487986087799
224.0,0.010490740649402142
240.0,0.010138116776943207
256.0,0.008370521478354931
288.0,0.003265578532591462
320.0,0.007341442629694939
352.0,0.005492306314408779
384.0,0.0006411834619939327
416.0,0.0008596606203354895
448.0,-0.0009494540863670409
480.0,-0.0036843279376626015
512.0,-0.002526085590943694
576.0,-0.0018304152181372046
640.0,-0.0020822654478251934
704.0,-0.004581295885145664
768.0,-0.0027099777944386005
832.0,-0.0034355877432972193
896.0,-0.005537526682019234
960.0,-0.0023659770376980305
1024.0,0.0010890341363847256
1152.0,0.0002780043869279325
1280.0,0.006908452603965998
1408.0,0.006555640138685703
1536.0,-0.0019843783229589462
1664.0,-0.003694147802889347
1792.0,0.00030403898563236
1920.0,0.004182847682386637
2048.0,0.00642126239836216
2304.0,0.004842280875891447
2560.0,-0.007482300046831369
2816.0,-0.012032958678901196
3072.0,-0.0038332859985530376
3328.0,0.00980972871184349
3584.0,-0.003802354447543621
3840.0,-0.003923707641661167
4096.0,-0.006152722518891096
4608.0,0.0005735503509640694
5120.0,-0.005561341531574726
5632.0,-0.0011631650850176811
6144.0,-0.006386877968907356
6656.0,0.008110393770039082
7168.0,-0.006385174114257097
7680.0,0.0021323077380657196
8192.0,0.005345240700989962
end
