version,3.0
numOfCh,1
type,point
parent_name,34a6d_0dot4-1dot0
ch_type,1_1
kcount,1
numberNandB,1
brightnessNandB,1
carpet pos,0
pc,0
Time (ms),CH1 Auto-Correlation
1.0,0.11825702339410782
2.0,0.1140240877866745
3.0,0.1100914254784584
4.0,0.10663370043039322
5.0,0.10352019965648651
6.0,0.10053365677595139
7.0,0.09759681671857834
8.0,0.09486836194992065
9.0,0.09215409308671951
10.0,0.08965326100587845
11.0,0.08722568303346634
12.0,0.08487097918987274
13.0,0.08266711980104446
14.0,0.08059699833393097
15.0,0.07877419143915176
16.0,0.0768531933426857
18.0,0.07312874495983124
20.0,0.06986968964338303
22.0,0.06717058271169662
24.0,0.06456535309553146
26.0,0.06185263395309448
28.0,0.05943462997674942
30.0,0.05716508999466896
32.0,0.05523882806301117
36.0,0.051808975636959076
40.0,0.04842187836766243
44.0,0.04559656232595444
48.0,0.04346214607357979
52.0,0.04152093082666397
56.0,0.03969979286193848
60.0,0.037399161607027054
64.0,0.03494841605424881
72.0,0.031868986785411835
80.0,0.02924422174692154
88.0,0.025519514456391335
96.0,0.02299604006111622
104.0,0.02069823071360588
112.0,0.017441296949982643
120.0,0.014987590722739697
128.0,0.013154798187315464
144.0,0.01337519846856594
160.0,0.012364249676465988
176.0,0.00971812941133976
192.0,0.007159276865422726
208.0,0.004536413121968508
224.0,0.0006706066196784377
240.0,-0.0026513051707297564
256.0,-0.004113375209271908
288.0,-0.00453856261447072
320.0,-0.0024270883295685053
352.0,2.361359838687349e-05
384.0,-0.00031836313428357244
416.0,0.003140659537166357
448.0,0.004542542155832052
480.0,0.004486272111535072
512.0,0.0075692529790103436
576.0,0.0054472824558615685
640.0,0.0022296509705483913
704.0,-0.0007827804074622691
768.0,-0.0014464313862845302
832.0,-0.001033152686432004
896.0,0.00198178319260478
960.0,0.004727158695459366
1024.0,0.002025607042014599
1152.0,-0.011214982718229294
1280.0,-0.011648955754935741
1408.0,0.0018888185732066631
1536.0,0.004635962657630444
1664.0,0.00170418294146657
1792.0,0.000607629306614399
1920.0,-0.0006130672991275787
2048.0,0.0004860897606704384
2304.0,0.005690986756235361
2560.0,-0.006210950668901205
2816.0,-0.002839862136170268
3072.0,-0.0014638289576396346
3328.0,0.00016411038814112544
3584.0,-0.006063156295567751
3840.0,0.011495525948703289
4096.0,-0.0032805742230266333
4608.0,-0.002146064303815365
5120.0,-0.0018444610759615898
5632.0,0.0028027258813381195
6144.0,0.0038266407791525126
6656.0,-0.004747598897665739
7168.0,-0.005576019641011953
7680.0,-0.000442612508777529
8192.0,-0.0012491815723478794
end
