version,3.0
numOfCh,1
type,point
parent_name,34a6d_0dot4-1dot0
ch_type,1_1
kcount,1
numberNandB,1
brightnessNandB,1
carpet pos,0
pc,0
Time (ms),CH1 Auto-Correlation
1.0,0.0868028774857521
2.0,0.08296570926904678
3.0,0.07936514914035797
4.0,0.07615208625793457
5.0,0.07303120195865631
6.0,0.07026799023151398
7.0,0.06776875257492065
8.0,0.06533411145210266
9.0,0.06303224712610245
10.0,0.060897789895534515
11.0,0.058900900185108185
12.0,0.05716077238321304
13.0,0.05551418289542198
14.0,0.05402597039937973
15.0,0.05261897295713425
16.0,0.05130234360694885
18.0,0.04867229610681534
20.0,0.046536270529031754
22.0,0.04443106800317764
24.0,0.04227061942219734
26.0,0.04048515483736992
28.0,0.03872903808951378
30.0,0.03692835569381714
32.0,0.03535306453704834
36.0,0.03244102746248245
40.0,0.029918087646365166
44.0,0.027658361941576004
48.0,0.025610243901610374
52.0,0.023893872275948524
56.0,0.022271955385804176
60.0,0.021041397005319595
64.0,0.020017651841044426
72.0,0.01715080626308918
80.0,0.01564953476190567
88.0,0.015530610457062721
96.0,0.015301110222935677
104.0,0.01469982136040926
112.0,0.014702286571264267
120.0,0.01404613722115755
128.0,0.013095149770379066
144.0,0.012184031307697296
160.0,0.01024642214179039
176.0,0.008183030411601067
192.0,0.00502767413854599
208.0,0.003740280866622925
224.0,0.0017159461276605725
240.0,-0.00023390499700326473
256.0,-0.0007291844231076539
288.0,0.0005629417137242854
320.0,0.0018160151084885001
352.0,0.0013081623474135995
384.0,-0.002140676835551858
416.0,-0.0027016426902264357
448.0,-0.003010137239471078
480.0,-0.0031602124217897654
512.0,-0.00106984528247267
576.0,0.0006372407078742981
640.0,0.0016486088279634714
704.0,-0.00047020046622492373
768.0,-0.002164524281397462
832.0,-0.0004870901757385582
896.0,-0.00448864558711648
960.0,-0.0025191570166498423
1024.0,-0.005698812659829855
1152.0,-0.0006784473662264645
1280.0,0.00938401184976101
1408.0,0.01110814232379198
1536.0,0.00715203583240509
1664.0,-0.003092444036155939
1792.0,-0.0026737672742456198
1920.0,0.003977298270910978
2048.0,0.0016952931182458997
2304.0,-0.000699177326168865
2560.0,-0.0014555520610883832
2816.0,0.002015111269429326
3072.0,0.0014157240511849523
3328.0,-0.00032174671650864184
3584.0,-0.0027909467462450266
3840.0,-0.002757019130513072
4096.0,-0.002723839832469821
4608.0,-0.0006107139051891863
5120.0,-0.010434581898152828
5632.0,-0.00326814828440547
6144.0,-0.0004345017659943551
6656.0,-0.007170593831688166
7168.0,0.0032998581882566214
7680.0,-0.0005587107152678072
8192.0,-0.0024892922956496477
end
