version,3.0
numOfCh,1
type,point
parent_name,34a6d_0dot4-1dot0
ch_type,1_1
kcount,1
numberNandB,1
brightnessNandB,1
carpet pos,0
pc,0
Time (ms),CH1 Auto-Correlation
1.0,0.10823611170053482
2.0,0.1039639562368393
3.0,0.10006655007600784
4.0,0.09682836383581161
5.0,0.09378240257501602
6.0,0.09093549102544785
7.0,0.0883004367351532
8.0,0.0858629122376442
9.0,0.08354883641004562
10.0,0.08146368712186813
11.0,0.07959085702896118
12.0,0.07766737788915634
13.0,0.07587886601686478
14.0,0.07431477308273315
15.0,0.07273346185684204
16.0,0.07109938561916351
18.0,0.06800244003534317
20.0,0.06525317579507828
22.0,0.0626068040728569
24.0,0.06049012020230293
26.0,0.05838087946176529
28.0,0.05625388026237488
30.0,0.05423253774642944
32.0,0.05217279493808746
36.0,0.048364702612161636
40.0,0.04479801282286644
44.0,0.04136195778846741
48.0,0.038444921374320984
52.0,0.036177054047584534
56.0,0.03452710062265396
60.0,0.032419353723526
64.0,0.029672591015696526
72.0,0.02545391023159027
80.0,0.022745616734027863
88.0,0.020875710994005203
96.0,0.01930183544754982
104.0,0.018115345388650894
112.0,0.015964476391673088
120.0,0.01415464747697115
128.0,0.012424645014107227
144.0,0.009138296358287334
160.0,0.006361071486026049
176.0,0.004630801267921925
192.0,0.004284759517759085
208.0,0.002458063419908285
224.0,0.0014372430741786957
240.0,0.0022211726754903793
256.0,0.0015361877158284187
288.0,0.0009281890233978629
320.0,-0.0010062336223199964
352.0,-0.0027075917460024357
384.0,-0.0020048520527780056
416.0,0.00090768066002056
448.0,0.004238366615027189
480.0,0.0050742002204060555
512.0,0.0043025510385632515
576.0,0.0019977104384452105
640.0,-0.0018285459373146296
704.0,0.0005653692642226815
768.0,-0.001148869632743299
832.0,6.373694486683235e-05
896.0,-0.003875233232975006
960.0,-0.007684919983148575
1024.0,-0.007471669930964708
1152.0,-0.005481197033077478
1280.0,-0.0037783989682793617
1408.0,0.0021194356959313154
1536.0,-0.0010756002739071846
1664.0,-0.0036775788757950068
1792.0,-0.005381208378821611
1920.0,0.00650833873078227
2048.0,0.006838805042207241
2304.0,0.00028509838739410043
2560.0,0.006810376420617104
2816.0,-0.005698306951671839
3072.0,-0.006014708429574966
3328.0,-0.00586067046970129
3584.0,0.00297514908015728
3840.0,-0.0002165122132282704
4096.0,0.007078689057379961
4608.0,-0.005318399518728256
5120.0,-0.012484668754041195
5632.0,-0.0007446585223078728
6144.0,0.005879874806851149
6656.0,0.001793636241927743
7168.0,-0.006468660663813353
7680.0,-0.003906378988176584
8192.0,0.0071883839555084705
end
