version,3.0
numOfCh,1
type,point
parent_name,34a6d_0dot4-1dot0
ch_type,1_1
kcount,1
numberNandB,1
brightnessNandB,1
carpet pos,0
pc,0
Time (ms),CH1 Auto-Correlation
1.0,0.09803317487239838
2.0,0.09387443959712982
3.0,0.09013420343399048
4.0,0.08661676943302155
5.0,0.08318032324314117
6.0,0.08000967651605606
7.0,0.07707837969064713
8.0,0.07455224543809891
9.0,0.07212582975625992
10.0,0.0698675587773323
11.0,0.06771362572908401
12.0,0.06573635339736938
13.0,0.06378379464149475
14.0,0.06190106272697449
15.0,0.060118768364191055
16.0,0.05850118026137352
18.0,0.0554591529071331
20.0,0.05240907520055771
22.0,0.04945966228842735
24.0,0.04680560529232025
26.0,0.04433589056134224
28.0,0.04216296598315239
30.0,0.040313415229320526
32.0,0.038733724504709244
36.0,0.036251846700906754
40.0,0.0346689336001873
44.0,0.0326869934797287
48.0,0.03027406334877014
52.0,0.028513001278042793
56.0,0.027383549138903618
60.0,0.0265437513589859
64.0,0.02591826021671295
72.0,0.02278594858944416
80.0,0.01938166655600071
88.0,0.01657509244978428
96.0,0.013656245544552803
104.0,0.011841651983559132
112.0,0.00956815481185913
120.0,0.007568870671093464
128.0,0.005366825498640537
144.0,0.0019385336199775338
160.0,0.0016534116584807634
176.0,0.0029571419581770897
192.0,0.0038264573086053133
208.0,0.0060943132266402245
224.0,0.005620573181658983
240.0,0.006787423510104418
256.0,0.008516929112374783
288.0,0.006884334143251181
320.0,0.005940111353993416
352.0,0.0027470102068036795
384.0,0.002081402810290456
416.0,0.0015085735358297825
448.0,0.003422439331188798
480.0,0.006386514753103256
512.0,0.007074601482599974
576.0,0.0009276022901758552
640.0,-0.004188171122223139
704.0,-0.003682573325932026
768.0,-0.0005831601447425783
832.0,0.0010580916423350573
896.0,-0.0007793980767019093
960.0,-0.0028256112709641457
1024.0,-0.006982417777180672
1152.0,-0.007653579581528902
1280.0,-0.0013957044575363398
1408.0,-0.0049715591594576836
1536.0,-0.0005670229438692331
1664.0,-0.0011326147941872478
1792.0,0.0020635032560676336
1920.0,-0.003888743231073022
2048.0,-0.004350911360234022
2304.0,-0.004696772433817387
2560.0,-0.007876605726778507
2816.0,-0.0012232571607455611
3072.0,-0.001936142216436565
3328.0,-0.0002191955572925508
3584.0,9.606215462554246e-05
3840.0,0.0015173994470387697
4096.0,-0.003576116170734167
4608.0,0.0069508058950304985
5120.0,0.004957673605531454
5632.0,0.0010633744532242417
6144.0,-0.0011738436296582222
6656.0,-0.0031290906481444836
7168.0,-0.0029063336551189423
7680.0,-0.001590935280546546
8192.0,-0.0027834598440676928
end
