version,3.0
numOfCh,1
type,point
parent_name,34a6d_0dot4-1dot0
ch_type,1_1
kcount,1
numberNandB,1
brightnessNandB,1
carpet pos,0
pc,0
Time (ms),CH1 Auto-Correlation
1.0,0.11088895797729492
2.0,0.10709322988986969
3.0,0.1037098616361618
4.0,0.10054337233304977
5.0,0.0975157767534256
6.0,0.09462637454271317
7.0,0.09206029772758484
8.0,0.08964206278324127
9.0,0.08732610195875168
10.0,0.08516177535057068
11.0,0.08317172527313232
12.0,0.08128576725721359
13.0,0.07952038198709488
14.0,0.07784852385520935
15.0,0.07632461190223694
16.0,0.07487817108631134
18.0,0.07211276143789291
20.0,0.06967414915561676
22.0,0.0673905536532402
24.0,0.06512284278869629
26.0,0.06301009654998779
28.0,0.06085783243179321
30.0,0.05875205248594284
32.0,0.05658647418022156
36.0,0.053162816911935806
40.0,0.05000283941626549
44.0,0.046855200082063675
48.0,0.04433668777346611
52.0,0.04222160577774048
56.0,0.040077898651361465
60.0,0.0381133146584034
64.0,0.03649480640888214
72.0,0.03328145667910576
80.0,0.02992060035467148
88.0,0.027342505753040314
96.0,0.025426600128412247
104.0,0.02399681881070137
112.0,0.02275186963379383
120.0,0.022007495164871216
128.0,0.020988704636693
144.0,0.01975896582007408
160.0,0.019037296995520592
176.0,0.01748640276491642
192.0,0.016118640080094337
208.0,0.013471062295138836
224.0,0.009471719153225422
240.0,0.005040557589381933
256.0,0.0024390043690800667
288.0,0.0010302742011845112
320.0,0.0018976309802383184
352.0,0.0008487203158438206
384.0,-0.001581785618327558
416.0,0.0010749417124316096
448.0,0.0009557767189107835
480.0,0.0010347937932237983
512.0,-0.000502722105011344
576.0,-0.0028358253184705973
640.0,-0.002091401955112815
704.0,-0.005991729907691479
768.0,-0.003908830229192972
832.0,0.006082106381654739
896.0,0.004316224716603756
960.0,0.006113359238952398
1024.0,0.004704969469457865
1152.0,-0.0006496450514532626
1280.0,-0.004040839616209269
1408.0,-0.011849824339151382
1536.0,-0.011487443000078201
1664.0,-0.0035550901666283607
1792.0,0.0039193653501570225
1920.0,0.013054530136287212
2048.0,0.0139793511480093
2304.0,0.00432721758261323
2560.0,-0.0002060001133941114
2816.0,0.004271273035556078
3072.0,-0.00031907475204207003
3328.0,-0.00370018114335835
3584.0,-0.004053704906255007
3840.0,0.00337282195687294
4096.0,0.007739840541034937
4608.0,0.00564211281016469
5120.0,-0.00346351764164865
5632.0,-0.004791804123669863
6144.0,-0.004632302559912205
6656.0,-0.0014847364509478211
7168.0,-0.0021283391397446394
7680.0,0.006513622123748064
8192.0,-0.0025648402515798807
end
