version,3.0
numOfCh,1
type,point
parent_name,34a6d_0dot4-1dot0
ch_type,1_1
kcount,1
numberNandB,1
brightnessNandB,1
carpet pos,0
pc,0
Time (ms),CH1 Auto-Correlation
1.0,0.09128009527921677
2.0,0.08761683106422424
3.0,0.08423592150211334
4.0,0.08113151788711548
5.0,0.07822861522436142
6.0,0.07549397647380829
7.0,0.07285507023334503
8.0,0.07036404311656952
9.0,0.06813722103834152
10.0,0.0659407377243042
11.0,0.0638984739780426
12.0,0.06201832741498947
13.0,0.06027500703930855
14.0,0.058671627193689346
15.0,0.057177893817424774
16.0,0.05569522827863693
18.0,0.05288601666688919
20.0,0.050205815583467484
22.0,0.04754984378814697
24.0,0.04510841518640518
26.0,0.04288586229085922
28.0,0.0407915897667408
30.0,0.03891737014055252
32.0,0.03732764348387718
36.0,0.03488330543041229
40.0,0.03276602923870087
44.0,0.03125975653529167
48.0,0.03002982586622238
52.0,0.028873855248093605
56.0,0.027541056275367737
60.0,0.02601415105164051
64.0,0.02441936545073986
72.0,0.02201780304312706
80.0,0.020061640068888664
88.0,0.017500558868050575
96.0,0.01532217487692833
104.0,0.013671072199940681
112.0,0.012542163021862507
120.0,0.011853289790451527
128.0,0.011484541930258274
144.0,0.011007866822183132
160.0,0.011724220588803291
176.0,0.01355113834142685
192.0,0.014045130461454391
208.0,0.013008157722651958
224.0,0.009479113854467869
240.0,0.006383190862834454
256.0,0.005686153192073107
288.0,0.004026101436465979
320.0,0.005514639895409346
352.0,0.005671448074281216
384.0,0.008555635809898376
416.0,0.01146715134382248
448.0,0.013474966399371624
480.0,0.011204097419977188
512.0,0.004184817895293236
576.0,0.0006545307114720345
640.0,0.001822262187488377
704.0,-0.0006490486557595432
768.0,0.0006866027251817286
832.0,-0.0015017528785392642
896.0,-0.0033385837450623512
960.0,-0.004802906885743141
1024.0,0.0014970062766224146
1152.0,-0.0026335478760302067
1280.0,-0.0018288027495145798
1408.0,-0.001587540376931429
1536.0,0.0024302476085722446
1664.0,0.00013282638974487782
1792.0,0.0009584020590409636
1920.0,0.0036235630977898836
2048.0,0.005239157937467098
2304.0,0.007033956702798605
2560.0,0.006118935067206621
2816.0,2.02992250706302e-05
3072.0,-0.004456054884940386
3328.0,-0.004859763663262129
3584.0,-0.005278648808598518
3840.0,-0.0031017065048217773
4096.0,-0.003852476365864277
4608.0,0.0036380437668412924
5120.0,-1.3379759366216604e-05
5632.0,-0.005793913267552853
6144.0,-0.0036594218108803034
6656.0,0.002706511877477169
7168.0,0.004345322027802467
7680.0,-0.002327529713511467
8192.0,-0.00651787593960762
end
