version,3.0
numOfCh,1
type,point
parent_name,34a6d_0dot4-1dot0
ch_type,1_1
kcount,1
numberNandB,1
brightnessNandB,1
carpet pos,0
pc,0
Time (ms),CH1 Auto-Correlation
1.0,0.09625431895256042
2.0,0.0923408716917038
3.0,0.0890309065580368
4.0,0.08588860183954239
5.0,0.08293209969997406
6.0,0.08010329306125641
7.0,0.0774603858590126
8.0,0.0748530775308609
9.0,0.07234445959329605
10.0,0.07004325091838837
11.0,0.06791254132986069
12.0,0.06591681391000748
13.0,0.06414809823036194
14.0,0.06237580254673958
15.0,0.060749586671590805
16.0,0.059309426695108414
18.0,0.05673930048942566
20.0,0.05419427156448364
22.0,0.05160539224743843
24.0,0.049166541546583176
26.0,0.04711486026644707
28.0,0.045116111636161804
30.0,0.043368156999349594
32.0,0.04179975762963295
36.0,0.03970642387866974
40.0,0.03718559816479683
44.0,0.03453834354877472
48.0,0.03203560784459114
52.0,0.0296435859054327
56.0,0.027758950367569923
60.0,0.0260365791618824
64.0,0.02433067187666893
72.0,0.02173890732228756
80.0,0.020746959373354912
88.0,0.01989579200744629
96.0,0.0191191453486681
104.0,0.018959468230605125
112.0,0.019338814541697502
120.0,0.01896902173757553
128.0,0.018526921048760414
144.0,0.01827310211956501
160.0,0.018509315326809883
176.0,0.018018074333667755
192.0,0.01521038357168436
208.0,0.010145739652216434
224.0,0.007739400025457144
240.0,0.0058263386599719524
256.0,0.004066975321620703
288.0,0.004406371153891087
320.0,0.00016151626186911017
352.0,-0.0032966784201562405
384.0,-0.001291674911044538
416.0,-0.0009167729294858873
448.0,0.002494007581844926
480.0,0.00528047326952219
512.0,0.005507010500878096
576.0,0.00330044305883348
640.0,0.004888456780463457
704.0,0.005695199128240347
768.0,0.002410615561529994
832.0,-0.0005407549324445426
896.0,0.0016060105990618467
960.0,0.0011674822308123112
1024.0,0.0035049442667514086
1152.0,7.920112693682313e-05
1280.0,-0.002798098139464855
1408.0,-0.0013014598516747355
1536.0,-0.002734527224674821
1664.0,-0.005322935990989208
1792.0,-0.008430341258645058
1920.0,-0.007188702933490276
2048.0,-0.00646066851913929
2304.0,0.001306004822254181
2560.0,0.00017641759768594056
2816.0,0.0005408945144154131
3072.0,0.0014994367957115173
3328.0,0.007166832219809294
3584.0,0.0009549717651680112
3840.0,0.003799663856625557
4096.0,0.0007467236137017608
4608.0,0.0010564967524260283
5120.0,-0.0013485407689586282
5632.0,-0.006312615238130093
6144.0,-0.00411084434017539
6656.0,-0.0022997711785137653
7168.0,-0.002020579995587468
7680.0,-0.00661720335483551
8192.0,-0.004522665403783321
end
