version,3.0
numOfCh,1
type,point
parent_name,34a6d_0dot4-1dot0
ch_type,1_1
kcount,1
numberNandB,1
brightnessNandB,1
carpet pos,0
pc,0
Time (ms),CH1 Auto-Correlation
1.0,0.10344686359167099
2.0,0.09898018091917038
3.0,0.09505908191204071
4.0,0.09149684756994247
5.0,0.08823293447494507
6.0,0.08509793132543564
7.0,0.0821906179189682
8.0,0.07950709015130997
9.0,0.07705627381801605
10.0,0.07478174567222595
11.0,0.072507843375206
12.0,0.07036220282316208
13.0,0.06841804832220078
14.0,0.06669171154499054
15.0,0.06500310450792313
16.0,0.06344462186098099
18.0,0.060633670538663864
20.0,0.05799776315689087
22.0,0.055652424693107605
24.0,0.05334310978651047
26.0,0.0511186383664608
28.0,0.04887723922729492
30.0,0.04661955684423447
32.0,0.044877663254737854
36.0,0.04171616584062576
40.0,0.03866438940167427
44.0,0.036175813525915146
48.0,0.03374464437365532
52.0,0.03162812441587448
56.0,0.029957791790366173
60.0,0.028981266543269157
64.0,0.027786564081907272
72.0,0.024142934009432793
80.0,0.01901472546160221
88.0,0.014486413449048996
96.0,0.011112510226666927
104.0,0.008454645983874798
112.0,0.005702895577996969
120.0,0.004012960009276867
128.0,0.002916089491918683
144.0,0.001807143446058035
160.0,0.002882853150367737
176.0,0.0033274178858846426
192.0,0.002094555413350463
208.0,0.0023901795502752066
224.0,0.0040078116580843925
240.0,0.005264854058623314
256.0,0.003971353638917208
288.0,0.001562866265885532
320.0,0.001245486200787127
352.0,0.0005487988819368184
384.0,-0.0011983199510723352
416.0,-0.002180222189053893
448.0,-0.004211773630231619
480.0,-0.0022352365776896477
512.0,-0.0009767593583092093
576.0,0.004275119863450527
640.0,0.003117925487458706
704.0,-0.0013594370102509856
768.0,-0.001443429384380579
832.0,-0.0017606312176212668
896.0,-0.00737523240968585
960.0,-0.008369123563170433
1024.0,-0.006558636203408241
1152.0,-0.007656411733478308
1280.0,-0.004058028105646372
1408.0,0.00147405790630728
1536.0,0.0008506650920026004
1664.0,0.0011526064481586218
1792.0,-0.0011620866134762764
1920.0,-0.0009710411541163921
2048.0,0.002158120507374406
2304.0,0.0045196739956736565
2560.0,0.005110625643283129
2816.0,0.0021584907080978155
3072.0,-0.0030965518672019243
3328.0,-0.01126642432063818
3584.0,-0.012646041810512543
3840.0,-0.00575800659134984
4096.0,0.0007569895824417472
4608.0,0.004273264203220606
5120.0,-0.0017468169098719954
5632.0,-0.0024234296288341284
6144.0,-0.0049316901713609695
6656.0,0.00405747490003705
7168.0,0.009286210872232914
7680.0,-0.007508314214646816
8192.0,-0.004891339223831892
end
