version,3.0
numOfCh,1
type,point
parent_name,34a6d_0dot4-1dot0
ch_type,1_1
kcount,1
numberNandB,1
brightnessNandB,1
carpet pos,0
pc,0
Time (ms),CH1 Auto-Correlation
1.0,0.0998050644993782
2.0,0.09455413371324539
3.0,0.09006376564502716
4.0,0.08640085905790329
5.0,0.08276619762182236
6.0,0.0798691138625145
7.0,0.07694882899522781
8.0,0.07432354986667633
9.0,0.07174107432365417
10.0,0.06932935118675232
11.0,0.06711506098508835
12.0,0.0650903731584549
13.0,0.06297103315591812
14.0,0.061050549149513245
15.0,0.05914010480046272
16.0,0.05731867253780365
18.0,0.05438651517033577
20.0,0.051604270935058594
22.0,0.04932396113872528
24.0,0.04760698601603508
26.0,0.045817241072654724
28.0,0.04402277246117592
30.0,0.04261481389403343
32.0,0.04085012525320053
36.0,0.037215955555438995
40.0,0.033145107328891754
44.0,0.029725663363933563
48.0,0.027099400758743286
52.0,0.02505703642964363
56.0,0.023575609549880028
60.0,0.021572325378656387
64.0,0.0199008509516716
72.0,0.017849449068307877
80.0,0.01646818034350872
88.0,0.014686094596982002
96.0,0.013134653680026531
104.0,0.010570548474788666
112.0,0.007883632555603981
120.0,0.0060894908383488655
128.0,0.0051595289260149
144.0,0.0029455225449055433
160.0,0.002673512324690819
176.0,0.00010598637163639069
192.0,0.0007925931131467223
208.0,0.0026787593960762024
224.0,0.004884498659521341
240.0,0.0059455400332808495
256.0,0.004979148507118225
288.0,0.008026855066418648
320.0,0.008510570041835308
352.0,0.003013781039044261
384.0,-0.005528895650058985
416.0,-0.005572453141212463
448.0,-0.003069243859499693
480.0,-0.0026469677686691284
512.0,0.0004066741093993187
576.0,0.0038282370660454035
640.0,0.001465336885303259
704.0,-0.0005367667763493955
768.0,-0.00644672429189086
832.0,-0.000875608529895544
896.0,0.0031592710874974728
960.0,0.004736809525638819
1024.0,0.004886509384959936
1152.0,0.0007593408809043467
1280.0,7.5738578743767e-05
1408.0,0.0010535353794693947
1536.0,0.0023989377077668905
1664.0,-0.00043216306949034333
1792.0,-0.0019507722463458776
1920.0,-0.0014556740643456578
2048.0,-0.0053492579609155655
2304.0,-0.0010390589013695717
2560.0,-0.00036126619670540094
2816.0,-0.00297948089428246
3072.0,0.0022185335401445627
3328.0,-0.0030740746296942234
3584.0,-0.006654417607933283
3840.0,-0.007818078622221947
4096.0,-0.0037027711514383554
4608.0,-0.0025325058959424496
5120.0,-0.0018901354633271694
5632.0,0.003786484245210886
6144.0,-0.00013739161659032106
6656.0,0.004675731994211674
7168.0,0.001140985288657248
7680.0,0.003828788874670863
8192.0,0.003998683299869299
end
