version,3.0
numOfCh,1
type,point
parent_name,34a6d_0dot4-1dot0
ch_type,1_1
kcount,1
numberNandB,1
brightnessNandB,1
carpet pos,0
pc,0
Time (ms),CH1 Auto-Correlation
1.0,0.08741186559200287
2.0,0.08343745768070221
3.0,0.07989192754030228
4.0,0.07668734341859818
5.0,0.07354871928691864
6.0,0.07067037373781204
7.0,0.06793660670518875
8.0,0.06539657711982727
9.0,0.06289976090192795
10.0,0.0606064610183239
11.0,0.05847199261188507
12.0,0.05653657019138336
13.0,0.05472782254219055
14.0,0.05307668074965477
15.0,0.05142326280474663
16.0,0.04976935312151909
18.0,0.04703633114695549
20.0,0.04450248181819916
22.0,0.04193314537405968
24.0,0.03973908722400665
26.0,0.03770897164940834
28.0,0.035761669278144836
30.0,0.033916305750608444
32.0,0.03224598616361618
36.0,0.0295917559415102
40.0,0.027695681899785995
44.0,0.02615106850862503
48.0,0.024988163262605667
52.0,0.024170301854610443
56.0,0.023489581421017647
60.0,0.02281068079173565
64.0,0.021718155592679977
72.0,0.0189200546592474
80.0,0.017986850813031197
88.0,0.017988210543990135
96.0,0.017418524250388145
104.0,0.016702361404895782
112.0,0.015786292031407356
120.0,0.01508637797087431
128.0,0.014206782914698124
144.0,0.010573428124189377
160.0,0.0045240637846291065
176.0,0.001937716151587665
192.0,0.0016319847200065851
208.0,0.001678133849054575
224.0,0.004246732220053673
240.0,0.005219545681029558
256.0,0.004835543222725391
288.0,0.0020229003857821226
320.0,0.0006448989734053612
352.0,-0.0006745592691004276
384.0,-0.002656186930835247
416.0,-0.003788386005908251
448.0,-0.002681391080841422
480.0,-0.0007742396555840969
512.0,0.00016338528075721115
576.0,0.002151007065549493
640.0,0.002843947848305106
704.0,-0.0004593730845954269
768.0,-0.0008646860369481146
832.0,-0.0005231950781308115
896.0,0.0024082758463919163
960.0,0.0020700988825410604
1024.0,0.002457675524055958
1152.0,0.000885255285538733
1280.0,0.0004534841573331505
1408.0,-0.00014280618051998317
1536.0,0.003492048243060708
1664.0,-0.0005934560322202742
1792.0,-0.0024672728031873703
1920.0,-0.000909724913071841
2048.0,8.269655518233776e-05
2304.0,0.006996298674494028
2560.0,0.010369307361543179
2816.0,0.004551911726593971
3072.0,-0.0014335175510495901
3328.0,-0.0009456172701902688
3584.0,-0.003969726152718067
3840.0,-0.0018842123681679368
4096.0,-7.556821219623089e-05
4608.0,-0.001203182153403759
5120.0,4.986620115232654e-05
5632.0,-5.674797284882516e-05
6144.0,-0.0050658369436860085
6656.0,-0.0067794546484947205
7168.0,-0.0011596912518143654
7680.0,-0.0015274244360625744
8192.0,-0.002418339718133211
end
