version,3.0
numOfCh,1
type,point
parent_name,34a6d_0dot4-1dot0
ch_type,1_1
kcount,1
numberNandB,1
brightnessNandB,1
carpet pos,0
pc,0
Time (ms),CH1 Auto-Correlation
1.0,0.10164730995893478
2.0,0.09776908904314041
3.0,0.09423254430294037
4.0,0.09086524695158005
5.0,0.08784560114145279
6.0,0.08507978916168213
7.0,0.08255408704280853
8.0,0.08013992011547089
9.0,0.07793626189231873
10.0,0.07588618993759155
11.0,0.07395359128713608
12.0,0.07205405831336975
13.0,0.0703258216381073
14.0,0.06865602731704712
15.0,0.06706260144710541
16.0,0.06545381993055344
18.0,0.062149692326784134
20.0,0.059262052178382874
22.0,0.05665479972958565
24.0,0.05422138795256615
26.0,0.052061695605516434
28.0,0.050275836139917374
30.0,0.04868696630001068
32.0,0.04695062339305878
36.0,0.04375378042459488
40.0,0.040352482348680496
44.0,0.03767934814095497
48.0,0.03595022112131119
52.0,0.03404581919312477
56.0,0.031771257519721985
60.0,0.029695946723222733
64.0,0.02772882767021656
72.0,0.02504134364426136
80.0,0.022152850404381752
88.0,0.020003074780106544
96.0,0.01732049323618412
104.0,0.014560965821146965
112.0,0.013053112663328648
120.0,0.012768920511007309
128.0,0.011217774823307991
144.0,0.006145908497273922
160.0,0.0020967251621186733
176.0,0.00025781968724913895
192.0,-0.002313244855031371
208.0,-0.001577547169290483
224.0,0.00010742720769485459
240.0,0.002240826142951846
256.0,0.002991621382534504
288.0,0.002857761923223734
320.0,0.0036205006763339043
352.0,0.0030850775074213743
384.0,0.0037450571544468403
416.0,0.0009075599955394864
448.0,0.002109345281496644
480.0,0.00040904353954829276
512.0,0.0034056471195071936
576.0,0.0031528703402727842
640.0,-0.0023425992112606764
704.0,-0.0030184253118932247
768.0,-0.0033278288319706917
832.0,-0.0037013401743024588
896.0,-0.002288640011101961
960.0,-0.0066969264298677444
1024.0,-0.003667887533083558
1152.0,0.0029506532009691
1280.0,0.008835305459797382
1408.0,0.009911112487316132
1536.0,0.001362696522846818
1664.0,-0.005072622559964657
1792.0,0.004760566167533398
1920.0,-0.0021431411150842905
2048.0,-0.006505291908979416
2304.0,-0.0013486583484336734
2560.0,-0.0061485907062888145
2816.0,-0.0023400443606078625
3072.0,-0.0024507888592779636
3328.0,-0.001981019973754883
3584.0,-0.0014812832232564688
3840.0,-0.005647829733788967
4096.0,-0.0045548127964138985
4608.0,-0.002716077957302332
5120.0,-0.005169444717466831
5632.0,-0.003402506001293659
6144.0,0.0007148438598960638
6656.0,0.0007024702499620616
7168.0,0.0006945963250473142
7680.0,0.0062055038288235664
8192.0,0.004942912142723799
end
