version,3.0
numOfCh,1
type,point
parent_name,34a6d_0dot4-1dot0
ch_type,1_1
kcount,1
numberNandB,1
brightnessNandB,1
carpet pos,0
pc,0
Time (ms),CH1 Auto-Correlation
1.0,0.0947645753622055
2.0,0.09119059145450592
3.0,0.08794214576482773
4.0,0.08477730304002762
5.0,0.08192254602909088
6.0,0.07929140329360962
7.0,0.07664841413497925
8.0,0.07422097772359848
9.0,0.07197584956884384
10.0,0.06990703195333481
11.0,0.06792017817497253
12.0,0.06613371521234512
13.0,0.06430564820766449
14.0,0.06258304417133331
15.0,0.06097014993429184
16.0,0.05944196507334709
18.0,0.05665086582303047
20.0,0.05400099605321884
22.0,0.05160190165042877
24.0,0.04936958849430084
26.0,0.0471770241856575
28.0,0.04516885057091713
30.0,0.043443500995635986
32.0,0.041795764118433
36.0,0.03877416253089905
40.0,0.03616250678896904
44.0,0.03376658633351326
48.0,0.03180661052465439
52.0,0.0303520318120718
56.0,0.029207522049546242
60.0,0.028495319187641144
64.0,0.027777981013059616
72.0,0.025154391303658485
80.0,0.022059695795178413
88.0,0.01912715472280979
96.0,0.016808412969112396
104.0,0.014233600348234177
112.0,0.012121161445975304
120.0,0.010456317104399204
128.0,0.009702817536890507
144.0,0.009220481850206852
160.0,0.010180234909057617
176.0,0.008129915222525597
192.0,0.0066529312171041965
208.0,0.00506058894097805
224.0,0.005397251341491938
240.0,0.005761910695582628
256.0,0.006006351672112942
288.0,0.003961576614528894
320.0,0.004555247724056244
352.0,0.00512808607891202
384.0,0.006391672417521477
416.0,0.005888644140213728
448.0,0.0021270012948662043
480.0,-0.0021657794713974
512.0,-0.007357488386332989
576.0,-0.013365807943046093
640.0,-0.016396692022681236
704.0,-0.01439940556883812
768.0,-0.006728102453052998
832.0,-0.0031444993801414967
896.0,-0.004706794861704111
960.0,-0.006521744653582573
1024.0,-0.0031646292190998793
1152.0,9.844212399912067e-06
1280.0,0.0020814447198063135
1408.0,0.0035190836060792208
1536.0,0.0018503415631130338
1664.0,0.0030759847722947598
1792.0,-0.0005040984251536429
1920.0,-0.005717372056096792
2048.0,-0.0047098430804908276
2304.0,-0.005132392048835754
2560.0,-0.0010716018732637167
2816.0,0.005668909754604101
3072.0,0.0034048038069158792
3328.0,0.002807706594467163
3584.0,0.0006226049736142159
3840.0,-0.004825284238904715
4096.0,-0.004240740556269884
4608.0,-0.005996411666274071
5120.0,0.00747906556352973
5632.0,-0.0012477219570428133
6144.0,0.002484192606061697
6656.0,0.0024669307749718428
7168.0,-0.00639542518183589
7680.0,-0.004783776123076677
8192.0,0.008767055347561836
end
