version,3.0
numOfCh,1
type,point
parent_name,34a6d_0dot4-1dot0
ch_type,1_1
kcount,1
numberNandB,1
brightnessNandB,1
carpet pos,0
pc,0
Time (ms),CH1 Auto-Correlation
1.0,0.11018373817205429
2.0,0.10604354739189148
3.0,0.10229048877954483
4.0,0.09879686683416367
5.0,0.09568401426076889
6.0,0.09276681393384933
7.0,0.08991363644599915
8.0,0.08733097463846207
9.0,0.08489257842302322
10.0,0.08275330811738968
11.0,0.08057893812656403
12.0,0.07866329699754715
13.0,0.0768718272447586
14.0,0.07514826208353043
15.0,0.07334957271814346
16.0,0.07169617712497711
18.0,0.06858603656291962
20.0,0.0658356100320816
22.0,0.06310070306062698
24.0,0.060592614114284515
26.0,0.05820236727595329
28.0,0.056018661707639694
30.0,0.054115258157253265
32.0,0.05224283039569855
36.0,0.04824448749423027
40.0,0.04433156177401543
44.0,0.040976107120513916
48.0,0.03781009837985039
52.0,0.03530753403902054
56.0,0.033615488559007645
60.0,0.03179720789194107
64.0,0.03008306212723255
72.0,0.027619540691375732
80.0,0.024683911353349686
88.0,0.02114143967628479
96.0,0.017248712480068207
104.0,0.013325734995305538
112.0,0.010591293685138226
120.0,0.008599058724939823
128.0,0.007428883109241724
144.0,0.0050366600044071674
160.0,0.004705572966486216
176.0,0.005838615354150534
192.0,0.0072080641984939575
208.0,0.006547717377543449
224.0,0.0047627887688577175
240.0,0.00312703475356102
256.0,0.00298257265239954
288.0,0.003575329901650548
320.0,0.0030481943394988775
352.0,0.0032934732735157013
384.0,0.002313368022441864
416.0,-0.0006608468829654157
448.0,2.7142818908032496e-06
480.0,-0.0020975240040570498
512.0,-0.004031355492770672
576.0,-0.0043054488487541676
640.0,-0.0010886630043387413
704.0,0.004978193435817957
768.0,0.0018115259008482099
832.0,-0.0007056739996187389
896.0,0.002310076029971242
960.0,-0.0005364203243516386
1024.0,-0.00397414481267333
1152.0,-0.0025328579358756542
1280.0,-0.0024047372862696648
1408.0,0.0019798867870122194
1536.0,-0.0020908908918499947
1664.0,-0.009304068051278591
1792.0,-0.010542502626776695
1920.0,-0.0024891209322959185
2048.0,-0.004089553374797106
2304.0,0.0013974396279081702
2560.0,-0.0016028187237679958
2816.0,-0.000827315088827163
3072.0,0.007217387668788433
3328.0,0.004443748388439417
3584.0,0.0031182137317955494
3840.0,-0.005711812525987625
4096.0,-0.0011312351562082767
4608.0,-0.008337088860571384
5120.0,-0.0073461225256323814
5632.0,-0.0009893175447359681
6144.0,0.003963992930948734
6656.0,0.008053509518504143
7168.0,9.585096995579079e-05
7680.0,-0.0037048442754894495
8192.0,-0.00527322618290782
end
