version,3.0
numOfCh,1
type,point
parent_name,34a6d_0dot4-1dot0
ch_type,1_1
kcount,1
numberNandB,1
brightnessNandB,1
carpet pos,0
pc,0
Time (ms),CH1 Auto-Correlation
1.0,0.10273898392915726
2.0,0.09861806780099869
3.0,0.0948411151766777
4.0,0.09134072065353394
5.0,0.08822180330753326
6.0,0.0852254331111908
7.0,0.08227062970399857
8.0,0.07960807532072067
9.0,0.07694267481565475
10.0,0.07456160336732864
11.0,0.07230083644390106
12.0,0.07013272494077682
13.0,0.06817229092121124
14.0,0.06651123613119125
15.0,0.06487122923135757
16.0,0.06327243149280548
18.0,0.06022591516375542
20.0,0.05728188902139664
22.0,0.05466106906533241
24.0,0.052168700844049454
26.0,0.04980650916695595
28.0,0.047485291957855225
30.0,0.04560382664203644
32.0,0.04398813471198082
36.0,0.041438113898038864
40.0,0.03914675489068031
44.0,0.03663603961467743
48.0,0.03447664901614189
52.0,0.03290962055325508
56.0,0.03187090530991554
60.0,0.031821344047784805
64.0,0.03124578669667244
72.0,0.03093310445547104
80.0,0.03088553622364998
88.0,0.031156159937381744
96.0,0.03116358444094658
104.0,0.030592067167162895
112.0,0.030129045248031616
120.0,0.029206277802586555
128.0,0.02916555106639862
144.0,0.028565289452672005
160.0,0.026449089869856834
176.0,0.02308727242052555
192.0,0.020738977938890457
208.0,0.01948697306215763
224.0,0.019597649574279785
240.0,0.019570795819163322
256.0,0.01691051758825779
288.0,0.008919788524508476
320.0,0.005407541990280151
352.0,0.0038142111152410507
384.0,0.005812222138047218
416.0,0.003161362372338772
448.0,0.002196494024246931
480.0,0.0008385737892240286
512.0,0.0014522343408316374
576.0,-0.00187788181938231
640.0,-0.006723018828779459
704.0,-0.006946667563170195
768.0,-0.004922661930322647
832.0,-0.004389411769807339
896.0,-0.00842750258743763
960.0,-0.006978163495659828
1024.0,-0.004885981325060129
1152.0,-0.005225449800491333
1280.0,-0.0025647610891610384
1408.0,-0.0020794186275452375
1536.0,-0.0017656917916610837
1664.0,0.0019817021675407887
1792.0,0.0059273564256727695
1920.0,0.010676941834390163
2048.0,0.012456370517611504
2304.0,0.006434004288166761
2560.0,-0.004768742714077234
2816.0,-0.009530129842460155
3072.0,-0.010775436647236347
3328.0,-0.009383792988955975
3584.0,-0.002459791721776128
3840.0,-0.004515145439654589
4096.0,-0.0009946267819032073
4608.0,-0.003114492166787386
5120.0,0.006681936327368021
5632.0,0.0006405749008990824
6144.0,-0.0031961207278072834
6656.0,0.004018714185804129
7168.0,0.011631187982857227
7680.0,-0.013269015587866306
8192.0,-0.011662003584206104
end
