version,3.0
numOfCh,1
type,point
parent_name,34a6d_0dot4-1dot0
ch_type,1_1
kcount,1
numberNandB,1
brightnessNandB,1
carpet pos,0
pc,0
Time (ms),CH1 Auto-Correlation
1.0,0.12763892114162445
2.0,0.12286563962697983
3.0,0.11861047148704529
4.0,0.11493093520402908
5.0,0.11161299049854279
6.0,0.10868526995182037
7.0,0.1058080643415451
8.0,0.10325761139392853
9.0,0.10081568360328674
10.0,0.09857921302318573
11.0,0.09654109179973602
12.0,0.09465702623128891
13.0,0.09276115894317627
14.0,0.09100499749183655
15.0,0.08928253501653671
16.0,0.08768760412931442
18.0,0.08426820486783981
20.0,0.08101733773946762
22.0,0.07792073488235474
24.0,0.07522541284561157
26.0,0.07276951521635056
28.0,0.07063876837491989
30.0,0.0685826763510704
32.0,0.06661348789930344
36.0,0.06283361464738846
40.0,0.05916775017976761
44.0,0.05639950931072235
48.0,0.05444258451461792
52.0,0.05315551161766052
56.0,0.051368504762649536
60.0,0.049504995346069336
64.0,0.04795616865158081
72.0,0.04537429288029671
80.0,0.04249975457787514
88.0,0.039085280150175095
96.0,0.03540743142366409
104.0,0.03330618143081665
112.0,0.031985267996788025
120.0,0.03211912512779236
128.0,0.03095807321369648
144.0,0.028939060866832733
160.0,0.02634594775736332
176.0,0.02434983104467392
192.0,0.020535072311758995
208.0,0.01788300648331642
224.0,0.01676240935921669
240.0,0.013613106682896614
256.0,0.009964213706552982
288.0,0.00840684026479721
320.0,0.007129133213311434
352.0,0.004488265607506037
384.0,0.0058679054491221905
416.0,0.003814670257270336
448.0,0.006551455706357956
480.0,0.00810906384140253
512.0,0.008517536334693432
576.0,0.009901734068989754
640.0,0.007156719919294119
704.0,0.0044215526431798935
768.0,0.004929292947053909
832.0,0.005267728120088577
896.0,0.0049646529369056225
960.0,0.001280399737879634
1024.0,-0.002595619997009635
1152.0,-0.006711210589855909
1280.0,-0.00953835528343916
1408.0,-0.008461054414510727
1536.0,-0.010248679667711258
1664.0,-0.01466173492372036
1792.0,-0.015352203510701656
1920.0,-0.012283124960958958
2048.0,-0.010713538154959679
2304.0,-0.013246319256722927
2560.0,-0.006052885204553604
2816.0,5.351239815354347e-05
3072.0,0.005034819710999727
3328.0,0.00960496161133051
3584.0,0.01459104660898447
3840.0,-0.00036941864527761936
4096.0,-0.00021045171888545156
4608.0,-0.000825145049020648
5120.0,-0.007177557796239853
5632.0,-0.006561438553035259
6144.0,0.00654629897326231
6656.0,0.010548306629061699
7168.0,0.0016657824162393808
7680.0,-0.009192556142807007
8192.0,-0.009974288754165173
end
