version,3.0
numOfCh,1
type,point
parent_name,34a6d_0dot4-1dot0
ch_type,1_1
kcount,1
numberNandB,1
brightnessNandB,1
carpet pos,0
pc,0
Time (ms),CH1 Auto-Correlation
1.0,0.1067676693201065
2.0,0.10292235761880875
3.0,0.09938602149486542
4.0,0.09601779282093048
5.0,0.0928613543510437
6.0,0.08992160111665726
7.0,0.087100088596344
8.0,0.08443975448608398
9.0,0.0819563940167427
10.0,0.07966288179159164
11.0,0.07753795385360718
12.0,0.07552727311849594
13.0,0.07349573820829391
14.0,0.07155890762805939
15.0,0.06959855556488037
16.0,0.06783168017864227
18.0,0.06460282951593399
20.0,0.06169316545128822
22.0,0.058789681643247604
24.0,0.05600041523575783
26.0,0.05335846170783043
28.0,0.05087260156869888
30.0,0.04853658750653267
32.0,0.04630925506353378
36.0,0.042810309678316116
40.0,0.03978055343031883
44.0,0.03733144327998161
48.0,0.03522069379687309
52.0,0.033253032714128494
56.0,0.03155291825532913
60.0,0.030374158173799515
64.0,0.030043037608265877
72.0,0.029224449768662453
80.0,0.027818677946925163
88.0,0.025758109986782074
96.0,0.0227523110806942
104.0,0.02046438306570053
112.0,0.018024791032075882
120.0,0.01603264920413494
128.0,0.014930812641978264
144.0,0.014233091846108437
160.0,0.015010313130915165
176.0,0.014351403340697289
192.0,0.013695002533495426
208.0,0.01408799272030592
224.0,0.015577155165374279
240.0,0.01411832869052887
256.0,0.011139933951199055
288.0,0.009066995233297348
320.0,0.006748115178197622
352.0,0.002912065712735057
384.0,0.0008745008963160217
416.0,0.00168171979021281
448.0,0.004899624735116959
480.0,0.0058546229265630245
512.0,0.003391231643036008
576.0,-0.0009231864823959768
640.0,-0.0014523102436214685
704.0,-0.002219904912635684
768.0,0.0005047128070145845
832.0,-0.0005000015371479094
896.0,-0.000185387150850147
960.0,-0.003153054742142558
1024.0,0.0021775104105472565
1152.0,0.006961358245462179
1280.0,0.0032204606104642153
1408.0,-0.00018838181858882308
1536.0,0.000996171496808529
1664.0,-0.0037593485321849585
1792.0,-0.003846942912787199
1920.0,-0.0002312910364707932
2048.0,0.00041787297232076526
2304.0,-0.0021180978510528803
2560.0,-0.0010082671651616693
2816.0,-0.0004111434973310679
3072.0,0.002720092423260212
3328.0,0.0038730434607714415
3584.0,-0.0028463653288781643
3840.0,-0.002958642551675439
4096.0,0.0009206485701724887
4608.0,-0.005074146203696728
5120.0,0.0006825077580288053
5632.0,-0.005102171096950769
6144.0,-0.0012187755201011896
6656.0,-0.004415428731590509
7168.0,-0.006515088025480509
7680.0,-0.003483087057247758
8192.0,0.0075278375297784805
end
