version,3.0
numOfCh,1
type,point
parent_name,34a6d_0dot4-1dot0
ch_type,1_1
kcount,1
numberNandB,1
brightnessNandB,1
carpet pos,0
pc,0
Time (ms),CH1 Auto-Correlation
1.0,0.10532328486442566
2.0,0.10118037462234497
3.0,0.09763958305120468
4.0,0.09445150196552277
5.0,0.09161737561225891
6.0,0.08888084441423416
7.0,0.08645432442426682
8.0,0.08416218310594559
9.0,0.08197365701198578
10.0,0.07992447912693024
11.0,0.07793933153152466
12.0,0.07611405849456787
13.0,0.07437298446893692
14.0,0.07268049567937851
15.0,0.07101345807313919
16.0,0.06940995156764984
18.0,0.06619291007518768
20.0,0.0633915364742279
22.0,0.060871243476867676
24.0,0.05862591043114662
26.0,0.056715257465839386
28.0,0.05484624207019806
30.0,0.05304323136806488
32.0,0.05141409859061241
36.0,0.04883358255028725
40.0,0.046166859567165375
44.0,0.043708089739084244
48.0,0.04134121909737587
52.0,0.03905321657657623
56.0,0.03650686889886856
60.0,0.0341174453496933
64.0,0.032087717205286026
72.0,0.029311560094356537
80.0,0.027964269742369652
88.0,0.02707812376320362
96.0,0.02581668458878994
104.0,0.024416809901595116
112.0,0.02273671142756939
120.0,0.020608050748705864
128.0,0.019768351688981056
144.0,0.018926996737718582
160.0,0.016356926411390305
176.0,0.015278349630534649
192.0,0.01625571772456169
208.0,0.016688216477632523
224.0,0.015821948647499084
240.0,0.014289703220129013
256.0,0.013199185952544212
288.0,0.00849176850169897
320.0,0.005901833064854145
352.0,0.0034529410768300295
384.0,-3.9323600503848866e-05
416.0,-0.0009078705916181207
448.0,-0.0021410826593637466
480.0,-0.00024432531790807843
512.0,-0.0022064032964408398
576.0,0.002297817962244153
640.0,-8.100193372229114e-05
704.0,-0.005682586692273617
768.0,-0.0031386795453727245
832.0,-0.0002898632374126464
896.0,0.00013837525330018252
960.0,-0.002623362001031637
1024.0,-0.0013381356839090586
1152.0,-0.005348644219338894
1280.0,-0.008942250162363052
1408.0,-0.005221026949584484
1536.0,-0.004414128605276346
1664.0,-0.00035517115611582994
1792.0,0.0013983239186927676
1920.0,0.0017593512311577797
2048.0,0.0058405837044119835
2304.0,-0.0020441145170480013
2560.0,-0.0025635119527578354
2816.0,-0.008191338740289211
3072.0,-0.005826412700116634
3328.0,-0.0011020464589819312
3584.0,0.00012503450852818787
3840.0,-0.0034265362191945314
4096.0,-0.004115062300115824
4608.0,0.007365284021943808
5120.0,0.0014636797131970525
5632.0,-0.008719098754227161
6144.0,-0.0003912770771421492
6656.0,0.00431678956374526
7168.0,0.0062189409509301186
7680.0,0.00269013037905097
8192.0,-0.00044810352846980095
end
