version,3.0
numOfCh,1
type,point
parent_name,34a6d_0dot4-1dot0
ch_type,1_1
kcount,1
numberNandB,1
brightnessNandB,1
carpet pos,0
pc,0
Time (ms),CH1 Auto-Correlation
1.0,0.10130923986434937
2.0,0.09731811285018921
3.0,0.09362142533063889
4.0,0.090331070125103
5.0,0.0872381255030632
6.0,0.08434899151325226
7.0,0.08165179193019867
8.0,0.07914283126592636
9.0,0.07678984105587006
10.0,0.07454834133386612
11.0,0.072396419942379
12.0,0.0704190582036972
13.0,0.06852347403764725
14.0,0.06669225543737411
15.0,0.0648876503109932
16.0,0.0632953867316246
18.0,0.06038608402013779
20.0,0.05768356844782829
22.0,0.05510065704584122
24.0,0.05253942683339119
26.0,0.04991927742958069
28.0,0.047567714005708694
30.0,0.045590877532958984
32.0,0.04406462982296944
36.0,0.04112807288765907
40.0,0.03862132877111435
44.0,0.03606320172548294
48.0,0.03377542272210121
52.0,0.03156692534685135
56.0,0.02951953373849392
60.0,0.028088269755244255
64.0,0.026865536347031593
72.0,0.023511584848165512
80.0,0.020741233602166176
88.0,0.01873556338250637
96.0,0.017012592405080795
104.0,0.015990735962986946
112.0,0.01449647918343544
120.0,0.011586090549826622
128.0,0.008819183334708214
144.0,0.004689568188041449
160.0,0.003619007533416152
176.0,0.003848379710689187
192.0,0.0062712873332202435
208.0,0.006882594898343086
224.0,0.007005768362432718
240.0,0.007984224706888199
256.0,0.007336158771067858
288.0,0.008107447065412998
320.0,0.00783749483525753
352.0,0.00806449819356203
384.0,0.010145554319024086
416.0,0.009634649381041527
448.0,0.008849594742059708
480.0,0.0060488637536764145
512.0,0.005744423717260361
576.0,0.006177030969411135
640.0,0.007524067535996437
704.0,0.005309818312525749
768.0,-0.004085352644324303
832.0,-0.009160444140434265
896.0,-0.005565256346017122
960.0,-0.007520703598856926
1024.0,-0.014433692209422588
1152.0,-0.00662005040794611
1280.0,-0.004759359639137983
1408.0,-0.007590265478938818
1536.0,-0.007189138792455196
1664.0,-0.006388654466718435
1792.0,-0.004609080497175455
1920.0,-0.0053618899546563625
2048.0,-0.005101602990180254
2304.0,-0.00576881505548954
2560.0,-0.000884775654412806
2816.0,-0.00043263789848424494
3072.0,0.006652517709881067
3328.0,0.007022827863693237
3584.0,0.013704675249755383
3840.0,0.003100194502621889
4096.0,0.006557804998010397
4608.0,-0.004920536186546087
5120.0,-0.010438580065965652
5632.0,-0.005273375194519758
6144.0,0.0026171323843300343
6656.0,0.0020851134322583675
7168.0,0.0057015265338122845
7680.0,0.008578660897910595
8192.0,-0.002380272839218378
end
