version,3.0
numOfCh,1
type,point
parent_name,34a6d_0dot4-1dot0
ch_type,1_1
kcount,1
numberNandB,1
brightnessNandB,1
carpet pos,0
pc,0
Time (ms),CH1 Auto-Correlation
1.0,0.11793148517608643
2.0,0.113688625395298
3.0,0.10976936668157578
4.0,0.10607976466417313
5.0,0.10283355414867401
6.0,0.09977061301469803
7.0,0.09699536859989166
8.0,0.09441517293453217
9.0,0.09215481579303741
10.0,0.08997726440429688
11.0,0.08803213387727737
12.0,0.08626329153776169
13.0,0.0844850018620491
14.0,0.08268743008375168
15.0,0.08112328499555588
16.0,0.0794382318854332
18.0,0.07617901265621185
20.0,0.07327698171138763
22.0,0.07093439996242523
24.0,0.06877769529819489
26.0,0.06651164591312408
28.0,0.06412392854690552
30.0,0.061886098235845566
32.0,0.059823062270879745
36.0,0.055832721292972565
40.0,0.051902130246162415
44.0,0.04850155860185623
48.0,0.04527590051293373
52.0,0.042048417031764984
56.0,0.039232250303030014
60.0,0.037523336708545685
64.0,0.03630320355296135
72.0,0.0352725125849247
80.0,0.03370123356580734
88.0,0.03120531141757965
96.0,0.029436592012643814
104.0,0.026771729812026024
112.0,0.02504132129251957
120.0,0.022007064893841743
128.0,0.01895245909690857
144.0,0.017328575253486633
160.0,0.014178304001688957
176.0,0.010957960970699787
192.0,0.00932134035974741
208.0,0.007791092153638601
224.0,0.0068322462029755116
240.0,0.006172172259539366
256.0,0.0063034119084477425
288.0,0.002411413937807083
320.0,-0.0007509186398237944
352.0,0.0013948761625215411
384.0,0.0016070982674136758
416.0,0.004725384991616011
448.0,0.00256114243529737
480.0,-0.00025210194871760905
512.0,0.0005382279050536454
576.0,-0.0030501619912683964
640.0,-0.006833968218415976
704.0,-0.00995377916842699
768.0,-0.012807248160243034
832.0,-0.01321493275463581
896.0,-0.012577394023537636
960.0,-0.0071595157496631145
1024.0,-0.005347851663827896
1152.0,0.003984145820140839
1280.0,0.006928902585059404
1408.0,0.00478926720097661
1536.0,-0.0014386699767783284
1664.0,0.0010646259179338813
1792.0,0.003628792241215706
1920.0,-0.009617400355637074
2048.0,-0.01615239307284355
2304.0,-0.005735304672271013
2560.0,-0.005264203529804945
2816.0,0.0075075337663292885
3072.0,0.0033886719029396772
3328.0,-0.018807316198945045
3584.0,-0.013816433027386665
3840.0,-0.014456583186984062
4096.0,0.010985882952809334
4608.0,0.009371322579681873
5120.0,-0.0027668785769492388
5632.0,0.008896253071725368
6144.0,0.004970671143382788
6656.0,0.0029500548262149096
7168.0,0.002963688224554062
7680.0,-0.00914164911955595
8192.0,-0.014461400918662548
end
