version,3.0
numOfCh,1
type,point
parent_name,fe81d_0dot6-1dot0
ch_type,1_1
kcount,1
numberNandB,1
brightnessNandB,1
carpet pos,0
pc,0
Time (ms),CH1 Auto-Correlation
1.0,0.04893697798252106
2.0,0.046398818492889404
3.0,0.04413837939500809
4.0,0.042137812823057175
5.0,0.04022384062409401
6.0,0.03848951682448387
7.0,0.037008147686719894
8.0,0.03563586249947548
9.0,0.03445490449666977
10.0,0.03341773897409439
11.0,0.032393693923950195
12.0,0.03145427256822586
13.0,0.030574308708310127
14.0,0.029759986326098442
15.0,0.028961805626749992
16.0,0.02816879190504551
18.0,0.026839127764105797
20.0,0.025638381019234657
22.0,0.02440890483558178
24.0,0.02320823259651661
26.0,0.022152753546833992
28.0,0.021313853561878204
30.0,0.020555200055241585
32.0,0.019834358245134354
36.0,0.018509944900870323
40.0,0.01770039275288582
44.0,0.017129972577095032
48.0,0.016418322920799255
52.0,0.01568378508090973
56.0,0.014774908311665058
60.0,0.013892481103539467
64.0,0.013194083236157894
72.0,0.012495914474129677
80.0,0.01176683884114027
88.0,0.011616436764597893
96.0,0.011272297240793705
104.0,0.010511543601751328
112.0,0.009435336105525494
120.0,0.008455997332930565
128.0,0.007687385659664869
144.0,0.005856403615325689
160.0,0.00435414956882596
176.0,0.002432857174426317
192.0,0.0014570673229172826
208.0,0.001328368904069066
224.0,0.0016207332955673337
240.0,0.0007920869393274188
256.0,-6.318946543615311e-05
288.0,-0.0009326047147624195
320.0,0.000736642221454531
352.0,0.0019545212853699923
384.0,0.0010895588202401996
416.0,0.0004398059973027557
448.0,0.0003388123877812177
480.0,0.00028421651222743094
512.0,-0.0025689350441098213
576.0,-0.0036921377759426832
640.0,-0.004339223727583885
704.0,-0.0035943619441241026
768.0,-0.002470892621204257
832.0,-0.0021389201283454895
896.0,0.00019188920850865543
960.0,-0.0013661648845300078
1024.0,-0.0013059766497462988
1152.0,0.004022690933197737
1280.0,0.004409540444612503
1408.0,-0.000467837555333972
1536.0,-0.00029724970227107406
1664.0,0.0014567688340321183
1792.0,-0.00012371012417133898
1920.0,-0.0017877203645184636
2048.0,0.0008565952884964645
2304.0,-0.0016577255446463823
2560.0,-0.0016520365606993437
2816.0,-0.0014907382428646088
3072.0,-0.000288095063297078
3328.0,0.0008203081670217216
3584.0,-7.378611189778894e-05
3840.0,-0.0011758569162338972
4096.0,-0.004403744358569384
4608.0,-0.0037461614701896906
5120.0,0.0007583411643281579
5632.0,0.000140840929816477
6144.0,-0.0009899063734337687
6656.0,0.0017416690243408084
7168.0,0.0029736391734331846
7680.0,-0.0012242337688803673
8192.0,0.0018905107863247395
end
