version,3.0
numOfCh,1
type,point
parent_name,fe81d_0dot6-1dot0
ch_type,1_1
kcount,1
numberNandB,1
brightnessNandB,1
carpet pos,0
pc,0
Time (ms),CH1 Auto-Correlation
1.0,0.04214977100491524
2.0,0.03989341855049133
3.0,0.037845347076654434
4.0,0.0359448678791523
5.0,0.034224897623062134
6.0,0.032717589288949966
7.0,0.03131266310811043
8.0,0.029999900609254837
9.0,0.028780903667211533
10.0,0.027685945853590965
11.0,0.026650192216038704
12.0,0.025667451322078705
13.0,0.02467316947877407
14.0,0.023682808503508568
15.0,0.02271752618253231
16.0,0.02181137166917324
18.0,0.020183242857456207
20.0,0.01883246749639511
22.0,0.017604446038603783
24.0,0.016537347808480263
26.0,0.0154911233112216
28.0,0.01460531447082758
30.0,0.013924057595431805
32.0,0.01330591831356287
36.0,0.011810529977083206
40.0,0.010563059709966183
44.0,0.009292667731642723
48.0,0.00807257555425167
52.0,0.007046634331345558
56.0,0.006313954945653677
60.0,0.005743022076785564
64.0,0.005192921031266451
72.0,0.003909538500010967
80.0,0.0030908333137631416
88.0,0.002579348161816597
96.0,0.002436605282127857
104.0,0.0019093110458925366
112.0,0.0015598897589370608
120.0,0.0016850467072799802
128.0,0.0018032131483778358
144.0,0.001367991673760116
160.0,0.0008747416432015598
176.0,0.00048713592696003616
192.0,-0.000189538361155428
208.0,-0.0006302902474999428
224.0,-0.001024123514071107
240.0,-0.0013007974484935403
256.0,-0.0009139623143710196
288.0,6.21257713646628e-05
320.0,-0.0010531377047300339
352.0,-0.0018747035646811128
384.0,-0.0012294737389311194
416.0,-0.0012452880619093776
448.0,-0.0014241556636989117
480.0,-0.002052280120551586
512.0,-9.01538078323938e-05
576.0,-0.001591394771821797
640.0,-0.002802083734422922
704.0,0.0007202868000604212
768.0,0.0004123794788029045
832.0,-4.853905466006836e-06
896.0,-0.0009107317891903222
960.0,-0.0003644755342975259
1024.0,0.0001995609636651352
1152.0,-0.0006399579579010606
1280.0,-0.0011379442876204848
1408.0,-0.0024400425609201193
1536.0,-0.0009663040400482714
1664.0,0.0017868428258225322
1792.0,-0.00014723828644491732
1920.0,-7.144133996916935e-05
2048.0,0.0005538133555091918
2304.0,-0.0014716761652380228
2560.0,0.00046756246592849493
2816.0,0.0011568713234737515
3072.0,-0.001263334066607058
3328.0,0.0017687104409560561
3584.0,-0.001818555174395442
3840.0,-0.000429061270551756
4096.0,-0.0001205540174851194
4608.0,0.00044024462113156915
5120.0,0.0005977084510959685
5632.0,-0.0007210667245090008
6144.0,0.0012436197139322758
6656.0,-0.0008709921967238188
7168.0,0.0011603693710640073
7680.0,-0.0026013178285211325
8192.0,0.00020364556985441595
end
