version,3.0
numOfCh,1
type,point
parent_name,fe81d_0dot6-1dot0
ch_type,1_1
kcount,1
numberNandB,1
brightnessNandB,1
carpet pos,0
pc,0
Time (ms),CH1 Auto-Correlation
1.0,0.04633278772234917
2.0,0.04395769536495209
3.0,0.04185650870203972
4.0,0.03989432007074356
5.0,0.03814065083861351
6.0,0.0365416519343853
7.0,0.03507668152451515
8.0,0.03368448093533516
9.0,0.03247895464301109
10.0,0.03131544962525368
11.0,0.030186794698238373
12.0,0.029115792363882065
13.0,0.02807290107011795
14.0,0.02711111307144165
15.0,0.026272492483258247
16.0,0.025490179657936096
18.0,0.024054918438196182
20.0,0.022768257185816765
22.0,0.021598560735583305
24.0,0.02052442915737629
26.0,0.0195159874856472
28.0,0.01863095723092556
30.0,0.017838705331087112
32.0,0.01715574972331524
36.0,0.015912339091300964
40.0,0.014945246279239655
44.0,0.014173736795783043
48.0,0.013557377271354198
52.0,0.012752480804920197
56.0,0.012095658108592033
60.0,0.011297295801341534
64.0,0.010597921907901764
72.0,0.009650309570133686
80.0,0.009161499328911304
88.0,0.008944316767156124
96.0,0.008561021648347378
104.0,0.007299463730305433
112.0,0.0062409029342234135
120.0,0.005355300381779671
128.0,0.004811631515622139
144.0,0.0045789391733706
160.0,0.0038476327899843454
176.0,0.00477817514911294
192.0,0.006072344724088907
208.0,0.006598131265491247
224.0,0.005386325530707836
240.0,0.004795727785676718
256.0,0.005331902299076319
288.0,0.00515207601711154
320.0,0.004761590622365475
352.0,0.003400870133191347
384.0,0.002048810012638569
416.0,0.0006447893101722002
448.0,-0.0010903076035901904
480.0,-0.0036405683495104313
512.0,-0.0027581772301346064
576.0,-0.000572588003706187
640.0,-0.0004522285598795861
704.0,-0.0009371523628942668
768.0,0.0024295239709317684
832.0,0.00041548043373040855
896.0,0.001392859616316855
960.0,0.0020114353392273188
1024.0,0.0021308790892362595
1152.0,0.0012541987234726548
1280.0,0.0029542178381234407
1408.0,0.0007418335881084204
1536.0,0.0018995242426171899
1664.0,-0.00042709879926405847
1792.0,-0.002921059960499406
1920.0,-0.002611960517242551
2048.0,-0.003693045349791646
2304.0,0.0004274627426639199
2560.0,0.0008841239614412189
2816.0,-0.001376341562718153
3072.0,-0.0007952609448693693
3328.0,-0.004024972673505545
3584.0,-0.005621361080557108
3840.0,-0.003179761115461588
4096.0,-0.001996375387534499
4608.0,-0.0014202895108610392
5120.0,0.00040156758041121066
5632.0,0.000690592743922025
6144.0,-0.0010010023834183812
6656.0,-0.00044227682519704103
7168.0,-0.0004774827102664858
7680.0,0.00017588974151294678
8192.0,0.0024838438257575035
end
