version,3.0
numOfCh,1
type,point
parent_name,fe81d_0dot6-1dot0
ch_type,1_1
kcount,1
numberNandB,1
brightnessNandB,1
carpet pos,0
pc,0
Time (ms),CH1 Auto-Correlation
1.0,0.04515453428030014
2.0,0.04279213398694992
3.0,0.040683846920728683
4.0,0.038790278136730194
5.0,0.03706486150622368
6.0,0.03539091348648071
7.0,0.03381311520934105
8.0,0.03234170004725456
9.0,0.03101307898759842
10.0,0.029780637472867966
11.0,0.028629722073674202
12.0,0.027567895129323006
13.0,0.026561189442873
14.0,0.02561410330235958
15.0,0.0247977115213871
16.0,0.02402270771563053
18.0,0.02265802025794983
20.0,0.021427519619464874
22.0,0.020358022302389145
24.0,0.019320519641041756
26.0,0.018354393541812897
28.0,0.017465446144342422
30.0,0.016560852527618408
32.0,0.015844382345676422
36.0,0.014542627148330212
40.0,0.013437601737678051
44.0,0.012412025593221188
48.0,0.011251337826251984
52.0,0.010160335339605808
56.0,0.009422051720321178
60.0,0.008895731531083584
64.0,0.008230041712522507
72.0,0.007092354353517294
80.0,0.0066803027875721455
88.0,0.0065464600920677185
96.0,0.006201295647770166
104.0,0.005656550172716379
112.0,0.005207892041653395
120.0,0.004884487017989159
128.0,0.004829607903957367
144.0,0.0047401501797139645
160.0,0.0057260445319116116
176.0,0.005855733063071966
192.0,0.006247678305953741
208.0,0.006216531153768301
224.0,0.006023507099598646
240.0,0.005883883219212294
256.0,0.005789442919194698
288.0,0.0038710273802280426
320.0,0.003979495260864496
352.0,0.0030781703535467386
384.0,0.0010939856292679906
416.0,0.0014841555384919047
448.0,-0.0005900682299397886
480.0,-0.002016659127548337
512.0,-0.0014864446129649878
576.0,-0.0005902941920794547
640.0,-0.0009890265064314008
704.0,0.00022527969849761575
768.0,0.0005478928796947002
832.0,-0.0016017749439924955
896.0,0.0011016512289643288
960.0,0.004811153281480074
1024.0,0.003743868786841631
1152.0,0.003906660713255405
1280.0,0.001955566229298711
1408.0,0.00020763598149642348
1536.0,-0.00015668495325371623
1664.0,-0.003953553736209869
1792.0,-0.003155888756737113
1920.0,-0.0011392674641683698
2048.0,-0.002269548363983631
2304.0,-0.0013876731973141432
2560.0,-0.0018782097613438964
2816.0,-0.00374281476251781
3072.0,-0.002207987941801548
3328.0,-0.00010366415517637506
3584.0,0.0008349858690053225
3840.0,-0.0014842544915154576
4096.0,-0.0020355170127004385
4608.0,-0.00015922024613246322
5120.0,0.0022241801489144564
5632.0,-0.0006436908734031022
6144.0,-0.0029139842372387648
6656.0,-0.0009128850651904941
7168.0,-0.0035596040543168783
7680.0,-0.0017142357537522912
8192.0,0.0007866702508181334
end
