version,3.0
numOfCh,1
type,point
parent_name,fe81d_0dot6-1dot0
ch_type,1_1
kcount,1
numberNandB,1
brightnessNandB,1
carpet pos,0
pc,0
Time (ms),CH1 Auto-Correlation
1.0,0.043717071413993835
2.0,0.041425444185733795
3.0,0.039359040558338165
4.0,0.03747346252202988
5.0,0.035738322883844376
6.0,0.0341666080057621
7.0,0.032717861235141754
8.0,0.03142846003174782
9.0,0.030245820060372353
10.0,0.029210658743977547
11.0,0.028245313093066216
12.0,0.027330754324793816
13.0,0.026489242911338806
14.0,0.02570115216076374
15.0,0.024991942569613457
16.0,0.024295944720506668
18.0,0.02300242893397808
20.0,0.021888848394155502
22.0,0.021006209775805473
24.0,0.020189838483929634
26.0,0.019441867247223854
28.0,0.018668396398425102
30.0,0.017910892143845558
32.0,0.01709720864892006
36.0,0.015892192721366882
40.0,0.015180977992713451
44.0,0.014438576996326447
48.0,0.013647272251546383
52.0,0.013048156164586544
56.0,0.01262383908033371
60.0,0.012206434272229671
64.0,0.011795987375080585
72.0,0.010853080078959465
80.0,0.010024113580584526
88.0,0.009783990681171417
96.0,0.0096689872443676
104.0,0.008910086005926132
112.0,0.008244054391980171
120.0,0.007572432979941368
128.0,0.006945640314370394
144.0,0.005737197119742632
160.0,0.004751218017190695
176.0,0.004545140080153942
192.0,0.0035614890512079
208.0,0.0020149133633822203
224.0,0.0018121633911505342
240.0,0.0011456479551270604
256.0,0.0007596712675876915
288.0,0.000718991388566792
320.0,0.000603003310970962
352.0,0.0012126665096729994
384.0,0.0004681920981965959
416.0,-0.0009597391472198069
448.0,-0.0014776126481592655
480.0,-0.0015792587073519826
512.0,-0.0011059953831136227
576.0,-0.001979987369850278
640.0,-0.001502015977166593
704.0,0.0002414956979919225
768.0,0.0007451829151250422
832.0,0.0007288315682671964
896.0,0.0014620935544371605
960.0,0.0013567880960181355
1024.0,0.0022024877835065126
1152.0,-0.000475824810564518
1280.0,-0.0018945545889437199
1408.0,-0.00027949767536483705
1536.0,-0.0015845486195757985
1664.0,3.377756729605608e-05
1792.0,0.0007932683220133185
1920.0,0.0009986658114939928
2048.0,-0.001297122798860073
2304.0,-0.0037810588255524635
2560.0,-0.00047229608753696084
2816.0,0.0031034373678267
3072.0,0.000943287624977529
3328.0,-0.002432779176160693
3584.0,0.0011920388787984848
3840.0,0.005486492998898029
4096.0,0.0006394597003236413
4608.0,-0.0004830405523534864
5120.0,0.002193066757172346
5632.0,0.0012211812427267432
6144.0,-0.0029501598328351974
6656.0,-0.0014808112755417824
7168.0,-0.0016096698818728328
7680.0,0.0008071955526247621
8192.0,-7.817557343514636e-05
end
