version,3.0
numOfCh,1
type,point
parent_name,fe81d_0dot6-1dot0
ch_type,1_1
kcount,1
numberNandB,1
brightnessNandB,1
carpet pos,0
pc,0
Time (ms),CH1 Auto-Correlation
1.0,0.0464710108935833
2.0,0.04423067718744278
3.0,0.04224865511059761
4.0,0.0404275506734848
5.0,0.03883907571434975
6.0,0.0373598113656044
7.0,0.03590889275074005
8.0,0.03453116863965988
9.0,0.033177364617586136
10.0,0.032016053795814514
11.0,0.03089454025030136
12.0,0.02988128922879696
13.0,0.028961805626749992
14.0,0.028106769546866417
15.0,0.02732468582689762
16.0,0.02660549059510231
18.0,0.025365382432937622
20.0,0.02428380958735943
22.0,0.023338893428444862
24.0,0.022432483732700348
26.0,0.021594958379864693
28.0,0.020646415650844574
30.0,0.01988067664206028
32.0,0.019278544932603836
36.0,0.018110111355781555
40.0,0.016915539279580116
44.0,0.01561255194246769
48.0,0.014426840469241142
52.0,0.01357227936387062
56.0,0.013140025548636913
60.0,0.012802076525986195
64.0,0.012369988486170769
72.0,0.01166622992604971
80.0,0.01116825733333826
88.0,0.010861275717616081
96.0,0.010345658287405968
104.0,0.010072711855173111
112.0,0.009568700566887856
120.0,0.00866550300270319
128.0,0.008104411885142326
144.0,0.006632661912590265
160.0,0.005766155663877726
176.0,0.005006030667573214
192.0,0.004269864410161972
208.0,0.0038793066050857306
224.0,0.0038784572388976812
240.0,0.004157670307904482
256.0,0.003881847020238638
288.0,0.004035566467791796
320.0,0.0016669665928930044
352.0,0.0015983192715793848
384.0,0.002386676147580147
416.0,0.0012165067018941045
448.0,-0.000337704987032339
480.0,-0.00031795690301805735
512.0,0.0010244851000607014
576.0,3.606317477533594e-05
640.0,-6.337100057862699e-05
704.0,9.11808674572967e-05
768.0,0.0018676663748919964
832.0,0.0015437101246789098
896.0,0.001869361731223762
960.0,0.0004986438434571028
1024.0,0.0005374058964662254
1152.0,-0.001287269638851285
1280.0,-0.0007325134938582778
1408.0,0.0010047298856079578
1536.0,8.734819857636467e-05
1664.0,-0.0003122937341686338
1792.0,-0.0010730525245890021
1920.0,-0.0012955132406204939
2048.0,0.0021454025991261005
2304.0,0.0007440914632752538
2560.0,-0.00027493314701132476
2816.0,-0.0026780746411532164
3072.0,-0.003588908351957798
3328.0,-0.004166726488620043
3584.0,-0.0026365001685917377
3840.0,0.0006844967720098794
4096.0,-0.0022075476590543985
4608.0,8.903788693714887e-05
5120.0,-0.0018221643986180425
5632.0,-0.0043306550942361355
6144.0,0.0005612191162072122
6656.0,0.0023941360414028168
7168.0,0.0018399074906483293
7680.0,0.0019185071578249335
8192.0,0.0033618593588471413
end
