version,3.0
numOfCh,1
type,point
parent_name,fe81d_0dot6-1dot0
ch_type,1_1
kcount,1
numberNandB,1
brightnessNandB,1
carpet pos,0
pc,0
Time (ms),CH1 Auto-Correlation
1.0,0.043459463864564896
2.0,0.04113856703042984
3.0,0.03901612386107445
4.0,0.03711220249533653
5.0,0.0353589802980423
6.0,0.03366746008396149
7.0,0.03214164823293686
8.0,0.03067205846309662
9.0,0.02940131165087223
10.0,0.028247155249118805
11.0,0.02714325301349163
12.0,0.026102039963006973
13.0,0.025175010785460472
14.0,0.024395212531089783
15.0,0.02365710586309433
16.0,0.02300613559782505
18.0,0.02182527631521225
20.0,0.020830735564231873
22.0,0.020055776461958885
24.0,0.019371407106518745
26.0,0.018638169392943382
28.0,0.017870405688881874
30.0,0.017271431162953377
32.0,0.016667917370796204
36.0,0.01579306647181511
40.0,0.014856738038361073
44.0,0.01378337386995554
48.0,0.01278019230812788
52.0,0.011704927310347557
56.0,0.010769205167889595
60.0,0.009938569739460945
64.0,0.009255765937268734
72.0,0.008578896522521973
80.0,0.007825707085430622
88.0,0.0067742448300123215
96.0,0.006023020949214697
104.0,0.004816796630620956
112.0,0.004643004387617111
120.0,0.005243469495326281
128.0,0.005744691006839275
144.0,0.005614766851067543
160.0,0.005747219547629356
176.0,0.005492033902555704
192.0,0.005184222012758255
208.0,0.005711671430617571
224.0,0.004698839504271746
240.0,0.0038558358792215586
256.0,0.0028823052998632193
288.0,0.002970165805891156
320.0,0.002762983785942197
352.0,0.0033698342740535736
384.0,0.0041802129708230495
416.0,0.004777408670634031
448.0,0.002675384748727083
480.0,0.0007641525589860976
512.0,0.00011173729581059888
576.0,0.0008515962981618941
640.0,-0.0008590177167207003
704.0,-0.003567679785192013
768.0,-0.0031687458977103233
832.0,-0.0020751396659761667
896.0,-0.001848965766839683
960.0,6.300027598626912e-05
1024.0,0.000806355441454798
1152.0,-0.0026571759954094887
1280.0,-0.003267910098657012
1408.0,-0.002084980718791485
1536.0,-0.001632075640372932
1664.0,-0.0034871434327214956
1792.0,-0.0019303957233205438
1920.0,-0.0011313444701954722
2048.0,-0.0013445258373394608
2304.0,-0.0002799948852043599
2560.0,0.002832636469975114
2816.0,-0.0002782710362225771
3072.0,-0.0018686290131881833
3328.0,-0.0045084538869559765
3584.0,-0.0010635160142555833
3840.0,0.0006445410544984043
4096.0,0.0026316132862120867
4608.0,0.0025946451351046562
5120.0,0.0016091582365334034
5632.0,-0.00010853682761080563
6144.0,-0.0011017940705642104
6656.0,0.0007824260392226279
7168.0,-0.0009720275411382318
7680.0,-0.0028523060027509928
8192.0,-0.003583905752748251
end
