version,3.0
numOfCh,1
type,point
parent_name,fe81d_0dot6-1dot0
ch_type,1_1
kcount,1
numberNandB,1
brightnessNandB,1
carpet pos,0
pc,0
Time (ms),CH1 Auto-Correlation
1.0,0.05344404652714729
2.0,0.051046088337898254
3.0,0.04890967160463333
4.0,0.04702615737915039
5.0,0.045356202870607376
6.0,0.04388252645730972
7.0,0.04242757335305214
8.0,0.04103553295135498
9.0,0.03968682140111923
10.0,0.03849905729293823
11.0,0.0373963862657547
12.0,0.036384377628564835
13.0,0.03544900193810463
14.0,0.0345572829246521
15.0,0.03369390219449997
16.0,0.0328516885638237
18.0,0.03136540576815605
20.0,0.02994813770055771
22.0,0.028762629255652428
24.0,0.027773164212703705
26.0,0.02678900770843029
28.0,0.02575964853167534
30.0,0.024873649701476097
32.0,0.024173850193619728
36.0,0.02291685901582241
40.0,0.02179286628961563
44.0,0.020564822480082512
48.0,0.019717132672667503
52.0,0.01891297847032547
56.0,0.018267320469021797
60.0,0.01762540452182293
64.0,0.016967320814728737
72.0,0.016237255185842514
80.0,0.015543956309556961
88.0,0.014231736771762371
96.0,0.013560903258621693
104.0,0.013814780861139297
112.0,0.013917838223278522
120.0,0.013420644216239452
128.0,0.012632103636860847
144.0,0.011986451223492622
160.0,0.011432132683694363
176.0,0.010337578132748604
192.0,0.009603029116988182
208.0,0.008437749929726124
224.0,0.007713552564382553
240.0,0.005857018753886223
256.0,0.00412646122276783
288.0,0.0035652348306030035
320.0,0.003791322000324726
352.0,0.002697435673326254
384.0,0.0018871806096285582
416.0,0.001555503229610622
448.0,0.00236507854424417
480.0,0.0014518985990434885
512.0,0.0006348658353090286
576.0,0.0002950500638689846
640.0,0.000960008823312819
704.0,0.0010007490636780858
768.0,0.003021612297743559
832.0,0.0013572066091001034
896.0,0.00266060302965343
960.0,0.002287476323544979
1024.0,0.0001423362409695983
1152.0,-3.35419645125512e-05
1280.0,-0.0014408273855224252
1408.0,-0.00028204714180901647
1536.0,0.0009689540020190179
1664.0,0.003036862937733531
1792.0,0.004784087650477886
1920.0,0.004365122877061367
2048.0,0.0026420815847814083
2304.0,-0.0010978999780490994
2560.0,-0.0023848097771406174
2816.0,-0.004193145781755447
3072.0,-0.004937627352774143
3328.0,-0.0031715675722807646
3584.0,-0.004304312635213137
3840.0,-0.0013017040910199285
4096.0,-0.0010570755694061518
4608.0,-0.00404389901086688
5120.0,-0.0020078907255083323
5632.0,-0.00111369916703552
6144.0,-0.0008781211217865348
6656.0,0.0034480560570955276
7168.0,0.0038556712679564953
7680.0,-0.0021627501118928194
8192.0,-0.0027668823022395372
end
