version,3.0
numOfCh,1
type,point
parent_name,fe81d_0dot6-1dot0
ch_type,1_1
kcount,1
numberNandB,1
brightnessNandB,1
carpet pos,0
pc,0
Time (ms),CH1 Auto-Correlation
1.0,0.044249918311834335
2.0,0.041880007833242416
3.0,0.03970155864953995
4.0,0.03776247799396515
5.0,0.036066751927137375
6.0,0.03450603038072586
7.0,0.03312554210424423
8.0,0.031840644776821136
9.0,0.030574651435017586
10.0,0.0294303297996521
11.0,0.028360093012452126
12.0,0.027336454018950462
13.0,0.026292605325579643
14.0,0.025359148159623146
15.0,0.02448038011789322
16.0,0.023670662194490433
18.0,0.02242225967347622
20.0,0.021249597892165184
22.0,0.020245982334017754
24.0,0.019351033493876457
26.0,0.018630381673574448
28.0,0.01795390248298645
30.0,0.0172622911632061
32.0,0.016496999189257622
36.0,0.014986231923103333
40.0,0.013519750908017159
44.0,0.01269269548356533
48.0,0.011944795027375221
52.0,0.011172987520694733
56.0,0.01073558907955885
60.0,0.0101906917989254
64.0,0.009761680848896503
72.0,0.009370190091431141
80.0,0.008897949010133743
88.0,0.008464772254228592
96.0,0.007863737642765045
104.0,0.006956625264137983
112.0,0.006846725475043058
120.0,0.006198382005095482
128.0,0.005046453792601824
144.0,0.004040945786982775
160.0,0.004071648232638836
176.0,0.00441743852570653
192.0,0.0036095210816711187
208.0,0.0032247123308479786
224.0,0.003769280156120658
240.0,0.003901601769030094
256.0,0.0015263742534443736
288.0,0.0016720235580578446
320.0,0.00013223892892710865
352.0,-0.00024012445646803826
384.0,-0.0018299289513379335
416.0,-4.386213549878448e-05
448.0,0.001991309691220522
480.0,0.0023510900791734457
512.0,0.0017443286487832665
576.0,0.0004077206249348819
640.0,-0.000593142001889646
704.0,0.00036648011882789433
768.0,-3.847453626804054e-05
832.0,-0.0031981419306248426
896.0,-0.004330130759626627
960.0,-0.002626018365845084
1024.0,-0.0014446439454331994
1152.0,-0.0016569996951147914
1280.0,-0.0013913328293710947
1408.0,-0.0004775725246872753
1536.0,0.0006853297236375511
1664.0,0.0027470486238598824
1792.0,0.0008190781809389591
1920.0,-0.00028020545141771436
2048.0,0.0005974725936539471
2304.0,-0.0014426227426156402
2560.0,-0.0036580341402441263
2816.0,-0.0017944625578820705
3072.0,-0.000495788874104619
3328.0,0.0005781814106740057
3584.0,0.002370207803323865
3840.0,0.0005067209131084383
4096.0,-0.0016939706401899457
4608.0,0.0002882788539864123
5120.0,-0.0019378566648811102
5632.0,-0.0005211585084907711
6144.0,-0.0009136773296631873
6656.0,0.0004696480755228549
7168.0,0.00044037666521035135
7680.0,0.001981471199542284
8192.0,0.002966520143672824
end
