version,3.0
numOfCh,1
type,point
parent_name,fe81d_0dot6-1dot0
ch_type,1_1
kcount,1
numberNandB,1
brightnessNandB,1
carpet pos,0
pc,0
Time (ms),CH1 Auto-Correlation
1.0,0.04892255738377571
2.0,0.0465250201523304
3.0,0.04439645633101463
4.0,0.042488597333431244
5.0,0.04072806239128113
6.0,0.03913794457912445
7.0,0.0376867838203907
8.0,0.03648587316274643
9.0,0.035316530615091324
10.0,0.03423134610056877
11.0,0.03315487504005432
12.0,0.032182563096284866
13.0,0.03120124153792858
14.0,0.0303119495511055
15.0,0.029452307149767876
16.0,0.02865210920572281
18.0,0.027190031483769417
20.0,0.025770096108317375
22.0,0.024417709559202194
24.0,0.023258142173290253
26.0,0.022243404760956764
28.0,0.021397871896624565
30.0,0.020619992166757584
32.0,0.019991464912891388
36.0,0.018828969448804855
40.0,0.017890918999910355
44.0,0.01674322970211506
48.0,0.015496847219765186
52.0,0.014578920789062977
56.0,0.01412512082606554
60.0,0.013409476727247238
64.0,0.012662147171795368
72.0,0.01161863375455141
80.0,0.01084588561207056
88.0,0.010299365036189556
96.0,0.010316947475075722
104.0,0.009746936149895191
112.0,0.00906269159168005
120.0,0.008280636742711067
128.0,0.007316961418837309
144.0,0.006200716365128756
160.0,0.006166114471852779
176.0,0.006035821978002787
192.0,0.0045999884605407715
208.0,0.0027737922500818968
224.0,0.003398532047867775
240.0,0.003739003324881196
256.0,0.002838409971445799
288.0,0.0024394323118031025
320.0,0.002721457974985242
352.0,0.002965250751003623
384.0,0.0019038013415411115
416.0,0.0019285185262560844
448.0,0.0013110085856169462
480.0,0.0018524957122281194
512.0,0.002228718949481845
576.0,-0.0007161789108067751
640.0,-0.0006673149764537811
704.0,0.00016135159239638597
768.0,0.0006915279082022607
832.0,0.0008128141053020954
896.0,-0.002023627981543541
960.0,-0.004290424287319183
1024.0,-0.004712875932455063
1152.0,-0.003507038578391075
1280.0,-0.004250410944223404
1408.0,-0.005423201248049736
1536.0,-0.003846868872642517
1664.0,-0.0007827168446965516
1792.0,0.0004879128828179091
1920.0,0.0005722110508941114
2048.0,-0.001724479254335165
2304.0,0.0002151292428607121
2560.0,0.0033629450481384993
2816.0,0.0037740806583315134
3072.0,0.0021398491226136684
3328.0,0.002201839815825224
3584.0,0.002422323916107416
3840.0,-0.0024706621188670397
4096.0,-0.002530494937673211
4608.0,-0.001524752820841968
5120.0,-0.0015461090952157974
5632.0,0.002324172295629978
6144.0,-0.0008234314154833555
6656.0,-0.0032937058713287115
7168.0,-0.00101699389051646
7680.0,-0.0010734008392319083
8192.0,0.00017730018589645624
end
