version,3.0
numOfCh,1
type,point
parent_name,fe81d_0dot6-1dot0
ch_type,1_1
kcount,1
numberNandB,1
brightnessNandB,1
carpet pos,0
pc,0
Time (ms),CH1 Auto-Correlation
1.0,0.04245014861226082
2.0,0.04019030183553696
3.0,0.03818066045641899
4.0,0.036350082606077194
5.0,0.03468678146600723
6.0,0.03319846838712692
7.0,0.0317593477666378
8.0,0.03038950264453888
9.0,0.029089968651533127
10.0,0.027913225814700127
11.0,0.026855705305933952
12.0,0.025752626359462738
13.0,0.024734770879149437
14.0,0.02381867542862892
15.0,0.02293672412633896
16.0,0.022114794701337814
18.0,0.020651061087846756
20.0,0.019287733361124992
22.0,0.01812555268406868
24.0,0.01712670549750328
26.0,0.016273418441414833
28.0,0.015454545617103577
30.0,0.01470919419080019
32.0,0.013964475132524967
36.0,0.012409732677042484
40.0,0.010978864505887032
44.0,0.00988798588514328
48.0,0.009316148236393929
52.0,0.008820189163088799
56.0,0.008354775607585907
60.0,0.007850908674299717
64.0,0.0075514125637710094
72.0,0.007333229761570692
80.0,0.00733764935284853
88.0,0.007162255700677633
96.0,0.006451549008488655
104.0,0.005297427996993065
112.0,0.004008335992693901
120.0,0.003001783974468708
128.0,0.002796394284814596
144.0,0.0032251279335469007
160.0,0.0028194901533424854
176.0,0.002739932620897889
192.0,0.0013858185848221183
208.0,8.851960592437536e-05
224.0,0.0008836702327243984
240.0,0.0016443929634988308
256.0,0.0028120509814471006
288.0,0.004760116338729858
320.0,0.003361689392477274
352.0,0.0012273851316422224
384.0,0.0009686125558800995
416.0,0.000915495736990124
448.0,0.0009558592573739588
480.0,0.0009356926893815398
512.0,-0.0006803394644521177
576.0,-0.0006858708220534027
640.0,-0.0014114475343376398
704.0,-0.00022277967946138233
768.0,0.0008152726222760975
832.0,0.001794470939785242
896.0,0.0012123112101107836
960.0,0.0026973013300448656
1024.0,0.002014538738876581
1152.0,0.0003782206622418016
1280.0,-0.0008495935471728444
1408.0,-0.001647685538046062
1536.0,-0.0020724451169371605
1664.0,-0.002141498727723956
1792.0,-0.001703837770037353
1920.0,-0.0016479998594149947
2048.0,-0.0020320063922554255
2304.0,-0.0025538629852235317
2560.0,-0.001784302294254303
2816.0,-0.001421649008989334
3072.0,0.00024128718359861523
3328.0,-0.0011159393470734358
3584.0,0.00045416163629852235
3840.0,9.199557098327205e-05
4096.0,0.0001753591641318053
4608.0,-6.186110840644687e-05
5120.0,0.0006386445602402091
5632.0,-0.0024887786712497473
6144.0,0.0020960355177521706
6656.0,-0.0010175546631217003
7168.0,0.0008451842586509883
7680.0,0.0007245198939926922
8192.0,0.0004270440840627998
end
