version,3.0
numOfCh,1
type,point
parent_name,fe81d_0dot6-1dot0
ch_type,1_1
kcount,1
numberNandB,1
brightnessNandB,1
carpet pos,0
pc,0
Time (ms),CH1 Auto-Correlation
1.0,0.04518676921725273
2.0,0.04291142523288727
3.0,0.040925975888967514
4.0,0.03911340609192848
5.0,0.037393175065517426
6.0,0.035826027393341064
7.0,0.034271202981472015
8.0,0.03286740556359291
9.0,0.03150903806090355
10.0,0.03026702255010605
11.0,0.029057055711746216
12.0,0.027984989807009697
13.0,0.026938065886497498
14.0,0.026093557476997375
15.0,0.025341063737869263
16.0,0.02466948702931404
18.0,0.02338431589305401
20.0,0.02207115851342678
22.0,0.020858170464634895
24.0,0.019781164824962616
26.0,0.01889190822839737
28.0,0.018033860251307487
30.0,0.017227303236722946
32.0,0.016548870131373405
36.0,0.015298224985599518
40.0,0.013949387706816196
44.0,0.012705044820904732
48.0,0.011561761610209942
52.0,0.010525154881179333
56.0,0.00934707373380661
60.0,0.008244230411946774
64.0,0.007097685243934393
72.0,0.005563604645431042
80.0,0.0046796416863799095
88.0,0.0035308513324707747
96.0,0.0024033456575125456
104.0,0.0016533501911908388
112.0,0.0016231434419751167
120.0,0.0014086689334362745
128.0,0.0010160824749618769
144.0,0.0018488330533728004
160.0,0.0023797829635441303
176.0,0.0036724284291267395
192.0,0.003481965744867921
208.0,0.002738062059506774
224.0,0.0025143350940197706
240.0,0.0021090535447001457
256.0,0.001087335986085236
288.0,0.0005589484935626388
320.0,0.0010794054251164198
352.0,0.0014045429416000843
384.0,0.0023714962881058455
416.0,0.0030742306262254715
448.0,0.002136390656232834
480.0,0.0011724949581548572
512.0,-0.0002447584120091051
576.0,-0.0005099518457427621
640.0,0.0016569588333368301
704.0,-0.0009883003076538444
768.0,-0.0010500658536329865
832.0,0.0003868158964905888
896.0,-0.0010524768149480224
960.0,-0.0005543951992876828
1024.0,0.0009882091544568539
1152.0,0.0012899686116725206
1280.0,0.00026548575260676444
1408.0,-0.001428672461770475
1536.0,-0.000545368529856205
1664.0,-0.0017819834174588323
1792.0,-0.00111199205275625
1920.0,-0.004456461872905493
2048.0,-0.005353956483304501
2304.0,-0.000859053514432162
2560.0,0.0008182293968275189
2816.0,0.0010151620954275131
3072.0,-0.0009756435174494982
3328.0,-0.0002088036562781781
3584.0,-0.0003064222983084619
3840.0,0.0027886645402759314
4096.0,0.001943696872331202
4608.0,-0.0009924506302922964
5120.0,-0.00014585975441150367
5632.0,-0.0013642820995301008
6144.0,-0.0002047215966740623
6656.0,3.055006163776852e-05
7168.0,0.000427559542004019
7680.0,0.0018323073163628578
8192.0,0.0005397562053985894
end
