version,3.0
numOfCh,1
type,point
parent_name,fe81d_0dot6-1dot0
ch_type,1_1
kcount,1
numberNandB,1
brightnessNandB,1
carpet pos,0
pc,0
Time (ms),CH1 Auto-Correlation
1.0,0.04734382778406143
2.0,0.04502314329147339
3.0,0.04294472187757492
4.0,0.041044682264328
5.0,0.039255592972040176
6.0,0.037607088685035706
7.0,0.03609593212604523
8.0,0.03461682051420212
9.0,0.03324952349066734
10.0,0.0320139117538929
11.0,0.03088567405939102
12.0,0.029845422133803368
13.0,0.0288071446120739
14.0,0.02779962681233883
15.0,0.026859091594815254
16.0,0.026010824367403984
18.0,0.024538546800613403
20.0,0.023231564089655876
22.0,0.02219327539205551
24.0,0.02129478007555008
26.0,0.020561981946229935
28.0,0.019933123141527176
30.0,0.01927630603313446
32.0,0.018546517938375473
36.0,0.016820479184389114
40.0,0.015087404288351536
44.0,0.013967914506793022
48.0,0.013300181366503239
52.0,0.013003985397517681
56.0,0.012712257914245129
60.0,0.012302507646381855
64.0,0.011919079348444939
72.0,0.010574975050985813
80.0,0.00924429576843977
88.0,0.00887275580316782
96.0,0.008370894007384777
104.0,0.007421066053211689
112.0,0.006468385923653841
120.0,0.005969741381704807
128.0,0.004313470330089331
144.0,0.0020486004650592804
160.0,0.0015705787809565663
176.0,0.0013137654168531299
192.0,0.001506263273768127
208.0,0.002084990730509162
224.0,0.0018762340769171715
240.0,0.0020040248055011034
256.0,0.0030246004462242126
288.0,0.002025171648710966
320.0,0.001315479981712997
352.0,0.0013532022712752223
384.0,0.0013645821018144488
416.0,0.0015470146900042892
448.0,5.589895590674132e-05
480.0,-0.0017158443806692958
512.0,-0.0017292634584009647
576.0,-0.002068297704681754
640.0,-0.0025968002155423164
704.0,-0.0038674362003803253
768.0,-0.002664760686457157
832.0,-0.002096941927447915
896.0,7.403045310638845e-05
960.0,0.0004721592995338142
1024.0,0.0003230279544368386
1152.0,-8.873203478287905e-05
1280.0,9.749067248776555e-05
1408.0,-0.0001258704432984814
1536.0,-0.0008417675853706896
1664.0,-0.0026786208618432283
1792.0,0.0013089694548398256
1920.0,0.001320826355367899
2048.0,-0.0016704413574188948
2304.0,-0.0005178325809538364
2560.0,0.0022615762427449226
2816.0,0.0013016652083024383
3072.0,-9.873750241240487e-05
3328.0,-0.002522361697629094
3584.0,-0.0025757593102753162
3840.0,-0.0022406375501304865
4096.0,0.000646441534627229
4608.0,0.0005685308715328574
5120.0,0.0011863475665450096
5632.0,0.0013151915045455098
6144.0,-0.00039928252226673067
6656.0,-0.0038479072973132133
7168.0,-0.0020943605341017246
7680.0,0.00412945868447423
8192.0,0.000439505442045629
end
