version,3.0
numOfCh,1
type,point
parent_name,fe81d_0dot6-1dot0
ch_type,1_1
kcount,1
numberNandB,1
brightnessNandB,1
carpet pos,0
pc,0
Time (ms),CH1 Auto-Correlation
1.0,0.045850131660699844
2.0,0.043358445167541504
3.0,0.04119192808866501
4.0,0.03923019394278526
5.0,0.03746465966105461
6.0,0.0358855165541172
7.0,0.034408122301101685
8.0,0.03304829075932503
9.0,0.03172869235277176
10.0,0.030556220561265945
11.0,0.029466403648257256
12.0,0.02844972163438797
13.0,0.02749406173825264
14.0,0.026610232889652252
15.0,0.025799136608839035
16.0,0.025070296600461006
18.0,0.023813817650079727
20.0,0.0226010512560606
22.0,0.021611396223306656
24.0,0.020716490224003792
26.0,0.019896788522601128
28.0,0.0190969780087471
30.0,0.018354998901486397
32.0,0.017742516472935677
36.0,0.016743211075663567
40.0,0.015958022326231003
44.0,0.015309100039303303
48.0,0.014552338048815727
52.0,0.013942503370344639
56.0,0.013379862532019615
60.0,0.01276620663702488
64.0,0.011880019679665565
72.0,0.009710007347166538
80.0,0.008277958258986473
88.0,0.007038012146949768
96.0,0.005954043939709663
104.0,0.005591899622231722
112.0,0.005311793182045221
120.0,0.005106186494231224
128.0,0.004801814444363117
144.0,0.003837993135675788
160.0,0.0025995399337261915
176.0,0.0018357007065787911
192.0,0.00024210373521782458
208.0,-3.3786687708925456e-05
224.0,-0.00018218035984318703
240.0,2.7574422347242944e-05
256.0,-0.0005424600094556808
288.0,-0.000631750444881618
320.0,-0.0010474283481016755
352.0,-0.001092900987714529
384.0,0.00043682893738150597
416.0,0.0005070355255156755
448.0,0.0010669553885236382
480.0,7.340147567447275e-05
512.0,-0.0016380127053707838
576.0,-0.002002038061618805
640.0,-0.0004134639457333833
704.0,-0.0002577906707301736
768.0,0.0005256126751191914
832.0,0.0002656820579431951
896.0,0.000600479485001415
960.0,0.002466179896146059
1024.0,0.004070908296853304
1152.0,0.0033011322375386953
1280.0,0.0010430217953398824
1408.0,-0.0008261781767942011
1536.0,-0.001216439763084054
1664.0,0.0011291351402178407
1792.0,-0.0006195652531459928
1920.0,-0.0004736894043162465
2048.0,0.002658465877175331
2304.0,0.001893834094516933
2560.0,0.001816076459363103
2816.0,0.0018299694638699293
3072.0,-2.3382623112411238e-05
3328.0,-0.0005289154360070825
3584.0,0.0019869040697813034
3840.0,0.0013498786138370633
4096.0,-0.0018603740027174354
4608.0,-0.00015418828115798533
5120.0,-0.0005419335211627185
5632.0,-0.0013747011544182897
6144.0,-0.0006202321383170784
6656.0,-0.0025264983996748924
7168.0,-0.0008375084144063294
7680.0,-0.0027664033696055412
8192.0,-0.0010240599513053894
end
