version,3.0
numOfCh,1
type,point
parent_name,fe81d_0dot6-1dot0
ch_type,1_1
kcount,1
numberNandB,1
brightnessNandB,1
carpet pos,0
pc,0
Time (ms),CH1 Auto-Correlation
1.0,0.0468364879488945
2.0,0.04454565420746803
3.0,0.04250064119696617
4.0,0.04064614698290825
5.0,0.038938459008932114
6.0,0.03748367354273796
7.0,0.03611086681485176
8.0,0.034724872559309006
9.0,0.03343599662184715
10.0,0.03217872977256775
11.0,0.03099006414413452
12.0,0.02990962192416191
13.0,0.02879088930785656
14.0,0.027733517810702324
15.0,0.02674935944378376
16.0,0.025889871641993523
18.0,0.024438727647066116
20.0,0.023117713630199432
22.0,0.021926451474428177
24.0,0.020835351198911667
26.0,0.019735287874937057
28.0,0.018608061596751213
30.0,0.017621958628296852
32.0,0.01686643809080124
36.0,0.01535003911703825
40.0,0.014051652513444424
44.0,0.012944544665515423
48.0,0.012064056470990181
52.0,0.011263410560786724
56.0,0.010699483565986156
60.0,0.009942777454853058
64.0,0.009235281497240067
72.0,0.00879057589918375
80.0,0.008132153190672398
88.0,0.007572381291538477
96.0,0.00795755535364151
104.0,0.00880136713385582
112.0,0.009656080976128578
120.0,0.010468565858900547
128.0,0.010713287629187107
144.0,0.00937240943312645
160.0,0.008199510164558887
176.0,0.007818025536835194
192.0,0.0068328361958265305
208.0,0.006407469045370817
224.0,0.006517759989947081
240.0,0.005989291239529848
256.0,0.006012488156557083
288.0,0.005190014839172363
320.0,0.004228704608976841
352.0,0.004969537258148193
384.0,0.004900806117802858
416.0,0.0036484147422015667
448.0,0.0033983744215220213
480.0,0.004186613019555807
512.0,0.004446879960596561
576.0,0.0009052138775587082
640.0,0.0011759621556848288
704.0,0.0006105361972004175
768.0,-0.0004528510326053947
832.0,-0.0027896042447537184
896.0,-0.0049604871310293674
960.0,-0.004361153580248356
1024.0,-0.004607721231877804
1152.0,-0.0025097280740737915
1280.0,-0.0025176391936838627
1408.0,-0.003161833854392171
1536.0,-0.0045000240206718445
1664.0,-0.0037546984385699034
1792.0,-0.0008571905782446265
1920.0,0.0004666380991693586
2048.0,-0.0012803822755813599
2304.0,0.0011098957620561123
2560.0,-0.001648767851293087
2816.0,-0.001354436855763197
3072.0,-0.0013201000401750207
3328.0,-0.0013632779009640217
3584.0,0.0021625549998134375
3840.0,0.0034292887430638075
4096.0,0.0031136581674218178
4608.0,-0.00275005167350173
5120.0,-0.004468375351279974
5632.0,0.0016515159513801336
6144.0,0.0018446374451741576
6656.0,-0.0013050674460828304
7168.0,-0.003395142499357462
7680.0,0.0029033576138317585
8192.0,0.007429130841046572
end
