version,3.0
numOfCh,1
type,point
parent_name,fe81d_0dot6-1dot0
ch_type,1_1
kcount,1
numberNandB,1
brightnessNandB,1
carpet pos,0
pc,0
Time (ms),CH1 Auto-Correlation
1.0,0.0398213267326355
2.0,0.03743879869580269
3.0,0.035306043922901154
4.0,0.03339715674519539
5.0,0.03174169734120369
6.0,0.03015139140188694
7.0,0.028655434027314186
8.0,0.02727820910513401
9.0,0.02599802426993847
10.0,0.024849167093634605
11.0,0.02375209704041481
12.0,0.022737590596079826
13.0,0.021863309666514397
14.0,0.021027760580182076
15.0,0.02024109475314617
16.0,0.019467955455183983
18.0,0.018123243004083633
20.0,0.01686580292880535
22.0,0.01574351266026497
24.0,0.014721006155014038
26.0,0.013766884803771973
28.0,0.012882189825177193
30.0,0.012210356071591377
32.0,0.011668338440358639
36.0,0.010571355931460857
40.0,0.009327571839094162
44.0,0.008202208206057549
48.0,0.006862354930490255
52.0,0.0060331751592457294
56.0,0.005512434523552656
60.0,0.005210231523960829
64.0,0.005133565049618483
72.0,0.004661314655095339
80.0,0.00448797969147563
88.0,0.004115747753530741
96.0,0.0030474637169390917
104.0,0.002440967597067356
112.0,0.002592074917629361
120.0,0.003609374864026904
128.0,0.004216388799250126
144.0,0.0034308277536183596
160.0,0.003791884519159794
176.0,0.004474088083952665
192.0,0.003212310839444399
208.0,0.0016715178498998284
224.0,0.0008015651255846024
240.0,-0.00017585443856660277
256.0,-0.00020020447846036404
288.0,0.0005522081046365201
320.0,4.0316503145731986e-05
352.0,-0.0019926531240344048
384.0,-0.002369071589782834
416.0,-0.0013160079251974821
448.0,0.0007552529568783939
480.0,0.0007052904111333191
512.0,-0.0006657647318206728
576.0,-0.0015160591574385762
640.0,-0.002008410869166255
704.0,-2.348760790482629e-05
768.0,-0.0006872868398204446
832.0,-0.00035915893386118114
896.0,0.001055840402841568
960.0,0.0006167361279949546
1024.0,0.001283574034459889
1152.0,0.0012101439060643315
1280.0,0.000367229338735342
1408.0,-0.0011691495310515165
1536.0,-0.001602653763256967
1664.0,0.0010148066794499755
1792.0,0.001295069232583046
1920.0,-0.0007263435982167721
2048.0,-0.0009605645318515599
2304.0,-0.001029966864734888
2560.0,-0.000316458783345297
2816.0,0.0019027291564270854
3072.0,0.002075471915304661
3328.0,-0.0012024474563077092
3584.0,0.00011045135033782572
3840.0,0.001626517390832305
4096.0,-0.0004916345351375639
4608.0,-0.00029232457745820284
5120.0,0.0004363495099823922
5632.0,-0.0005584651371464133
6144.0,-0.0011390240397304296
6656.0,0.0015403159195557237
7168.0,-0.004367116838693619
7680.0,0.0003588878025766462
8192.0,-0.0009560789330862463
end
