version,3.0
numOfCh,1
type,point
parent_name,fe81d_0dot6-1dot0
ch_type,1_1
kcount,1
numberNandB,1
brightnessNandB,1
carpet pos,0
pc,0
Time (ms),CH1 Auto-Correlation
1.0,0.046705394983291626
2.0,0.044280845671892166
3.0,0.04214689880609512
4.0,0.040217410773038864
5.0,0.03850335627794266
6.0,0.036907047033309937
7.0,0.03540700674057007
8.0,0.03401636704802513
9.0,0.03272014483809471
10.0,0.03155532851815224
11.0,0.03043254464864731
12.0,0.0293706264346838
13.0,0.028361601755023003
14.0,0.027408946305513382
15.0,0.026477443054318428
16.0,0.02560328133404255
18.0,0.023989412933588028
20.0,0.022604921832680702
22.0,0.02139849029481411
24.0,0.020201733335852623
26.0,0.019004032015800476
28.0,0.017802458256483078
30.0,0.016788767650723457
32.0,0.015913229435682297
36.0,0.014275344088673592
40.0,0.013001956976950169
44.0,0.011931943707168102
48.0,0.010802422650158405
52.0,0.00980266835540533
56.0,0.009037137031555176
60.0,0.00886233989149332
64.0,0.008987825363874435
72.0,0.007739027496427298
80.0,0.005804126616567373
88.0,0.004229730926454067
96.0,0.003172951750457287
104.0,0.0031978662591427565
112.0,0.0036707869730889797
120.0,0.003091905266046524
128.0,0.00249182409606874
144.0,0.003234916366636753
160.0,0.004936257842928171
176.0,0.005566622130572796
192.0,0.004804273601621389
208.0,0.004210308659821749
224.0,0.003774568671360612
240.0,0.003742275759577751
256.0,0.004246077034622431
288.0,0.004132536239922047
320.0,0.0037034056149423122
352.0,0.0033379870001226664
384.0,0.0027235690504312515
416.0,0.0019036121666431427
448.0,0.0019742532167583704
480.0,0.001465221168473363
512.0,0.0014763296348974109
576.0,0.0007352338870987296
640.0,0.002850591205060482
704.0,0.0008256310829892755
768.0,0.0005859681987203658
832.0,-0.0015409577172249556
896.0,0.003099137917160988
960.0,0.0018339856760576367
1024.0,0.0024539376609027386
1152.0,0.002219973597675562
1280.0,0.0009893206879496574
1408.0,0.0004881176573690027
1536.0,0.0008004503324627876
1664.0,0.0017004041001200676
1792.0,8.363096640096046e-06
1920.0,0.00082052854122594
2048.0,0.00045596976997330785
2304.0,-0.0004503726668190211
2560.0,-0.0009655804606154561
2816.0,-9.014232637127861e-05
3072.0,0.001762325526215136
3328.0,-0.00028121168725192547
3584.0,-0.0023826025426387787
3840.0,-0.003590646432712674
4096.0,-0.0018456935649737716
4608.0,-0.0009008462075144053
5120.0,-0.001956400228664279
5632.0,-0.0013687057653442025
6144.0,0.00039558211574330926
6656.0,-0.003180029336363077
7168.0,-0.0026511535979807377
7680.0,-0.0018220612546429038
8192.0,-0.0017951199552044272
end
