version,3.0
numOfCh,1
type,point
parent_name,19e3e_1dot0-0dot01
ch_type,1_1
kcount,1
numberNandB,1
brightnessNandB,1
carpet pos,0
pc,0
Time (ms),CH1 Auto-Correlation
1.0,0.045743104070425034
2.0,0.04265647381544113
3.0,0.03996722772717476
4.0,0.03760714456439018
5.0,0.035614218562841415
6.0,0.033933479338884354
7.0,0.0323343463242054
8.0,0.03091205656528473
9.0,0.029630132019519806
10.0,0.028525305911898613
11.0,0.027476532384753227
12.0,0.026538867503404617
13.0,0.025696875527501106
14.0,0.024896418675780296
15.0,0.024195710197091103
16.0,0.02362673543393612
18.0,0.022522730752825737
20.0,0.02130262553691864
22.0,0.020083121955394745
24.0,0.019106699153780937
26.0,0.018197594210505486
28.0,0.01727721281349659
30.0,0.01655798777937889
32.0,0.01597096025943756
36.0,0.01517720241099596
40.0,0.014206470921635628
44.0,0.013249283656477928
48.0,0.012843441218137741
52.0,0.012564597651362419
56.0,0.012317360378801823
60.0,0.011804408393800259
64.0,0.011160574853420258
72.0,0.010055972263216972
80.0,0.009602224454283714
88.0,0.00898184347897768
96.0,0.007923862896859646
104.0,0.006921380292624235
112.0,0.006604232359677553
120.0,0.006238498259335756
128.0,0.0062727355398237705
144.0,0.006833296734839678
160.0,0.006574021186679602
176.0,0.006166919134557247
192.0,0.007044223602861166
208.0,0.007989073172211647
224.0,0.0075510344468057156
240.0,0.006894438527524471
256.0,0.005343632772564888
288.0,0.0048644342459738255
320.0,0.0056976210325956345
352.0,0.004810362588614225
384.0,0.004132140427827835
416.0,0.004460309632122517
448.0,0.004478120245039463
480.0,0.003636098699644208
512.0,0.003706614952534437
576.0,0.0029257761780172586
640.0,0.002061992883682251
704.0,0.001152010983787477
768.0,0.004117864649742842
832.0,0.0025988377165049314
896.0,0.0014065848663449287
960.0,1.299823634326458e-05
1024.0,0.00023548354511149228
1152.0,0.0007819735328666866
1280.0,-0.0005231554387137294
1408.0,-0.0002441329270368442
1536.0,-0.0014885237906128168
1664.0,0.0009704821859486401
1792.0,0.0009738483349792659
1920.0,0.0021103820763528347
2048.0,0.0015885108150541782
2304.0,6.154234142741188e-05
2560.0,-0.002410503104329109
2816.0,-0.004166673868894577
3072.0,-0.005277456250041723
3328.0,-0.004274211823940277
3584.0,-0.0036078079137951136
3840.0,-0.0019996040500700474
4096.0,0.0002672205155249685
4608.0,-1.7880092855193652e-05
5120.0,-0.00041897728806361556
5632.0,-0.0002958433178719133
6144.0,0.002314341953024268
6656.0,0.0002779674541670829
7168.0,-0.0025777150876820087
7680.0,-0.004353472962975502
8192.0,-0.004044691566377878
end
