version,3.0
numOfCh,1
type,point
parent_name,19e3e_1dot0-0dot01
ch_type,1_1
kcount,1
numberNandB,1
brightnessNandB,1
carpet pos,0
pc,0
Time (ms),CH1 Auto-Correlation
1.0,0.054925717413425446
2.0,0.05177522823214531
3.0,0.04908786341547966
4.0,0.046703875064849854
5.0,0.04455215856432915
6.0,0.042707085609436035
7.0,0.041077177971601486
8.0,0.03967726603150368
9.0,0.03836740925908089
10.0,0.03719800338149071
11.0,0.036077871918678284
12.0,0.03498493507504463
13.0,0.03405715525150299
14.0,0.03327108174562454
15.0,0.0325806550681591
16.0,0.031851429492235184
18.0,0.03043605573475361
20.0,0.029212677851319313
22.0,0.028148196637630463
24.0,0.027171310037374496
26.0,0.02647027000784874
28.0,0.025816522538661957
30.0,0.02519507147371769
32.0,0.02459665946662426
36.0,0.0237081591039896
40.0,0.022535547614097595
44.0,0.021246276795864105
48.0,0.02013457380235195
52.0,0.019343147054314613
56.0,0.018610045313835144
60.0,0.017758741974830627
64.0,0.01729225367307663
72.0,0.016663389280438423
80.0,0.015349083580076694
88.0,0.014797139912843704
96.0,0.014010266400873661
104.0,0.013712839223444462
112.0,0.013280563056468964
120.0,0.011607847176492214
128.0,0.010632089339196682
144.0,0.011098580434918404
160.0,0.012476137839257717
176.0,0.012393351644277573
192.0,0.012494430877268314
208.0,0.012041336856782436
224.0,0.0106362821534276
240.0,0.009652892127633095
256.0,0.010291196405887604
288.0,0.010091789066791534
320.0,0.007068116217851639
352.0,0.006237554829567671
384.0,0.004558036103844643
416.0,0.004429852589964867
448.0,0.0026722296606749296
480.0,0.0014605652540922165
512.0,-0.00026264178450219333
576.0,-0.0005703046335838735
640.0,-0.0013940846547484398
704.0,-0.0021152361296117306
768.0,-0.0029972761403769255
832.0,-0.0026852854061871767
896.0,-0.002622605999931693
960.0,-0.002585352398455143
1024.0,0.0013427120866253972
1152.0,0.0016644994029775262
1280.0,0.004471451509743929
1408.0,0.004925214219838381
1536.0,0.003734203288331628
1664.0,0.0013699193950742483
1792.0,-0.0010561449453234673
1920.0,-0.0019529527053236961
2048.0,-0.0019587744027376175
2304.0,-0.004797372501343489
2560.0,-0.0014518648386001587
2816.0,0.0012508692452684045
3072.0,0.0018447007751092315
3328.0,0.0015933919930830598
3584.0,-0.0017973592039197683
3840.0,-0.005511176306754351
4096.0,-0.002288718242198229
4608.0,0.0017656130949035287
5120.0,-0.004635196644812822
5632.0,0.0025646777357906103
6144.0,0.002123564016073942
6656.0,0.00019121506193187088
7168.0,-0.0017981543205678463
7680.0,0.0008428388391621411
8192.0,-0.0008917564991861582
end
