version,3.0
numOfCh,1
type,point
parent_name,19e3e_1dot0-0dot01
ch_type,1_1
kcount,1
numberNandB,1
brightnessNandB,1
carpet pos,0
pc,0
Time (ms),CH1 Auto-Correlation
1.0,0.04130198806524277
2.0,0.037973031401634216
3.0,0.03505301848053932
4.0,0.03249942138791084
5.0,0.030382761731743813
6.0,0.02846485562622547
7.0,0.026720747351646423
8.0,0.025144455954432487
9.0,0.02375473454594612
10.0,0.022406140342354774
11.0,0.021288778632879257
12.0,0.020274344831705093
13.0,0.01935615949332714
14.0,0.018454551696777344
15.0,0.017617888748645782
16.0,0.016891121864318848
18.0,0.015675226226449013
20.0,0.01463451236486435
22.0,0.013725146651268005
24.0,0.012966711074113846
26.0,0.01215163804590702
28.0,0.01147809624671936
30.0,0.010925106704235077
32.0,0.010441246442496777
36.0,0.009909365326166153
40.0,0.009692668914794922
44.0,0.00928522925823927
48.0,0.008868567645549774
52.0,0.008652358315885067
56.0,0.0083153722807765
60.0,0.007407223340123892
64.0,0.006445121020078659
72.0,0.004732741042971611
80.0,0.003371021943166852
88.0,0.002942388877272606
96.0,0.0031785392202436924
104.0,0.0036120074801146984
112.0,0.00389924761839211
120.0,0.004278300795704126
128.0,0.004027618560940027
144.0,0.004127193242311478
160.0,0.00441252114251256
176.0,0.004194673150777817
192.0,0.0027303488459438086
208.0,0.0018516756827011704
224.0,0.0019973870366811752
240.0,0.0019746259786188602
256.0,0.0007842425256967545
288.0,0.001598323229700327
320.0,0.0011577577097341418
352.0,0.0016615507192909718
384.0,0.0021251400467008352
416.0,0.00274966424331069
448.0,0.002848768373951316
480.0,0.0019000460160896182
512.0,0.002248087665066123
576.0,0.003303704084828496
640.0,0.00318140652962029
704.0,0.0013957128394395113
768.0,-0.0007936873007565737
832.0,-0.0019284832524135709
896.0,-0.0010870208498090506
960.0,-0.0002490572805982083
1024.0,4.628035821951926e-05
1152.0,0.0007310390938073397
1280.0,9.025720646604896e-05
1408.0,-0.0005727986572310328
1536.0,-0.0006261980743147433
1664.0,0.0003669119905680418
1792.0,0.0004333526885602623
1920.0,-7.99655172158964e-05
2048.0,-0.0032914606854319572
2304.0,-0.0013356618583202362
2560.0,-0.002118149306625128
2816.0,-0.001284964382648468
3072.0,-9.68782405834645e-05
3328.0,0.00014918361557647586
3584.0,-0.0002476668159943074
3840.0,0.0005992783699184656
4096.0,0.0015154593857005239
4608.0,0.00027520739240571856
5120.0,0.0009829332120716572
5632.0,0.000308527669403702
6144.0,-0.0022501929197460413
6656.0,-0.0018696653423830867
7168.0,-0.00028703940915875137
7680.0,-0.0019264804432168603
8192.0,-0.0012500535231083632
end
