version,3.0
numOfCh,1
type,point
parent_name,19e3e_1dot0-0dot01
ch_type,1_1
kcount,1
numberNandB,1
brightnessNandB,1
carpet pos,0
pc,0
Time (ms),CH1 Auto-Correlation
1.0,0.04157295078039169
2.0,0.038353078067302704
3.0,0.03559661656618118
4.0,0.03321024402976036
5.0,0.03112643212080002
6.0,0.029232846572995186
7.0,0.027434905990958214
8.0,0.025837400928139687
9.0,0.02441789023578167
10.0,0.02316419593989849
11.0,0.021977907046675682
12.0,0.0209359060972929
13.0,0.019952842965722084
14.0,0.01903090439736843
15.0,0.018203094601631165
16.0,0.0174704659730196
18.0,0.01620441861450672
20.0,0.015103377401828766
22.0,0.014290898106992245
24.0,0.01350334845483303
26.0,0.012864846736192703
28.0,0.012357884086668491
30.0,0.01186800841242075
32.0,0.011542611755430698
36.0,0.01031201146543026
40.0,0.009130150079727173
44.0,0.008403399959206581
48.0,0.007887385785579681
52.0,0.007357586640864611
56.0,0.0068977754563093185
60.0,0.0063989837653934956
64.0,0.006057659164071083
72.0,0.00621774373576045
80.0,0.006084933876991272
88.0,0.005623833741992712
96.0,0.0046883258037269115
104.0,0.003826078725978732
112.0,0.003473408753052354
120.0,0.0030911483336240053
128.0,0.0028334956150501966
144.0,0.0026435358449816704
160.0,0.0021586522925645113
176.0,0.0011621271260082722
192.0,0.00019274448277428746
208.0,-0.0002545785973779857
224.0,-0.0010063097579404712
240.0,-0.0012576122535392642
256.0,7.183953857747838e-05
288.0,-0.00021840805129613727
320.0,-0.00041516521014273167
352.0,0.0007458452600985765
384.0,0.00014323832874651998
416.0,-0.0003396556421648711
448.0,-0.0006259941146709025
480.0,0.0009820059640333056
512.0,0.0007628716994076967
576.0,-0.00047293026000261307
640.0,-0.0007209681789390743
704.0,0.0004287903429940343
768.0,0.001017094822600484
832.0,0.0009890578221529722
896.0,0.0002589013602118939
960.0,-0.0011734121944755316
1024.0,-0.0018539968878030777
1152.0,-0.0006715636700391769
1280.0,0.0005611428059637547
1408.0,-0.00059884152142331
1536.0,0.000696873408742249
1664.0,0.000889417773578316
1792.0,-0.0004424339276738465
1920.0,-0.001130019431002438
2048.0,0.0009233772289007902
2304.0,0.0003748646704480052
2560.0,2.5368815840920433e-05
2816.0,5.8932437241310254e-05
3072.0,-0.0017157559050247073
3328.0,0.0008081371779553592
3584.0,0.00015361036639660597
3840.0,-0.001458210637792945
4096.0,0.001260097953490913
4608.0,0.00013073059380985796
5120.0,0.0002085579908452928
5632.0,-0.0008177939453162253
6144.0,-0.0009919540025293827
6656.0,-0.0009654999594204128
7168.0,0.001044088276103139
7680.0,-0.0006183545920066535
8192.0,-0.0004908445989713073
end
