version,3.0
numOfCh,1
type,point
parent_name,19e3e_1dot0-0dot01
ch_type,1_1
kcount,1
numberNandB,1
brightnessNandB,1
carpet pos,0
pc,0
Time (ms),CH1 Auto-Correlation
1.0,0.061298105865716934
2.0,0.05801919847726822
3.0,0.055232562124729156
4.0,0.05278628692030907
5.0,0.0505787692964077
6.0,0.048542436212301254
7.0,0.046739041805267334
8.0,0.045029494911432266
9.0,0.04354299604892731
10.0,0.04214135557413101
11.0,0.04092859476804733
12.0,0.039775628596544266
13.0,0.038641925901174545
14.0,0.03764575719833374
15.0,0.03667759522795677
16.0,0.03587314486503601
18.0,0.034344229847192764
20.0,0.03306201100349426
22.0,0.032001905143260956
24.0,0.03109120950102806
26.0,0.030348045751452446
28.0,0.029813090339303017
30.0,0.029099125415086746
32.0,0.028344636783003807
36.0,0.026720045134425163
40.0,0.025462118908762932
44.0,0.02463393472135067
48.0,0.023732434958219528
52.0,0.023022299632430077
56.0,0.022512242197990417
60.0,0.022004062309861183
64.0,0.021698856726288795
72.0,0.021316373720765114
80.0,0.02034629136323929
88.0,0.019208764657378197
96.0,0.018517380580306053
104.0,0.018654052168130875
112.0,0.01814785785973072
120.0,0.017014294862747192
128.0,0.015707992017269135
144.0,0.015761669725179672
160.0,0.01691407337784767
176.0,0.017017189413309097
192.0,0.01629837416112423
208.0,0.015072139911353588
224.0,0.015161826275289059
240.0,0.014064080081880093
256.0,0.014585649594664574
288.0,0.01369852852076292
320.0,0.013470747508108616
352.0,0.011607248336076736
384.0,0.012333649210631847
416.0,0.013869180344045162
448.0,0.013044305145740509
480.0,0.012873772531747818
512.0,0.01218340639024973
576.0,0.00988023355603218
640.0,0.009690165519714355
704.0,0.007400487083941698
768.0,0.005738003645092249
832.0,0.006745623424649239
896.0,0.006858165375888348
960.0,0.007699392270296812
1024.0,0.007435468025505543
1152.0,0.006295584607869387
1280.0,0.005410202778875828
1408.0,0.004092672374099493
1536.0,0.003968122415244579
1664.0,0.0003661488590296358
1792.0,-0.00042391405440866947
1920.0,6.986047083046287e-05
2048.0,0.0012262080563232303
2304.0,0.0020651675295084715
2560.0,0.0010845295619219542
2816.0,0.0013366673374548554
3072.0,-0.00041248297202400863
3328.0,-0.00011702533083735034
3584.0,0.00223619700409472
3840.0,0.00010669084440451115
4096.0,-0.0028358919080346823
4608.0,-0.0001471690775360912
5120.0,-0.0027282030787318945
5632.0,-0.0016093768645077944
6144.0,-0.0008879319066181779
6656.0,0.001052907551638782
7168.0,0.0012053756508976221
7680.0,-0.0010170616442337632
8192.0,-0.003339642658829689
end
