version,3.0
numOfCh,1
type,point
parent_name,19e3e_1dot0-0dot01
ch_type,1_1
kcount,1
numberNandB,1
brightnessNandB,1
carpet pos,0
pc,0
Time (ms),CH1 Auto-Correlation
1.0,0.04130072519183159
2.0,0.0380827933549881
3.0,0.03528919443488121
4.0,0.03289250284433365
5.0,0.03084249049425125
6.0,0.029008032754063606
7.0,0.027332238852977753
8.0,0.025863168761134148
9.0,0.024491937831044197
10.0,0.02325904183089733
11.0,0.022180814296007156
12.0,0.021179432049393654
13.0,0.020162001252174377
14.0,0.019284961745142937
15.0,0.01847631298005581
16.0,0.017709916457533836
18.0,0.016301047056913376
20.0,0.0151539146900177
22.0,0.01424635760486126
24.0,0.013450874015688896
26.0,0.012842562049627304
28.0,0.012153570540249348
30.0,0.011313371360301971
32.0,0.01060274988412857
36.0,0.008936365135014057
40.0,0.0077657136134803295
44.0,0.007006577216088772
48.0,0.006555452011525631
52.0,0.006247226614505053
56.0,0.005963929463177919
60.0,0.0055425288155674934
64.0,0.005066458135843277
72.0,0.004176383838057518
80.0,0.0029631478246301413
88.0,0.001515414915047586
96.0,0.0001795374701032415
104.0,0.0003204247332178056
112.0,0.0001569024461787194
120.0,2.6189476557192393e-05
128.0,0.0005558340344578028
144.0,0.0014234822010621428
160.0,0.0010661997366696596
176.0,2.439559011691017e-06
192.0,-0.000511397491209209
208.0,-0.001105402479879558
224.0,-0.000789186917245388
240.0,-0.0008428614237345755
256.0,0.00020215717086102813
288.0,0.0015618192264810205
320.0,0.0019978422205895185
352.0,0.001672315876930952
384.0,0.0008519268012605608
416.0,0.00023836053151171654
448.0,-8.404827531194314e-05
480.0,-0.0017122755525633693
512.0,-0.001955779269337654
576.0,-0.0023672955576330423
640.0,-0.0014062309637665749
704.0,-0.00013828770897816867
768.0,0.0011547997128218412
832.0,0.0011270376853644848
896.0,-0.0008305537048727274
960.0,-0.0027423668652772903
1024.0,-0.002940974198281765
1152.0,-0.0005916716763749719
1280.0,0.0002999357820954174
1408.0,-0.0009740995010361075
1536.0,0.0011938456445932388
1664.0,0.0012397733516991138
1792.0,0.00013600927195511758
1920.0,0.002025230787694454
2048.0,-0.000771865772549063
2304.0,0.0014540243428200483
2560.0,-0.0011578770354390144
2816.0,-0.001963391900062561
3072.0,-0.0006133721326477826
3328.0,1.5336792785092257e-05
3584.0,0.00010318138083675876
3840.0,0.0010815456043928862
4096.0,-0.00033341231755912304
4608.0,-0.0006789727485738695
5120.0,-0.0003999421023763716
5632.0,0.0009055401897057891
6144.0,-0.0006171553395688534
6656.0,-0.0010597113287076354
7168.0,0.0003186688700225204
7680.0,3.719576125149615e-05
8192.0,-0.001836465671658516
end
