version,3.0
numOfCh,1
type,point
parent_name,19e3e_1dot0-0dot01
ch_type,1_1
kcount,1
numberNandB,1
brightnessNandB,1
carpet pos,0
pc,0
Time (ms),CH1 Auto-Correlation
1.0,0.11094418168067932
2.0,0.10772421956062317
3.0,0.1048944741487503
4.0,0.10248101502656937
5.0,0.10030397772789001
6.0,0.09831424057483673
7.0,0.09645146131515503
8.0,0.09475237131118774
9.0,0.09321898221969604
10.0,0.0917825773358345
11.0,0.09054446965456009
12.0,0.08940532803535461
13.0,0.08826541900634766
14.0,0.08720925450325012
15.0,0.08622557669878006
16.0,0.08538446575403214
18.0,0.08391230553388596
20.0,0.08250728994607925
22.0,0.08131816238164902
24.0,0.08045690506696701
26.0,0.07974853366613388
28.0,0.07903648912906647
30.0,0.0782773420214653
32.0,0.07744099199771881
36.0,0.07576820999383926
40.0,0.07473215460777283
44.0,0.07386991381645203
48.0,0.07294512540102005
52.0,0.07188587635755539
56.0,0.07047436386346817
60.0,0.0691058412194252
64.0,0.06777828186750412
72.0,0.06488155573606491
80.0,0.06185701861977577
88.0,0.059592992067337036
96.0,0.05810141935944557
104.0,0.05681854113936424
112.0,0.05540558695793152
120.0,0.053808797150850296
128.0,0.052429985255002975
144.0,0.05092041939496994
160.0,0.049118757247924805
176.0,0.04719903692603111
192.0,0.04573480412364006
208.0,0.04594632610678673
224.0,0.04511154443025589
240.0,0.04389804229140282
256.0,0.04471946507692337
288.0,0.04581642895936966
320.0,0.043967414647340775
352.0,0.040862344205379486
384.0,0.035207681357860565
416.0,0.030318187549710274
448.0,0.024842431768774986
480.0,0.01996464841067791
512.0,0.01671726629137993
576.0,0.012300881557166576
640.0,0.010051053017377853
704.0,0.006493112072348595
768.0,0.0018156131263822317
832.0,-0.0007201515254564583
896.0,-0.0034108110703527927
960.0,-0.0021621519699692726
1024.0,-0.002783481264486909
1152.0,-0.006922319997102022
1280.0,-0.007099570706486702
1408.0,-0.003100770525634289
1536.0,-0.006439974997192621
1664.0,-0.005995288025587797
1792.0,-0.006026801653206348
1920.0,-0.0008144320454448462
2048.0,-0.00030059742857702076
2304.0,0.002169852377846837
2560.0,0.0038686294574290514
2816.0,0.004044651053845882
3072.0,0.0034779896959662437
3328.0,0.004551514517515898
3584.0,0.0012200325727462769
3840.0,-0.0030827170703560114
4096.0,-0.00710699800401926
4608.0,-0.0004386196960695088
5120.0,-0.0020557257812470198
5632.0,-0.005705532152205706
6144.0,-0.006985975429415703
6656.0,-0.007510786410421133
7168.0,-0.005209687165915966
7680.0,-0.004586963448673487
8192.0,-0.006122704595327377
end
