version,3.0
numOfCh,1
type,point
parent_name,19e3e_1dot0-0dot01
ch_type,1_1
kcount,1
numberNandB,1
brightnessNandB,1
carpet pos,0
pc,0
Time (ms),CH1 Auto-Correlation
1.0,0.07946231216192245
2.0,0.07639084756374359
3.0,0.07367996871471405
4.0,0.0712137371301651
5.0,0.06903005391359329
6.0,0.06701834499835968
7.0,0.06520992517471313
8.0,0.0636403039097786
9.0,0.062230899930000305
10.0,0.060933906584978104
11.0,0.05977068841457367
12.0,0.05866050720214844
13.0,0.05760480836033821
14.0,0.05657036602497101
15.0,0.055547431111335754
16.0,0.054581861943006516
18.0,0.05284838378429413
20.0,0.05136441811919212
22.0,0.04965009167790413
24.0,0.048071905970573425
26.0,0.046670619398355484
28.0,0.045371923595666885
30.0,0.04387028142809868
32.0,0.042551930993795395
36.0,0.04070866480469704
40.0,0.03896081820130348
44.0,0.03739752247929573
48.0,0.036064840853214264
52.0,0.034358132630586624
56.0,0.032309770584106445
60.0,0.030799930915236473
64.0,0.029878757894039154
72.0,0.027690837159752846
80.0,0.02519184909760952
88.0,0.023095563054084778
96.0,0.02043786086142063
104.0,0.0175880528986454
112.0,0.01558755338191986
120.0,0.013903630897402763
128.0,0.0124485669657588
144.0,0.010403750464320183
160.0,0.009402599185705185
176.0,0.009059641510248184
192.0,0.010079138912260532
208.0,0.01037342194467783
224.0,0.008869960904121399
240.0,0.008249416016042233
256.0,0.008221561089158058
288.0,0.009432906284928322
320.0,0.009519956074655056
352.0,0.010160866193473339
384.0,0.011400478892028332
416.0,0.009705718606710434
448.0,0.008547757752239704
480.0,0.006476726848632097
512.0,0.003283079480752349
576.0,-0.004361107014119625
640.0,-0.010201513767242432
704.0,-0.009332521818578243
768.0,-0.0025518429465591908
832.0,-0.00014259629824664444
896.0,-0.005622033961117268
960.0,-0.004346949514001608
1024.0,-0.0007289876812137663
1152.0,0.0007842199993319809
1280.0,0.0015174438012763858
1408.0,0.009116854518651962
1536.0,0.005870428867638111
1664.0,-0.0019612926989793777
1792.0,0.0008742327918298542
1920.0,0.0017637048149481416
2048.0,-0.004043772350996733
2304.0,-0.004902421031147242
2560.0,-0.0001234649826074019
2816.0,-0.00023152997891884297
3072.0,0.003670003032311797
3328.0,0.0019254675135016441
3584.0,0.001341536408290267
3840.0,0.0006423944723792374
4096.0,-0.002147945109754801
4608.0,-0.0032276285346597433
5120.0,-0.0010215677320957184
5632.0,-0.003628036705777049
6144.0,-0.003439582884311676
6656.0,-0.0003032446256838739
7168.0,-0.00691563356667757
7680.0,-0.0040369341149926186
8192.0,-0.002735066693276167
end
