version,3.0
numOfCh,1
type,point
parent_name,19e3e_1dot0-0dot01
ch_type,1_1
kcount,1
numberNandB,1
brightnessNandB,1
carpet pos,0
pc,0
Time (ms),CH1 Auto-Correlation
1.0,0.25865915417671204
2.0,0.25536754727363586
3.0,0.2523423433303833
4.0,0.24957449734210968
5.0,0.24703405797481537
6.0,0.24463090300559998
7.0,0.24212373793125153
8.0,0.23964308202266693
9.0,0.23734210431575775
10.0,0.23527365922927856
11.0,0.23344534635543823
12.0,0.23172029852867126
13.0,0.2299298346042633
14.0,0.22805483639240265
15.0,0.22622472047805786
16.0,0.22436197102069855
18.0,0.2205655425786972
20.0,0.2168688178062439
22.0,0.21300329267978668
24.0,0.20927001535892487
26.0,0.20563861727714539
28.0,0.2022397369146347
30.0,0.19886575639247894
32.0,0.1953684538602829
36.0,0.18875746428966522
40.0,0.18283894658088684
44.0,0.17640343308448792
48.0,0.16999484598636627
52.0,0.16391174495220184
56.0,0.15781372785568237
60.0,0.15169957280158997
64.0,0.1458446979522705
72.0,0.13483847677707672
80.0,0.12456992268562317
88.0,0.11490552127361298
96.0,0.1046663224697113
104.0,0.09623125940561295
112.0,0.08797334134578705
120.0,0.08056696504354477
128.0,0.07538891583681107
144.0,0.06367982923984528
160.0,0.05503171682357788
176.0,0.045275747776031494
192.0,0.03845031559467316
208.0,0.03197990357875824
224.0,0.026217253878712654
240.0,0.027894776314496994
256.0,0.03025035560131073
288.0,0.02545231580734253
320.0,0.01759033277630806
352.0,0.013041576370596886
384.0,0.009058517403900623
416.0,0.0017430685693398118
448.0,-0.008239222690463066
480.0,-0.017465107142925262
512.0,-0.023941386491060257
576.0,-0.023837411776185036
640.0,-0.010368016548454762
704.0,-0.009793246164917946
768.0,-0.013123731128871441
832.0,-0.00476503511890769
896.0,-0.004608889110386372
960.0,-0.009583334438502789
1024.0,0.002650067675858736
1152.0,0.021446187049150467
1280.0,-0.0019329475471749902
1408.0,0.02196522057056427
1536.0,0.0068902247585356236
1664.0,0.025264400988817215
1792.0,0.007459929212927818
1920.0,-0.03102308325469494
2048.0,-0.04314686357975006
2304.0,-0.04352463409304619
2560.0,0.0004588931624311954
2816.0,0.03474673256278038
3072.0,-0.031030796468257904
3328.0,-0.03819279000163078
3584.0,-0.030811429023742676
3840.0,-0.031250160187482834
4096.0,-0.018008144572377205
4608.0,-0.015486083924770355
5120.0,0.0014943208079785109
5632.0,0.01697118580341339
6144.0,0.008350938558578491
6656.0,-0.011199102737009525
7168.0,-0.004531496204435825
end
