version,3.0
numOfCh,1
type,point
parent_name,19e3e_1dot0-0dot01
ch_type,1_1
kcount,1
numberNandB,1
brightnessNandB,1
carpet pos,0
pc,0
Time (ms),CH1 Auto-Correlation
1.0,0.2816315293312073
2.0,0.2800556719303131
3.0,0.2784886658191681
4.0,0.2769638001918793
5.0,0.27546700835227966
6.0,0.27397066354751587
7.0,0.27258431911468506
8.0,0.27120327949523926
9.0,0.26988670229911804
10.0,0.2685980200767517
11.0,0.26734229922294617
12.0,0.2661305367946625
13.0,0.2649310231208801
14.0,0.2637350857257843
15.0,0.26254668831825256
16.0,0.26140734553337097
18.0,0.25907111167907715
20.0,0.2567073106765747
22.0,0.25445422530174255
24.0,0.2522107660770416
26.0,0.2499055117368698
28.0,0.24767878651618958
30.0,0.24550314247608185
32.0,0.24326592683792114
36.0,0.2385687232017517
40.0,0.23372308909893036
44.0,0.22908058762550354
48.0,0.22473716735839844
52.0,0.22085252404212952
56.0,0.21711139380931854
60.0,0.21336312592029572
64.0,0.20952391624450684
72.0,0.20187363028526306
80.0,0.19432108104228973
88.0,0.1875568926334381
96.0,0.18018688261508942
104.0,0.17215168476104736
112.0,0.16455994546413422
120.0,0.15763519704341888
128.0,0.15108990669250488
144.0,0.13917802274227142
160.0,0.12967278063297272
176.0,0.12356685101985931
192.0,0.11926007270812988
208.0,0.11592567712068558
224.0,0.11372581124305725
240.0,0.11201318353414536
256.0,0.10909685492515564
288.0,0.09853355586528778
320.0,0.08979535847902298
352.0,0.08402691036462784
384.0,0.07490476220846176
416.0,0.07128684222698212
448.0,0.06875897943973541
480.0,0.06081610545516014
512.0,0.04942552372813225
576.0,0.03487890586256981
640.0,0.02693748287856579
704.0,0.0225541852414608
768.0,0.0016613183543086052
832.0,-0.002752305008471012
896.0,-0.0034167147241532803
960.0,-0.006470779422670603
1024.0,-0.02130565233528614
1152.0,-0.02642517164349556
1280.0,-0.004755562637001276
1408.0,0.03350655362010002
1536.0,0.018687665462493896
1664.0,0.009267954155802727
1792.0,0.03361625596880913
1920.0,0.07355107367038727
2048.0,0.09878365695476532
2304.0,0.09853552281856537
2560.0,0.020362254232168198
2816.0,-0.024400046095252037
3072.0,-0.07833562791347504
3328.0,-0.07816112041473389
3584.0,-0.018143661320209503
3840.0,0.022376103326678276
4096.0,0.03800898417830467
4608.0,0.004393985029309988
5120.0,-0.11521120369434357
5632.0,-0.08861169219017029
6144.0,-0.036113616079092026
6656.0,-0.05166023597121239
7168.0,-0.24092751741409302
7680.0,-0.2817772626876831
8192.0,-0.2879750430583954
end
