version,3.0
numOfCh,1
type,point
parent_name,19e3e_1dot0-0dot01
ch_type,1_1
kcount,1
numberNandB,1
brightnessNandB,1
carpet pos,0
pc,0
Time (ms),CH1 Auto-Correlation
1.0,0.25526824593544006
2.0,0.25203466415405273
3.0,0.249270498752594
4.0,0.24684974551200867
5.0,0.24470314383506775
6.0,0.2425905019044876
7.0,0.24063405394554138
8.0,0.23878608644008636
9.0,0.23700328171253204
10.0,0.23529726266860962
11.0,0.23361501097679138
12.0,0.23201757669448853
13.0,0.23049499094486237
14.0,0.22891277074813843
15.0,0.22737246751785278
16.0,0.22585971653461456
18.0,0.22241617739200592
20.0,0.22004887461662292
22.0,0.2176039218902588
24.0,0.21537916362285614
26.0,0.21308012306690216
28.0,0.21075637638568878
30.0,0.20841801166534424
32.0,0.2062753587961197
36.0,0.2011609524488449
40.0,0.19707222282886505
44.0,0.19333435595035553
48.0,0.18922419846057892
52.0,0.18455618619918823
56.0,0.17986977100372314
60.0,0.17516839504241943
64.0,0.17051735520362854
72.0,0.1619480699300766
80.0,0.15412436425685883
88.0,0.14772158861160278
96.0,0.14141856133937836
104.0,0.13560353219509125
112.0,0.13016276061534882
120.0,0.1249646544456482
128.0,0.12101176381111145
144.0,0.11691553145647049
160.0,0.11491574347019196
176.0,0.10998396575450897
192.0,0.09802672266960144
208.0,0.08677224814891815
224.0,0.07493764162063599
240.0,0.06108105927705765
256.0,0.050220951437950134
288.0,0.022028055042028427
320.0,0.01717827282845974
352.0,0.01625734008848667
384.0,0.01849232241511345
416.0,0.02543947659432888
448.0,0.03179272264242172
480.0,0.03665045648813248
512.0,0.038349851965904236
576.0,0.03756004199385643
640.0,0.023089658468961716
704.0,0.013161822222173214
768.0,0.0004230542399454862
832.0,-0.005174506455659866
896.0,-0.008029148913919926
960.0,-0.0050234440714120865
1024.0,-0.006527754012495279
1152.0,-0.004964673426002264
1280.0,0.0001935345644596964
1408.0,0.006595280021429062
1536.0,0.010347828269004822
1664.0,0.009819740429520607
1792.0,0.006246016826480627
1920.0,-0.002515712520107627
2048.0,-0.0053609637543559074
2304.0,-0.0004569964366964996
2560.0,-0.008862740360200405
2816.0,-0.013743150047957897
3072.0,-0.005437716841697693
3328.0,-0.004977322183549404
3584.0,-0.000968873267993331
3840.0,0.012967337854206562
4096.0,-0.012344827875494957
4608.0,0.006052145268768072
5120.0,0.007084892597049475
5632.0,0.0022283284924924374
6144.0,0.003981736488640308
6656.0,0.000653318187687546
7168.0,0.0022196487989276648
7680.0,-0.0007244599401019514
8192.0,0.005014695692807436
end
