version,3.0
numOfCh,1
type,point
parent_name,19e3e_1dot0-0dot01
ch_type,1_1
kcount,1
numberNandB,1
brightnessNandB,1
carpet pos,0
pc,0
Time (ms),CH1 Auto-Correlation
1.0,0.05219433829188347
2.0,0.04909295216202736
3.0,0.04638233408331871
4.0,0.044091302901506424
5.0,0.042011238634586334
6.0,0.04023265093564987
7.0,0.038752973079681396
8.0,0.03728221729397774
9.0,0.03585517406463623
10.0,0.034528493881225586
11.0,0.033413201570510864
12.0,0.03239335119724274
13.0,0.031543802469968796
14.0,0.030700605362653732
15.0,0.02984280325472355
16.0,0.02909182570874691
18.0,0.027845488861203194
20.0,0.026783397421240807
22.0,0.025657441467046738
24.0,0.024468548595905304
26.0,0.023271257057785988
28.0,0.022235224023461342
30.0,0.021534739062190056
32.0,0.02094024233520031
36.0,0.019921761006116867
40.0,0.018533585593104362
44.0,0.017360031604766846
48.0,0.016682587563991547
52.0,0.016337554901838303
56.0,0.01586674526333809
60.0,0.01548804622143507
64.0,0.014852842316031456
72.0,0.014405124820768833
80.0,0.013830320909619331
88.0,0.013443905860185623
96.0,0.01323423720896244
104.0,0.013263233006000519
112.0,0.013092098757624626
120.0,0.013175795786082745
128.0,0.013043354265391827
144.0,0.011309947818517685
160.0,0.009128730744123459
176.0,0.007877696305513382
192.0,0.00783022865653038
208.0,0.006962652318179607
224.0,0.00711095193400979
240.0,0.006178500596433878
256.0,0.006493571680039167
288.0,0.007538106292486191
320.0,0.0081156175583601
352.0,0.00680732075124979
384.0,0.007094224914908409
416.0,0.007930710911750793
448.0,0.007976224645972252
480.0,0.006677917204797268
512.0,0.006108355242758989
576.0,0.004139128141105175
640.0,0.00485287606716156
704.0,0.004138623364269733
768.0,0.004819640889763832
832.0,0.003777140751481056
896.0,0.00292752287350595
960.0,0.0013411982217803597
1024.0,0.0014667743816971779
1152.0,0.002824792405590415
1280.0,0.0016738298581913114
1408.0,0.0013541847001761198
1536.0,0.0007315599941648543
1664.0,-0.0005716477753594518
1792.0,-0.0006053234683349729
1920.0,-0.0002555586106609553
2048.0,-0.0005051625776104629
2304.0,-0.0033192194532603025
2560.0,-0.0020895740017294884
2816.0,3.774403012357652e-05
3072.0,-0.0024051412474364042
3328.0,-0.0012849580962210894
3584.0,0.0020191255025565624
3840.0,-0.00044339129817672074
4096.0,-0.0023036212660372257
4608.0,-0.00019685563165694475
5120.0,-0.0029440007638186216
5632.0,0.0011824228568002582
6144.0,0.0012613488361239433
6656.0,0.0019126643892377615
7168.0,0.003126436145976186
7680.0,-0.0002119774726452306
8192.0,-0.0010926190298050642
end
