version,3.0
numOfCh,1
type,point
parent_name,19e3e_1dot0-0dot01
ch_type,1_1
kcount,1
numberNandB,1
brightnessNandB,1
carpet pos,0
pc,0
Time (ms),CH1 Auto-Correlation
1.0,0.22860896587371826
2.0,0.2271149605512619
3.0,0.22567446529865265
4.0,0.22428084909915924
5.0,0.2229495644569397
6.0,0.22163978219032288
7.0,0.2202913463115692
8.0,0.2189815789461136
9.0,0.21764308214187622
10.0,0.21634283661842346
11.0,0.21507249772548676
12.0,0.21383030712604523
13.0,0.21258728206157684
14.0,0.21129512786865234
15.0,0.2099320888519287
16.0,0.20858371257781982
18.0,0.20593252778053284
20.0,0.2033279687166214
22.0,0.20072266459465027
24.0,0.19821308553218842
26.0,0.1958158165216446
28.0,0.19344130158424377
30.0,0.19117021560668945
32.0,0.18892022967338562
36.0,0.1845020055770874
40.0,0.18038134276866913
44.0,0.17626313865184784
48.0,0.17192691564559937
52.0,0.16754448413848877
56.0,0.16313117742538452
60.0,0.15908382833003998
64.0,0.15536974370479584
72.0,0.14796486496925354
80.0,0.1403851956129074
88.0,0.13275527954101562
96.0,0.1256614774465561
104.0,0.11995548009872437
112.0,0.11461244523525238
120.0,0.10866525024175644
128.0,0.10247265547513962
144.0,0.09046681970357895
160.0,0.08028220385313034
176.0,0.07348316162824631
192.0,0.06723621487617493
208.0,0.06030697748064995
224.0,0.05391925573348999
240.0,0.04733457416296005
256.0,0.04089188575744629
288.0,0.030556930229067802
320.0,0.02622426114976406
352.0,0.024866117164492607
384.0,0.023619912564754486
416.0,0.020271429792046547
448.0,0.015335075557231903
480.0,0.00824609212577343
512.0,-0.00021355392527766526
576.0,-0.015196853317320347
640.0,-0.029323527589440346
704.0,-0.028694095090031624
768.0,-0.027526384219527245
832.0,-0.036636412143707275
896.0,-0.048908185213804245
960.0,-0.05876338109374046
1024.0,-0.0637964978814125
1152.0,-0.0478239469230175
1280.0,-0.030294101685285568
1408.0,0.00478064501658082
1536.0,0.034264229238033295
1664.0,0.03763256594538689
1792.0,0.043875981122255325
1920.0,0.051677405834198
2048.0,0.03965192288160324
2304.0,-0.025974998250603676
2560.0,-0.042030591517686844
2816.0,0.00880473293364048
3072.0,-0.010245020501315594
3328.0,-0.021129103377461433
3584.0,-0.020188169553875923
3840.0,-0.060028076171875
4096.0,-0.05914435535669327
4608.0,0.03387913480401039
5120.0,0.030276553705334663
5632.0,-0.06948717683553696
6144.0,-0.024225981906056404
6656.0,0.10985101759433746
7168.0,0.04629646986722946
7680.0,-0.06920473277568817
8192.0,-0.03645722568035126
end
