version,3.0
numOfCh,1
type,point
parent_name,19e3e_1dot0-0dot01
ch_type,1_1
kcount,1
numberNandB,1
brightnessNandB,1
carpet pos,0
pc,0
Time (ms),CH1 Auto-Correlation
1.0,0.045165013521909714
2.0,0.04194981977343559
3.0,0.03918299078941345
4.0,0.036838777363300323
5.0,0.034754469990730286
6.0,0.03287713602185249
7.0,0.031129566952586174
8.0,0.029551051557064056
9.0,0.028098581358790398
10.0,0.02682187594473362
11.0,0.025681735947728157
12.0,0.024589451029896736
13.0,0.023530231788754463
14.0,0.022547384724020958
15.0,0.021628577262163162
16.0,0.020755698904395103
18.0,0.01920386403799057
20.0,0.017919447273015976
22.0,0.016670972108840942
24.0,0.015548350289463997
26.0,0.014602835290133953
28.0,0.013799495995044708
30.0,0.013242785818874836
32.0,0.012604065239429474
36.0,0.011674723587930202
40.0,0.01068788580596447
44.0,0.009952729567885399
48.0,0.00917824637144804
52.0,0.008457635529339314
56.0,0.00846811756491661
60.0,0.00812829751521349
64.0,0.007688088808208704
72.0,0.006905734539031982
80.0,0.006433381699025631
88.0,0.005900279618799686
96.0,0.005507242400199175
104.0,0.005112941842526197
112.0,0.0048561496660113335
120.0,0.0054608979262411594
128.0,0.005619674921035767
144.0,0.004524376709014177
160.0,0.002761261072009802
176.0,0.0026925888378173113
192.0,0.002521795453503728
208.0,0.002012707758694887
224.0,0.0013505787355825305
240.0,0.00045071865315549076
256.0,-0.0007826373330317438
288.0,-0.00035044903052039444
320.0,0.0011735896114259958
352.0,0.0009029915672726929
384.0,-0.00020296369621064514
416.0,-0.0006271780584938824
448.0,-0.0002818662906065583
480.0,-0.00021120562450960279
512.0,-0.0026081688702106476
576.0,-0.0023020156659185886
640.0,-0.0007843744824640453
704.0,-0.00015156471636146307
768.0,-0.00014310816186480224
832.0,-0.0012009239289909601
896.0,-0.0021487746853381395
960.0,-0.0008533759973943233
1024.0,-0.0006380552076734602
1152.0,-1.9916096789529547e-05
1280.0,-0.0020110595505684614
1408.0,-0.0025135292671620846
1536.0,-0.003800751408562064
1664.0,-0.0007812554249539971
1792.0,0.0006063373875804245
1920.0,0.0010897318134084344
2048.0,0.0003973677521571517
2304.0,0.0006283329566940665
2560.0,0.000353367009665817
2816.0,-0.00013746178592555225
3072.0,-0.0003227358974982053
3328.0,-0.00014976802049204707
3584.0,-0.0007024588412605226
3840.0,-0.002604444045573473
4096.0,-0.0011959063122048974
4608.0,0.0022967965342104435
5120.0,0.00043678408837877214
5632.0,0.0017550243064761162
6144.0,-0.00022113174782134593
6656.0,-0.0013327666092664003
7168.0,-0.0011840014485642314
7680.0,-0.0009450135985389352
8192.0,0.002028061542659998
end
