version,3.0
numOfCh,1
type,point
parent_name,19e3e_1dot0-0dot01
ch_type,1_1
kcount,1
numberNandB,1
brightnessNandB,1
carpet pos,0
pc,0
Time (ms),CH1 Auto-Correlation
1.0,0.06284444034099579
2.0,0.059909213334321976
3.0,0.057291388511657715
4.0,0.05492115765810013
5.0,0.052761174738407135
6.0,0.05086248740553856
7.0,0.049123942852020264
8.0,0.047625549137592316
9.0,0.04630838707089424
10.0,0.045196302235126495
11.0,0.04412009194493294
12.0,0.04314742237329483
13.0,0.04226021096110344
14.0,0.04140555486083031
15.0,0.04054876044392586
16.0,0.03977563977241516
18.0,0.038359351456165314
20.0,0.03712201490998268
22.0,0.03603317588567734
24.0,0.035074640065431595
26.0,0.033981677144765854
28.0,0.03284896910190582
30.0,0.0317426398396492
32.0,0.030795590952038765
36.0,0.029332028701901436
40.0,0.028233926743268967
44.0,0.026993246749043465
48.0,0.02583993226289749
52.0,0.02447337657213211
56.0,0.02336447313427925
60.0,0.02266644686460495
64.0,0.02181600220501423
72.0,0.020623313263058662
80.0,0.019288264214992523
88.0,0.01806415431201458
96.0,0.016853049397468567
104.0,0.015514307655394077
112.0,0.014043929055333138
120.0,0.013226831331849098
128.0,0.012564776465296745
144.0,0.011120842769742012
160.0,0.011418052949011326
176.0,0.012130591087043285
192.0,0.01183215994387865
208.0,0.010558141395449638
224.0,0.010816412977874279
240.0,0.01102341990917921
256.0,0.010519200935959816
288.0,0.010155190713703632
320.0,0.009190079756081104
352.0,0.010416646488010883
384.0,0.007967976853251457
416.0,0.006682592909783125
448.0,0.00834403932094574
480.0,0.007745680864900351
512.0,0.006330560427159071
576.0,0.004030888434499502
640.0,0.0033149549271911383
704.0,0.0047406586818397045
768.0,0.0036962588783353567
832.0,0.0014737502206116915
896.0,0.0006666021654382348
960.0,-0.002422701334580779
1024.0,-0.001445536152459681
1152.0,0.0010049756383523345
1280.0,-0.0024872138164937496
1408.0,-0.003235087264329195
1536.0,-0.0023155706003308296
1664.0,-0.0017111578490585089
1792.0,-0.003108811331912875
1920.0,-0.0030286693945527077
2048.0,-0.0025271952617913485
2304.0,-0.0012664287351071835
2560.0,-0.0026129595935344696
2816.0,-0.005345441866666079
3072.0,-0.006187671795487404
3328.0,-0.0040885754860937595
3584.0,-0.0030234085861593485
3840.0,-0.0023431736044585705
4096.0,-0.0032233514357358217
4608.0,0.0025437145959585905
5120.0,0.00146918511018157
5632.0,0.001606993842869997
6144.0,0.0012669425923377275
6656.0,-0.001812882605008781
7168.0,-0.00012806584709323943
7680.0,-0.0010873283026739955
8192.0,0.0007281189900822937
end
