version,3.0
numOfCh,1
type,point
parent_name,19e3e_1dot0-0dot01
ch_type,1_1
kcount,1
numberNandB,1
brightnessNandB,1
carpet pos,0
pc,0
Time (ms),CH1 Auto-Correlation
1.0,0.10174857079982758
2.0,0.09872917085886002
3.0,0.09599170088768005
4.0,0.093548983335495
5.0,0.09134232997894287
6.0,0.08926676958799362
7.0,0.08736921846866608
8.0,0.08565565198659897
9.0,0.08415789157152176
10.0,0.08279092609882355
11.0,0.08143343031406403
12.0,0.08018899708986282
13.0,0.07906337827444077
14.0,0.0781240463256836
15.0,0.07729773968458176
16.0,0.07657438516616821
18.0,0.07530723512172699
20.0,0.07425528019666672
22.0,0.07312057912349701
24.0,0.07205034792423248
26.0,0.07125890254974365
28.0,0.07066141068935394
30.0,0.07004062831401825
32.0,0.06928083300590515
36.0,0.0679071769118309
40.0,0.06603386998176575
44.0,0.06392409652471542
48.0,0.062232606112957
52.0,0.060594696551561356
56.0,0.059263624250888824
60.0,0.058027483522892
64.0,0.05687277019023895
72.0,0.05384383350610733
80.0,0.05112558230757713
88.0,0.04878092184662819
96.0,0.04681152105331421
104.0,0.04555036127567291
112.0,0.04392489790916443
120.0,0.042394984513521194
128.0,0.041157908737659454
144.0,0.03850911557674408
160.0,0.03627890720963478
176.0,0.03619847074151039
192.0,0.034635432064533234
208.0,0.031101182103157043
224.0,0.028182553127408028
240.0,0.02442857064306736
256.0,0.02108512818813324
288.0,0.018513960763812065
320.0,0.017612170428037643
352.0,0.016276486217975616
384.0,0.014199413359165192
416.0,0.011902138590812683
448.0,0.00997705478221178
480.0,0.007538049481809139
512.0,0.004068496637046337
576.0,-0.0017691004322841763
640.0,-0.0038357474841177464
704.0,0.00020822533406317234
768.0,0.0023861865047365427
832.0,0.004723188932985067
896.0,0.006518068257719278
960.0,0.0022346116602420807
1024.0,-0.0017590883653610945
1152.0,-0.0049500493332743645
1280.0,-0.0025430384557694197
1408.0,-0.0007231207564473152
1536.0,-0.00010357460269005969
1664.0,0.0027802037075161934
1792.0,0.003880958305671811
1920.0,0.009000447578728199
2048.0,0.003961014561355114
2304.0,0.0024502037558704615
2560.0,0.0028493714053183794
2816.0,0.0023498483933508396
3072.0,0.0024325831327587366
3328.0,-0.006343521177768707
3584.0,-0.015808943659067154
3840.0,-0.01183746661990881
4096.0,-0.01057353988289833
4608.0,-0.008699881844222546
5120.0,-0.02911585383117199
5632.0,-0.015078556723892689
6144.0,-0.00548924645408988
6656.0,0.004952782765030861
7168.0,-0.001488132867962122
7680.0,-0.006236817687749863
8192.0,0.004906916990876198
end
