version,3.0
numOfCh,1
type,point
parent_name,19e3e_1dot0-0dot01
ch_type,1_1
kcount,1
numberNandB,1
brightnessNandB,1
carpet pos,0
pc,0
Time (ms),CH1 Auto-Correlation
1.0,0.0455947108566761
2.0,0.042342476546764374
3.0,0.03959641978144646
4.0,0.03721604496240616
5.0,0.035101138055324554
6.0,0.03322878107428551
7.0,0.03156328573822975
8.0,0.03003525175154209
9.0,0.028577793389558792
10.0,0.027252107858657837
11.0,0.02609749510884285
12.0,0.025093162432312965
13.0,0.024123499169945717
14.0,0.023181725293397903
15.0,0.022286606952548027
16.0,0.021511536091566086
18.0,0.0202995166182518
20.0,0.01923993043601513
22.0,0.018364226445555687
24.0,0.017574911937117577
26.0,0.01691509783267975
28.0,0.016387183219194412
30.0,0.015900682657957077
32.0,0.015451216138899326
36.0,0.01451812218874693
40.0,0.01361521054059267
44.0,0.01272436324506998
48.0,0.012101341970264912
52.0,0.011859506368637085
56.0,0.011426497250795364
60.0,0.01106913760304451
64.0,0.010473286733031273
72.0,0.00963370781391859
80.0,0.008496136404573917
88.0,0.007481410633772612
96.0,0.006933099590241909
104.0,0.006240121088922024
112.0,0.00584818422794342
120.0,0.005388414487242699
128.0,0.004546660464257002
144.0,0.0025561703369021416
160.0,0.002026626840233803
176.0,0.0014197496930137277
192.0,0.0010001686168834567
208.0,0.00021502695744857192
224.0,0.000233464888879098
240.0,0.001681322930380702
256.0,0.0017898784717544913
288.0,0.0017136078095063567
320.0,0.0034424946643412113
352.0,0.004551951307803392
384.0,0.003598639741539955
416.0,0.001423192792572081
448.0,0.002027655253186822
480.0,0.0015793537022545934
512.0,0.0007598864613100886
576.0,-0.0005278788739815354
640.0,-0.00047822389751672745
704.0,-0.001124903908930719
768.0,-0.0015962133184075356
832.0,0.0001675939274718985
896.0,-0.00046732561895623803
960.0,0.00038281118031591177
1024.0,0.0006271667080000043
1152.0,-0.0009142999770119786
1280.0,-0.00022086460376158357
1408.0,0.0005035390495322645
1536.0,-0.0011625336483120918
1664.0,-0.0008045737049542367
1792.0,0.0004590613243635744
1920.0,-0.0004158039519097656
2048.0,-0.0021006956230849028
2304.0,0.00012996644363738596
2560.0,0.0005118410335853696
2816.0,5.4952255595708266e-05
3072.0,-0.0009835694218054414
3328.0,-0.0001995506027014926
3584.0,-0.0015820133266970515
3840.0,-0.0007572045433335006
4096.0,-0.001817793003283441
4608.0,0.0005666233482770622
5120.0,-0.0012435188982635736
5632.0,-0.0020355856977403164
6144.0,-0.0002689611283130944
6656.0,4.9159760237671435e-05
7168.0,0.0014730896800756454
7680.0,-0.0009880843572318554
8192.0,-0.0014243825571611524
end
