version,3.0
numOfCh,1
type,point
parent_name,19e3e_1dot0-0dot01
ch_type,1_1
kcount,1
numberNandB,1
brightnessNandB,1
carpet pos,0
pc,0
Time (ms),CH1 Auto-Correlation
1.0,0.04260264337062836
2.0,0.03944578394293785
3.0,0.03670521825551987
4.0,0.03430340811610222
5.0,0.03224290907382965
6.0,0.03040158934891224
7.0,0.02887209877371788
8.0,0.02738855965435505
9.0,0.026060324162244797
10.0,0.024861326441168785
11.0,0.023777663707733154
12.0,0.022722821682691574
13.0,0.02177608199417591
14.0,0.020972637459635735
15.0,0.020210163667798042
16.0,0.019622959196567535
18.0,0.018503684550523758
20.0,0.017494861036539078
22.0,0.016560517251491547
24.0,0.01587413065135479
26.0,0.015340836718678474
28.0,0.014883189462125301
30.0,0.014415496028959751
32.0,0.013987131416797638
36.0,0.013122335076332092
40.0,0.012088119052350521
44.0,0.011099494062364101
48.0,0.010190238244831562
52.0,0.009564464911818504
56.0,0.008788150735199451
60.0,0.008321413770318031
64.0,0.008453442715108395
72.0,0.008006821386516094
80.0,0.007838941179215908
88.0,0.007178375497460365
96.0,0.006099059246480465
104.0,0.004716439638286829
112.0,0.004218123387545347
120.0,0.004373479634523392
128.0,0.004476580303162336
144.0,0.0031779110431671143
160.0,0.0015430606435984373
176.0,0.0003577893949113786
192.0,-0.000639939506072551
208.0,-0.0002617393620312214
224.0,-0.0019825007766485214
240.0,-0.002440530341118574
256.0,-0.001225778367370367
288.0,-0.0010849172249436378
320.0,-0.0013346336781978607
352.0,-0.0004615850339177996
384.0,0.0004393197305034846
416.0,0.0008167438791133463
448.0,-0.0004116376512683928
480.0,0.00013430901162791997
512.0,0.0001404781942255795
576.0,0.001666603609919548
640.0,0.0028604059480130672
704.0,0.0023129358887672424
768.0,0.0007812523981556296
832.0,-0.000352281000232324
896.0,-0.0007964957621879876
960.0,-0.0006361865089274943
1024.0,-0.0004309742071200162
1152.0,0.0011884195264428854
1280.0,0.0020730099640786648
1408.0,-0.0011924266582354903
1536.0,0.0004457100585568696
1664.0,0.0016084641683846712
1792.0,0.00038907770067453384
1920.0,0.0016913996078073978
2048.0,-0.0002531290811020881
2304.0,-0.0020899642258882523
2560.0,0.0017777776811271906
2816.0,-0.000622689665760845
3072.0,0.0002945996820926666
3328.0,0.0003044769400730729
3584.0,-0.00028352285153232515
3840.0,-0.0012232367880642414
4096.0,-0.001946771051734686
4608.0,-0.0017875805497169495
5120.0,-0.000754796143155545
5632.0,-0.0016350451624020934
6144.0,-0.0017832010053098202
6656.0,-0.0004027770773973316
7168.0,0.0008764818776398897
7680.0,0.0005414457409642637
8192.0,0.0008133854134939611
end
