version,3.0
numOfCh,1
type,point
parent_name,19e3e_1dot0-0dot01
ch_type,1_1
kcount,1
numberNandB,1
brightnessNandB,1
carpet pos,0
pc,0
Time (ms),CH1 Auto-Correlation
1.0,0.04169008135795593
2.0,0.038667961955070496
3.0,0.03607198968529701
4.0,0.03388749063014984
5.0,0.03181804344058037
6.0,0.029956145212054253
7.0,0.028293924406170845
8.0,0.02679488994181156
9.0,0.025334184989333153
10.0,0.024120578542351723
11.0,0.02300206385552883
12.0,0.021977342665195465
13.0,0.020990043878555298
14.0,0.02003776654601097
15.0,0.019242161884903908
16.0,0.018449692055583
18.0,0.017079083248972893
20.0,0.015938775613904
22.0,0.01492242980748415
24.0,0.014067662879824638
26.0,0.013461355119943619
28.0,0.013050292618572712
30.0,0.012661964632570744
32.0,0.012192313559353352
36.0,0.011338607408106327
40.0,0.010344699956476688
44.0,0.009395213797688484
48.0,0.008579025976359844
52.0,0.00762036582455039
56.0,0.006798626855015755
60.0,0.006646380294114351
64.0,0.006601362489163876
72.0,0.005882246885448694
80.0,0.005097041837871075
88.0,0.004242100287228823
96.0,0.003926582168787718
104.0,0.004053313285112381
112.0,0.0035008625127375126
120.0,0.003528008470311761
128.0,0.003766994923353195
144.0,0.003334652865305543
160.0,0.0022488159593194723
176.0,0.0020644175820052624
192.0,0.002312440425157547
208.0,0.0010987925343215466
224.0,0.0003055165580008179
240.0,0.00039118321728892624
256.0,-0.000440820847870782
288.0,-0.0020445669069886208
320.0,-0.0019688282627612352
352.0,-0.00017587274487596005
384.0,0.0016786761116236448
416.0,0.003020276315510273
448.0,0.0025179681833833456
480.0,0.002783021191135049
512.0,0.0031856694258749485
576.0,0.0030525175388902426
640.0,0.0035760169848799706
704.0,0.00011620335862971842
768.0,-0.0017682055477052927
832.0,-0.003457010257989168
896.0,-0.0027766067069023848
960.0,-0.0021941501181572676
1024.0,0.0008632686804048717
1152.0,0.000687936379108578
1280.0,-0.0013136540073901415
1408.0,-0.0012983102351427078
1536.0,0.0006295817438513041
1664.0,0.0015828838804736733
1792.0,0.0007553022005595267
1920.0,-0.0013436662266030908
2048.0,-0.0006069123046472669
2304.0,-0.0007898294716142118
2560.0,-0.002338132821023464
2816.0,-0.0002010336465900764
3072.0,-0.0013488351833075285
3328.0,0.000626126944553107
3584.0,0.00037586118560284376
3840.0,0.0009551956900395453
4096.0,0.00022690878540743142
4608.0,0.00142436393070966
5120.0,0.0019442925695329905
5632.0,-0.0012029267381876707
6144.0,-0.0030550023075193167
6656.0,-0.0004108153807464987
7168.0,-0.0006687086424790323
7680.0,-0.001753663644194603
8192.0,-0.001614054897800088
end
