version,3.0
numOfCh,1
type,point
parent_name,19e3e_1dot0-0dot01
ch_type,1_1
kcount,1
numberNandB,1
brightnessNandB,1
carpet pos,0
pc,0
Time (ms),CH1 Auto-Correlation
1.0,0.04026876762509346
2.0,0.03720426559448242
3.0,0.03455791622400284
4.0,0.03232743963599205
5.0,0.030355624854564667
6.0,0.028528952971100807
7.0,0.026963818818330765
8.0,0.02556520327925682
9.0,0.02428309991955757
10.0,0.023245463147759438
11.0,0.022286733612418175
12.0,0.021437179297208786
13.0,0.020669886842370033
14.0,0.019886530935764313
15.0,0.01915929466485977
16.0,0.018452251330018044
18.0,0.017249049618840218
20.0,0.01615842431783676
22.0,0.015230882912874222
24.0,0.014305497519671917
26.0,0.013404017314314842
28.0,0.012689829804003239
30.0,0.011928996071219444
32.0,0.011312520131468773
36.0,0.010476881638169289
40.0,0.009116089902818203
44.0,0.008028198033571243
48.0,0.0072615258395671844
52.0,0.006769634783267975
56.0,0.006326572969555855
60.0,0.005738553125411272
64.0,0.005587474443018436
72.0,0.0056642829440534115
80.0,0.005119957495480776
88.0,0.004015871323645115
96.0,0.0031205173581838608
104.0,0.0021867617033421993
112.0,0.0019651225302368402
120.0,0.001505160005763173
128.0,0.0014518552925437689
144.0,0.0010723910527303815
160.0,0.00017717425362206995
176.0,-0.00021898429258726537
192.0,-0.0009459935827180743
208.0,-0.0011351507855579257
224.0,-0.0010912251891568303
240.0,-0.001223227009177208
256.0,-0.0011569943744689226
288.0,-0.0019391534151509404
320.0,-0.003035654779523611
352.0,-0.0033557822462171316
384.0,-0.0017800797941163182
416.0,-0.001493612420745194
448.0,-0.000893326650839299
480.0,-0.0014275454450398684
512.0,-0.0009343133424408734
576.0,-0.0002474878856446594
640.0,-0.000815525942016393
704.0,-5.127418990014121e-05
768.0,-0.0005247152294032276
832.0,-0.00010622571426210925
896.0,-0.0001578413648530841
960.0,-0.0008756914176046848
1024.0,0.0008829146390780807
1152.0,0.0015231119468808174
1280.0,0.0008769973646849394
1408.0,-0.00029294705018401146
1536.0,-0.0030352803878486156
1664.0,0.0010198275558650494
1792.0,0.0011943773133680224
1920.0,0.001166496193036437
2048.0,-0.0006958625745028257
2304.0,2.3913626137073152e-05
2560.0,-0.00014001176168676466
2816.0,-0.0005181417800486088
3072.0,0.0013986522099003196
3328.0,0.0005625528283417225
3584.0,0.000904226501006633
3840.0,-0.00115685083437711
4096.0,-0.0014778310433030128
4608.0,0.0022326037287712097
5120.0,-0.0015055667608976364
5632.0,0.00036053810617886484
6144.0,-0.0017432685708627105
6656.0,0.0008948606555350125
7168.0,-0.0007053615991026163
7680.0,0.0004457759205251932
8192.0,0.0008633334073238075
end
