version,3.0
numOfCh,1
type,point
parent_name,19e3e_1dot0-0dot01
ch_type,1_1
kcount,1
numberNandB,1
brightnessNandB,1
carpet pos,0
pc,0
Time (ms),CH1 Auto-Correlation
1.0,0.06392593681812286
2.0,0.06056002527475357
3.0,0.057605352252721786
4.0,0.05502255633473396
5.0,0.05254759266972542
6.0,0.050267335027456284
7.0,0.04827335104346275
8.0,0.04642628878355026
9.0,0.044702962040901184
10.0,0.04310755431652069
11.0,0.04159196838736534
12.0,0.04015176743268967
13.0,0.03879018500447273
14.0,0.037459686398506165
15.0,0.03628702461719513
16.0,0.035182543098926544
18.0,0.03298899158835411
20.0,0.03192580118775368
22.0,0.031102534383535385
24.0,0.03043319471180439
26.0,0.029913179576396942
28.0,0.029447171837091446
30.0,0.029017629101872444
32.0,0.028558244928717613
36.0,0.027511347085237503
40.0,0.02666720747947693
44.0,0.026032686233520508
48.0,0.025599930435419083
52.0,0.025339391082525253
56.0,0.02510109171271324
60.0,0.025138970464468002
64.0,0.02489185705780983
72.0,0.024325154721736908
80.0,0.023701831698417664
88.0,0.022962050512433052
96.0,0.022379927337169647
104.0,0.02137800306081772
112.0,0.020843734964728355
120.0,0.01986759528517723
128.0,0.02024146169424057
144.0,0.020317528396844864
160.0,0.018610985949635506
176.0,0.01828772947192192
192.0,0.018819360062479973
208.0,0.01853998191654682
224.0,0.016151024028658867
240.0,0.014872271567583084
256.0,0.014186637476086617
288.0,0.012022660113871098
320.0,0.010705804452300072
352.0,0.011148344725370407
384.0,0.012337512336671352
416.0,0.011652201414108276
448.0,0.011153161525726318
480.0,0.00933410320430994
512.0,0.008923657238483429
576.0,0.007958580739796162
640.0,0.007848321460187435
704.0,0.005979829002171755
768.0,0.005494198761880398
832.0,0.004229065030813217
896.0,0.0034661281388252974
960.0,0.0030171514954417944
1024.0,0.002104467712342739
1152.0,1.4212420865078457e-05
1280.0,-0.0026180651038885117
1408.0,-0.0024052606895565987
1536.0,-0.001947664888575673
1664.0,-0.0022723390720784664
1792.0,-0.002617430407553911
1920.0,-0.0021741699893027544
2048.0,-0.002438511000946164
2304.0,-0.005823065526783466
2560.0,-0.000481950759422034
2816.0,0.0002147513732779771
3072.0,0.0013663099380210042
3328.0,0.0014347117394208908
3584.0,0.0008503134013153613
3840.0,0.00022536398319061846
4096.0,0.001198165351524949
4608.0,0.0009118986199609935
5120.0,-0.00222322647459805
5632.0,-0.0014453056501224637
6144.0,-0.0025256655644625425
6656.0,-0.0002330436691408977
7168.0,-0.0013735528336837888
7680.0,-0.005826135165989399
8192.0,-0.0030603702180087566
end
