version,3.0
numOfCh,1
type,point
parent_name,19e3e_1dot0-0dot01
ch_type,1_1
kcount,1
numberNandB,1
brightnessNandB,1
carpet pos,0
pc,0
Time (ms),CH1 Auto-Correlation
1.0,0.03843627870082855
2.0,0.03515972942113876
3.0,0.03252888470888138
4.0,0.030223427340388298
5.0,0.02815106138586998
6.0,0.026298271492123604
7.0,0.0246573556214571
8.0,0.023216672241687775
9.0,0.02198161371052265
10.0,0.02093210071325302
11.0,0.020031094551086426
12.0,0.019192015752196312
13.0,0.018443990498781204
14.0,0.017700131982564926
15.0,0.01708199270069599
16.0,0.016509493812918663
18.0,0.015457316301763058
20.0,0.014619486406445503
22.0,0.013598131947219372
24.0,0.012748513370752335
26.0,0.012083468958735466
28.0,0.01163831539452076
30.0,0.011281631886959076
32.0,0.010869162157177925
36.0,0.00980388093739748
40.0,0.008919461630284786
44.0,0.007934547029435635
48.0,0.006919205188751221
52.0,0.006347863934934139
56.0,0.005955338943749666
60.0,0.005281105171889067
64.0,0.004613591358065605
72.0,0.003910931292921305
80.0,0.003506674198433757
88.0,0.0037056105211377144
96.0,0.003593282075598836
104.0,0.0024286650586873293
112.0,0.0017843778477981687
120.0,0.0014166979817673564
128.0,0.0012340882094576955
144.0,0.0009959067683666945
160.0,0.0006387283792719245
176.0,0.000648116460070014
192.0,0.0008738847682252526
208.0,0.0011395554756745696
224.0,0.0011109694605693221
240.0,0.0012562171323224902
256.0,0.0018099682638421655
288.0,0.0012023997260257602
320.0,0.0013655873481184244
352.0,0.0006430819630622864
384.0,0.0006671042065136135
416.0,0.0012913423124700785
448.0,0.0017125249141827226
480.0,0.0011877408251166344
512.0,0.0008180249133147299
576.0,-0.0005065649165771902
640.0,-0.0018475287361070514
704.0,-0.0030045625753700733
768.0,-0.0026680410373955965
832.0,-0.001175953191705048
896.0,-0.0006426108302548528
960.0,-0.0005124090821482241
1024.0,-0.0027231210842728615
1152.0,-0.0013591842725872993
1280.0,0.0010203988058492541
1408.0,-6.589823897229508e-05
1536.0,0.0007428550743497908
1664.0,-0.0009386921883560717
1792.0,-7.917312905192375e-05
1920.0,0.0013688430190086365
2048.0,-0.0021524340845644474
2304.0,0.0014067217707633972
2560.0,0.0008980764541774988
2816.0,0.000925992673728615
3072.0,-0.00010883861250476912
3328.0,-0.001224329462274909
3584.0,-0.00017913627380039543
3840.0,0.0005191523814573884
4096.0,0.0009791480842977762
4608.0,-0.0005947567406110466
5120.0,-0.0008030366734601557
5632.0,0.00047392171109095216
6144.0,-0.00022212920885067433
6656.0,-0.0005136352847330272
7168.0,-0.0010495755122974515
7680.0,-0.0017457946669310331
8192.0,0.0015767934964969754
end
