version,3.0
numOfCh,1
type,point
parent_name,19e3e_1dot0-0dot01
ch_type,1_1
kcount,1
numberNandB,1
brightnessNandB,1
carpet pos,0
pc,0
Time (ms),CH1 Auto-Correlation
1.0,0.050931014120578766
2.0,0.047873131930828094
3.0,0.04526035487651825
4.0,0.04298862814903259
5.0,0.0409674234688282
6.0,0.03924395143985748
7.0,0.03759804368019104
8.0,0.03616658225655556
9.0,0.034858446568250656
10.0,0.03366343677043915
11.0,0.03265636786818504
12.0,0.0317123718559742
13.0,0.03094513714313507
14.0,0.03023608587682247
15.0,0.029584435746073723
16.0,0.028973648324608803
18.0,0.027772460132837296
20.0,0.026486745104193687
22.0,0.02535426989197731
24.0,0.024478713050484657
26.0,0.023599157109856606
28.0,0.022808348760008812
30.0,0.022127896547317505
32.0,0.021512651816010475
36.0,0.019997287541627884
40.0,0.01865505613386631
44.0,0.01747126132249832
48.0,0.016589775681495667
52.0,0.015693096444010735
56.0,0.014922304078936577
60.0,0.014576274901628494
64.0,0.01431097649037838
72.0,0.013887964189052582
80.0,0.01307086180895567
88.0,0.012202505953609943
96.0,0.011054414324462414
104.0,0.010837874375283718
112.0,0.010724293999373913
120.0,0.009847699664533138
128.0,0.008311837911605835
144.0,0.007961714640259743
160.0,0.007778747472912073
176.0,0.007689991034567356
192.0,0.007620932534337044
208.0,0.007417036686092615
224.0,0.007027802988886833
240.0,0.006461712531745434
256.0,0.00608790572732687
288.0,0.0074825347401201725
320.0,0.00792878121137619
352.0,0.005963529460132122
384.0,0.004528938326984644
416.0,0.005044156219810247
448.0,0.0037475889548659325
480.0,0.0036718265619128942
512.0,0.003990996163338423
576.0,0.0032323747873306274
640.0,0.00044188901665620506
704.0,0.003633558750152588
768.0,0.0032454149331897497
832.0,0.0013342692982405424
896.0,0.00043825802276842296
960.0,-0.00038891422445885837
1024.0,0.00036787622957490385
1152.0,-0.002508542500436306
1280.0,-0.0010066095273941755
1408.0,-0.0007544005638919771
1536.0,0.0004346318310126662
1664.0,0.0018188246758654714
1792.0,0.00017928172019310296
1920.0,0.0002485143195372075
2048.0,0.0008973694639280438
2304.0,0.000513802282512188
2560.0,0.0009222932276315987
2816.0,-0.002214119303971529
3072.0,0.000580682186409831
3328.0,-0.0020387691911309958
3584.0,-0.0008867162396200001
3840.0,-0.0016332741361111403
4096.0,-0.0033565089106559753
4608.0,0.0011201533488929272
5120.0,0.0015051505761221051
5632.0,-5.610318839899264e-05
6144.0,-0.000830185366794467
6656.0,0.00039388498407788575
7168.0,0.002346691908314824
7680.0,0.0013890548143535852
8192.0,-4.6078639570623636e-05
end
