version,3.0
numOfCh,1
type,point
parent_name,19e3e_1dot0-0dot01
ch_type,1_1
kcount,1
numberNandB,1
brightnessNandB,1
carpet pos,0
pc,0
Time (ms),CH1 Auto-Correlation
1.0,0.05412010848522186
2.0,0.05114782601594925
3.0,0.04862912744283676
4.0,0.04642094299197197
5.0,0.044502437114715576
6.0,0.04276478290557861
7.0,0.04130230471491814
8.0,0.039928045123815536
9.0,0.03867410123348236
10.0,0.03760560601949692
11.0,0.036615416407585144
12.0,0.035750631242990494
13.0,0.03490401431918144
14.0,0.034173864871263504
15.0,0.033370595425367355
16.0,0.032549213618040085
18.0,0.0309514831751585
20.0,0.029441511258482933
22.0,0.028233887627720833
24.0,0.027362029999494553
26.0,0.026543335989117622
28.0,0.02567175216972828
30.0,0.024869592860341072
32.0,0.024073241278529167
36.0,0.022717975080013275
40.0,0.02158348821103573
44.0,0.020618679001927376
48.0,0.01924077235162258
52.0,0.017910761758685112
56.0,0.016727229580283165
60.0,0.015580220147967339
64.0,0.014580213464796543
72.0,0.013888935558497906
80.0,0.013319423422217369
88.0,0.01376431155949831
96.0,0.013937106356024742
104.0,0.013721724040806293
112.0,0.012715544551610947
120.0,0.011895178817212582
128.0,0.011659602634608746
144.0,0.010675298050045967
160.0,0.01072221715003252
176.0,0.010406136512756348
192.0,0.010122478008270264
208.0,0.009665412828326225
224.0,0.009002400562167168
240.0,0.00925526488572359
256.0,0.008656725287437439
288.0,0.007056955248117447
320.0,0.005103456322103739
352.0,0.004708906169980764
384.0,0.006624003406614065
416.0,0.0054363710805773735
448.0,0.005958484951406717
480.0,0.00570277264341712
512.0,0.004398537799715996
576.0,0.004763935226947069
640.0,0.004079119767993689
704.0,0.005430676508694887
768.0,0.0032465385738760233
832.0,0.0008944740402512252
896.0,-0.00022522860672324896
960.0,0.000518893706612289
1024.0,0.0006169920670799911
1152.0,0.0007141142268665135
1280.0,0.0003793200012296438
1408.0,-1.1667294529615901e-05
1536.0,0.0002881008549593389
1664.0,0.002397688804194331
1792.0,0.0019852665718644857
1920.0,0.0008026573341339827
2048.0,0.0016332326922565699
2304.0,-8.020705718081445e-05
2560.0,-0.0023471801541745663
2816.0,-0.004756199195981026
3072.0,-0.00398787297308445
3328.0,0.0009489893564023077
3584.0,0.0024193632416427135
3840.0,0.001574031193740666
4096.0,0.0002914134820457548
4608.0,-0.003058339236304164
5120.0,-0.0011051599867641926
5632.0,0.00010439791367389262
6144.0,-0.0016216124640777707
6656.0,-0.002750444458797574
7168.0,-0.0023324398789554834
7680.0,0.0012598807225003839
8192.0,-0.0006952223484404385
end
