version,3.0
numOfCh,1
type,point
parent_name,19e3e_1dot0-0dot01
ch_type,1_1
kcount,1
numberNandB,1
brightnessNandB,1
carpet pos,0
pc,0
Time (ms),CH1 Auto-Correlation
1.0,0.04152422025799751
2.0,0.038243453949689865
3.0,0.035461049526929855
4.0,0.033020779490470886
5.0,0.030902886763215065
6.0,0.029046813026070595
7.0,0.027471741661429405
8.0,0.02607453055679798
9.0,0.024882972240447998
10.0,0.023874858394265175
11.0,0.0228932723402977
12.0,0.021978702396154404
13.0,0.021158216521143913
14.0,0.020392656326293945
15.0,0.01969018392264843
16.0,0.018976673483848572
18.0,0.017705220729112625
20.0,0.016486525535583496
22.0,0.015493477694690228
24.0,0.0144734438508749
26.0,0.01363892201334238
28.0,0.012831618078052998
30.0,0.012167122215032578
32.0,0.011512999422848225
36.0,0.010349586606025696
40.0,0.009624678641557693
44.0,0.009006444364786148
48.0,0.008253781124949455
52.0,0.0077270944602787495
56.0,0.007516519166529179
60.0,0.007395401131361723
64.0,0.007095919921994209
72.0,0.005964240059256554
80.0,0.0050481935031712055
88.0,0.00465869577601552
96.0,0.004683477804064751
104.0,0.004300552885979414
112.0,0.0039061270654201508
120.0,0.0035557018127292395
128.0,0.0031634049955755472
144.0,0.003217562334612012
160.0,0.0028565083630383015
176.0,0.002707608276978135
192.0,0.002007479779422283
208.0,0.0016180591192096472
224.0,0.0010793786495923996
240.0,0.0013655532384291291
256.0,0.001248345011845231
288.0,0.0005002194666303694
320.0,0.0008517207461409271
352.0,0.0014141295105218887
384.0,0.0010553462198004127
416.0,0.0017056340584531426
448.0,9.639620839152485e-05
480.0,-0.0007291260990314186
512.0,-0.0009529527160339057
576.0,-0.0003788300964515656
640.0,0.0008969347109086812
704.0,0.0002443838457111269
768.0,-0.00010070556163555011
832.0,-0.0004189161991234869
896.0,1.9998005882371217e-05
960.0,0.0010931610595434904
1024.0,0.0003426724870223552
1152.0,0.0002851898898370564
1280.0,0.0008508917526341975
1408.0,0.0002445675490889698
1536.0,-0.0005404470139183104
1664.0,0.0008201034506782889
1792.0,0.0015443338779732585
1920.0,0.002227944089099765
2048.0,-0.0020047505386173725
2304.0,-0.0008719416218809783
2560.0,0.0008462174446322024
2816.0,-0.0004861334746237844
3072.0,-8.42090230435133e-05
3328.0,-0.0014099656837061048
3584.0,-0.0008374166209250689
3840.0,-0.0014065045397728682
4096.0,0.0008139732526615262
4608.0,0.0015019052661955357
5120.0,-0.0005373626481741667
5632.0,0.00022935672313906252
6144.0,-0.0012662160443142056
6656.0,-0.001359049929305911
7168.0,0.0004232283681631088
7680.0,-0.001049134647473693
8192.0,-0.0004462486831471324
end
