version,3.0
numOfCh,1
type,point
parent_name,484af_0dot08-0dot01
ch_type,1_1
kcount,1
numberNandB,1
brightnessNandB,1
carpet pos,0
pc,0
Time (ms),CH1 Auto-Correlation
1.0,0.10466226190328598
2.0,0.10337288677692413
3.0,0.10202805697917938
4.0,0.10070524364709854
5.0,0.09940007328987122
6.0,0.09801924228668213
7.0,0.09655915945768356
8.0,0.09507960081100464
9.0,0.09364310652017593
10.0,0.0922311469912529
11.0,0.09081348031759262
12.0,0.08939972519874573
13.0,0.08796854317188263
14.0,0.08654279261827469
15.0,0.08507663011550903
16.0,0.08359269797801971
18.0,0.08056299388408661
20.0,0.0776468962430954
22.0,0.07452650368213654
24.0,0.07147066295146942
26.0,0.06858380138874054
28.0,0.06569280475378036
30.0,0.06292275339365005
32.0,0.060078635811805725
36.0,0.054427389055490494
40.0,0.048696331679821014
44.0,0.043357450515031815
48.0,0.03828447312116623
52.0,0.03340339660644531
56.0,0.0286441370844841
60.0,0.025175517424941063
64.0,0.02460668236017227
72.0,0.023777661845088005
80.0,0.02377868816256523
88.0,0.024115806445479393
96.0,0.024071380496025085
104.0,0.023944826796650887
112.0,0.023467153310775757
120.0,0.02280120737850666
128.0,0.022233737632632256
144.0,0.019901761785149574
160.0,0.019124727696180344
176.0,0.01888241618871689
192.0,0.01860518753528595
208.0,0.01785251870751381
224.0,0.0171029195189476
240.0,0.016254907473921776
256.0,0.016200155019760132
288.0,0.013091967441141605
320.0,0.011343100108206272
352.0,0.01198247354477644
384.0,0.011428543366491795
416.0,0.007785663940012455
448.0,0.0027695295866578817
480.0,-0.000409266707720235
512.0,-0.002018153900280595
576.0,0.0035110488533973694
640.0,0.003278300864621997
704.0,0.0001901911455206573
768.0,-0.0018536086427047849
832.0,-0.0012015891261398792
896.0,0.00030957849230617285
960.0,0.004666052293032408
1024.0,0.006255635526031256
1152.0,0.006565697956830263
1280.0,0.005079376976937056
1408.0,9.853413939708844e-05
1536.0,-0.005905956029891968
1664.0,-0.007024180609732866
1792.0,-0.0064532640390098095
1920.0,-0.006415450479835272
2048.0,-0.005360090639442205
2304.0,-0.002639307640492916
2560.0,-0.004370146431028843
2816.0,-0.0034284929279237986
3072.0,0.0029292693361639977
3328.0,0.0018555604619905353
3584.0,-0.00028161038062535226
3840.0,-0.005767855793237686
4096.0,-0.0004540934751275927
4608.0,-0.005355788394808769
5120.0,-0.005084483418613672
5632.0,0.009228570386767387
6144.0,-0.0007547906134277582
6656.0,-0.003176836995407939
7168.0,0.002907081739977002
end
