version,3.0
numOfCh,1
type,point
parent_name,484af_0dot08-0dot01
ch_type,1_1
kcount,1
numberNandB,1
brightnessNandB,1
carpet pos,0
pc,0
Time (ms),CH1 Auto-Correlation
1.0,0.03589645028114319
2.0,0.03562353551387787
3.0,0.035355094820261
4.0,0.0350777842104435
5.0,0.03480824455618858
6.0,0.03454291447997093
7.0,0.034270308911800385
8.0,0.034002937376499176
9.0,0.03375691920518875
10.0,0.0335206463932991
11.0,0.03329414874315262
12.0,0.03308040648698807
13.0,0.032862961292266846
14.0,0.03263825178146362
15.0,0.03241743892431259
16.0,0.032197434455156326
18.0,0.03178361430764198
20.0,0.03138117492198944
22.0,0.030994726344943047
24.0,0.030618727207183838
26.0,0.03023318573832512
28.0,0.029845749959349632
30.0,0.029470041394233704
32.0,0.029096132144331932
36.0,0.028378624469041824
40.0,0.02767818607389927
44.0,0.02700336091220379
48.0,0.02637002244591713
52.0,0.025776514783501625
56.0,0.025238528847694397
60.0,0.024728789925575256
64.0,0.024198226630687714
72.0,0.022963669151067734
80.0,0.021807894110679626
88.0,0.020719079300761223
96.0,0.019575444981455803
104.0,0.0182304996997118
112.0,0.01701711118221283
120.0,0.015989618375897408
128.0,0.015052655711770058
144.0,0.013496401719748974
160.0,0.012030414305627346
176.0,0.01046556606888771
192.0,0.009053329937160015
208.0,0.007921901531517506
224.0,0.006851484999060631
240.0,0.00572177255526185
256.0,0.0044553824700415134
288.0,0.0022804036270827055
320.0,0.0013471601996570826
352.0,0.0011073413770645857
384.0,0.0016160765662789345
416.0,0.002491788240149617
448.0,0.003084953175857663
480.0,0.0034608154091984034
512.0,0.0034166406840085983
576.0,0.003213685005903244
640.0,0.002885428024455905
704.0,0.002743711229413748
768.0,0.0023916312493383884
832.0,0.0008326277602463961
896.0,0.0004611566837411374
960.0,0.001138449995778501
1024.0,0.002216522814705968
1152.0,0.0062968735583126545
1280.0,0.002978901844471693
1408.0,-0.005682234652340412
1536.0,-0.008726945146918297
1664.0,-0.008648009039461613
1792.0,-0.007966847158968449
1920.0,-0.0071023013442754745
2048.0,-0.006081946659833193
2304.0,-0.007710863370448351
2560.0,-0.010230633430182934
2816.0,-0.0070727113634347916
3072.0,-0.0038780621252954006
3328.0,0.002445648657158017
3584.0,0.002078137593343854
3840.0,0.001988810021430254
4096.0,0.007939073257148266
4608.0,0.009034054353833199
5120.0,0.005819043144583702
5632.0,-0.0019989057909697294
6144.0,-0.004572246223688126
6656.0,-0.00790056400001049
7168.0,-0.0001934945903485641
7680.0,-0.003862654557451606
8192.0,0.0002600562002044171
end
