version,3.0
numOfCh,1
type,point
parent_name,484af_0dot08-0dot01
ch_type,1_1
kcount,1
numberNandB,1
brightnessNandB,1
carpet pos,0
pc,0
Time (ms),CH1 Auto-Correlation
1.0,0.03513050451874733
2.0,0.03487250953912735
3.0,0.03461919352412224
4.0,0.03437323868274689
5.0,0.03413368761539459
6.0,0.033894043415784836
7.0,0.03365683928132057
8.0,0.033419109880924225
9.0,0.033182717859745026
10.0,0.03295049071311951
11.0,0.0327250137925148
12.0,0.03250259533524513
13.0,0.032280899584293365
14.0,0.03206423297524452
15.0,0.03186063468456268
16.0,0.03166849538683891
18.0,0.03130017966032028
20.0,0.030943255871534348
22.0,0.03058961033821106
24.0,0.030240599066019058
26.0,0.029888229444622993
28.0,0.029543133452534676
30.0,0.02920573018491268
32.0,0.028878765180706978
36.0,0.02824457734823227
40.0,0.027660701423883438
44.0,0.02710813656449318
48.0,0.026526499539613724
52.0,0.02594646066427231
56.0,0.0254028532654047
60.0,0.02487829141318798
64.0,0.02435801550745964
72.0,0.02335653267800808
80.0,0.02246018685400486
88.0,0.021624723449349403
96.0,0.02084834687411785
104.0,0.02005886472761631
112.0,0.019289055839180946
120.0,0.018518414348363876
128.0,0.017823640257120132
144.0,0.016407694667577744
160.0,0.015170227736234665
176.0,0.014087853021919727
192.0,0.013154343701899052
208.0,0.011995373293757439
224.0,0.01050992775708437
240.0,0.009074728935956955
256.0,0.0077654533088207245
288.0,0.005442109890282154
320.0,0.0032222920563071966
352.0,0.001773612224496901
384.0,0.000859786057844758
416.0,0.0002260119072161615
448.0,-0.00017109494365286082
480.0,-0.0006070893141441047
512.0,-0.001178123289719224
576.0,-0.0022490459959954023
640.0,-0.003353615291416645
704.0,-0.004305016249418259
768.0,-0.00499765994027257
832.0,-0.004652944393455982
896.0,-0.00443127378821373
960.0,-0.0034520153421908617
1024.0,-0.0022241822443902493
1152.0,0.0023080147802829742
1280.0,0.004908355884253979
1408.0,0.004400228150188923
1536.0,0.002552914200350642
1664.0,0.0009052069508470595
1792.0,-0.00021188824030105025
1920.0,-0.0005862562684342265
2048.0,-0.0011858833022415638
2304.0,-0.00013729331840295345
2560.0,0.0008746704552322626
2816.0,0.001078882021829486
3072.0,0.003011060878634453
3328.0,0.0027942450251430273
3584.0,-0.0012116418220102787
3840.0,-0.004225955810397863
4096.0,-0.0075452602468431
4608.0,-0.0015773498453199863
5120.0,0.00019961580983363092
5632.0,-0.0005336794420145452
6144.0,0.001029378967359662
6656.0,0.0022416459396481514
7168.0,-0.001865468337200582
7680.0,0.0037446250207722187
8192.0,0.002665090374648571
end
