version,3.0
numOfCh,1
type,point
parent_name,484af_0dot08-0dot01
ch_type,1_1
kcount,1
numberNandB,1
brightnessNandB,1
carpet pos,0
pc,0
Time (ms),CH1 Auto-Correlation
1.0,0.03971054404973984
2.0,0.0392926000058651
3.0,0.03889710083603859
4.0,0.03851557895541191
5.0,0.038146283477544785
6.0,0.037768129259347916
7.0,0.03741668537259102
8.0,0.037092216312885284
9.0,0.036763034760951996
10.0,0.03643526881933212
11.0,0.03609545901417732
12.0,0.035756248980760574
13.0,0.035426340997219086
14.0,0.035096459090709686
15.0,0.03476759046316147
16.0,0.03444572538137436
18.0,0.033862318843603134
20.0,0.03330838307738304
22.0,0.03279321268200874
24.0,0.03229468688368797
26.0,0.031808167695999146
28.0,0.031291283667087555
30.0,0.030759206041693687
32.0,0.030268995091319084
36.0,0.029192721471190453
40.0,0.02823726460337639
44.0,0.02735336497426033
48.0,0.026547793298959732
52.0,0.02583872526884079
56.0,0.025097988545894623
60.0,0.024236753582954407
64.0,0.023471729829907417
72.0,0.02225908637046814
80.0,0.02139502577483654
88.0,0.020619383081793785
96.0,0.01985352858901024
104.0,0.019176900386810303
112.0,0.01850718818604946
120.0,0.01773511990904808
128.0,0.01699369214475155
144.0,0.015864497050642967
160.0,0.015106507577002048
176.0,0.014815809205174446
192.0,0.01471495721489191
208.0,0.014654475264251232
224.0,0.014719635248184204
240.0,0.014396375976502895
256.0,0.0136704808101058
288.0,0.0125278877094388
320.0,0.011453399434685707
352.0,0.009940283372998238
384.0,0.008063825778663158
416.0,0.006319443229585886
448.0,0.005593084264546633
480.0,0.004987920168787241
512.0,0.0046165636740624905
576.0,0.0033740473445504904
640.0,0.002740232739597559
704.0,0.0018378503154963255
768.0,0.0008389968425035477
832.0,-0.0009900956647470593
896.0,-0.0015049705980345607
960.0,-0.0002715980226639658
1024.0,-0.0008531243074685335
1152.0,-0.002782281721010804
1280.0,0.0013654556823894382
1408.0,0.0028436551801860332
1536.0,0.001511604292318225
1664.0,0.0020090551115572453
1792.0,0.004875520709902048
1920.0,0.005684845149517059
2048.0,0.00809604860842228
2304.0,0.0024861281272023916
2560.0,-0.0034221652895212173
2816.0,-0.007027347106486559
3072.0,-0.007625022903084755
3328.0,-0.005872498732060194
3584.0,-0.008354158140718937
3840.0,-0.005057994741946459
4096.0,-8.78112950886134e-06
4608.0,0.0014252724358811975
5120.0,-0.0063121565617620945
5632.0,-0.0008139719138853252
6144.0,0.005011128727346659
6656.0,0.009339028038084507
7168.0,-0.0063478779047727585
7680.0,-0.0035565306898206472
8192.0,-0.0005016342038288713
end
