version,3.0
numOfCh,1
type,point
parent_name,484af_0dot08-0dot01
ch_type,1_1
kcount,1
numberNandB,1
brightnessNandB,1
carpet pos,0
pc,0
Time (ms),CH1 Auto-Correlation
1.0,0.04340894892811775
2.0,0.04312283918261528
3.0,0.04284222424030304
4.0,0.04256533086299896
5.0,0.04229392483830452
6.0,0.04202086105942726
7.0,0.04175438731908798
8.0,0.041490621864795685
9.0,0.041236281394958496
10.0,0.04098176583647728
11.0,0.04073045402765274
12.0,0.0404847152531147
13.0,0.040241219103336334
14.0,0.039995212107896805
15.0,0.03975353389978409
16.0,0.039506640285253525
18.0,0.03902998939156532
20.0,0.038581300526857376
22.0,0.038156937807798386
24.0,0.03774530440568924
26.0,0.03735266253352165
28.0,0.03696256875991821
30.0,0.03656567633152008
32.0,0.036194853484630585
36.0,0.0354873463511467
40.0,0.03483493998646736
44.0,0.03425084799528122
48.0,0.03370538353919983
52.0,0.0331428162753582
56.0,0.03260541334748268
60.0,0.03210897371172905
64.0,0.031688060611486435
72.0,0.030992424115538597
80.0,0.030274074524641037
88.0,0.02948363497853279
96.0,0.02856982871890068
104.0,0.027643796056509018
112.0,0.026778845116496086
120.0,0.025978771969676018
128.0,0.02512231096625328
144.0,0.023469451814889908
160.0,0.022213617339730263
176.0,0.0213009063154459
192.0,0.020425619557499886
208.0,0.019507844001054764
224.0,0.01861078292131424
240.0,0.01798834837973118
256.0,0.017476802691817284
288.0,0.01605852134525776
320.0,0.014649920165538788
352.0,0.014372525736689568
384.0,0.014607647433876991
416.0,0.014277216978371143
448.0,0.013627123087644577
480.0,0.012720567174255848
512.0,0.012548437342047691
576.0,0.011533261276781559
640.0,0.011734255589544773
704.0,0.010926789604127407
768.0,0.010302936658263206
832.0,0.008958980441093445
896.0,0.007829144597053528
960.0,0.005655413959175348
1024.0,0.003913627937436104
1152.0,-0.001336455112323165
1280.0,-0.004568052943795919
1408.0,-0.00633183354511857
1536.0,-0.005917076952755451
1664.0,-0.006010925397276878
1792.0,-0.0074264355935156345
1920.0,-0.010455546900629997
2048.0,-0.01064476277679205
2304.0,-0.007271443028002977
2560.0,-0.002444240264594555
2816.0,0.0001721453882055357
3072.0,0.0035298445727676153
3328.0,0.006875752471387386
3584.0,0.006053911056369543
3840.0,0.0072389994747936726
4096.0,0.006706974934786558
4608.0,-0.002658881712704897
5120.0,-0.007937154732644558
5632.0,-0.009074394591152668
6144.0,-0.009319623932242393
6656.0,-0.0028937675524502993
7168.0,-0.010219142772257328
7680.0,-0.005136311985552311
8192.0,-0.004759339150041342
end
