version,3.0
numOfCh,1
type,point
parent_name,484af_0dot08-0dot01
ch_type,1_1
kcount,1
numberNandB,1
brightnessNandB,1
carpet pos,0
pc,0
Time (ms),CH1 Auto-Correlation
1.0,0.036212898790836334
2.0,0.035942912101745605
3.0,0.03567264974117279
4.0,0.03541224077343941
5.0,0.03515065088868141
6.0,0.03489477559924126
7.0,0.034640539437532425
8.0,0.03439481928944588
9.0,0.03415769338607788
10.0,0.03391920402646065
11.0,0.033687442541122437
12.0,0.03345717117190361
13.0,0.03322897106409073
14.0,0.03301118686795235
15.0,0.032786451280117035
16.0,0.03255900740623474
18.0,0.03210650011897087
20.0,0.03166608139872551
22.0,0.03123508393764496
24.0,0.030812574550509453
26.0,0.030391890555620193
28.0,0.029964875429868698
30.0,0.029555784538388252
32.0,0.029143381863832474
36.0,0.028346097096800804
40.0,0.02754821628332138
44.0,0.026733463630080223
48.0,0.02597605623304844
52.0,0.02529190108180046
56.0,0.024651499465107918
60.0,0.02402673289179802
64.0,0.0234792809933424
72.0,0.022567156702280045
80.0,0.02177555300295353
88.0,0.021086962893605232
96.0,0.020537136122584343
104.0,0.020057134330272675
112.0,0.01968170888721943
120.0,0.01931273750960827
128.0,0.018947681412100792
144.0,0.018295004963874817
160.0,0.017644910141825676
176.0,0.016849828884005547
192.0,0.015739861875772476
208.0,0.01448419876396656
224.0,0.013070649467408657
240.0,0.011435986496508121
256.0,0.009812719188630581
288.0,0.007066955324262381
320.0,0.005907247308641672
352.0,0.005680064205080271
384.0,0.004862283356487751
416.0,0.003127794712781906
448.0,0.0013811421813443303
480.0,0.0004357972939033061
512.0,-2.5124601961579174e-05
576.0,-0.0013715941458940506
640.0,-0.002026634057983756
704.0,-0.003483411157503724
768.0,-0.0041298409923911095
832.0,-0.005010348744690418
896.0,-0.003423952730372548
960.0,-0.000978881143964827
1024.0,-0.0005949340993538499
1152.0,0.0016097802435979247
1280.0,0.0006991057307459414
1408.0,-0.0023862584494054317
1536.0,-0.003707009134814143
1664.0,-0.004300254862755537
1792.0,-0.00213001505471766
1920.0,-0.0010814049746841192
2048.0,-0.0020912981126457453
2304.0,0.0013573686592280865
2560.0,0.0028885644860565662
2816.0,-0.0013970338040962815
3072.0,-0.0005717909662052989
3328.0,-0.004655678290873766
3584.0,-0.0070726629346609116
3840.0,-0.009933268651366234
4096.0,-0.010770746506750584
4608.0,-0.0027999598532915115
5120.0,0.0027847704477608204
5632.0,0.006212133448570967
6144.0,-0.0019185624551028013
6656.0,0.00335693103261292
7168.0,-0.0006477563874796033
7680.0,0.006326249334961176
8192.0,0.003335688030347228
end
