version,3.0
numOfCh,1
type,point
parent_name,484af_0dot08-0dot01
ch_type,1_1
kcount,1
numberNandB,1
brightnessNandB,1
carpet pos,0
pc,0
Time (ms),CH1 Auto-Correlation
1.0,0.047272875905036926
2.0,0.04699978232383728
3.0,0.04672865942120552
4.0,0.04646407067775726
5.0,0.04620575159788132
6.0,0.045955196022987366
7.0,0.04570727050304413
8.0,0.04546523466706276
9.0,0.045233163982629776
10.0,0.04500902071595192
11.0,0.044793616980314255
12.0,0.04458203166723251
13.0,0.044380072504282
14.0,0.04417455941438675
15.0,0.04398082196712494
16.0,0.043789010494947433
18.0,0.04340309649705887
20.0,0.043014124035835266
22.0,0.04260799288749695
24.0,0.04221922159194946
26.0,0.04184176027774811
28.0,0.04147372394800186
30.0,0.0411149300634861
32.0,0.040759578347206116
36.0,0.040104884654283524
40.0,0.039502959698438644
44.0,0.038907527923583984
48.0,0.03836178034543991
52.0,0.03783959150314331
56.0,0.037345994263887405
60.0,0.036891866475343704
64.0,0.036474619060754776
72.0,0.035721663385629654
80.0,0.03508011996746063
88.0,0.034519899636507034
96.0,0.03406696021556854
104.0,0.033622052520513535
112.0,0.0331297442317009
120.0,0.03266960009932518
128.0,0.03217662498354912
144.0,0.03124803490936756
160.0,0.03052193857729435
176.0,0.030099235475063324
192.0,0.029892977327108383
208.0,0.02960158698260784
224.0,0.02927991934120655
240.0,0.028813516721129417
256.0,0.028275754302740097
288.0,0.02677718736231327
320.0,0.02468700148165226
352.0,0.022214511409401894
384.0,0.020051484927535057
416.0,0.018709324300289154
448.0,0.018265986815094948
480.0,0.016923746094107628
512.0,0.015211597084999084
576.0,0.011526660993695259
640.0,0.008442072197794914
704.0,0.0076183439232409
768.0,0.006056446116417646
832.0,0.0038550281897187233
896.0,0.003486337373033166
960.0,0.0033135958947241306
1024.0,0.004090036265552044
1152.0,0.004871477372944355
1280.0,0.004550376906991005
1408.0,0.003734317608177662
1536.0,0.0034227187279611826
1664.0,0.0028344392776489258
1792.0,0.002111268462613225
1920.0,-0.0005663155461661518
2048.0,-0.0017839812207967043
2304.0,-0.0029704621993005276
2560.0,-0.00701947882771492
2816.0,-0.01388909388333559
3072.0,-0.013585887849330902
3328.0,-0.007359723560512066
3584.0,-0.000104599712358322
3840.0,0.003884827019646764
4096.0,-0.0014802650548517704
4608.0,-0.017951129004359245
5120.0,-0.016050321981310844
5632.0,-0.009444956667721272
6144.0,-0.009228571318089962
6656.0,-0.002599874045699835
7168.0,0.0038108783774077892
7680.0,0.013779920525848866
8192.0,0.007665595505386591
end
