version,3.0
numOfCh,1
type,point
parent_name,484af_0dot08-0dot01
ch_type,1_1
kcount,1
numberNandB,1
brightnessNandB,1
carpet pos,0
pc,0
Time (ms),CH1 Auto-Correlation
1.0,0.03401068225502968
2.0,0.0337451733648777
3.0,0.03347693756222725
4.0,0.03320989012718201
5.0,0.03294543921947479
6.0,0.032686494290828705
7.0,0.03243657574057579
8.0,0.032194990664720535
9.0,0.031962476670742035
10.0,0.03172607347369194
11.0,0.03149358183145523
12.0,0.03126687929034233
13.0,0.03103557974100113
14.0,0.03080960549414158
15.0,0.030590172857046127
16.0,0.030367916449904442
18.0,0.029921062290668488
20.0,0.029472753405570984
22.0,0.02902180142700672
24.0,0.028569770976901054
26.0,0.02812882326543331
28.0,0.027708277106285095
30.0,0.027302267029881477
32.0,0.02689766138792038
36.0,0.026116931810975075
40.0,0.025406628847122192
44.0,0.02475491166114807
48.0,0.024110395461320877
52.0,0.023448307067155838
56.0,0.022768110036849976
60.0,0.02208557538688183
64.0,0.021428491920232773
72.0,0.020169148221611977
80.0,0.019039921462535858
88.0,0.018050163984298706
96.0,0.017158206552267075
104.0,0.016275309026241302
112.0,0.015409189276397228
120.0,0.0145697807893157
128.0,0.013853204436600208
144.0,0.012589647434651852
160.0,0.011364324018359184
176.0,0.01036943681538105
192.0,0.009477853775024414
208.0,0.00883396901190281
224.0,0.00832472275942564
240.0,0.008053192868828773
256.0,0.007947402074933052
288.0,0.007787203881889582
320.0,0.0077852411195635796
352.0,0.007229183334857225
384.0,0.0064500803127884865
416.0,0.006110438611358404
448.0,0.006488095968961716
480.0,0.006685509346425533
512.0,0.006797022186219692
576.0,0.0052798353135585785
640.0,0.002545808907598257
704.0,0.0010914518497884274
768.0,0.0007704493473283947
832.0,4.668357632908737e-06
896.0,-0.0012948772637173533
960.0,-0.0011036490323022008
1024.0,-0.0003158744366373867
1152.0,0.004879522603005171
1280.0,0.0033034468069672585
1408.0,0.00012465125473681837
1536.0,-9.163844515569508e-05
1664.0,-0.000528136792127043
1792.0,-0.0027964534237980843
1920.0,-0.0010697724064812064
2048.0,3.160287087666802e-05
2304.0,0.00040230603190138936
2560.0,0.0009127102675847709
2816.0,-0.002476427471265197
3072.0,-0.002122345846146345
3328.0,0.0014190052170306444
3584.0,0.004967069253325462
3840.0,0.0035428274422883987
4096.0,-0.0003448044881224632
4608.0,0.00031780265271663666
5120.0,-0.000865161360707134
5632.0,-0.003510831156745553
6144.0,-0.003756657475605607
6656.0,-0.004032899159938097
7168.0,-0.0008108292240649462
7680.0,-0.004591423086822033
8192.0,-0.0035365542862564325
end
