version,3.0
numOfCh,1
type,point
parent_name,484af_0dot08-0dot01
ch_type,1_1
kcount,1
numberNandB,1
brightnessNandB,1
carpet pos,0
pc,0
Time (ms),CH1 Auto-Correlation
1.0,0.04935925826430321
2.0,0.04907265678048134
3.0,0.048792049288749695
4.0,0.04852024093270302
5.0,0.04824909567832947
6.0,0.047978006303310394
7.0,0.04770950973033905
8.0,0.0474432110786438
9.0,0.047188106924295425
10.0,0.04693419486284256
11.0,0.04668884724378586
12.0,0.04644099622964859
13.0,0.04619324579834938
14.0,0.0459536612033844
15.0,0.04570364952087402
16.0,0.04544666409492493
18.0,0.044964030385017395
20.0,0.044481005519628525
22.0,0.04399661719799042
24.0,0.04353615269064903
26.0,0.04309379681944847
28.0,0.04265059903264046
30.0,0.042229700833559036
32.0,0.041818082332611084
36.0,0.04103138670325279
40.0,0.04028351977467537
44.0,0.0395699068903923
48.0,0.038899268954992294
52.0,0.038278255611658096
56.0,0.03764738142490387
60.0,0.03705038130283356
64.0,0.03648209944367409
72.0,0.03542335331439972
80.0,0.034447409212589264
88.0,0.0335649698972702
96.0,0.032717861235141754
104.0,0.03186507523059845
112.0,0.031040463596582413
120.0,0.030207548290491104
128.0,0.029405785724520683
144.0,0.027868932113051414
160.0,0.026587534695863724
176.0,0.025719424709677696
192.0,0.025138776749372482
208.0,0.02479184977710247
224.0,0.024356279522180557
240.0,0.023870117962360382
256.0,0.023196076974272728
288.0,0.02151019498705864
320.0,0.01967795565724373
352.0,0.018022308126091957
384.0,0.016800805926322937
416.0,0.016174456104636192
448.0,0.015836108475923538
480.0,0.016138648614287376
512.0,0.016823463141918182
576.0,0.017193740233778954
640.0,0.016484085470438004
704.0,0.01546938344836235
768.0,0.0146484375
832.0,0.0130508067086339
896.0,0.010904715396463871
960.0,0.010369149036705494
1024.0,0.01062232255935669
1152.0,0.008666775189340115
1280.0,0.008402721025049686
1408.0,0.0056694187223911285
1536.0,0.0021626786328852177
1664.0,-0.000970645050983876
1792.0,0.00011874147458001971
1920.0,-0.0010835656430572271
2048.0,-0.0028810782823711634
2304.0,-0.010078152641654015
2560.0,-0.016652580350637436
2816.0,-0.015793941915035248
3072.0,-0.017557961866259575
3328.0,-0.021915635094046593
3584.0,-0.019802236929535866
3840.0,-0.019752122461795807
4096.0,-0.015890665352344513
4608.0,-0.008539286442101002
5120.0,-0.0014825841644778848
5632.0,0.0043816217221319675
6144.0,0.007706743665039539
6656.0,0.013968908227980137
7168.0,0.004754220601171255
7680.0,0.003434418933466077
8192.0,-0.0018446044996380806
end
