version,3.0
numOfCh,1
type,point
parent_name,484af_0dot08-0dot01
ch_type,1_1
kcount,1
numberNandB,1
brightnessNandB,1
carpet pos,0
pc,0
Time (ms),CH1 Auto-Correlation
1.0,0.031043844297528267
2.0,0.03072074055671692
3.0,0.030412806198000908
4.0,0.03011533059179783
5.0,0.029800252988934517
6.0,0.029485706239938736
7.0,0.02918393909931183
8.0,0.028878970071673393
9.0,0.028575897216796875
10.0,0.02828298881649971
11.0,0.027999065816402435
12.0,0.027729399502277374
13.0,0.027453282848000526
14.0,0.027181699872016907
15.0,0.02689998224377632
16.0,0.026621202006936073
18.0,0.02608746476471424
20.0,0.025577088817954063
22.0,0.02507956139743328
24.0,0.024609042331576347
26.0,0.02415275014936924
28.0,0.02371441386640072
30.0,0.023284681141376495
32.0,0.022882744669914246
36.0,0.02203906886279583
40.0,0.02130773849785328
44.0,0.020684296265244484
48.0,0.020102063193917274
52.0,0.01950180158019066
56.0,0.018888551741838455
60.0,0.01824619621038437
64.0,0.017645446583628654
72.0,0.01654847525060177
80.0,0.015477489680051804
88.0,0.014238087460398674
96.0,0.013034609146416187
104.0,0.011939985677599907
112.0,0.01116853579878807
120.0,0.010590260848402977
128.0,0.010170088149607182
144.0,0.009017318487167358
160.0,0.0072069731540977955
176.0,0.005435800179839134
192.0,0.0038944948464632034
208.0,0.0029918730724602938
224.0,0.0024540398735553026
240.0,0.001988919684663415
256.0,0.001517273485660553
288.0,0.000922724197153002
320.0,-3.705220660776831e-05
352.0,-0.0008921244880184531
384.0,-0.0014595759566873312
416.0,-0.0018505387706682086
448.0,-0.0010925838723778725
480.0,-0.0005793595337308943
512.0,-3.658010973595083e-05
576.0,0.0009198515908792615
640.0,0.0018648200202733278
704.0,0.0010459399782121181
768.0,-0.0008786524413153529
832.0,-0.001823910279199481
896.0,-0.0023057006765156984
960.0,-0.0009883010061457753
1024.0,0.0009537333389744163
1152.0,0.001088275806978345
1280.0,0.0013150695012882352
1408.0,0.0019360887818038464
1536.0,0.0027576826978474855
1664.0,0.001814525225199759
1792.0,-0.0011736516607925296
1920.0,-0.006200733594596386
2048.0,-0.003868483705446124
2304.0,-0.002104826970025897
2560.0,0.005619515664875507
2816.0,0.008320573717355728
3072.0,0.004809443838894367
3328.0,-0.0018046182813122869
3584.0,-0.003225217340514064
3840.0,-0.0030767919961363077
4096.0,0.0009000565623864532
4608.0,-0.0039055158849805593
5120.0,-0.002016837475821376
5632.0,-0.001074673724360764
6144.0,-0.0010727912886068225
6656.0,-0.004675357136875391
7168.0,-0.007953048683702946
end
