version,3.0
numOfCh,1
type,point
parent_name,484af_0dot08-0dot01
ch_type,1_1
kcount,1
numberNandB,1
brightnessNandB,1
carpet pos,0
pc,0
Time (ms),CH1 Auto-Correlation
1.0,0.18340075016021729
2.0,0.18080784380435944
3.0,0.17811337113380432
4.0,0.17537853121757507
5.0,0.17256538569927216
6.0,0.16969095170497894
7.0,0.1668129563331604
8.0,0.1639195680618286
9.0,0.16105221211910248
10.0,0.1581210047006607
11.0,0.15512463450431824
12.0,0.15211041271686554
13.0,0.1491076499223709
14.0,0.14614513516426086
15.0,0.1432170569896698
16.0,0.14020578563213348
18.0,0.13148413598537445
20.0,0.12546338140964508
22.0,0.11943559348583221
24.0,0.11317501962184906
26.0,0.10680536180734634
28.0,0.10051693767309189
30.0,0.09413939714431763
32.0,0.08788896352052689
36.0,0.07596215605735779
40.0,0.06439267098903656
44.0,0.052746932953596115
48.0,0.041612327098846436
52.0,0.030783113092184067
56.0,0.025413716211915016
60.0,0.024753233417868614
64.0,0.023990172892808914
72.0,0.022600093856453896
80.0,0.02120155096054077
88.0,0.019904078915715218
96.0,0.018421411514282227
104.0,0.016962824389338493
112.0,0.01567424274981022
120.0,0.014758710749447346
128.0,0.013558667153120041
144.0,0.011832770891487598
160.0,0.01088362094014883
176.0,0.010531428270041943
192.0,0.010580080561339855
208.0,0.008884032256901264
224.0,0.007093748543411493
240.0,0.005398459266871214
256.0,0.0038318715523928404
288.0,0.0007120752707123756
320.0,0.0014949528267607093
352.0,0.004760656971484423
384.0,0.006134975701570511
416.0,0.006543626077473164
448.0,0.006607198156416416
480.0,0.006053584162145853
512.0,0.0064827143214643
576.0,0.005074087530374527
640.0,0.005625306628644466
704.0,0.0011357673211023211
768.0,-0.0001742590102367103
832.0,0.0009089542436413467
896.0,0.0009453659877181053
960.0,0.0031894065905362368
1024.0,0.00012945363414473832
1152.0,-0.0020641651935875416
1280.0,-0.003910164348781109
1408.0,-0.0037024416960775852
1536.0,-0.0023876752238720655
1664.0,-0.0026906884741038084
1792.0,-0.003439258085563779
1920.0,-0.0009819114347919822
2048.0,0.000240324588958174
2304.0,0.0022722394205629826
2560.0,0.0045905034057796
2816.0,0.0066543868742883205
3072.0,0.004369643051177263
3328.0,0.0036553244572132826
3584.0,0.004284921567887068
3840.0,0.00344944023527205
4096.0,0.002213409636169672
4608.0,-0.0031339863780885935
5120.0,-0.01026811171323061
5632.0,-0.007836242206394672
6144.0,0.00024426222080364823
6656.0,0.0060339136980473995
7168.0,0.005189432296901941
7680.0,-0.009937104769051075
8192.0,-0.005810049828141928
end
