version,3.0
numOfCh,1
type,point
parent_name,484af_0dot08-0dot01
ch_type,1_1
kcount,1
numberNandB,1
brightnessNandB,1
carpet pos,0
pc,0
Time (ms),CH1 Auto-Correlation
1.0,0.029025105759501457
2.0,0.028772667050361633
3.0,0.028527086600661278
4.0,0.028295597061514854
5.0,0.02806865982711315
6.0,0.027850059792399406
7.0,0.027637992054224014
8.0,0.027423884719610214
9.0,0.027214881032705307
10.0,0.02700640633702278
11.0,0.02680027484893799
12.0,0.026594381779432297
13.0,0.026391418650746346
14.0,0.026198578998446465
15.0,0.02600877359509468
16.0,0.025824790820479393
18.0,0.02544131502509117
20.0,0.02505357749760151
22.0,0.02467997558414936
24.0,0.024320611730217934
26.0,0.023979078978300095
28.0,0.023657286539673805
30.0,0.02335219644010067
32.0,0.023062990978360176
36.0,0.0225263312458992
40.0,0.022023320198059082
44.0,0.02156001329421997
48.0,0.02111307717859745
52.0,0.020688634365797043
56.0,0.020275041460990906
60.0,0.01981446146965027
64.0,0.019374573603272438
72.0,0.018585706129670143
80.0,0.017789872363209724
88.0,0.01698310114443302
96.0,0.016297755762934685
104.0,0.015666328370571136
112.0,0.015041717328131199
120.0,0.014351293444633484
128.0,0.013640645891427994
144.0,0.012611553072929382
160.0,0.011695398017764091
176.0,0.010629219934344292
192.0,0.009837782941758633
208.0,0.009433029219508171
224.0,0.009159516543149948
240.0,0.008826552890241146
256.0,0.008568119257688522
288.0,0.007850879803299904
320.0,0.006568629760295153
352.0,0.0051400004886090755
384.0,0.0043236869387328625
416.0,0.003714591031894088
448.0,0.0032871710136532784
480.0,0.003259549383074045
512.0,0.0028363007586449385
576.0,0.0026395446620881557
640.0,0.00336070847697556
704.0,0.0038794230204075575
768.0,0.003503252984955907
832.0,0.003099240129813552
896.0,0.002987536136060953
960.0,0.0035431126598268747
1024.0,0.003233491675928235
1152.0,0.0022297787945717573
1280.0,0.00013004647917114198
1408.0,0.0005506884772330523
1536.0,0.00014371682482305914
1664.0,0.00023685573250986636
1792.0,-0.0011072235647588968
1920.0,3.426895636948757e-05
2048.0,0.0011034687049686909
2304.0,0.002730711828917265
2560.0,0.002034734934568405
2816.0,0.0004668720648624003
3072.0,0.002708438551053405
3328.0,0.00544109707698226
3584.0,0.0027816402725875378
3840.0,-0.0018177612219005823
4096.0,-0.0036541398148983717
4608.0,-0.003592856926843524
5120.0,-0.007684457115828991
5632.0,-0.004129481967538595
6144.0,-0.004631552845239639
6656.0,-0.0023810770362615585
7168.0,-0.0035626599565148354
7680.0,-0.004511695820838213
8192.0,-0.005978342145681381
end
