version,3.0
numOfCh,1
type,point
parent_name,484af_0dot08-0dot01
ch_type,1_1
kcount,1
numberNandB,1
brightnessNandB,1
carpet pos,0
pc,0
Time (ms),CH1 Auto-Correlation
1.0,0.07790140807628632
2.0,0.07700321078300476
3.0,0.07611225545406342
4.0,0.07523255050182343
5.0,0.07433635741472244
6.0,0.07350087910890579
7.0,0.07267151772975922
8.0,0.07171184569597244
9.0,0.07076025754213333
10.0,0.06982535123825073
11.0,0.06898218393325806
12.0,0.068092942237854
13.0,0.0671883150935173
14.0,0.06634502857923508
15.0,0.06548905372619629
16.0,0.06452205032110214
18.0,0.061995141208171844
20.0,0.060426417738199234
22.0,0.058986540883779526
24.0,0.057558324187994
26.0,0.056045789271593094
28.0,0.05453453212976456
30.0,0.05299122631549835
32.0,0.051441676914691925
36.0,0.046979740262031555
40.0,0.0442834198474884
44.0,0.04181654751300812
48.0,0.039020661264657974
52.0,0.03632175549864769
56.0,0.03364596515893936
60.0,0.031404439359903336
64.0,0.030037200078368187
72.0,0.02980024367570877
80.0,0.029721878468990326
88.0,0.029323291033506393
96.0,0.02870367281138897
104.0,0.027718130499124527
112.0,0.026814308017492294
120.0,0.02608483098447323
128.0,0.025364693254232407
144.0,0.0236421637237072
160.0,0.023204177618026733
176.0,0.02226567640900612
192.0,0.021486015990376472
208.0,0.020921772345900536
224.0,0.020082054659724236
240.0,0.018672343343496323
256.0,0.01750096119940281
288.0,0.015192237682640553
320.0,0.01265410054475069
352.0,0.011122459545731544
384.0,0.010157796554267406
416.0,0.011642392724752426
448.0,0.012573798187077045
480.0,0.01147643756121397
512.0,0.010943771339952946
576.0,0.012039992958307266
640.0,0.011379490606486797
704.0,0.012123211286962032
768.0,0.011832368560135365
832.0,0.012715233489871025
896.0,0.012756126932799816
960.0,0.013297825120389462
1024.0,0.010922749526798725
1152.0,0.008844955824315548
1280.0,0.00796941015869379
1408.0,0.009148010984063148
1536.0,0.008593703620135784
1664.0,0.007534249220043421
1792.0,0.0056254444643855095
1920.0,0.004571935627609491
2048.0,0.005539469886571169
2304.0,0.005146845709532499
2560.0,-0.0012922233436256647
2816.0,-0.003581885015591979
3072.0,-0.0005264226929284632
3328.0,-2.797527668008115e-05
3584.0,-0.002404851606115699
3840.0,-0.0023109393659979105
4096.0,-0.005063568241894245
4608.0,-0.007983539253473282
5120.0,-0.009203244931995869
5632.0,-0.006988069042563438
6144.0,-0.00782066024839878
6656.0,-0.007482366170734167
7168.0,-0.00766408909112215
7680.0,-0.008059835992753506
8192.0,-0.008803967386484146
end
