version,3.0
numOfCh,1
type,point
parent_name,484af_0dot08-0dot01
ch_type,1_1
kcount,1
numberNandB,1
brightnessNandB,1
carpet pos,0
pc,0
Time (ms),CH1 Auto-Correlation
1.0,0.37798362970352173
2.0,0.37477681040763855
3.0,0.37156686186790466
4.0,0.36826175451278687
5.0,0.3648543357849121
6.0,0.36106637120246887
7.0,0.35728004574775696
8.0,0.3534606993198395
9.0,0.3497459888458252
10.0,0.34613415598869324
11.0,0.34255045652389526
12.0,0.3391043245792389
13.0,0.3355555236339569
14.0,0.33212295174598694
15.0,0.32878366112709045
16.0,0.32551100850105286
18.0,0.3163908123970032
20.0,0.30982816219329834
22.0,0.30338144302368164
24.0,0.2973332703113556
26.0,0.2912081778049469
28.0,0.28494903445243835
30.0,0.2785893976688385
32.0,0.2720912992954254
36.0,0.25798270106315613
40.0,0.24351295828819275
44.0,0.22945372760295868
48.0,0.21756379306316376
52.0,0.2072417140007019
56.0,0.19667914509773254
60.0,0.18629570305347443
64.0,0.17633448541164398
72.0,0.15143658220767975
80.0,0.12310519069433212
88.0,0.0985938087105751
96.0,0.07431267201900482
104.0,0.04868002608418465
112.0,0.02250472642481327
120.0,0.02167304791510105
128.0,0.02123102732002735
144.0,0.023368630558252335
160.0,0.024798719212412834
176.0,0.02648872695863247
192.0,0.027360502630472183
208.0,0.027756592258810997
224.0,0.026937011629343033
240.0,0.027343377470970154
256.0,0.02623787522315979
288.0,0.022950077429413795
320.0,0.018734892830252647
352.0,0.014555535279214382
384.0,0.008613270707428455
416.0,0.008282537572085857
448.0,0.010300850495696068
480.0,0.011577646248042583
512.0,0.012048395350575447
576.0,0.006383903790265322
640.0,0.0020772505085915327
704.0,0.0070573752745985985
768.0,0.014585858210921288
832.0,0.019286511465907097
896.0,0.019898276776075363
960.0,0.009741685353219509
1024.0,0.00449626287445426
1152.0,0.005044539459049702
1280.0,0.006352419964969158
1408.0,0.00656021386384964
1536.0,0.005742968991398811
1664.0,0.007464682217687368
1792.0,0.00503577571362257
1920.0,0.00037360479473136365
2048.0,-0.0023430578876286745
2304.0,-0.0012731218012049794
2560.0,0.010571252554655075
2816.0,0.0028408716898411512
3072.0,0.018494192510843277
3328.0,0.007691462989896536
3584.0,-0.0032831612043082714
3840.0,0.003702474059537053
4096.0,0.0028232778422534466
end
