version,3.0
numOfCh,1
type,point
parent_name,484af_0dot08-0dot01
ch_type,1_1
kcount,1
numberNandB,1
brightnessNandB,1
carpet pos,0
pc,0
Time (ms),CH1 Auto-Correlation
1.0,0.0356714092195034
2.0,0.03538675233721733
3.0,0.035110954195261
4.0,0.03484201058745384
5.0,0.034582097083330154
6.0,0.03433208167552948
7.0,0.03408721461892128
8.0,0.03384785354137421
9.0,0.03360690921545029
10.0,0.03337271884083748
11.0,0.033143945038318634
12.0,0.03291674330830574
13.0,0.03269463777542114
14.0,0.032475318759679794
15.0,0.032257623970508575
16.0,0.032041359692811966
18.0,0.031612496823072433
20.0,0.031213797628879547
22.0,0.030839063227176666
24.0,0.030479850247502327
26.0,0.0301313865929842
28.0,0.029782013967633247
30.0,0.029440119862556458
32.0,0.029090523719787598
36.0,0.02840135246515274
40.0,0.027732761576771736
44.0,0.027131294831633568
48.0,0.026562783867120743
52.0,0.026000840589404106
56.0,0.025449691340327263
60.0,0.024921365082263947
64.0,0.02444041147828102
72.0,0.023551225662231445
80.0,0.022705648094415665
88.0,0.021957196295261383
96.0,0.02126556821167469
104.0,0.0206122025847435
112.0,0.020098183304071426
120.0,0.019655421376228333
128.0,0.019207816570997238
144.0,0.018280843272805214
160.0,0.01749269664287567
176.0,0.01674787700176239
192.0,0.016050029546022415
208.0,0.015285245142877102
224.0,0.014542769640684128
240.0,0.01392296701669693
256.0,0.013342191465198994
288.0,0.011837059631943703
320.0,0.010663848370313644
352.0,0.009821625426411629
384.0,0.009771779179573059
416.0,0.009614651091396809
448.0,0.009383071213960648
480.0,0.008997082710266113
512.0,0.008986487053334713
576.0,0.00907319039106369
640.0,0.008600267581641674
704.0,0.008951314724981785
768.0,0.009179824963212013
832.0,0.0094861825928092
896.0,0.009337583556771278
960.0,0.009136337786912918
1024.0,0.007351965643465519
1152.0,0.005322437267750502
1280.0,0.0036098172422498465
1408.0,0.0032301920000463724
1536.0,0.0054373787716031075
1664.0,0.006249282509088516
1792.0,0.005755509249866009
1920.0,0.004689554218202829
2048.0,0.004880662076175213
2304.0,0.001398850348778069
2560.0,0.0006667706184089184
2816.0,0.0012215987080708146
3072.0,0.0010358771542087197
3328.0,-0.0017517501255497336
3584.0,-0.001828902866691351
3840.0,3.9591919630765915e-05
4096.0,-0.0006836415850557387
4608.0,-0.0028981545474380255
5120.0,0.002598543418571353
5632.0,0.0010385409696027637
6144.0,-0.0012307761935517192
6656.0,-0.001959922257810831
7168.0,-0.004956343211233616
7680.0,-0.002982931211590767
8192.0,-0.006964100059121847
end
