version,3.0
numOfCh,1
type,point
parent_name,484af_0dot08-0dot01
ch_type,1_1
kcount,1
numberNandB,1
brightnessNandB,1
carpet pos,0
pc,0
Time (ms),CH1 Auto-Correlation
1.0,0.04142981022596359
2.0,0.04112539067864418
3.0,0.040822625160217285
4.0,0.04053367301821709
5.0,0.040252167731523514
6.0,0.03996553644537926
7.0,0.039691999554634094
8.0,0.03942950814962387
9.0,0.03917161747813225
10.0,0.03891542926430702
11.0,0.038667019456624985
12.0,0.038436442613601685
13.0,0.03821740671992302
14.0,0.037982065230607986
15.0,0.03773943707346916
16.0,0.03751302510499954
18.0,0.037063803523778915
20.0,0.03661375120282173
22.0,0.036166224628686905
24.0,0.03574236482381821
26.0,0.0353560596704483
28.0,0.034996941685676575
30.0,0.034659240394830704
32.0,0.03435146063566208
36.0,0.03374001383781433
40.0,0.03314879909157753
44.0,0.03258214518427849
48.0,0.03201194107532501
52.0,0.03141789883375168
56.0,0.03087209165096283
60.0,0.030345574021339417
64.0,0.029775531962513924
72.0,0.0286589153110981
80.0,0.027618544176220894
88.0,0.02662891149520874
96.0,0.02574022300541401
104.0,0.02489287592470646
112.0,0.024165023118257523
120.0,0.02346295304596424
128.0,0.022738242521882057
144.0,0.02127385325729847
160.0,0.01974785141646862
176.0,0.018655866384506226
192.0,0.01784350723028183
208.0,0.016626786440610886
224.0,0.015384936705231667
240.0,0.014630136080086231
256.0,0.013964956626296043
288.0,0.012225335463881493
320.0,0.010775420814752579
352.0,0.009860697202384472
384.0,0.009147245436906815
416.0,0.008325939066708088
448.0,0.007472198456525803
480.0,0.006666382309049368
512.0,0.006081408821046352
576.0,0.005605495534837246
640.0,0.006710523273795843
704.0,0.006759054958820343
768.0,0.006036560982465744
832.0,0.006708361208438873
896.0,0.008351286873221397
960.0,0.008884796872735023
1024.0,0.008389394730329514
1152.0,0.006356022786349058
1280.0,0.006746577098965645
1408.0,0.003930380102247
1536.0,-0.00015121970500331372
1664.0,-0.001243430539034307
1792.0,0.0015735166380181909
1920.0,0.004742056597024202
2048.0,0.006629037205129862
2304.0,-0.0031883560586720705
2560.0,-0.008134960196912289
2816.0,-0.0013655234361067414
3072.0,0.0012207773979753256
3328.0,0.0005460738902911544
3584.0,-0.013177653774619102
3840.0,-0.010817201808094978
4096.0,-0.007643652614206076
4608.0,-0.008457712829113007
5120.0,-0.009520303457975388
5632.0,-0.018144775182008743
6144.0,-0.01143709011375904
6656.0,-0.007719440385699272
7168.0,-0.008982386440038681
7680.0,-0.0001657823595451191
8192.0,0.02747301757335663
end
