version,3.0
numOfCh,1
type,point
parent_name,484af_0dot08-0dot01
ch_type,1_1
kcount,1
numberNandB,1
brightnessNandB,1
carpet pos,0
pc,0
Time (ms),CH1 Auto-Correlation
1.0,0.039576489478349686
2.0,0.03929763287305832
3.0,0.03902044519782066
4.0,0.03875605762004852
5.0,0.038496196269989014
6.0,0.03825050964951515
7.0,0.03801312670111656
8.0,0.03777662664651871
9.0,0.03753765672445297
10.0,0.03731176629662514
11.0,0.037094682455062866
12.0,0.036874573677778244
13.0,0.03665949031710625
14.0,0.0364459753036499
15.0,0.03623074293136597
16.0,0.036016713827848434
18.0,0.03558201342821121
20.0,0.03517951816320419
22.0,0.034800950437784195
24.0,0.03444085642695427
26.0,0.03409222513437271
28.0,0.03376534953713417
30.0,0.03343771770596504
32.0,0.03312745317816734
36.0,0.03251642361283302
40.0,0.03194090723991394
44.0,0.03141620755195618
48.0,0.030904602259397507
52.0,0.03038625977933407
56.0,0.0298861525952816
60.0,0.029368774965405464
64.0,0.028887562453746796
72.0,0.02793802134692669
80.0,0.02710207924246788
88.0,0.026260338723659515
96.0,0.02544522099196911
104.0,0.024694815278053284
112.0,0.024032196030020714
120.0,0.02344208024442196
128.0,0.02283179759979248
144.0,0.021414080634713173
160.0,0.02015315368771553
176.0,0.019076045602560043
192.0,0.018182940781116486
208.0,0.017257975414395332
224.0,0.016621241346001625
240.0,0.016193212941288948
256.0,0.015799421817064285
288.0,0.01504556741565466
320.0,0.01444175187498331
352.0,0.013731828890740871
384.0,0.012976450845599174
416.0,0.011959872208535671
448.0,0.011383334174752235
480.0,0.01100220624357462
512.0,0.010418875142931938
576.0,0.008483936078846455
640.0,0.006724165286868811
704.0,0.004459250718355179
768.0,0.0020557197276502848
832.0,0.001333917025476694
896.0,0.0016590182203799486
960.0,0.0029677667189389467
1024.0,0.002838367596268654
1152.0,0.0022788289934396744
1280.0,0.0003439252614043653
1408.0,0.00021119689336046576
1536.0,0.0009530166862532496
1664.0,-0.0013430039398372173
1792.0,-0.002268395386636257
1920.0,0.0015522026224061847
2048.0,0.0037146711256355047
2304.0,-0.0008177480194717646
2560.0,-0.0028784831520169973
2816.0,-0.005631104577332735
3072.0,-0.005647422280162573
3328.0,-0.008213571272790432
3584.0,-0.006650392897427082
3840.0,-0.004039696883410215
4096.0,-0.001195220393128693
4608.0,-0.003992799669504166
5120.0,-0.007275578565895557
5632.0,-0.008385362103581429
6144.0,-0.0046931300312280655
6656.0,-0.0014237273717299104
7168.0,0.005840976722538471
7680.0,0.0019154531182721257
8192.0,0.0007016603485681117
end
