version,3.0
numOfCh,1
type,point
parent_name,800-cuts
ch_type,1_1
kcount,1
numberNandB,1
brightnessNandB,1
carpet pos,0
pc,0
Time (ms),CH1 Auto-Correlation
1.0,0.01975269429385662
2.0,0.018324024975299835
3.0,0.01700027473270893
4.0,0.01578361541032791
5.0,0.014636495150625706
6.0,0.013598867692053318
7.0,0.012631617486476898
8.0,0.011796694248914719
9.0,0.011014231480658054
10.0,0.01026867050677538
11.0,0.009555697441101074
12.0,0.008897528983652592
13.0,0.008267268538475037
14.0,0.007639472838491201
15.0,0.007079294882714748
16.0,0.006539583671838045
18.0,0.0055727045983076096
20.0,0.004694880452007055
22.0,0.0038735619746148586
24.0,0.0031381361186504364
26.0,0.002552909543737769
28.0,0.0021350267343223095
30.0,0.0018250234425067902
32.0,0.0015701672527939081
36.0,0.001288435305468738
40.0,0.0011640615994110703
44.0,0.0009890580549836159
48.0,0.000765237316954881
52.0,0.0004656868986785412
56.0,0.0002858171646948904
60.0,0.0002815240586642176
64.0,0.0003067556244786829
72.0,0.00038134894566610456
80.0,0.0006459212745539844
88.0,0.000657286960631609
96.0,0.000433142704423517
104.0,1.0745803592726588e-05
112.0,-0.00044553179759532213
120.0,-0.0006365673616528511
128.0,-0.0004967658314853907
144.0,9.695618064142764e-05
160.0,-0.000503865594509989
176.0,-0.0008875068742781878
192.0,-0.0001456239988328889
208.0,-0.0003178564948029816
224.0,-0.000529790879227221
240.0,-0.0008266737568192184
256.0,-0.0005363324889913201
288.0,-0.0005839559598825872
320.0,-0.0005846302956342697
352.0,-0.0003176152240484953
384.0,-0.0004382395127322525
416.0,-0.0009129342506639659
448.0,-0.0006043934845365584
480.0,0.00011945633741561323
512.0,-0.0006518211448565125
576.0,0.00020467294962145388
640.0,0.0011381461517885327
704.0,9.921481250785291e-05
768.0,0.0003435586404521018
832.0,0.00021081620070617646
896.0,0.000496156164444983
960.0,0.0003620555507950485
1024.0,0.0002693221322260797
1152.0,0.0005393793107941747
1280.0,-9.856511314865202e-05
1408.0,-0.0009284991538152099
1536.0,0.000309326482238248
1664.0,-0.00048479335964657366
1792.0,-8.957985119195655e-05
1920.0,0.00034151601721532643
2048.0,9.658283670432866e-05
2304.0,-0.0005601381999440491
2560.0,-8.588444325141609e-05
2816.0,0.0001169734459836036
3072.0,-3.824875875579892e-06
3328.0,-0.00044698381680063903
3584.0,-6.791352643631399e-05
3840.0,0.0002948298351839185
4096.0,-0.00019393696857150644
4608.0,-9.041566954692826e-05
5120.0,-0.00013984055840410292
5632.0,0.00012436448014341295
6144.0,-0.000281016924418509
6656.0,0.00041766418144106865
7168.0,-0.00017589161871001124
7680.0,0.0002485182776581496
8192.0,-5.292507921694778e-05
9216.0,6.950335227884352e-05
10240.0,0.00013540650252252817
11264.0,-0.00014846681733615696
12288.0,-0.00032895224285311997
13312.0,1.9380745470698457e-06
14336.0,0.000171571911778301
end
