version,3.0
numOfCh,1
type,point
parent_name,800-cuts
ch_type,1_1
kcount,1
numberNandB,1
brightnessNandB,1
carpet pos,0
pc,0
Time (ms),CH1 Auto-Correlation
1.0,0.08176826685667038
2.0,0.07678404450416565
3.0,0.07203201949596405
4.0,0.06755544245243073
5.0,0.06324542313814163
6.0,0.059209469705820084
7.0,0.05537126958370209
8.0,0.05165534466505051
9.0,0.04815681651234627
10.0,0.045084282755851746
11.0,0.04220689460635185
12.0,0.03944035992026329
13.0,0.03682498633861542
14.0,0.034345075488090515
15.0,0.03222803771495819
16.0,0.030150463804602623
18.0,0.02615996263921261
20.0,0.022600864991545677
22.0,0.0194813571870327
24.0,0.016556328162550926
26.0,0.013905501924455166
28.0,0.011634384281933308
30.0,0.009516571648418903
32.0,0.007776832673698664
36.0,0.005096743814647198
40.0,0.0033076016698032618
44.0,0.002071632305160165
48.0,0.0015226490795612335
52.0,0.001208013854920864
56.0,0.0010745043400675058
60.0,0.0014957821695134044
64.0,0.0024599716998636723
72.0,0.005240974016487598
80.0,0.006389013025909662
88.0,0.005309209693223238
96.0,0.0024648297112435102
104.0,-0.0003381615679245442
112.0,-0.0020578368566930294
120.0,-0.001382884569466114
128.0,-0.0012970808893442154
144.0,0.0005996087566018105
160.0,0.002600528998300433
176.0,0.003652995452284813
192.0,0.0025687136221677065
208.0,0.0033425725996494293
224.0,0.0048821051605045795
240.0,0.004199816379696131
256.0,0.005107425153255463
288.0,0.005276933778077364
320.0,3.8557463994948193e-05
352.0,-0.0025116291362792253
384.0,0.001494980650022626
416.0,-0.0004418658500071615
448.0,-0.002189655788242817
480.0,-0.0038038776256144047
512.0,-0.002346133114770055
576.0,0.002779977396130562
640.0,-0.00031463493360206485
704.0,-0.00034910341491922736
768.0,-0.0016114097088575363
832.0,0.001119983964599669
896.0,0.0009835913078859448
960.0,-0.0019034240394830704
1024.0,-0.003194918390363455
1152.0,-0.0005544801242649555
1280.0,-0.00021428256877698004
1408.0,-0.0001000086558633484
1536.0,0.0022404587361961603
1664.0,0.00017853894678410143
1792.0,0.0013663810677826405
1920.0,0.0007930652354843915
2048.0,0.0005665255011990666
2304.0,0.0011686331126838923
2560.0,0.001170239644125104
2816.0,-0.0004550690937321633
3072.0,-0.0030405286233872175
3328.0,-0.0018937949789687991
3584.0,0.0007605847786180675
3840.0,0.0005526441382244229
4096.0,0.0033621538896113634
4608.0,0.0009662130614742637
5120.0,0.0023744956124573946
5632.0,-0.0019716478418558836
6144.0,-0.0007504950044676661
6656.0,-0.00025650826864875853
7168.0,-0.000401237077312544
7680.0,-0.002751546213403344
8192.0,-0.002595586469396949
9216.0,0.0007291012443602085
10240.0,-0.0014790685381740332
11264.0,-0.0006065932684578001
12288.0,-0.002674329560250044
13312.0,0.0002370515576330945
14336.0,0.000550746510270983
end
