version,3.0
numOfCh,1
type,point
parent_name,800-cuts
ch_type,1_1
kcount,1
numberNandB,1
brightnessNandB,1
carpet pos,0
pc,0
Time (ms),CH1 Auto-Correlation
1.0,0.06919572502374649
2.0,0.06468304246664047
3.0,0.060410354286432266
4.0,0.0564013309776783
5.0,0.052751511335372925
6.0,0.049490299075841904
7.0,0.04637033864855766
8.0,0.0435144416987896
9.0,0.040927428752183914
10.0,0.03850296139717102
11.0,0.03630707040429115
12.0,0.034263789653778076
13.0,0.03227347135543823
14.0,0.030426025390625
15.0,0.02861202321946621
16.0,0.026909414678812027
18.0,0.023868275806307793
20.0,0.020946014672517776
22.0,0.018472518771886826
24.0,0.016513625159859657
26.0,0.01459590159356594
28.0,0.012607497163116932
30.0,0.0106339817866683
32.0,0.009111877530813217
36.0,0.007166489493101835
40.0,0.005777083802968264
44.0,0.0049055530689656734
48.0,0.0037416277918964624
52.0,0.0031430476810783148
56.0,0.0028831278905272484
60.0,0.0021464102901518345
64.0,0.0008863518596626818
72.0,-0.0005139319691807032
80.0,-0.00048772673471830785
88.0,0.0006219398928806186
96.0,0.000575557816773653
104.0,0.0005978400586172938
112.0,-0.00022096448810771108
120.0,-0.0014600965660065413
128.0,-0.0011335201561450958
144.0,0.0007507689879275858
160.0,0.0021526834461838007
176.0,0.0033211740665137768
192.0,0.004688053857535124
208.0,0.0039359573274850845
224.0,0.0014613390667364001
240.0,-0.0003288243315182626
256.0,-0.0002794788160827011
288.0,-0.000617684330791235
320.0,0.0005783045780844986
352.0,0.001576412352733314
384.0,0.003035428933799267
416.0,0.0018886664183810353
448.0,-0.001604562858119607
480.0,-0.0018013635417446494
512.0,-0.003899047616869211
576.0,0.002691202564164996
640.0,9.439601126359776e-05
704.0,-0.0010476085590198636
768.0,0.0021426051389425993
832.0,-0.0013256052043288946
896.0,-0.001171771320514381
960.0,0.002670696936547756
1024.0,0.0028560394421219826
1152.0,0.000768190948292613
1280.0,-0.0013541321968659759
1408.0,-0.002484153723344207
1536.0,-0.002102199010550976
1664.0,-0.0015449200291186571
1792.0,0.0003747463342733681
1920.0,-0.0011831220472231507
2048.0,-0.0016930793644860387
2304.0,-0.0005228728987276554
2560.0,-0.00040634715696796775
2816.0,8.075467485468835e-05
3072.0,0.0008682223269715905
3328.0,0.0008461313555017114
3584.0,0.0003510296519380063
3840.0,0.00024054190726019442
4096.0,0.0021590040996670723
4608.0,0.001436375081539154
5120.0,7.873895083321258e-05
5632.0,-0.0005574952811002731
6144.0,-0.0019551690202206373
6656.0,-0.002176328795030713
7168.0,0.0010672142961993814
7680.0,0.0020355682354420424
8192.0,0.0010341748129576445
9216.0,-0.0017283664783462882
10240.0,-0.0015837401151657104
11264.0,7.986606942722574e-05
12288.0,0.0005721134948544204
13312.0,-0.0012441412545740604
14336.0,-0.002142099430784583
end
