version,3.0
numOfCh,1
type,point
parent_name,800-cuts
ch_type,1_1
kcount,1
numberNandB,1
brightnessNandB,1
carpet pos,0
pc,0
Time (ms),CH1 Auto-Correlation
1.0,0.027431553229689598
2.0,0.02562437206506729
3.0,0.023902200162410736
4.0,0.022322380915284157
5.0,0.020837323740124702
6.0,0.019492723047733307
7.0,0.01824226602911949
8.0,0.01712365262210369
9.0,0.016080545261502266
10.0,0.015105715952813625
11.0,0.01413822453469038
12.0,0.013244980946183205
13.0,0.012439332902431488
14.0,0.01168327871710062
15.0,0.010987418703734875
16.0,0.01032095868140459
18.0,0.0090556051582098
20.0,0.007899542339146137
22.0,0.006844221148639917
24.0,0.005997460335493088
26.0,0.005408468656241894
28.0,0.004972843453288078
30.0,0.004584758076816797
32.0,0.004226409364491701
36.0,0.003466455265879631
40.0,0.002751857740804553
44.0,0.0021181898191571236
48.0,0.0017593672964721918
52.0,0.0016088483389467
56.0,0.0015349859604611993
60.0,0.0015585314249619842
64.0,0.0017058256780728698
72.0,0.0016972690355032682
80.0,0.001396600273437798
88.0,0.0009368190076202154
96.0,0.000699093216098845
104.0,0.000524474831763655
112.0,3.417835250729695e-05
120.0,-0.0004733172827400267
128.0,-0.0006266466807574034
144.0,-0.00043531059054657817
160.0,-0.00012842378055211157
176.0,0.00019247023737989366
192.0,0.00030707218684256077
208.0,0.000364096398698166
224.0,0.0005260782781988382
240.0,0.0004897281178273261
256.0,0.0011329823173582554
288.0,0.0005448329611681402
320.0,0.0007996225031092763
352.0,-0.00034555705497041345
384.0,-9.029846114572138e-05
416.0,0.00025096486206166446
448.0,-0.0007319347350858152
480.0,0.0002978730190079659
512.0,-0.0007040061173029244
576.0,-0.0016131291631609201
640.0,-0.00033370882738381624
704.0,0.000564935733564198
768.0,0.0010992944007739425
832.0,0.0003270442539360374
896.0,6.715639028698206e-05
960.0,-5.841251913807355e-05
1024.0,0.0019193250918760896
1152.0,0.0011047718580812216
1280.0,-0.0002283217036165297
1408.0,-0.0001325440825894475
1536.0,-0.0004272788355592638
1664.0,-0.0013746223412454128
1792.0,-0.0005733001162298024
1920.0,-0.0002458734670653939
2048.0,-0.0007750455988571048
2304.0,-5.1023100240854546e-05
2560.0,-0.00015247899864334613
2816.0,-0.0005040349788032472
3072.0,-0.00018750446906778961
3328.0,0.00041533689363859594
3584.0,3.41592422046233e-05
3840.0,9.258944919565693e-05
4096.0,0.00046185587416402996
4608.0,0.00016378017608076334
5120.0,-8.339334453921765e-05
5632.0,7.284391176654026e-05
6144.0,1.3281061910674907e-05
6656.0,-0.0006560907931998372
7168.0,-5.811548908241093e-05
7680.0,-0.0003919191949535161
8192.0,-0.0008327659452334046
9216.0,0.00025876067229546607
10240.0,0.0003996918094344437
11264.0,-0.00033885776065289974
12288.0,-0.00014231749810278416
13312.0,0.00010767355706775561
14336.0,-0.00042208388913422823
end
