version,3.0
numOfCh,1
type,point
parent_name,800-cuts
ch_type,1_1
kcount,1
numberNandB,1
brightnessNandB,1
carpet pos,0
pc,0
Time (ms),CH1 Auto-Correlation
1.0,0.06265921145677567
2.0,0.058525390923023224
3.0,0.05467544123530388
4.0,0.05108945071697235
5.0,0.04787243902683258
6.0,0.044972412288188934
7.0,0.04234951734542847
8.0,0.03989313915371895
9.0,0.037623487412929535
10.0,0.035577207803726196
11.0,0.03363557159900665
12.0,0.03170912712812424
13.0,0.029804514721035957
14.0,0.027923868969082832
15.0,0.026287822052836418
16.0,0.024738067761063576
18.0,0.021849067881703377
20.0,0.01920916885137558
22.0,0.016871899366378784
24.0,0.014532056637108326
26.0,0.01255897618830204
28.0,0.01079209242016077
30.0,0.009326079860329628
32.0,0.008242481388151646
36.0,0.006880057975649834
40.0,0.005686882417649031
44.0,0.004121722653508186
48.0,0.0026558234822005033
52.0,0.0011171679943799973
56.0,0.00021942052990198135
60.0,-0.00015037402044981718
64.0,-0.0003981431946158409
72.0,-0.0010384562192484736
80.0,-0.0011962231947109103
88.0,-0.001254227478057146
96.0,-0.0004738374555017799
104.0,0.0006707531865686178
112.0,0.0005066423327662051
120.0,0.0005942188436165452
128.0,0.0012905166950076818
144.0,0.0011391870211809874
160.0,0.00019857085135299712
176.0,-0.001448220107704401
192.0,-0.004665790591388941
208.0,-0.004504491575062275
224.0,-0.0034737323876470327
240.0,-0.0033902907744050026
256.0,-0.0036421986296772957
288.0,-0.00048612174578011036
320.0,0.00046763967839069664
352.0,-0.0008495954098179936
384.0,0.0005113626248203218
416.0,-0.0003947942750528455
448.0,-0.0022368759382516146
480.0,-0.003092886647209525
512.0,-0.0022832395043224096
576.0,0.0007184104761108756
640.0,0.0021050432696938515
704.0,0.002075853757560253
768.0,0.0012719968799501657
832.0,0.0005185851478017867
896.0,-0.00048579039867036045
960.0,0.00262658204883337
1024.0,0.002106319647282362
1152.0,-0.001994488760828972
1280.0,-0.0012187085812911391
1408.0,0.0025920637417584658
1536.0,-0.0009022668236866593
1664.0,-0.0008608194184489548
1792.0,-0.001431422890163958
1920.0,-0.0003104038769379258
2048.0,0.0009593436261638999
2304.0,3.763092536246404e-05
2560.0,-0.0018552894471213222
2816.0,-0.00018772741896100342
3072.0,0.00046314430073834956
3328.0,-0.0012365008005872369
3584.0,-0.0009644241654314101
3840.0,-6.788363680243492e-05
4096.0,-0.0007964521064423025
4608.0,0.0009108088561333716
5120.0,0.0003043559263460338
5632.0,5.317556770023657e-06
6144.0,-6.0136801039334387e-05
6656.0,0.0007615740760229528
7168.0,0.0008609084761701524
7680.0,-0.0005317279137670994
8192.0,0.0003742020926438272
9216.0,-0.0010816104477271438
10240.0,0.001368327415548265
11264.0,-0.0007191123440861702
12288.0,-0.0014014741173014045
13312.0,0.0014857527567073703
14336.0,-0.0012366398004814982
end
