version,3.0
numOfCh,1
type,point
parent_name,800-cuts
ch_type,1_1
kcount,1
numberNandB,1
brightnessNandB,1
carpet pos,0
pc,0
Time (ms),CH1 Auto-Correlation
1.0,0.02872597612440586
2.0,0.026735303923487663
3.0,0.024907853454351425
4.0,0.02321695163846016
5.0,0.0216212160885334
6.0,0.020137405022978783
7.0,0.01876351796090603
8.0,0.017478829249739647
9.0,0.01629684679210186
10.0,0.015161924995481968
11.0,0.014118812046945095
12.0,0.013132477179169655
13.0,0.012187501415610313
14.0,0.011302885599434376
15.0,0.010510329157114029
16.0,0.00976185780018568
18.0,0.008423542603850365
20.0,0.007342623546719551
22.0,0.006427316926419735
24.0,0.005742689594626427
26.0,0.005184849724173546
28.0,0.004618375562131405
30.0,0.004090725444257259
32.0,0.0036400360986590385
36.0,0.0028576550539582968
40.0,0.002126042963936925
44.0,0.0015262687811627984
48.0,0.0011003948748111725
52.0,0.0007221943815238774
56.0,0.00017109907639678568
60.0,-0.000319947546813637
64.0,-0.0005764463567174971
72.0,-0.0005187211208976805
80.0,-0.0006908000214025378
88.0,-0.0007109568687155843
96.0,-0.0005243565537966788
104.0,-0.0006388137699104846
112.0,-0.0003965877986047417
120.0,-2.458117342030164e-05
128.0,0.0006291791214607656
144.0,-0.00036681388155557215
160.0,-0.00024583685444667935
176.0,0.000530023651663214
192.0,-0.00029892672318965197
208.0,-0.00013596549979411066
224.0,0.0009662183583714068
240.0,0.00039611515239812434
256.0,0.00039726082468405366
288.0,-5.238818266661838e-05
320.0,-0.00010715601820265874
352.0,-0.00028814197867177427
384.0,-0.0007890683482401073
416.0,-0.00041018580668605864
448.0,0.0003843192243948579
480.0,0.0008458747179247439
512.0,0.0007598758675158024
576.0,-9.93202265817672e-05
640.0,0.0001945293042808771
704.0,0.00026037124916911125
768.0,0.0004570936434902251
832.0,0.0002161346928915009
896.0,-0.00013393689005170017
960.0,9.505448542768136e-05
1024.0,0.00018677451589610428
1152.0,-0.0006162817589938641
1280.0,0.00043608792475424707
1408.0,0.0007044365629553795
1536.0,0.0006725548882968724
1664.0,0.0008083181455731392
1792.0,-0.0010787973878905177
1920.0,-0.0011759154731407762
2048.0,0.0003693321195896715
2304.0,0.0003709307056851685
2560.0,-0.0003191537398379296
2816.0,-5.301495184539817e-05
3072.0,0.00016496841271873564
3328.0,-0.00028661731630563736
3584.0,-0.00029725171043537557
3840.0,-9.155875886790454e-05
4096.0,-1.3363055586523842e-05
4608.0,-0.0004551832389552146
5120.0,0.00016650350880809128
5632.0,-0.0005045688012614846
6144.0,0.0002730176202021539
6656.0,-1.8513395843910985e-05
7168.0,-8.459662058157846e-05
7680.0,3.8837737520225346e-05
8192.0,0.00011771523713832721
9216.0,0.0001945059630088508
10240.0,-7.121234375517815e-05
11264.0,-0.0005703642382286489
12288.0,-0.0004443406069185585
13312.0,-4.5173437683843076e-05
14336.0,0.0002338692283956334
end
