version,3.0
numOfCh,1
type,point
parent_name,800-cuts
ch_type,1_1
kcount,1
numberNandB,1
brightnessNandB,1
carpet pos,0
pc,0
Time (ms),CH1 Auto-Correlation
1.0,0.06182188168168068
2.0,0.057721227407455444
3.0,0.05387149006128311
4.0,0.05029681697487831
5.0,0.04697635397315025
6.0,0.04385001212358475
7.0,0.04095327481627464
8.0,0.03822210431098938
9.0,0.03575330600142479
10.0,0.033559951931238174
11.0,0.03151886165142059
12.0,0.029590047895908356
13.0,0.027758829295635223
14.0,0.02601812779903412
15.0,0.02440708689391613
16.0,0.02283346839249134
18.0,0.019689887762069702
20.0,0.016966860741376877
22.0,0.0147429583594203
24.0,0.013058370910584927
26.0,0.011694147251546383
28.0,0.010191068053245544
30.0,0.008896488696336746
32.0,0.007814830169081688
36.0,0.005980548448860645
40.0,0.005307506769895554
44.0,0.005098657216876745
48.0,0.004592172801494598
52.0,0.003983271773904562
56.0,0.0035302231553941965
60.0,0.0032374730799347162
64.0,0.002765465760603547
72.0,0.003248098073527217
80.0,0.003581875702366233
88.0,0.0034488702658563852
96.0,0.0037881170865148306
104.0,0.003771425224840641
112.0,0.002576045459136367
120.0,0.0012121982872486115
128.0,0.0003746861475519836
144.0,0.002456579590216279
160.0,0.0017886720597743988
176.0,0.0009351868066005409
192.0,0.002478140639141202
208.0,0.004159114323556423
224.0,0.0034549988340586424
240.0,0.002143335761502385
256.0,0.002086699940264225
288.0,0.00021388279856182635
320.0,-0.000734745233785361
352.0,-0.0014126006281003356
384.0,-0.002179287141188979
416.0,-0.0006411737995222211
448.0,-0.002333524636924267
480.0,-0.002042051637545228
512.0,-0.0021493341773748398
576.0,-0.0013385830679908395
640.0,-0.001845219754613936
704.0,0.00029260446899570525
768.0,0.003098912537097931
832.0,0.0018692022422328591
896.0,0.003447022521868348
960.0,0.004271781537681818
1024.0,0.004285226576030254
1152.0,-0.00032617049873806536
1280.0,-0.0005638296133838594
1408.0,-0.002156603615731001
1536.0,0.0005420003435574472
1664.0,0.0006864048773422837
1792.0,0.0004733585228677839
1920.0,0.0015063699102029204
2048.0,-0.00015289540169760585
2304.0,0.0008288585813716054
2560.0,0.0015441684518009424
2816.0,0.0013667428866028786
3072.0,-0.000301124295219779
3328.0,-0.00011869842273881659
3584.0,-0.0009239396313205361
3840.0,-0.0015950009692460299
4096.0,-0.00032204118906520307
4608.0,-0.0014510435285046697
5120.0,-0.0017627093475311995
5632.0,0.0001837421878008172
6144.0,-0.0008260158356279135
6656.0,-0.0024248394183814526
7168.0,-0.0011373338056728244
7680.0,0.0005894871428608894
8192.0,4.248900950187817e-05
9216.0,-0.0003463387838564813
10240.0,0.000299123115837574
11264.0,0.0013561089290305972
12288.0,-0.0017204670002683997
13312.0,0.002214452950283885
14336.0,-0.0006399699486792088
end
