version,3.0
numOfCh,1
type,point
parent_name,800-cuts
ch_type,1_1
kcount,1
numberNandB,1
brightnessNandB,1
carpet pos,0
pc,0
Time (ms),CH1 Auto-Correlation
1.0,0.06205296516418457
2.0,0.05809222161769867
3.0,0.054404113441705704
4.0,0.05090099945664406
5.0,0.04755168780684471
6.0,0.04427993670105934
7.0,0.04133531451225281
8.0,0.038625843822956085
9.0,0.03613903373479843
10.0,0.03381156548857689
11.0,0.03162609413266182
12.0,0.02977544255554676
13.0,0.02805549092590809
14.0,0.02633061632514
15.0,0.02466718666255474
16.0,0.023166384547948837
18.0,0.020578360185027122
20.0,0.018378984183073044
22.0,0.016432922333478928
24.0,0.014754395000636578
26.0,0.013359353877604008
28.0,0.012259849347174168
30.0,0.011173616163432598
32.0,0.010205472819507122
36.0,0.007914056070148945
40.0,0.005731493234634399
44.0,0.0039616175927221775
48.0,0.0029494508635252714
52.0,0.0022876071743667126
56.0,0.0022938752081245184
60.0,0.00254069990478456
64.0,0.002425532788038254
72.0,0.0017653268296271563
80.0,0.0015060629229992628
88.0,0.0017731571570038795
96.0,0.0021562541369348764
104.0,0.002546853618696332
112.0,0.0026224940083920956
120.0,0.0025232851039618254
128.0,0.002351445611566305
144.0,0.001029056147672236
160.0,-0.0004358183650765568
176.0,0.00021357247896958143
192.0,0.0005783955566585064
208.0,0.000491804035846144
224.0,0.00011526857269927859
240.0,-0.0007962285890243948
256.0,-0.002479101764038205
288.0,-0.0014797486364841461
320.0,-0.0034781508147716522
352.0,-0.004227799363434315
384.0,-0.0011260872706770897
416.0,0.0006980398902669549
448.0,-0.0003551695554051548
480.0,-0.002387461718171835
512.0,0.0013320375001057982
576.0,-0.0005519209080375731
640.0,0.00015978074225131422
704.0,-0.0008960000122897327
768.0,-0.0018764351261779666
832.0,-0.0010344862239435315
896.0,-0.001971303252503276
960.0,-0.0009763349080458283
1024.0,-0.0027925539761781693
1152.0,0.0014901881804689765
1280.0,0.0011870675953105092
1408.0,-6.455818220274523e-05
1536.0,0.0009257574565708637
1664.0,-0.00024950221995823085
1792.0,-0.000526761228684336
1920.0,0.0002495066437404603
2048.0,6.520890565298032e-06
2304.0,0.0007862919592298567
2560.0,-0.0003290885651949793
2816.0,-0.0006927573122084141
3072.0,0.0015284832334145904
3328.0,0.00030059844721108675
3584.0,0.0008475268841721117
3840.0,-0.0007001232588663697
4096.0,-0.0009974009590223432
4608.0,0.0002832610916811973
5120.0,0.0008982766885310411
5632.0,-0.00031151200528256595
6144.0,-0.0010480164783075452
6656.0,0.0011110736522823572
7168.0,0.0005402725073508918
7680.0,-0.0017792205326259136
8192.0,0.00028018103330396116
9216.0,-0.0010637271916493773
10240.0,0.000427127699367702
11264.0,-0.001426131697371602
12288.0,0.0001693021913524717
13312.0,8.825980330584571e-05
14336.0,-0.0011022406397387385
end
