version,3.0
numOfCh,1
type,point
parent_name,800-cuts
ch_type,1_1
kcount,1
numberNandB,1
brightnessNandB,1
carpet pos,0
pc,0
Time (ms),CH1 Auto-Correlation
1.0,0.06518112123012543
2.0,0.060875874012708664
3.0,0.0569198913872242
4.0,0.05306769534945488
5.0,0.04955928772687912
6.0,0.04626424238085747
7.0,0.04322776198387146
8.0,0.040406107902526855
9.0,0.03778525069355965
10.0,0.03534138947725296
11.0,0.03310244157910347
12.0,0.03094402141869068
13.0,0.02896270900964737
14.0,0.027081601321697235
15.0,0.02528497390449047
16.0,0.023581488057971
18.0,0.021212851628661156
20.0,0.019006360322237015
22.0,0.016967982053756714
24.0,0.015126986429095268
26.0,0.013255085796117783
28.0,0.011621182784438133
30.0,0.010237330570816994
32.0,0.008896254003047943
36.0,0.0065411292016506195
40.0,0.0049375868402421474
44.0,0.003839521436020732
48.0,0.003111292840912938
52.0,0.002554988721385598
56.0,0.002255147323012352
60.0,0.0022284926380962133
64.0,0.0022130142897367477
72.0,0.0029275675769895315
80.0,0.0030550272203981876
88.0,0.0027548661455512047
96.0,0.0017198699060827494
104.0,0.0001398585009155795
112.0,-0.00017013495380524546
120.0,-0.00014673249097540975
128.0,-0.00020819072960875928
144.0,0.0005176594131626189
160.0,0.001435593469068408
176.0,0.0015740083763375878
192.0,0.0012876626569777727
208.0,0.0014389122370630503
224.0,0.0016557000344619155
240.0,0.0023572714999318123
256.0,0.0013743712333962321
288.0,-0.0008822671370580792
320.0,0.002291065873578191
352.0,0.0030106613412499428
384.0,0.00032821117201820016
416.0,-7.148149961722083e-06
448.0,-0.002561368979513645
480.0,0.000930840615183115
512.0,0.0010527368867769837
576.0,-0.0021903100423514843
640.0,0.0006622120272368193
704.0,0.0018494774121791124
768.0,-0.000365497573511675
832.0,0.002034300472587347
896.0,-0.0007550498121418059
960.0,-0.001716037280857563
1024.0,0.0012852399377152324
1152.0,-0.0005370710860006511
1280.0,-0.0016080363420769572
1408.0,0.00037916284054517746
1536.0,0.0010247915051877499
1664.0,0.0010602580150589347
1792.0,0.00040305990842171013
1920.0,0.002615206642076373
2048.0,-0.00029279777663759887
2304.0,-0.0023486176505684853
2560.0,0.0002602587337605655
2816.0,0.0014913053018972278
3072.0,-0.000532362493686378
3328.0,0.0001643340365262702
3584.0,0.0007029584376141429
3840.0,-0.0015656356699764729
4096.0,0.0002392804017290473
4608.0,0.0011014941846951842
5120.0,-0.0008602904272265732
5632.0,-0.0016389030497521162
6144.0,0.0005264150095172226
6656.0,-0.00033974292455241084
7168.0,-0.0012189085828140378
7680.0,0.0011995098320767283
8192.0,0.0010034426813945174
9216.0,-0.0008915840880945325
10240.0,-0.001438555889762938
11264.0,-0.0007453457219526172
12288.0,-0.0007168813608586788
13312.0,-0.00017107043822761625
14336.0,-1.2772070476785302e-05
end
