version,3.0
numOfCh,1
type,point
parent_name,800-cuts
ch_type,1_1
kcount,1
numberNandB,1
brightnessNandB,1
carpet pos,0
pc,0
Time (ms),CH1 Auto-Correlation
1.0,0.06312458962202072
2.0,0.05876418203115463
3.0,0.05470958352088928
4.0,0.050950679928064346
5.0,0.04739953950047493
6.0,0.04420923814177513
7.0,0.04130919650197029
8.0,0.03866413235664368
9.0,0.03617209196090698
10.0,0.03376588970422745
11.0,0.03148623928427696
12.0,0.029436631128191948
13.0,0.02749037742614746
14.0,0.02556859515607357
15.0,0.02366504818201065
16.0,0.022048670798540115
18.0,0.019158437848091125
20.0,0.01647903025150299
22.0,0.014112618751823902
24.0,0.012185175903141499
26.0,0.01046157255768776
28.0,0.009077577851712704
30.0,0.008091040886938572
32.0,0.0070626214146614075
36.0,0.004743176978081465
40.0,0.0031266766600310802
44.0,0.002414040733128786
48.0,0.001627541845664382
52.0,0.0005985041498206556
56.0,-0.00013896588643547148
60.0,-0.00040078553138300776
64.0,-0.0004753207613248378
72.0,5.315912130754441e-05
80.0,0.0007423198549076915
88.0,0.0006853965460322797
96.0,0.00022783449094276875
104.0,0.0004207586753182113
112.0,0.0017018977086991072
120.0,0.002597824903205037
128.0,0.0028311742935329676
144.0,-0.0003088646044488996
160.0,-0.0006955731078051031
176.0,0.0002046223235083744
192.0,9.757550287758932e-05
208.0,0.001972860423848033
224.0,0.001830311375670135
240.0,0.002979992190375924
256.0,0.002732036169618368
288.0,0.0010654189391061664
320.0,-0.0008869152516126633
352.0,0.000372833339497447
384.0,-0.00033204577630385756
416.0,-0.001279809745028615
448.0,-0.0014379289932549
480.0,-0.0016055500600486994
512.0,-0.0018071490339934826
576.0,-0.002302828710526228
640.0,-0.00036551838275045156
704.0,-0.001299242372624576
768.0,-0.00220937910489738
832.0,-0.0007306941552087665
896.0,-3.056498462683521e-05
960.0,0.0009795468067750335
1024.0,0.0015419701812788844
1152.0,0.00010036112507805228
1280.0,0.0005902968696318567
1408.0,-0.0022170208394527435
1536.0,-0.001637557870708406
1664.0,-0.0022152410820126534
1792.0,0.0001250862260349095
1920.0,-0.000754188746213913
2048.0,0.0011223050532862544
2304.0,-0.0005596708506345749
2560.0,-0.001882247976027429
2816.0,0.00044171453919261694
3072.0,0.0007229791954159737
3328.0,-1.2974154742551036e-05
3584.0,-0.0007643827702850103
3840.0,0.0005941495765000582
4096.0,0.002005759859457612
4608.0,-0.0008676713332533836
5120.0,0.00039110431680455804
5632.0,-0.0009739524102769792
6144.0,-2.8576903787325136e-05
6656.0,0.00014096611994318664
7168.0,0.00020749570103362203
7680.0,0.00037659096415154636
8192.0,-0.00038012771983630955
9216.0,0.00030026817694306374
10240.0,1.976495514099952e-05
11264.0,4.097669261682313e-06
12288.0,-0.0012988020898774266
13312.0,0.0008790516294538975
14336.0,0.0009741961839608848
end
