version,3.0
numOfCh,1
type,point
parent_name,800-cuts
ch_type,1_1
kcount,1
numberNandB,1
brightnessNandB,1
carpet pos,0
pc,0
Time (ms),CH1 Auto-Correlation
1.0,0.030334169045090675
2.0,0.02823074348270893
3.0,0.026239700615406036
4.0,0.024372870102524757
5.0,0.02262265421450138
6.0,0.020971285179257393
7.0,0.019452935084700584
8.0,0.018048042431473732
9.0,0.016723182052373886
10.0,0.015595471486449242
11.0,0.014547787606716156
12.0,0.013652936555445194
13.0,0.012866560369729996
14.0,0.012142051011323929
15.0,0.011475058272480965
16.0,0.010903091169893742
18.0,0.009732319973409176
20.0,0.008629071526229382
22.0,0.0076048895716667175
24.0,0.006592277903109789
26.0,0.005692891776561737
28.0,0.005057808011770248
30.0,0.004465835634618998
32.0,0.003899170784279704
36.0,0.0029604744631797075
40.0,0.0018959398148581386
44.0,0.000935721502173692
48.0,0.00027876152307726443
52.0,0.00014589291822630912
56.0,4.199929753667675e-05
60.0,-0.0003762361593544483
64.0,-0.0008238152367994189
72.0,-0.0010658421088010073
80.0,-0.001010801992379129
88.0,-0.0009656783659011126
96.0,-0.0010979491053149104
104.0,-0.0010950639843940735
112.0,-0.0011718693422153592
120.0,-0.0013088294072076678
128.0,-0.0010026621166616678
144.0,0.00025018388987518847
160.0,0.0002479618997313082
176.0,-0.0006762730190530419
192.0,-0.00035136082442477345
208.0,-3.4165335819125175e-05
224.0,-0.0005236816359683871
240.0,-0.0008089852635748684
256.0,-0.0009811797644942999
288.0,-0.0009806044399738312
320.0,-0.0004902969812974334
352.0,5.685579890268855e-05
384.0,-0.0008375281468033791
416.0,-0.00010760047007352114
448.0,0.0005022737313993275
480.0,0.00016570536536164582
512.0,-0.0012925396440550685
576.0,0.0005764759844169021
640.0,0.00033912924118340015
704.0,0.00038341048639267683
768.0,0.0003306212311144918
832.0,-0.00037130952114239335
896.0,-0.0005015247734263539
960.0,-0.0007861050544306636
1024.0,3.4223026887048036e-05
1152.0,-0.00030432920902967453
1280.0,0.0015680735232308507
1408.0,-0.001080228597857058
1536.0,-0.0006903830799274147
1664.0,0.001067769480869174
1792.0,-0.0015754641499370337
1920.0,0.0008448539301753044
2048.0,0.0008916919468902051
2304.0,-0.00046723955892957747
2560.0,-0.0008967845351435244
2816.0,0.0005567945772781968
3072.0,-0.0006545703508891165
3328.0,0.00014698012091685086
3584.0,0.000586284848395735
3840.0,-5.8933110267389566e-05
4096.0,0.0002276433224324137
4608.0,-0.0005433072219602764
5120.0,0.0001977996143978089
5632.0,0.00040442030876874924
6144.0,-0.0004143484402447939
6656.0,-0.0003684831317514181
7168.0,0.000310424598865211
7680.0,0.000557673629373312
8192.0,-0.00010222828132100403
9216.0,-4.409379471326247e-06
10240.0,-4.5808934373781085e-05
11264.0,-0.00024209536786656827
12288.0,0.00010606155410641804
13312.0,-0.0003778687969315797
14336.0,0.00013918368495069444
end
