version,3.0
numOfCh,1
type,point
parent_name,800-cuts
ch_type,1_1
kcount,1
numberNandB,1
brightnessNandB,1
carpet pos,0
pc,0
Time (ms),CH1 Auto-Correlation
1.0,0.07260185480117798
2.0,0.06800808012485504
3.0,0.06387985497713089
4.0,0.06007479503750801
5.0,0.05654485151171684
6.0,0.05320467799901962
7.0,0.05015304684638977
8.0,0.04727829620242119
9.0,0.044492341578006744
10.0,0.04183090105652809
11.0,0.03929169848561287
12.0,0.03685034438967705
13.0,0.03436819836497307
14.0,0.03207550197839737
15.0,0.029909104108810425
16.0,0.027938449755311012
18.0,0.024402456358075142
20.0,0.021402092650532722
22.0,0.01862804777920246
24.0,0.016320955008268356
26.0,0.014370830729603767
28.0,0.012741965241730213
30.0,0.011443601921200752
32.0,0.010327987372875214
36.0,0.008500121533870697
40.0,0.007475511636584997
44.0,0.006972124800086021
48.0,0.006909867282956839
52.0,0.007167625706642866
56.0,0.007017828058451414
60.0,0.007116725668311119
64.0,0.006663554348051548
72.0,0.0050469134002923965
80.0,0.003522994462400675
88.0,0.001396521576680243
96.0,0.0005573322414420545
104.0,0.0010613598860800266
112.0,0.002214800799265504
120.0,0.002738404320552945
128.0,0.0017814862076193094
144.0,0.0023006126284599304
160.0,0.00084802380297333
176.0,-0.0005751142161898315
192.0,-0.0024546526838093996
208.0,-0.0014043910196051002
224.0,0.00012053480168106034
240.0,-0.0014162741135805845
256.0,-0.0004449534462764859
288.0,-0.0007360245799645782
320.0,-0.0005535652744583786
352.0,-0.0022269356995821
384.0,-0.0001464387751184404
416.0,0.0007438314496539533
448.0,-0.003046887693926692
480.0,-0.0023952003102749586
512.0,-0.001016186666674912
576.0,0.0016070744022727013
640.0,0.0016516133910045028
704.0,0.0008526869933120906
768.0,-0.0013158279471099377
832.0,-0.0009821210987865925
896.0,0.0003748045419342816
960.0,0.000363940343959257
1024.0,-0.0013931731227785349
1152.0,0.001594068598933518
1280.0,-0.0017399799544364214
1408.0,0.001584065263159573
1536.0,-0.0010427414672449231
1664.0,-0.0023609965573996305
1792.0,-0.0015065358020365238
1920.0,-0.0025914516299962997
2048.0,0.0004085263062734157
2304.0,0.0007517107296735048
2560.0,0.0003415330720599741
2816.0,0.0005752552533522248
3072.0,-0.0007461571367457509
3328.0,0.0007029835251159966
3584.0,0.0009592640562914312
3840.0,0.0013225205475464463
4096.0,-0.0016672348137944937
4608.0,-0.0006218398921191692
5120.0,-0.0007704323506914079
5632.0,-0.0001503230887465179
6144.0,-0.0007451131823472679
6656.0,0.00018674596503842622
7168.0,0.0008771242573857307
7680.0,-0.00021147154620848596
8192.0,0.0008208900108002126
9216.0,0.0009720363887026906
10240.0,8.299460751004517e-05
11264.0,-0.00018900817667599767
12288.0,-0.0016817679861560464
13312.0,-0.0016039987094700336
14336.0,-0.0011680818861350417
end
