version,3.0
numOfCh,1
type,point
parent_name,800-cuts
ch_type,1_1
kcount,1
numberNandB,1
brightnessNandB,1
carpet pos,0
pc,0
Time (ms),CH1 Auto-Correlation
1.0,0.02857973240315914
2.0,0.026580220088362694
3.0,0.02478667162358761
4.0,0.023138493299484253
5.0,0.021578358486294746
6.0,0.020098403096199036
7.0,0.018733590841293335
8.0,0.017448030412197113
9.0,0.0162626001983881
10.0,0.01516727264970541
11.0,0.014189331792294979
12.0,0.013267329894006252
13.0,0.012429560534656048
14.0,0.011649882420897484
15.0,0.01091407984495163
16.0,0.01022521685808897
18.0,0.008973038755357265
20.0,0.007814430631697178
22.0,0.006839736830443144
24.0,0.005947185214608908
26.0,0.005148420576006174
28.0,0.004489290527999401
30.0,0.003893882967531681
32.0,0.0033243014477193356
36.0,0.00249621388502419
40.0,0.0018311594612896442
44.0,0.0010708454065024853
48.0,0.00041054445318877697
52.0,-2.121240868291352e-05
56.0,-0.00033555543632246554
60.0,-0.00039330244180746377
64.0,-0.00016274732479359955
72.0,0.0002777219342533499
80.0,0.0001347296783933416
88.0,-0.00021562784968409687
96.0,0.00017397933697793633
104.0,0.0005013407790102065
112.0,0.0008418927318416536
120.0,0.0010996521450579166
128.0,0.0010111622978001833
144.0,0.0008335325983352959
160.0,0.0008323438232764602
176.0,0.001197495381347835
192.0,0.00034666171995922923
208.0,-0.0004594201745931059
224.0,-0.0008248278754763305
240.0,-0.0009751403704285622
256.0,-0.0007839637692086399
288.0,0.00032609194749966264
320.0,-0.00047485786490142345
352.0,-0.001242043566890061
384.0,-0.0019105575047433376
416.0,-0.0009423290030099452
448.0,0.00015497696585953236
480.0,0.0006412530201487243
512.0,-0.0006034465041011572
576.0,0.0010286824544891715
640.0,0.0006867319461889565
704.0,0.0002456493384670466
768.0,0.0010494643356651068
832.0,-0.0009118999587371945
896.0,0.0004971080343239009
960.0,-0.00026714112027548254
1024.0,-0.0008096277597360313
1152.0,0.0006076197605580091
1280.0,-0.0005579747376032174
1408.0,-0.00011577170516829938
1536.0,0.00010582221148069948
1664.0,-0.00035468299756757915
1792.0,-8.401426748605445e-05
1920.0,-0.0005643345066346228
2048.0,-0.00048165934276767075
2304.0,-0.00010631668556015939
2560.0,-0.0003862686862703413
2816.0,0.00039602897595614195
3072.0,-9.521968604531139e-05
3328.0,0.00016730574134271592
3584.0,-0.0002920670376624912
3840.0,7.336753333220258e-05
4096.0,1.181378866021987e-05
4608.0,0.0001855700247688219
5120.0,-0.00027604057686403394
5632.0,0.0001618868118384853
6144.0,-0.00034323037834838033
6656.0,-0.00012522254837676883
7168.0,-8.093654741969658e-07
7680.0,-0.00019008570234291255
8192.0,0.00036003836430609226
9216.0,0.0004352365795057267
10240.0,-0.0004266308678779751
11264.0,-6.986945663811639e-05
12288.0,-0.0007356848800554872
13312.0,-0.00026444566901773214
14336.0,0.00047683989396318793
end
