version,3.0
numOfCh,1
type,point
parent_name,800-cuts
ch_type,1_1
kcount,1
numberNandB,1
brightnessNandB,1
carpet pos,0
pc,0
Time (ms),CH1 Auto-Correlation
1.0,0.029891718178987503
2.0,0.027814805507659912
3.0,0.02586265467107296
4.0,0.02407057397067547
5.0,0.022432610392570496
6.0,0.02092776633799076
7.0,0.019506065174937248
8.0,0.01817728579044342
9.0,0.016984961926937103
10.0,0.01589387096464634
11.0,0.014925914816558361
12.0,0.014007680118083954
13.0,0.013107888400554657
14.0,0.012205084785819054
15.0,0.01134864054620266
16.0,0.010526696220040321
18.0,0.008975843898952007
20.0,0.007722040172666311
22.0,0.006701863370835781
24.0,0.005900145974010229
26.0,0.005295804236084223
28.0,0.004786361940205097
30.0,0.0043034628033638
32.0,0.0038899905048310757
36.0,0.0029625867027789354
40.0,0.0022066072560846806
44.0,0.0018209945410490036
48.0,0.0015827096067368984
52.0,0.0012015685206279159
56.0,0.0008080109255388379
60.0,0.0007333254907280207
64.0,0.0007566835847683251
72.0,0.0005067060119472444
80.0,-0.00018392098718322814
88.0,-0.0004984103143215179
96.0,-0.0005221372121013701
104.0,-0.00022366167104337364
112.0,-0.0004394637362565845
120.0,-0.0005198153085075319
128.0,-0.0005493119824677706
144.0,0.00036511736107058823
160.0,0.00010902991198236123
176.0,-6.205296813277528e-05
192.0,-0.00025767338229343295
208.0,5.750546188210137e-05
224.0,-0.00017688465595711023
240.0,-0.0007873104186728597
256.0,-0.0014099719701334834
288.0,-0.00022629958402831107
320.0,0.0004816032887902111
352.0,0.0006362618878483772
384.0,0.0019860367756336927
416.0,0.0010134914191439748
448.0,0.00048199339653365314
480.0,-0.0002506950404495001
512.0,0.0010485707316547632
576.0,0.0005270619294606149
640.0,-0.0010880327317863703
704.0,0.00027826166478917
768.0,0.0002209301746916026
832.0,-0.0002805679105222225
896.0,0.0006427944172173738
960.0,-0.000807872973382473
1024.0,-0.00042319417116232216
1152.0,0.0005972473882138729
1280.0,-0.0003617118636611849
1408.0,-0.00013417479931376874
1536.0,0.0003843509766738862
1664.0,0.000535343773663044
1792.0,-0.0010883691720664501
1920.0,0.000395165232475847
2048.0,0.0005570805515162647
2304.0,-7.160493260016665e-05
2560.0,-0.00043838447891175747
2816.0,-0.0001862989302026108
3072.0,-2.200442395405844e-05
3328.0,2.530284837121144e-05
3584.0,0.0007385800709016621
3840.0,-0.0006903833709657192
4096.0,-0.0006342423730529845
4608.0,-0.000755683402530849
5120.0,0.00010350497905164957
5632.0,0.00045109569327905774
6144.0,-0.0006202452350407839
6656.0,-3.393625593162142e-05
7168.0,0.0006254321779124439
7680.0,-7.625425496371463e-05
8192.0,-0.00018120039021596313
9216.0,-0.0001971415913430974
10240.0,-0.0003087020886596292
11264.0,4.262753645889461e-05
12288.0,-0.0001297493581660092
13312.0,0.0002459051029291004
14336.0,0.0009461770532652736
end
