version,3.0
numOfCh,1
type,point
parent_name,800-cuts
ch_type,1_1
kcount,1
numberNandB,1
brightnessNandB,1
carpet pos,0
pc,0
Time (ms),CH1 Auto-Correlation
1.0,0.06499936431646347
2.0,0.06066137179732323
3.0,0.05667303130030632
4.0,0.052934568375349045
5.0,0.04948848858475685
6.0,0.04641392454504967
7.0,0.043749287724494934
8.0,0.04121802747249603
9.0,0.03884125128388405
10.0,0.036541905254125595
11.0,0.034455589950084686
12.0,0.032593708485364914
13.0,0.03074607066810131
14.0,0.028868621215224266
15.0,0.027122875675559044
16.0,0.025502892211079597
18.0,0.02236822247505188
20.0,0.019799143075942993
22.0,0.017806507647037506
24.0,0.016155358403921127
26.0,0.014780927449464798
28.0,0.013677877373993397
30.0,0.012462789192795753
32.0,0.01089432928711176
36.0,0.007996875792741776
40.0,0.006463224068284035
44.0,0.005232839845120907
48.0,0.0037199705839157104
52.0,0.0025183663237839937
56.0,0.0014290730468928814
60.0,0.00013174244668334723
64.0,-0.0012263543903827667
72.0,-0.001039842376485467
80.0,-0.0014434382319450378
88.0,-0.0008428353467024863
96.0,0.0010563459945842624
104.0,0.0016675479710102081
112.0,0.00031121427309699357
120.0,0.00012955137935932726
128.0,0.0009300501551479101
144.0,0.0008774851448833942
160.0,0.000693940615747124
176.0,0.0021824603900313377
192.0,0.002426978899165988
208.0,0.0005916784284636378
224.0,-0.0012820236152037978
240.0,-0.0004487197147682309
256.0,-0.00023359418264590204
288.0,-0.0015554019482806325
320.0,-0.0016852481057867408
352.0,4.467994949663989e-05
384.0,-0.0007036037859506905
416.0,-0.0004834714636672288
448.0,0.00020516535732895136
480.0,-0.0003696617786772549
512.0,0.0019511309219524264
576.0,-0.002150603337213397
640.0,2.5555676984367892e-05
704.0,-0.00034866173518821597
768.0,-0.00020847225096076727
832.0,0.0026569166220724583
896.0,0.0012601041235029697
960.0,-0.002524704672396183
1024.0,-0.0015772110782563686
1152.0,-0.0015843274304643273
1280.0,-0.00015738555521238595
1408.0,-3.077048677369021e-05
1536.0,0.0010661291889846325
1664.0,0.0011334253940731287
1792.0,0.0011791759170591831
1920.0,-0.00045802592649124563
2048.0,-0.0006377279059961438
2304.0,0.0014291773550212383
2560.0,-0.002129474189132452
2816.0,-0.0014418774517253041
3072.0,0.0016874782741069794
3328.0,-0.0005983561277389526
3584.0,-1.1877208635269199e-05
3840.0,0.0014549096813425422
4096.0,-0.0011502630077302456
4608.0,-0.0008894037455320358
5120.0,-2.5971268769353628e-05
5632.0,0.0004024462541565299
6144.0,0.0005725993542000651
6656.0,0.00016216965741477907
7168.0,0.0004261031572241336
7680.0,-0.00026843391242437065
8192.0,-6.6502601839602e-05
9216.0,-0.000733712047804147
10240.0,-0.0009569004760123789
11264.0,-0.00023214567045215517
12288.0,-0.00014265843492466956
13312.0,-0.00014320611080620438
14336.0,-0.00048512135981582105
end
