version,3.0
numOfCh,1
type,point
parent_name,800-cuts
ch_type,1_1
kcount,1
numberNandB,1
brightnessNandB,1
carpet pos,0
pc,0
Time (ms),CH1 Auto-Correlation
1.0,0.06554180383682251
2.0,0.06143927201628685
3.0,0.05758717283606529
4.0,0.053930073976516724
5.0,0.05055709555745125
6.0,0.04747511073946953
7.0,0.0445716418325901
8.0,0.041684433817863464
9.0,0.03899531811475754
10.0,0.03647990897297859
11.0,0.033978138118982315
12.0,0.031766053289175034
13.0,0.029658697545528412
14.0,0.02767130918800831
15.0,0.02577996626496315
16.0,0.023890038952231407
18.0,0.0208580419421196
20.0,0.018368670716881752
22.0,0.01635943166911602
24.0,0.014561999589204788
26.0,0.012847493402659893
28.0,0.011247100308537483
30.0,0.009859397076070309
32.0,0.008575904183089733
36.0,0.006389784626662731
40.0,0.004735601134598255
44.0,0.004001137800514698
48.0,0.003504705848172307
52.0,0.002953949151560664
56.0,0.0017867785645648837
60.0,0.0007378620211966336
64.0,0.00026342569617554545
72.0,-0.00048240344040095806
80.0,6.928011862328276e-05
88.0,0.0005312177818268538
96.0,5.643061376758851e-05
104.0,-0.00017789125558920205
112.0,-0.0006143677164800465
120.0,-0.0006502350443042815
128.0,-0.002264945534989238
144.0,-0.0035325726494193077
160.0,-0.002304322086274624
176.0,0.00019336343393661082
192.0,-0.0005453727790154517
208.0,-0.001853624009527266
224.0,-0.0011842135572806
240.0,-0.0010768204228952527
256.0,0.0004647666937671602
288.0,0.0010358464205637574
320.0,0.0014423601096495986
352.0,-0.0002979043056257069
384.0,-0.001979275606572628
416.0,-0.002106559230014682
448.0,-0.0013292300282046199
480.0,-0.0018754740012809634
512.0,-0.0024509320501238108
576.0,-0.0014833379536867142
640.0,-0.001606433535926044
704.0,-0.00159675651229918
768.0,0.00029027898563072085
832.0,0.0006505491328425705
896.0,0.002071304712444544
960.0,0.0017337346216663718
1024.0,0.0006859592976979911
1152.0,0.00018233846640214324
1280.0,-0.00044044048991054296
1408.0,0.0007810622919350863
1536.0,-3.6361732327350182e-06
1664.0,0.001451692427508533
1792.0,-0.000541282759513706
1920.0,-0.0010508353589102626
2048.0,0.00024653240689076483
2304.0,-0.0008859973750077188
2560.0,0.0007528348360210657
2816.0,0.0006550729740411043
3072.0,0.0004115909105166793
3328.0,-0.0006331628537736833
3584.0,-0.00028460173052735627
3840.0,0.00040236301720142365
4096.0,0.0009077431750483811
4608.0,-0.0016473011346533895
5120.0,0.0007022562203928828
5632.0,-0.00035859597846865654
6144.0,0.00027826218865811825
6656.0,0.00012247641279827803
7168.0,0.0011133442167192698
7680.0,-0.001235420466400683
8192.0,0.0007152449688874185
9216.0,0.00042152186506427824
10240.0,-0.0008402250823564827
11264.0,-0.00033983905450440943
12288.0,-0.0009470306104049087
13312.0,-0.000547138333786279
14336.0,-0.0006121948244981468
end
