version,3.0
numOfCh,1
type,point
parent_name,800-cuts
ch_type,1_1
kcount,1
numberNandB,1
brightnessNandB,1
carpet pos,0
pc,0
Time (ms),CH1 Auto-Correlation
1.0,0.05342824384570122
2.0,0.0496511273086071
3.0,0.046155381947755814
4.0,0.04284384846687317
5.0,0.039729055017232895
6.0,0.036847200244665146
7.0,0.0342571996152401
8.0,0.031798481941223145
9.0,0.029507827013731003
10.0,0.027447201311588287
11.0,0.025525828823447227
12.0,0.02382216975092888
13.0,0.022352885454893112
14.0,0.02102980576455593
15.0,0.019830787554383278
16.0,0.01876426301896572
18.0,0.01684955507516861
20.0,0.015128105878829956
22.0,0.013430336490273476
24.0,0.011679979972541332
26.0,0.01023272704333067
28.0,0.008925486356019974
30.0,0.007653523702174425
32.0,0.006591944023966789
36.0,0.005111906677484512
40.0,0.004223129246383905
44.0,0.0038189650513231754
48.0,0.003505435073748231
52.0,0.0031635775230824947
56.0,0.002425159327685833
60.0,0.0012596246087923646
64.0,0.0002874417114071548
72.0,-0.00020562572171911597
80.0,-0.00022623658878728747
88.0,-0.0003243014507461339
96.0,0.001017586444504559
104.0,0.0020853590685874224
112.0,0.0020217052660882473
120.0,0.0026366068050265312
128.0,0.0029216688126325607
144.0,0.0005483203567564487
160.0,-6.208458944456652e-05
176.0,0.002203606767579913
192.0,0.00176236464176327
208.0,0.00045724326628260314
224.0,0.0011544731678441167
240.0,0.0011695330031216145
256.0,-0.0004033836885355413
288.0,-0.0010147173888981342
320.0,0.00032136417576111853
352.0,-0.0006700079538859427
384.0,-0.0016118560452014208
416.0,-0.0015877392143011093
448.0,-0.002086109248921275
480.0,0.0006498413276858628
512.0,0.002523622242733836
576.0,0.0005890956963412464
640.0,-0.001056677894666791
704.0,0.0014498676173388958
768.0,0.00029548763995990157
832.0,0.0020101189147681
896.0,0.0032019626814872026
960.0,0.0008470662287436426
1024.0,-0.001457690610550344
1152.0,0.0006781544652767479
1280.0,-0.0006300706299953163
1408.0,0.0003828215121757239
1536.0,-0.0008909397292882204
1664.0,-0.00019555236212909222
1792.0,0.0003407113836146891
1920.0,0.0007272123475559056
2048.0,0.0004537988279480487
2304.0,7.015875598881394e-05
2560.0,0.0013754713581874967
2816.0,0.000497109373100102
3072.0,-0.0004546355630736798
3328.0,0.000213944076676853
3584.0,-0.0010734527604654431
3840.0,-0.0016228174790740013
4096.0,-8.985812746686861e-05
4608.0,-0.0008319035405293107
5120.0,-0.00046997590106911957
5632.0,-0.0011796908220276237
6144.0,-0.0006722162943333387
6656.0,-0.001201313454657793
7168.0,-0.0006325371214188635
7680.0,6.971329275984317e-05
8192.0,0.0004685585736297071
9216.0,0.00013269332703202963
10240.0,0.0010170069290325046
11264.0,0.0010637604864314198
12288.0,3.423932503210381e-05
13312.0,-0.0003334498032927513
14336.0,-0.001128696370869875
end
