version,3.0
numOfCh,1
type,point
parent_name,800-cuts
ch_type,1_1
kcount,1
numberNandB,1
brightnessNandB,1
carpet pos,0
pc,0
Time (ms),CH1 Auto-Correlation
1.0,0.05636625736951828
2.0,0.052469898015260696
3.0,0.04887312278151512
4.0,0.04555489122867584
5.0,0.04256702587008476
6.0,0.03976088762283325
7.0,0.037052419036626816
8.0,0.034541189670562744
9.0,0.03214436024427414
10.0,0.02998751401901245
11.0,0.027988528832793236
12.0,0.02617664821445942
13.0,0.024489937350153923
14.0,0.022878972813487053
15.0,0.021395090967416763
16.0,0.020007384940981865
18.0,0.01747952774167061
20.0,0.015268340706825256
22.0,0.013233679346740246
24.0,0.01132554654031992
26.0,0.00960442703217268
28.0,0.00793203990906477
30.0,0.006508524529635906
32.0,0.0055281068198382854
36.0,0.004144649486988783
40.0,0.0027680788189172745
44.0,0.0016550017753615975
48.0,0.0008704183856025338
52.0,0.0005342519143596292
56.0,0.0002983527083415538
60.0,0.00012388954928610474
64.0,-0.00011176138650625944
72.0,-0.0006181250791996717
80.0,0.00010871889389818534
88.0,0.0008160528377629817
96.0,0.0007161506800912321
104.0,0.0012338337255641818
112.0,0.0008182098972611129
120.0,0.001348782330751419
128.0,0.0013591398019343615
144.0,-0.0007214463548734784
160.0,-0.001593362307175994
176.0,-0.0024252620059996843
192.0,-0.004315391182899475
208.0,-0.0023844544775784016
224.0,0.0016086738323792815
240.0,0.0022582635283470154
256.0,0.001716822967864573
288.0,-0.001316713634878397
320.0,-0.0018193477299064398
352.0,-2.1717958134104265e-06
384.0,0.00127014284953475
416.0,0.0004653794167097658
448.0,0.0004881856148131192
480.0,0.0013811963144689798
512.0,0.00019332472584210336
576.0,0.00013347477943170816
640.0,-0.002500989008694887
704.0,-0.0020764763467013836
768.0,0.0009575703297741711
832.0,0.001080079236999154
896.0,5.307792889652774e-05
960.0,0.00019101450743619353
1024.0,0.0020894103217869997
1152.0,-0.0009981533512473106
1280.0,0.00011770091077778488
1408.0,-0.002183879492804408
1536.0,-0.0008425171254202724
1664.0,0.000808380194939673
1792.0,0.0011509109754115343
1920.0,0.0005873289774172008
2048.0,-0.0001989554293686524
2304.0,-0.00043123887735418975
2560.0,-0.0006948938826099038
2816.0,0.00029392947908490896
3072.0,-0.00049177574692294
3328.0,-0.0009638005867600441
3584.0,-0.0007365071214735508
3840.0,9.466893970966339e-05
4096.0,-0.00045792365563102067
4608.0,-0.0003062753821723163
5120.0,0.00019553684978745878
5632.0,0.00032842563814483583
6144.0,0.0007354767876677215
6656.0,0.00048018834786489606
7168.0,-0.0013529704883694649
7680.0,-0.000265169219346717
8192.0,0.0006226449622772634
9216.0,-0.0007435220759361982
10240.0,0.00013745574688073248
11264.0,1.1467213880678173e-06
12288.0,0.0006922052707523108
13312.0,-0.00019513609004206955
14336.0,0.00046573238796554506
end
