version,3.0
numOfCh,1
type,point
parent_name,800-cuts
ch_type,1_1
kcount,1
numberNandB,1
brightnessNandB,1
carpet pos,0
pc,0
Time (ms),CH1 Auto-Correlation
1.0,0.06913863867521286
2.0,0.0644117146730423
3.0,0.06003313884139061
4.0,0.055995579808950424
5.0,0.05231822654604912
6.0,0.0489230714738369
7.0,0.045717474073171616
8.0,0.0427284836769104
9.0,0.03992629423737526
10.0,0.037388771772384644
11.0,0.03495926037430763
12.0,0.032732363790273666
13.0,0.03055446967482567
14.0,0.028600724413990974
15.0,0.02673223800957203
16.0,0.0250911433249712
18.0,0.02233179658651352
20.0,0.019866760820150375
22.0,0.017605500295758247
24.0,0.015658633783459663
26.0,0.013727105222642422
28.0,0.012015827931463718
30.0,0.010733791626989841
32.0,0.009713415056467056
36.0,0.00782175175845623
40.0,0.006917751394212246
44.0,0.0063998764380812645
48.0,0.005231352988630533
52.0,0.004189630504697561
56.0,0.0028788780327886343
60.0,0.0021457476541399956
64.0,0.0018891372019425035
72.0,0.0012056718114763498
80.0,0.0003434399259276688
88.0,0.00030391098698601127
96.0,0.0010387523798272014
104.0,0.0012616772437468171
112.0,0.0009928245563060045
120.0,0.0021103634499013424
128.0,0.0027245620731264353
144.0,0.0019645688589662313
160.0,0.002484973520040512
176.0,0.0010856128064915538
192.0,-0.000871224096044898
208.0,-0.002540354151278734
224.0,-0.004304223228245974
240.0,-0.005591907538473606
256.0,-0.004808076191693544
288.0,-0.0010634972713887691
320.0,0.0038191548082977533
352.0,0.0017744735814630985
384.0,0.0020842954982072115
416.0,0.0006455822731368244
448.0,-0.0008333169389516115
480.0,0.000636005075648427
512.0,-0.0011848423164337873
576.0,-0.0002463071432430297
640.0,-7.236104011099087e-06
704.0,-0.0018456659745424986
768.0,0.00031633899197913706
832.0,-0.0037709171883761883
896.0,-0.0010526920668780804
960.0,0.00010110832226928324
1024.0,0.003219018690288067
1152.0,0.0029850767459720373
1280.0,-0.0016866239020600915
1408.0,0.0004238787805661559
1536.0,-3.0926803447073326e-05
1664.0,-0.003537930781021714
1792.0,-0.002175711328163743
1920.0,0.0006931358948349953
2048.0,-0.0015618184115737677
2304.0,0.001185368630103767
2560.0,0.0019432124681770802
2816.0,-0.0011503682471811771
3072.0,-0.0006536989822052419
3328.0,0.0007002854836173356
3584.0,0.0017432410968467593
3840.0,0.000488331017550081
4096.0,0.0010465964442119002
4608.0,-0.0013284065062180161
5120.0,-8.792769949650392e-05
5632.0,-0.0007202192791737616
6144.0,0.0003121117188129574
6656.0,-0.0011690453393384814
7168.0,0.00011178627028129995
7680.0,-0.0017470435705035925
8192.0,-0.00010217488306807354
9216.0,0.0011024998966604471
10240.0,4.2564297473290935e-05
11264.0,-0.000965554267168045
12288.0,-0.00010893316357396543
13312.0,0.0007594476919621229
14336.0,0.00011037990771001205
end
