version,3.0
numOfCh,1
type,point
parent_name,800-cuts
ch_type,1_1
kcount,1
numberNandB,1
brightnessNandB,1
carpet pos,0
pc,0
Time (ms),CH1 Auto-Correlation
1.0,0.022481929510831833
2.0,0.02106189727783203
3.0,0.019719725474715233
4.0,0.018453415483236313
5.0,0.01728231832385063
6.0,0.016199404373764992
7.0,0.015189146623015404
8.0,0.014259559102356434
9.0,0.013395119458436966
10.0,0.012623198330402374
11.0,0.011896299198269844
12.0,0.011222234927117825
13.0,0.010600171983242035
14.0,0.009986944496631622
15.0,0.009455638937652111
16.0,0.00895365048199892
18.0,0.008094202727079391
20.0,0.0073029580526053905
22.0,0.006651805713772774
24.0,0.006030956283211708
26.0,0.005412145983427763
28.0,0.004885206930339336
30.0,0.004395328927785158
32.0,0.003942878916859627
36.0,0.0031701652333140373
40.0,0.0026248858775943518
44.0,0.0021403476130217314
48.0,0.0016731395153328776
52.0,0.0012942145112901926
56.0,0.0011157284025102854
60.0,0.000987248495221138
64.0,0.0007782592438161373
72.0,-0.00017743729404173791
80.0,-0.0008452129550278187
88.0,-0.0010777800343930721
96.0,-0.0008951448835432529
104.0,-0.0006401498103514314
112.0,-0.0004870422126259655
120.0,-0.00044923604582436383
128.0,-0.0007113656029105186
144.0,-0.0009145024232566357
160.0,-0.0010142807150259614
176.0,-0.0008795074536465108
192.0,-0.0005918567185290158
208.0,-0.00032775310683064163
224.0,0.0005915160290896893
240.0,0.0006752778426744044
256.0,2.9564600481535308e-05
288.0,0.0002944472071249038
320.0,-0.00021454895613715053
352.0,-0.00038802335620857775
384.0,-0.0008393397438339889
416.0,-1.921571310958825e-05
448.0,0.0009691898594610393
480.0,0.0006159830954857171
512.0,6.563699116668431e-06
576.0,-1.4933852980902884e-05
640.0,-0.0006046734051778913
704.0,0.00012264448741916567
768.0,6.069404480513185e-05
832.0,5.44703689229209e-05
896.0,-0.00047349126543849707
960.0,-0.000409896660130471
1024.0,4.289190201234305e-06
1152.0,0.0002656314172782004
1280.0,0.00012784817954525352
1408.0,-0.00021257856860756874
1536.0,0.00043516868026927114
1664.0,-0.0004844280774705112
1792.0,-0.0005253373528830707
1920.0,0.00019770524522755295
2048.0,1.8755255950964056e-05
2304.0,0.00028301356360316277
2560.0,-0.000298442377243191
2816.0,0.0001485613756813109
3072.0,0.00016411083925049752
3328.0,-0.00013328697241377085
3584.0,-0.0003525670035742223
3840.0,0.00019343249732628465
4096.0,-4.623486893251538e-05
4608.0,-0.0004088172281626612
5120.0,1.8083963368553668e-05
5632.0,-0.00030572625109925866
6144.0,-2.437061266391538e-05
6656.0,9.562985360389575e-05
7168.0,-8.72157124831574e-06
7680.0,8.540546696167439e-05
8192.0,1.337260164291365e-05
9216.0,0.0001081541704479605
10240.0,0.0002104496961692348
11264.0,-0.00018250550783704966
12288.0,6.227345147635788e-05
13312.0,8.021070243557915e-06
14336.0,-0.000319198879878968
end
