version,3.0
numOfCh,1
type,point
parent_name,800-cuts
ch_type,1_1
kcount,1
numberNandB,1
brightnessNandB,1
carpet pos,0
pc,0
Time (ms),CH1 Auto-Correlation
1.0,0.019424740225076675
2.0,0.018224302679300308
3.0,0.0171050988137722
4.0,0.016088610514998436
5.0,0.015111629851162434
6.0,0.014242918230593204
7.0,0.013417518697679043
8.0,0.012627464719116688
9.0,0.011892406269907951
10.0,0.01119187194854021
11.0,0.010531558655202389
12.0,0.009933947585523129
13.0,0.009365072473883629
14.0,0.008844327181577682
15.0,0.008333940990269184
16.0,0.007821696810424328
18.0,0.006931663025170565
20.0,0.006131609436124563
22.0,0.0054432712495327
24.0,0.004848651587963104
26.0,0.0042623719200491905
28.0,0.0037792674265801907
30.0,0.0033838432282209396
32.0,0.0030835659708827734
36.0,0.0027342692483216524
40.0,0.002381480298936367
44.0,0.0018158317543566227
48.0,0.001246345229446888
52.0,0.0008702058112248778
56.0,0.0007308605127036572
60.0,0.0006881470908410847
64.0,0.0006271620513871312
72.0,0.00036162143805995584
80.0,9.91412453004159e-05
88.0,-0.0002692907291930169
96.0,-0.0002075499069178477
104.0,-2.642739491420798e-05
112.0,0.00018030230421572924
120.0,-0.0001023355798679404
128.0,-0.0005221052560955286
144.0,-0.0008448391454294324
160.0,-0.0006532873958349228
176.0,-0.00048571001389063895
192.0,-0.0005222142208367586
208.0,-0.0001502746163168922
224.0,3.499416561680846e-05
240.0,7.513331365771592e-05
256.0,-0.00017163112352136523
288.0,0.0001112593527068384
320.0,-5.655975655827206e-06
352.0,0.0002574845857452601
384.0,-0.00016767566557973623
416.0,-0.00021342297259252518
448.0,-0.0006276269559748471
480.0,-0.0005888938903808594
512.0,-0.00036123135942034423
576.0,-0.000556968676391989
640.0,-0.00047577201621606946
704.0,-0.0001853171706898138
768.0,-9.173420403385535e-05
832.0,0.0005122945876792073
896.0,-0.0005725024966523051
960.0,-0.0004891228745691478
1024.0,0.00029538082890212536
1152.0,-3.827215914498083e-05
1280.0,0.0005224047927185893
1408.0,0.0001687139883870259
1536.0,-1.69590439327294e-05
1664.0,-0.0006134948343969882
1792.0,-0.00014998819096945226
1920.0,-0.0003707619325723499
2048.0,-0.000344083207892254
2304.0,0.0003367351309861988
2560.0,0.00011309263209113851
2816.0,-0.00038566821604035795
3072.0,-0.00035678211133927107
3328.0,-0.00013513931480702013
3584.0,0.0006213668384589255
3840.0,-0.00012516234710346907
4096.0,-0.00011796909529948607
4608.0,0.0001561077224323526
5120.0,-0.00021171184198465198
5632.0,0.00021484174067154527
6144.0,-0.00026082058320753276
6656.0,0.00024625257356092334
7168.0,-0.00013264267181511968
7680.0,0.00022089217964094132
8192.0,-0.00043236580677330494
9216.0,4.399287354317494e-05
10240.0,-0.00019371738017071038
11264.0,1.9656634322018363e-05
12288.0,-0.00023787646205164492
13312.0,-5.689751105819596e-06
14336.0,-0.00025131352595053613
end
