version,3.0
numOfCh,1
type,point
parent_name,800-cuts
ch_type,1_1
kcount,1
numberNandB,1
brightnessNandB,1
carpet pos,0
pc,0
Time (ms),CH1 Auto-Correlation
1.0,0.0287006925791502
2.0,0.026943529024720192
3.0,0.02530723810195923
4.0,0.023770080879330635
5.0,0.022302841767668724
6.0,0.020940471440553665
7.0,0.019663074985146523
8.0,0.018466908484697342
9.0,0.017338799312710762
10.0,0.016307037323713303
11.0,0.015362933278083801
12.0,0.014546709135174751
13.0,0.013792718760669231
14.0,0.013070356100797653
15.0,0.012370480224490166
16.0,0.011745729483664036
18.0,0.010524517856538296
20.0,0.00933411531150341
22.0,0.008332761935889721
24.0,0.00751140434294939
26.0,0.006729950197041035
28.0,0.006084248423576355
30.0,0.005537415388971567
32.0,0.005085361190140247
36.0,0.004296859260648489
40.0,0.0036247929092496634
44.0,0.003200774546712637
48.0,0.002716470742598176
52.0,0.002441651886329055
56.0,0.002303146990016103
60.0,0.0021445013117045164
64.0,0.0018220542697235942
72.0,0.001176295685581863
80.0,0.0008784211822785437
88.0,0.0008545106975361705
96.0,0.0005628904909826815
104.0,0.00021729299623984843
112.0,-0.00014338565233629197
120.0,-6.606208626180887e-05
128.0,0.0003690360172186047
144.0,0.0005338707705959678
160.0,0.00027477272669784725
176.0,-0.0001508437708253041
192.0,-2.4431865313090384e-05
208.0,0.00034623616375029087
224.0,0.0002276162849739194
240.0,0.0002699713222682476
256.0,0.0005563885206356645
288.0,0.0009196222526952624
320.0,0.0003239833749830723
352.0,-0.0014505613362416625
384.0,-0.0006555782747454941
416.0,-5.1891853217966855e-05
448.0,0.00047815110883675516
480.0,0.000568062998354435
512.0,0.0004612753982655704
576.0,-0.00021590226970147341
640.0,-0.0005129215423949063
704.0,-0.0022923359647393227
768.0,-0.0016653951024636626
832.0,-0.00018977020226884633
896.0,0.0008754191803745925
960.0,-0.0005344690289348364
1024.0,-0.0012642861111089587
1152.0,-2.955927629955113e-05
1280.0,-0.00010697385005187243
1408.0,0.0009339565876871347
1536.0,0.0003810831403825432
1664.0,-0.000835003680549562
1792.0,-0.0008429715526290238
1920.0,-0.0007699336856603622
2048.0,-0.001453917589969933
2304.0,7.505781832151115e-05
2560.0,-0.0002023746637860313
2816.0,0.00047019205521792173
3072.0,-0.00030381325632333755
3328.0,0.00018580407777335495
3584.0,-0.0003627738915383816
3840.0,-0.00011149489728268236
4096.0,0.00013689913612324744
4608.0,0.00038298784056678414
5120.0,0.0005567827611230314
5632.0,-0.0007791192037984729
6144.0,-0.0006300790118984878
6656.0,-0.00043404739699326456
7168.0,-0.00010813461994985119
7680.0,0.0012423571897670627
8192.0,5.703212445951067e-05
9216.0,-0.0004621253756340593
10240.0,-0.00048833031905815
11264.0,9.639968629926443e-05
12288.0,0.0005499086109921336
13312.0,0.00039197332807816565
14336.0,-0.0009188521653413773
end
