version,3.0
numOfCh,1
type,point
parent_name,800-cuts
ch_type,1_1
kcount,1
numberNandB,1
brightnessNandB,1
carpet pos,0
pc,0
Time (ms),CH1 Auto-Correlation
1.0,0.024212801828980446
2.0,0.022742487490177155
3.0,0.021364251151680946
4.0,0.020085806027054787
5.0,0.018884319812059402
6.0,0.01774563081562519
7.0,0.016729727387428284
8.0,0.01577562466263771
9.0,0.01496922317892313
10.0,0.014170804992318153
11.0,0.013399144634604454
12.0,0.012639460153877735
13.0,0.011921852827072144
14.0,0.011243174783885479
15.0,0.010627851821482182
16.0,0.010057772509753704
18.0,0.00899707991629839
20.0,0.00809315126389265
22.0,0.0073350658640265465
24.0,0.006617200095206499
26.0,0.0059911045245826244
28.0,0.005479488987475634
30.0,0.004998413380235434
32.0,0.00456548435613513
36.0,0.003766112495213747
40.0,0.003111894242465496
44.0,0.0025778571143746376
48.0,0.0020446297712624073
52.0,0.0014467978617176414
56.0,0.000901615247130394
60.0,0.0004297136911191046
64.0,-5.5986252846196294e-05
72.0,-0.0007769009680487216
80.0,-0.0014585743192583323
88.0,-0.0015020909486338496
96.0,-0.0009247619891539216
104.0,-0.0006558100576512516
112.0,-0.0005632990505546331
120.0,-0.0007576170610263944
128.0,-0.00098453089594841
144.0,-0.0005292079295031726
160.0,-0.0003842084261123091
176.0,-0.00027226671227253973
192.0,0.0010083860252052546
208.0,0.001327310805208981
224.0,0.0007976702763698995
240.0,0.0005764138186350465
256.0,0.00042180196032859385
288.0,0.0008607161580584943
320.0,5.7862878747982904e-05
352.0,2.3412179871229455e-05
384.0,-0.0004122466780245304
416.0,-3.710071905516088e-05
448.0,0.0005773254670202732
480.0,0.0008740942575968802
512.0,0.00043084012577310205
576.0,-0.0008974462980404496
640.0,-2.6012568923761137e-05
704.0,0.0008081899140961468
768.0,0.0008028715965338051
832.0,0.00012592932034749538
896.0,1.434014211554313e-05
960.0,0.0006576114101335406
1024.0,0.0005613915855064988
1152.0,-0.0002785254328045994
1280.0,0.0010838402668014169
1408.0,0.00016770513320807368
1536.0,0.0008376234327442944
1664.0,0.0005417444044724107
1792.0,9.576605225447565e-05
1920.0,0.0005164582980796695
2048.0,-0.0005291827255859971
2304.0,-0.00023564365983475
2560.0,-0.00020498149388004094
2816.0,0.00022981510846875608
3072.0,1.5889923815848306e-05
3328.0,1.7937858501682058e-05
3584.0,-0.00016776443226262927
3840.0,-0.0001325929770246148
4096.0,8.368986163986847e-05
4608.0,-1.117459214583505e-05
5120.0,-8.827679266687483e-06
5632.0,-0.00030650722328573465
6144.0,0.00030540674924850464
6656.0,-0.0003821629798039794
7168.0,-0.0005524835432879627
7680.0,0.00010046389070339501
8192.0,-0.0006867275224067271
9216.0,-0.00017199649300891906
10240.0,5.2266510465415195e-05
11264.0,-0.0001306117483181879
12288.0,-0.000289561809040606
13312.0,-0.0011063317069783807
14336.0,4.76564764539944e-06
end
