version,3.0
numOfCh,1
type,point
parent_name,800-cuts
ch_type,1_1
kcount,1
numberNandB,1
brightnessNandB,1
carpet pos,0
pc,0
Time (ms),CH1 Auto-Correlation
1.0,0.01983463019132614
2.0,0.018542153760790825
3.0,0.017361775040626526
4.0,0.01627831719815731
5.0,0.015242964960634708
6.0,0.014293495565652847
7.0,0.01341755036264658
8.0,0.012568320147693157
9.0,0.011785171926021576
10.0,0.011083295568823814
11.0,0.010453755967319012
12.0,0.009844460524618626
13.0,0.009266814216971397
14.0,0.008706451393663883
15.0,0.008172265253961086
16.0,0.007664442993700504
18.0,0.006708028260618448
20.0,0.0058075799606740475
22.0,0.004976759664714336
24.0,0.004237636923789978
26.0,0.003660014132037759
28.0,0.003157766070216894
30.0,0.002750562271103263
32.0,0.00236703222617507
36.0,0.0016647574957460165
40.0,0.001065121847204864
44.0,0.0006038091378286481
48.0,0.00038032050360925496
52.0,0.00011166718468302861
56.0,-8.08435506769456e-05
60.0,-0.0003062858013436198
64.0,-0.0005057252128608525
72.0,-0.0009520368184894323
80.0,-0.0006670420989394188
88.0,0.00015355860523413867
96.0,0.00034254774800501764
104.0,2.9236884074634872e-05
112.0,-4.875105878454633e-05
120.0,-0.00022130220895633101
128.0,-0.0005131263169459999
144.0,9.850889910012484e-05
160.0,0.0006561335758306086
176.0,0.0003297729999758303
192.0,0.00016208665329031646
208.0,-0.00014923491107765585
224.0,-4.008051473647356e-05
240.0,-0.0007249097689054906
256.0,-0.0013850913383066654
288.0,-0.0013484935043379664
320.0,-0.000396145973354578
352.0,-1.3884497093386017e-05
384.0,-0.00041884073289111257
416.0,7.229402399389073e-05
448.0,-1.73754378920421e-05
480.0,-0.0009893912356346846
512.0,-0.000282857014099136
576.0,0.000267668190645054
640.0,0.0008657533908262849
704.0,6.054292498447467e-06
768.0,0.00017335766460746527
832.0,-7.853892020648345e-05
896.0,0.00011589932546485215
960.0,0.0006107128574512899
1024.0,-0.00036451424239203334
1152.0,-8.90302635525586e-06
1280.0,-0.0003408852790016681
1408.0,-0.0008900088141672313
1536.0,-0.0006608664407394826
1664.0,0.00041153072379529476
1792.0,-0.000256452796747908
1920.0,-0.0003290217136964202
2048.0,-3.0773568141739815e-05
2304.0,1.285941107198596e-05
2560.0,-4.280375833332073e-06
2816.0,2.2801717932452448e-05
3072.0,0.000247790856519714
3328.0,0.0001545547420391813
3584.0,-3.8364909414667636e-05
3840.0,0.00014345785893965513
4096.0,0.0003139442123938352
4608.0,-0.0001453714066883549
5120.0,-0.00011144601739943027
5632.0,-5.184568726690486e-05
6144.0,1.0507728802622296e-05
6656.0,-6.580755871254951e-05
7168.0,-0.0001579160161782056
7680.0,3.034438805116224e-06
8192.0,-2.036142541328445e-05
9216.0,0.00015088621876202524
10240.0,-5.1747487304965034e-05
11264.0,-0.000199488626094535
12288.0,0.0002884874411392957
13312.0,6.447161467804108e-06
14336.0,-0.0006571994163095951
end
