version,3.0
numOfCh,1
type,point
parent_name,800-cuts
ch_type,1_1
kcount,1
numberNandB,1
brightnessNandB,1
carpet pos,0
pc,0
Time (ms),CH1 Auto-Correlation
1.0,0.018655743449926376
2.0,0.017381994053721428
3.0,0.016240078955888748
4.0,0.015155761502683163
5.0,0.014109402894973755
6.0,0.013142166659235954
7.0,0.012249503284692764
8.0,0.011386196129024029
9.0,0.01056633796542883
10.0,0.009800385683774948
11.0,0.009043870493769646
12.0,0.008366784080862999
13.0,0.007729976903647184
14.0,0.0071515715681016445
15.0,0.0065892222337424755
16.0,0.006038075312972069
18.0,0.0050491816364228725
20.0,0.004202514421194792
22.0,0.003472506068646908
24.0,0.0028718002140522003
26.0,0.002273743273690343
28.0,0.0017737619346007705
30.0,0.0013543234672397375
32.0,0.0009873660746961832
36.0,0.0004970110603608191
40.0,0.00022937780886422843
44.0,1.828508175094612e-05
48.0,-0.00012464873725548387
52.0,-0.00019935604359488934
56.0,-0.00023353382130153477
60.0,-0.00029333739075809717
64.0,-0.0002773751912172884
72.0,-9.880788275040686e-05
80.0,-0.00021056883269920945
88.0,-0.0004259144188836217
96.0,-0.00033661487395875156
104.0,-0.00011729505786206573
112.0,0.00022926345991436392
120.0,0.00039996765553951263
128.0,0.00031690564355812967
144.0,0.00030311010777950287
160.0,8.656182762933895e-05
176.0,-0.0004034080193378031
192.0,-0.0005826250999234617
208.0,-0.00013298368139658123
224.0,5.581478490057634e-06
240.0,-0.00024631732958368957
256.0,-0.0008563289302401245
288.0,-0.00018336133507546037
320.0,-0.00022937946778256446
352.0,-0.0001604677818249911
384.0,0.00035682437010109425
416.0,0.001298960647545755
448.0,0.0011321132769808173
480.0,-0.0001697886036708951
512.0,-0.0010069156996905804
576.0,0.00043410391663201153
640.0,-0.00014491738693322986
704.0,-0.0005033922498114407
768.0,-0.001025583827868104
832.0,0.0007048313855193555
896.0,0.00021263216331135482
960.0,0.00024959660368040204
1024.0,0.0003051267412956804
1152.0,0.0002838688378687948
1280.0,-3.0255097954068333e-05
1408.0,0.0003377403481863439
1536.0,-0.00016594924090895802
1664.0,0.0003683838003780693
1792.0,-0.00025194784393534064
1920.0,-0.0002573496603872627
2048.0,-0.000142981021781452
2304.0,0.0003936955763492733
2560.0,-4.904085471935105e-06
2816.0,7.936693145893514e-05
3072.0,0.00012383266584947705
3328.0,0.0002793471503537148
3584.0,0.00011116782116005197
3840.0,8.32093573990278e-05
4096.0,-0.00010837888839887455
4608.0,7.507501868531108e-05
5120.0,-0.00039299196214415133
5632.0,-3.387061951798387e-05
6144.0,-2.9929529773653485e-05
6656.0,-3.375360756763257e-05
7168.0,-0.00011052088666474447
7680.0,7.955237379064783e-06
8192.0,-0.0005491027841344476
9216.0,-4.425682345754467e-05
10240.0,1.6395641750932555e-06
11264.0,-0.00011248361261095852
12288.0,-0.00014488511078525335
13312.0,-7.35768917365931e-05
14336.0,4.889888077741489e-05
end
