version,3.0
numOfCh,1
type,point
parent_name,800-cuts
ch_type,1_1
kcount,1
numberNandB,1
brightnessNandB,1
carpet pos,0
pc,0
Time (ms),CH1 Auto-Correlation
1.0,0.024099769070744514
2.0,0.022408680990338326
3.0,0.02084539085626602
4.0,0.019386643543839455
5.0,0.018040623515844345
6.0,0.016833273693919182
7.0,0.015706952661275864
8.0,0.014683788642287254
9.0,0.013723406940698624
10.0,0.012827644124627113
11.0,0.012013239786028862
12.0,0.011201253160834312
13.0,0.01039501279592514
14.0,0.009638153947889805
15.0,0.008931286633014679
16.0,0.008255776017904282
18.0,0.007046443410217762
20.0,0.005950824357569218
22.0,0.00503910705447197
24.0,0.00427404185757041
26.0,0.00364292343147099
28.0,0.0031119417399168015
30.0,0.0026724382769316435
32.0,0.0022803316824138165
36.0,0.0016427736263722181
40.0,0.0011289467802271247
44.0,0.0007268756162375212
48.0,0.0003348422469571233
52.0,-7.575099152745679e-05
56.0,-0.0002351227158214897
60.0,-0.0003061545721720904
64.0,-0.0003805384912993759
72.0,-0.00035346084041520953
80.0,0.0003960964095313102
88.0,0.0010687493486329913
96.0,0.0012653127778321505
104.0,0.0013590578455477953
112.0,0.0012592460261657834
120.0,0.0011447796132415533
128.0,0.0008225100464187562
144.0,0.000559364736545831
160.0,0.0005317667382769287
176.0,0.001067273668013513
192.0,0.0008384061511605978
208.0,-0.00022118310153018683
224.0,-0.00033460106351412833
240.0,0.00026731143589131534
256.0,0.0004469550622161478
288.0,0.0004223347350489348
320.0,-6.717002543155104e-05
352.0,0.00010026976087829098
384.0,0.00010210381879005581
416.0,-0.0009840501006692648
448.0,-0.00011468070442788303
480.0,-0.00034158313064835966
512.0,-0.0003255494812037796
576.0,0.00023686034546699375
640.0,0.0009261744562536478
704.0,2.8361435397528112e-05
768.0,3.0637995223514736e-05
832.0,0.00029225737671367824
896.0,-0.0005160965374670923
960.0,0.00035831471905112267
1024.0,0.00012426772445905954
1152.0,-0.0004034430312458426
1280.0,-0.00015073519898578525
1408.0,-0.0002397744101472199
1536.0,-0.00035223833401687443
1664.0,0.00022198479564394802
1792.0,-4.577871004585177e-05
1920.0,0.00024168418894987553
2048.0,-0.00012842484284192324
2304.0,-3.2135078527062433e-06
2560.0,-0.00037753090145997703
2816.0,-0.0007136109634302557
3072.0,0.0005539593403227627
3328.0,0.00038159871473908424
3584.0,0.0007981942617334425
3840.0,-0.00047089840518310666
4096.0,2.2758675186196342e-05
4608.0,-0.0004389657115098089
5120.0,-4.351263487478718e-05
5632.0,0.0002721229684539139
6144.0,-0.0003063612966798246
6656.0,0.00012719859660137445
7168.0,-0.0007028759573586285
7680.0,-0.0005487132002599537
8192.0,-9.954159759217873e-05
9216.0,0.00047610688488930464
10240.0,-0.0007020396878942847
11264.0,-0.0009038638672791421
12288.0,0.0008029777673073113
13312.0,7.503270171582699e-05
14336.0,0.0001567364379297942
end
