version,3.0
numOfCh,1
type,point
parent_name,800-cuts
ch_type,1_1
kcount,1
numberNandB,1
brightnessNandB,1
carpet pos,0
pc,0
Time (ms),CH1 Auto-Correlation
1.0,0.0640554130077362
2.0,0.06015555188059807
3.0,0.05653101205825806
4.0,0.05319908633828163
5.0,0.05004887655377388
6.0,0.04702700674533844
7.0,0.044318001717329025
8.0,0.041771065443754196
9.0,0.03945266082882881
10.0,0.03730734810233116
11.0,0.03521658107638359
12.0,0.03345972299575806
13.0,0.031810373067855835
14.0,0.03032110072672367
15.0,0.02889852412045002
16.0,0.027597421780228615
18.0,0.02533111535012722
20.0,0.023128388449549675
22.0,0.02098763734102249
24.0,0.018984591588377953
26.0,0.01698625087738037
28.0,0.015234091319143772
30.0,0.013676539063453674
32.0,0.012553734704852104
36.0,0.01083134301006794
40.0,0.009357459843158722
44.0,0.00796356238424778
48.0,0.0069340066984295845
52.0,0.006126438733190298
56.0,0.005087984725832939
60.0,0.004646265879273415
64.0,0.004262740258127451
72.0,0.0036728165578097105
80.0,0.0023718958254903555
88.0,0.00092309684259817
96.0,-0.0004774159169755876
104.0,-0.0024359808303415775
112.0,-0.00470934621989727
120.0,-0.005026147700846195
128.0,-0.004681347403675318
144.0,-0.006071485113352537
160.0,-0.00561453215777874
176.0,-0.004032006487250328
192.0,-0.002652802737429738
208.0,-0.000529134355019778
224.0,0.0011408610735088587
240.0,0.0034702953416854143
256.0,0.00369852758012712
288.0,0.00257993140257895
320.0,0.000991477514617145
352.0,-0.0012456453405320644
384.0,-0.003334413981065154
416.0,-0.004198889248073101
448.0,-0.002658761339262128
480.0,0.0019308424089103937
512.0,0.002478663343936205
576.0,0.001887621358036995
640.0,-0.0020983682479709387
704.0,0.0006264561670832336
768.0,0.001418525236658752
832.0,0.0023905523121356964
896.0,0.000958598917350173
960.0,-0.0011381808435544372
1024.0,-0.0032451481092721224
1152.0,0.000454302120488137
1280.0,0.0015121449250727892
1408.0,0.00016006635269150138
1536.0,-0.0015521330060437322
1664.0,0.000588397029787302
1792.0,-0.0005846565472893417
1920.0,0.0017252578400075436
2048.0,-0.001282594632357359
2304.0,-0.0003155966114718467
2560.0,0.001975320279598236
2816.0,-0.0021402817219495773
3072.0,-0.000519523280672729
3328.0,-0.0022978859487921
3584.0,0.0010909907286986709
3840.0,-5.925432196818292e-05
4096.0,-0.0003801104612648487
4608.0,0.0005172030651010573
5120.0,0.0005112911458127201
5632.0,-0.0004257438122294843
6144.0,-0.00014556114911101758
6656.0,-0.0010793316178023815
7168.0,0.0005269219982437789
7680.0,-0.0028363249730318785
8192.0,0.0006916486308909953
9216.0,-8.230388630181551e-05
10240.0,0.0006653063464909792
11264.0,-8.973242074716836e-05
12288.0,-0.0009749275632202625
13312.0,-0.0006445629405789077
14336.0,0.00047848786925897
end
