version,3.0
numOfCh,1
type,point
parent_name,800-cuts
ch_type,1_1
kcount,1
numberNandB,1
brightnessNandB,1
carpet pos,0
pc,0
Time (ms),CH1 Auto-Correlation
1.0,0.02756880596280098
2.0,0.02565956488251686
3.0,0.02388039045035839
4.0,0.022238967940211296
5.0,0.020745905116200447
6.0,0.019353842362761497
7.0,0.018062559887766838
8.0,0.016835413873195648
9.0,0.015717636793851852
10.0,0.014665192924439907
11.0,0.013673188164830208
12.0,0.012787002138793468
13.0,0.011950340121984482
14.0,0.011187996715307236
15.0,0.010466601699590683
16.0,0.009775417856872082
18.0,0.008522825315594673
20.0,0.007319319061934948
22.0,0.006235647480934858
24.0,0.005407250020653009
26.0,0.004671319387853146
28.0,0.003931757062673569
30.0,0.003215754171833396
32.0,0.002662439364939928
36.0,0.0017078155651688576
40.0,0.0012644017115235329
44.0,0.0011752158170565963
48.0,0.001035233959555626
52.0,0.0007718405686318874
56.0,0.0004229196347296238
60.0,0.0001258011907339096
64.0,-0.00010380421008449048
72.0,-0.0011297260643914342
80.0,-0.0017489790916442871
88.0,-0.0017486442811787128
96.0,-0.0016463358188048005
104.0,-0.0013956596376374364
112.0,-0.0011124764569103718
120.0,-0.0006149490363895893
128.0,-0.00013556587509810925
144.0,0.0008483498240821064
160.0,0.00017866073176264763
176.0,-0.0007538339705206454
192.0,-0.0006710589514113963
208.0,-0.0002778963535092771
224.0,-0.0008405264816246927
240.0,-0.001164891174994409
256.0,-0.0008731682319194078
288.0,-0.0007339886506088078
320.0,-0.0016674221260473132
352.0,-0.000204029303858988
384.0,-0.00019085389794781804
416.0,0.0006679841317236423
448.0,-0.00021187834499869496
480.0,-0.0010074807796627283
512.0,0.0001649630139581859
576.0,-0.00023223845346365124
640.0,0.0012603469658643007
704.0,-0.00046701071551069617
768.0,-0.002393796807155013
832.0,-0.00019753363449126482
896.0,0.0002516399254091084
960.0,-3.466176349320449e-05
1024.0,0.0006995897274464369
1152.0,-9.715197666082531e-05
1280.0,-2.0430828953976743e-05
1408.0,0.0002342795633012429
1536.0,0.0008527620229870081
1664.0,-0.0007088967249728739
1792.0,-0.0006691699963994324
1920.0,0.0003760881081689149
2048.0,-6.245633994694799e-05
2304.0,-0.0003439000283833593
2560.0,5.8827448810916394e-05
2816.0,0.00014821010699961334
3072.0,0.00025082624051719904
3328.0,0.0001640500850044191
3584.0,4.9311245675198734e-05
3840.0,-0.00016676803352311254
4096.0,-0.0005286022205837071
4608.0,7.040802302071825e-05
5120.0,-0.0002132490772055462
5632.0,-4.120757876080461e-05
6144.0,0.00034270231844857335
6656.0,-0.0001866407401394099
7168.0,0.0001671208010520786
7680.0,0.00010651228512870148
8192.0,-0.000231435609748587
9216.0,-2.4347649741685018e-05
10240.0,-3.128812386421487e-05
11264.0,1.4601069779018871e-05
12288.0,-1.5171945960901212e-05
13312.0,-1.717581835691817e-05
14336.0,6.861436122562736e-05
end
