version,3.0
numOfCh,1
type,point
parent_name,800-cuts
ch_type,1_1
kcount,1
numberNandB,1
brightnessNandB,1
carpet pos,0
pc,0
Time (ms),CH1 Auto-Correlation
1.0,0.020829034969210625
2.0,0.019429389387369156
3.0,0.01815277896821499
4.0,0.016976144164800644
5.0,0.01587042398750782
6.0,0.01483069732785225
7.0,0.013858705759048462
8.0,0.012958060950040817
9.0,0.012126541696488857
10.0,0.011358678340911865
11.0,0.010645579546689987
12.0,0.010030310600996017
13.0,0.009468737058341503
14.0,0.008909745141863823
15.0,0.008400175720453262
16.0,0.00794064812362194
18.0,0.007090654224157333
20.0,0.006295299623161554
22.0,0.005564764142036438
24.0,0.004780172370374203
26.0,0.004011736251413822
28.0,0.003334758570417762
30.0,0.002718626754358411
32.0,0.0022392435930669308
36.0,0.0016865154029801488
40.0,0.0014273899141699076
44.0,0.001123259891755879
48.0,0.0010638152016326785
52.0,0.0010171588510274887
56.0,0.0009858905104920268
60.0,0.0010241015115752816
64.0,0.001112662605009973
72.0,0.001108868164010346
80.0,0.0013370959786698222
88.0,0.0013274801895022392
96.0,0.0008027830626815557
104.0,0.00038024483365006745
112.0,0.00029121775878593326
120.0,0.0005700691253878176
128.0,0.0005492844502441585
144.0,0.0005073405336588621
160.0,-0.0002131543296854943
176.0,-0.0005546040483750403
192.0,-0.00043829696369357407
208.0,0.00031840961310081184
224.0,0.0006262226379476488
240.0,0.00047980088857002556
256.0,0.00011729785182978958
288.0,-0.0007000138284638524
320.0,-0.00033989184885285795
352.0,-0.0011905846185982227
384.0,-0.00024124640913214535
416.0,-0.0011529735056683421
448.0,-0.0014986470341682434
480.0,-0.001226884895004332
512.0,-0.0008993154624477029
576.0,-1.7411524822819047e-05
640.0,-6.920982559677213e-05
704.0,0.00021285157708916813
768.0,-0.0003397180698812008
832.0,0.0005840237718075514
896.0,0.00037290388718247414
960.0,0.0001391661644447595
1024.0,0.00021107023349031806
1152.0,-2.3265127310878597e-05
1280.0,0.000735306239221245
1408.0,-0.00031378382118418813
1536.0,-0.0005783840897493064
1664.0,3.97708936361596e-05
1792.0,0.000322116567986086
1920.0,0.000294267141725868
2048.0,-0.0002853235637303442
2304.0,-0.000549678283277899
2560.0,0.0005828683497384191
2816.0,0.00011903744598384947
3072.0,-0.0010878036264330149
3328.0,-0.00038175476947799325
3584.0,-0.00014235034177545458
3840.0,0.0006983501370996237
4096.0,-8.087444439297542e-05
4608.0,-0.0003193714946974069
5120.0,0.0003442408051341772
5632.0,-0.0001988490403164178
6144.0,0.00024921915610320866
6656.0,0.00039925117744132876
7168.0,-0.0005203179316595197
7680.0,0.00026636075926944613
8192.0,-0.00018129657837562263
9216.0,-0.00013423631025943905
10240.0,0.00033724194508977234
11264.0,0.00014718013699166477
12288.0,2.959667290269863e-05
13312.0,-0.0006365448934957385
14336.0,-0.0005241674953140318
end
