version,3.0
numOfCh,1
type,point
parent_name,800-cuts
ch_type,1_1
kcount,1
numberNandB,1
brightnessNandB,1
carpet pos,0
pc,0
Time (ms),CH1 Auto-Correlation
1.0,0.01744319684803486
2.0,0.01633698306977749
3.0,0.015298586338758469
4.0,0.01432465948164463
5.0,0.013448991812765598
6.0,0.012620480731129646
7.0,0.011792237870395184
8.0,0.01101682148873806
9.0,0.01028087642043829
10.0,0.00962749496102333
11.0,0.009030413813889027
12.0,0.00845408160239458
13.0,0.00792639423161745
14.0,0.007437646854668856
15.0,0.00700532179325819
16.0,0.006631412077695131
18.0,0.005958039313554764
20.0,0.005375445354729891
22.0,0.004872968886047602
24.0,0.004412369802594185
26.0,0.004008667077869177
28.0,0.003591712797060609
30.0,0.00318143586628139
32.0,0.002881423570215702
36.0,0.002434799214825034
40.0,0.0020492528565227985
44.0,0.0015113266417756677
48.0,0.0011144904419779778
52.0,0.0009673522436060011
56.0,0.0009448548662476242
60.0,0.0009929992957040668
64.0,0.0009741186513565481
72.0,0.001101151923649013
80.0,0.0012277213390916586
88.0,0.001326445839367807
96.0,0.0010999446967616677
104.0,0.0009434267412871122
112.0,0.0009108934900723398
120.0,0.0008568681660108268
128.0,0.000563510344363749
144.0,4.7463301598327234e-05
160.0,-0.0002034437347901985
176.0,-0.0004137920041102916
192.0,-0.000678428215906024
208.0,-0.0004442961362656206
224.0,-0.001008682302199304
240.0,-0.0005655110580846667
256.0,3.133693462586962e-05
288.0,6.139581091701984e-05
320.0,-0.00019068681285716593
352.0,0.00025394654949195683
384.0,-9.297001088270918e-05
416.0,-5.818719364469871e-05
448.0,-0.00015702183009125292
480.0,-0.0004046770336572081
512.0,-0.0005937769892625511
576.0,-0.000501174246892333
640.0,3.4507094824220985e-05
704.0,-0.0004964243853464723
768.0,0.0005453142803162336
832.0,0.00031559381750412285
896.0,0.0003864469181280583
960.0,0.0002899888495448977
1024.0,-0.00010194834612775594
1152.0,-0.0004885426606051624
1280.0,-0.00032500826637260616
1408.0,-0.0002538852859288454
1536.0,-0.0009891559602692723
1664.0,-5.2725023124367e-05
1792.0,-0.00017976142407860607
1920.0,-0.0006398488767445087
2048.0,-0.00027653155848383904
2304.0,-8.821870142128319e-05
2560.0,-0.00037802287261001766
2816.0,0.0005412885220721364
3072.0,0.00035246883635409176
3328.0,-8.803265518508852e-05
3584.0,9.364091965835541e-05
3840.0,0.0002571455843281001
4096.0,0.0003078393929172307
4608.0,-0.00025584051036275923
5120.0,2.6905438517133007e-06
5632.0,-0.00015900198195595294
6144.0,0.0001090970981749706
6656.0,0.00010781970922835171
7168.0,0.00020473566837608814
7680.0,-0.00031270107137970626
8192.0,-0.0003151531855110079
9216.0,-5.3220908739604056e-05
10240.0,6.528195808641613e-05
11264.0,0.0003146464005112648
12288.0,-0.0004005318623967469
13312.0,-0.00028134434251114726
14336.0,0.0004389300593174994
end
