version,3.0
numOfCh,1
type,point
parent_name,800-cuts
ch_type,1_1
kcount,1
numberNandB,1
brightnessNandB,1
carpet pos,0
pc,0
Time (ms),CH1 Auto-Correlation
1.0,0.06654788553714752
2.0,0.06218750402331352
3.0,0.05829000100493431
4.0,0.05462895333766937
5.0,0.05143629387021065
6.0,0.048505011945962906
7.0,0.045678332448005676
8.0,0.0430869497358799
9.0,0.04073753580451012
10.0,0.038431402295827866
11.0,0.0362982340157032
12.0,0.03430706262588501
13.0,0.03237461298704147
14.0,0.030745070427656174
15.0,0.029279235750436783
16.0,0.027943609282374382
18.0,0.02551095373928547
20.0,0.02297990955412388
22.0,0.020713847130537033
24.0,0.01875227689743042
26.0,0.01682787761092186
28.0,0.014812720939517021
30.0,0.012750222347676754
32.0,0.010953615419566631
36.0,0.008174821734428406
40.0,0.005857786629348993
44.0,0.004877098836004734
48.0,0.004187080543488264
52.0,0.0036871477495878935
56.0,0.0029953753110021353
60.0,0.0024919246789067984
64.0,0.0023651926312595606
72.0,0.0023209541104733944
80.0,0.002151140244677663
88.0,0.0009392335778102279
96.0,0.0009669421706348658
104.0,0.0011882021790370345
112.0,0.00035174607182852924
120.0,-0.0003896332927979529
128.0,-0.001265956205315888
144.0,-0.0009907501516863704
160.0,-0.0019538146443665028
176.0,-0.0012200522469356656
192.0,-0.0015739558730274439
208.0,-0.001188337686471641
224.0,9.135064465226606e-05
240.0,-0.0009577410528436303
256.0,-0.0030823294073343277
288.0,-0.0002833202015608549
320.0,-0.0008338858606293797
352.0,0.0011957711540162563
384.0,0.002118593780323863
416.0,-0.00019000991596840322
448.0,-0.0011777030304074287
480.0,0.0005541747668758035
512.0,0.0015782506670802832
576.0,0.00043867179192602634
640.0,-0.002039919840171933
704.0,-0.0033932586666196585
768.0,0.0010951648000627756
832.0,0.0017484507989138365
896.0,0.0021733483299613
960.0,-0.001178843667730689
1024.0,-0.002877746941521764
1152.0,0.0009087691432796419
1280.0,-0.0006814984953962266
1408.0,-0.00023045085254125297
1536.0,-4.9220852815778926e-05
1664.0,0.002714828820899129
1792.0,0.0009108086233027279
1920.0,-0.001744063920341432
2048.0,0.0009434943785890937
2304.0,-0.002340255305171013
2560.0,-0.00034981779754161835
2816.0,-0.0021766996942460537
3072.0,8.317317406181246e-05
3328.0,0.0005500087281689048
3584.0,0.0013275441015139222
3840.0,-0.0006003564340062439
4096.0,-0.0017011492745950818
4608.0,0.001149889430962503
5120.0,-0.00016077928012236953
5632.0,-0.001022630138322711
6144.0,-0.0010060904314741492
6656.0,0.0011054511414840817
7168.0,-0.0007176379440352321
7680.0,0.00020958507957402617
8192.0,0.0006503025069832802
9216.0,-0.0004981898237019777
10240.0,-2.9037619242444634e-05
11264.0,0.0020889602601528168
12288.0,-0.00043071876280009747
13312.0,-0.0005425274721346796
14336.0,-0.0039060681592673063
end
