version,3.0
numOfCh,1
type,point
parent_name,800-cuts
ch_type,1_1
kcount,1
numberNandB,1
brightnessNandB,1
carpet pos,0
pc,0
Time (ms),CH1 Auto-Correlation
1.0,0.017693668603897095
2.0,0.016442088410258293
3.0,0.01526730228215456
4.0,0.014157717116177082
5.0,0.01316716056317091
6.0,0.012259441427886486
7.0,0.011425811797380447
8.0,0.01067992951720953
9.0,0.00996477622538805
10.0,0.009288587607443333
11.0,0.008637451566755772
12.0,0.008020464330911636
13.0,0.007457538973540068
14.0,0.006966736633330584
15.0,0.0065023694187402725
16.0,0.006116124335676432
18.0,0.00546128349378705
20.0,0.004899187944829464
22.0,0.004402859602123499
24.0,0.003954680170863867
26.0,0.0035147820599377155
28.0,0.0031321027781814337
30.0,0.002764980075880885
32.0,0.002389216562733054
36.0,0.001770643051713705
40.0,0.0013534741010516882
44.0,0.0012359048705548048
48.0,0.001186513458378613
52.0,0.001068524899892509
56.0,0.0008811917505227029
60.0,0.0008176211267709732
64.0,0.0007475399179384112
72.0,0.00038820516783744097
80.0,0.0005358721828088164
88.0,0.00035958687658421695
96.0,0.000202235794859007
104.0,-0.00012533435074146837
112.0,-0.000227167212869972
120.0,-0.00015477926353923976
128.0,-0.00020975909137632698
144.0,-0.0003074445703532547
160.0,0.0007110184524208307
176.0,0.0009087299695238471
192.0,0.0008642007014714181
208.0,0.0004125604755245149
224.0,-4.918648482998833e-05
240.0,-9.133735147770494e-05
256.0,0.00033090534270741045
288.0,0.0009616155875846744
320.0,0.000246089999563992
352.0,0.000334490614477545
384.0,-5.5967575463000685e-05
416.0,-0.0007074257591739297
448.0,-9.417548426426947e-05
480.0,0.00045664157369174063
512.0,6.306402065092698e-05
576.0,3.132950223516673e-05
640.0,0.000622851774096489
704.0,0.001097542350180447
768.0,0.000615281576756388
832.0,-0.0005353779415600002
896.0,-0.0001232893264386803
960.0,-0.0005109742633067071
1024.0,-0.0002569188072811812
1152.0,0.00021763665426988155
1280.0,-0.0002934712974820286
1408.0,0.0004425245861057192
1536.0,4.084255124325864e-05
1664.0,0.00029801877099089324
1792.0,-0.00015527717187069356
1920.0,-7.070648280205205e-05
2048.0,-0.00023154537484515458
2304.0,0.00019893312128260732
2560.0,-0.00010641165135893971
2816.0,-0.0007164262351579964
3072.0,-0.0006138465832918882
3328.0,-0.0005214282427914441
3584.0,-0.0004546296549960971
3840.0,-0.0004264734161552042
4096.0,-0.0002772185252979398
4608.0,-0.00029806565726175904
5120.0,-0.000335403106873855
5632.0,0.00019313249504193664
6144.0,0.0007195555954240263
6656.0,0.00014519774413201958
7168.0,0.00014317566819954664
7680.0,0.00036103479214943945
8192.0,0.000571607903111726
9216.0,-0.00021340470993891358
10240.0,4.449083280633204e-05
11264.0,-0.00022115949832368642
12288.0,3.643231684691273e-05
13312.0,-1.101875113818096e-05
14336.0,-0.0001023428631015122
end
