version,3.0
numOfCh,1
type,point
parent_name,800-cuts
ch_type,1_1
kcount,1
numberNandB,1
brightnessNandB,1
carpet pos,0
pc,0
Time (ms),CH1 Auto-Correlation
1.0,0.019534580409526825
2.0,0.018146106973290443
3.0,0.016877515241503716
4.0,0.015648117288947105
5.0,0.01447770930826664
6.0,0.013387084938585758
7.0,0.012356963008642197
8.0,0.011383767239749432
9.0,0.010507645085453987
10.0,0.009695824235677719
11.0,0.008970577269792557
12.0,0.008315005339682102
13.0,0.007706425618380308
14.0,0.007134320214390755
15.0,0.006641773972660303
16.0,0.006152512039989233
18.0,0.005330386105924845
20.0,0.004616126883774996
22.0,0.00394124211743474
24.0,0.003320003394037485
26.0,0.0028506184462457895
28.0,0.002431535394862294
30.0,0.0020713568665087223
32.0,0.0017440877854824066
36.0,0.001326116849668324
40.0,0.0010379310697317123
44.0,0.0008525408920831978
48.0,0.0005386888515204191
52.0,0.00016750927898101509
56.0,-0.00023886444978415966
60.0,-0.0004641723935492337
64.0,-0.0004718032432720065
72.0,-0.00046912094694562256
80.0,-0.00018843899306375533
88.0,0.00030825863359496
96.0,0.0005260844482108951
104.0,0.000310728995827958
112.0,0.0003367788449395448
120.0,0.000301648658933118
128.0,8.782193617662415e-05
144.0,1.7437270798836835e-05
160.0,-0.0003183427907060832
176.0,-0.0008966831373982131
192.0,-0.0010429428657516837
208.0,-0.0001735155819915235
224.0,0.00046974679571576416
240.0,0.0005126458709128201
256.0,0.0006900136941112578
288.0,0.0004254710511304438
320.0,0.00036594283301383257
352.0,0.0011054369388148189
384.0,0.0006808220059610903
416.0,0.00013293532538227737
448.0,0.0004131925234105438
480.0,0.00070432189386338
512.0,-0.0002591791853774339
576.0,-3.188309710822068e-05
640.0,-4.1087558201979846e-05
704.0,0.0005855868803337216
768.0,4.454669760889374e-05
832.0,0.0003186838293913752
896.0,-0.00013596014468930662
960.0,-0.0001527963759144768
1024.0,4.4272339437156916e-05
1152.0,0.00011239298328291625
1280.0,-0.00013140335795469582
1408.0,0.00010681004641810432
1536.0,-4.3385265598772094e-05
1664.0,-0.0002898007514886558
1792.0,1.6784822946647182e-05
1920.0,6.57331183901988e-05
2048.0,-0.00012017736298730597
2304.0,0.00013798222062177956
2560.0,-0.00030391174368560314
2816.0,-0.00018131300748791546
3072.0,1.4704702152812388e-05
3328.0,-0.00011989953054580837
3584.0,-0.0003280737728346139
3840.0,-0.0001871164422482252
4096.0,-3.7074718420626596e-05
4608.0,0.00017337061581201851
5120.0,-0.000364145525963977
5632.0,-0.00023719013552181423
6144.0,-0.0004106554843019694
6656.0,-0.0005277935415506363
7168.0,-5.444346970762126e-05
7680.0,3.63268336514011e-05
8192.0,0.0002194486150983721
9216.0,0.00011512947821756825
10240.0,0.00022330950014293194
11264.0,-5.5367847380694e-05
12288.0,0.00045897415839135647
13312.0,2.103699671351933e-06
14336.0,-0.00017052450857590884
end
