version,3.0
numOfCh,1
type,point
parent_name,800-cuts
ch_type,1_1
kcount,1
numberNandB,1
brightnessNandB,1
carpet pos,0
pc,0
Time (ms),CH1 Auto-Correlation
1.0,0.020219022408127785
2.0,0.018915345892310143
3.0,0.017683561891317368
4.0,0.01653146930038929
5.0,0.015452156774699688
6.0,0.014416876249015331
7.0,0.013459456153213978
8.0,0.012570067308843136
9.0,0.01174909994006157
10.0,0.011007148772478104
11.0,0.010323396883904934
12.0,0.009657441638410091
13.0,0.009019043296575546
14.0,0.008480126038193703
15.0,0.007989505305886269
16.0,0.007507624104619026
18.0,0.006605304311960936
20.0,0.005839021410793066
22.0,0.0051885079592466354
24.0,0.00460369186475873
26.0,0.004026665817946196
28.0,0.003529247362166643
30.0,0.0030758827924728394
32.0,0.0027443089056760073
36.0,0.002250988967716694
40.0,0.001815072726458311
44.0,0.001444425550289452
48.0,0.0011901536490768194
52.0,0.0010219458490610123
56.0,0.0008774021407589316
60.0,0.0007056908798404038
64.0,0.0003456442791502923
72.0,-0.00015813278150744736
80.0,-0.00018425370217300951
88.0,0.00030537560814991593
96.0,0.0004114125622436404
104.0,0.0005507373134605587
112.0,0.0004079480131622404
120.0,0.0002665852662175894
128.0,-0.00012953429541084915
144.0,-0.0004444478254299611
160.0,-0.0008513358770869672
176.0,-0.0006214076420292258
192.0,-0.0006989949615672231
208.0,-0.00039491610368713737
224.0,-0.0006468629580922425
240.0,-0.0003056723508052528
256.0,3.798351826844737e-05
288.0,2.8668075174209662e-05
320.0,0.0002146771876141429
352.0,0.0005400748923420906
384.0,0.0009394927765242755
416.0,-0.00027403829153627157
448.0,-0.0001534245238872245
480.0,0.0002745088713709265
512.0,9.383830183651298e-05
576.0,-0.00021590957476291806
640.0,-0.00032430404098704457
704.0,0.0006121607730165124
768.0,-0.0002691598201636225
832.0,9.002547449199483e-05
896.0,0.0004635431105270982
960.0,0.00031679615494795144
1024.0,-0.00013231358025223017
1152.0,0.0005513136275112629
1280.0,6.204695091582835e-05
1408.0,0.0003079400339629501
1536.0,-0.00036398586235009134
1664.0,0.0006674944306723773
1792.0,-0.000546421215403825
1920.0,-0.0007774642435833812
2048.0,3.779514008783735e-05
2304.0,0.00010902125359280035
2560.0,-0.00016819949087221175
2816.0,0.00022992044978309423
3072.0,-0.0004703777376562357
3328.0,0.00016571363084949553
3584.0,-0.0007695577805861831
3840.0,3.126111096207751e-06
4096.0,-0.0005435402854345739
4608.0,-0.0005491410265676677
5120.0,-0.00037587821134366095
5632.0,9.097547444980592e-05
6144.0,0.00010994339390890673
6656.0,-2.443659832351841e-05
7168.0,0.0005152389639988542
7680.0,-7.766267663100734e-05
8192.0,0.0004616064834408462
9216.0,0.0002655361604411155
10240.0,-0.00028890607063658535
11264.0,-0.00027307774871587753
12288.0,-0.00037278729723766446
13312.0,-0.00029066696879453957
14336.0,0.00033302619704045355
end
