version,3.0
numOfCh,1
type,point
parent_name,800-cuts
ch_type,1_1
kcount,1
numberNandB,1
brightnessNandB,1
carpet pos,0
pc,0
Time (ms),CH1 Auto-Correlation
1.0,0.032480448484420776
2.0,0.030313752591609955
3.0,0.028290824964642525
4.0,0.026473334059119225
5.0,0.02474924363195896
6.0,0.023134870454669
7.0,0.02167729288339615
8.0,0.020257605239748955
9.0,0.0188724584877491
10.0,0.017573554068803787
11.0,0.016365690156817436
12.0,0.015233315527439117
13.0,0.014196863397955894
14.0,0.01321503333747387
15.0,0.012377278879284859
16.0,0.011571121402084827
18.0,0.01017414778470993
20.0,0.008907945826649666
22.0,0.007696088403463364
24.0,0.006571083329617977
26.0,0.0056271031498909
28.0,0.004848184995353222
30.0,0.00417383573949337
32.0,0.003571385284885764
36.0,0.0025811188388615847
40.0,0.0018186559900641441
44.0,0.001236274722032249
48.0,0.0005474319914355874
52.0,0.00013034301809966564
56.0,-6.136418232927099e-05
60.0,2.7740765290218405e-05
64.0,6.229446444194764e-05
72.0,0.000426320155384019
80.0,0.0003771296178456396
88.0,1.1777136933233123e-05
96.0,-0.0001643146970309317
104.0,-0.00044807797530665994
112.0,-0.0002495480584912002
120.0,0.0001657275133766234
128.0,0.00022555590840056539
144.0,0.0017034948104992509
160.0,0.0025323887821286917
176.0,0.0022827633656561375
192.0,0.0014731198316439986
208.0,-0.000945712614338845
224.0,-0.0004311528755351901
240.0,0.002137729898095131
256.0,0.0022147081326693296
288.0,0.0006743650883436203
320.0,-0.0005041316035203636
352.0,-0.0005903359269723296
384.0,-0.0008703184430487454
416.0,-0.0010793047258630395
448.0,-0.0007770870579406619
480.0,-0.0003314936766400933
512.0,6.885563198011369e-05
576.0,0.0007588297594338655
640.0,0.0006449357024393976
704.0,-2.4839984689606354e-05
768.0,0.0006710521411150694
832.0,-0.00021115023992024362
896.0,-0.000638636527583003
960.0,-0.0008806121186353266
1024.0,-0.0010581419337540865
1152.0,0.0001005851590889506
1280.0,-0.0001875391899375245
1408.0,0.0010473433649167418
1536.0,-0.0006231362349353731
1664.0,0.00036518191336654127
1792.0,-0.00038343542837537825
1920.0,0.0004768958024214953
2048.0,0.00020422678790055215
2304.0,-0.0003568388638086617
2560.0,0.00012044282630085945
2816.0,0.0004578368680085987
3072.0,-0.00020610931096598506
3328.0,-0.0005820306832902133
3584.0,0.00026745611103251576
3840.0,-0.0008429884910583496
4096.0,-0.0008170984219759703
4608.0,0.0005636822897940874
5120.0,-0.0005685686483047903
5632.0,-0.00029542858828790486
6144.0,0.00030295050237327814
6656.0,-0.0008841268718242645
7168.0,-5.072608473710716e-05
7680.0,0.00015739105583634228
8192.0,-0.00029055430786684155
9216.0,-0.0001380827889079228
10240.0,0.00014811218716204166
11264.0,0.0003102820774074644
12288.0,0.00020260835299268365
13312.0,-0.0005702465423382819
14336.0,0.0006411306676454842
end
