version,3.0
numOfCh,1
type,point
parent_name,800-cuts
ch_type,1_1
kcount,1
numberNandB,1
brightnessNandB,1
carpet pos,0
pc,0
Time (ms),CH1 Auto-Correlation
1.0,0.021993249654769897
2.0,0.020635554566979408
3.0,0.0193875040858984
4.0,0.01820942386984825
5.0,0.017064038664102554
6.0,0.01598381996154785
7.0,0.014944544062018394
8.0,0.013970036059617996
9.0,0.012968048453330994
10.0,0.012049130164086819
11.0,0.01120587158948183
12.0,0.010411015711724758
13.0,0.009657932445406914
14.0,0.00893914233893156
15.0,0.008277833461761475
16.0,0.007668616250157356
18.0,0.00665614427998662
20.0,0.00578315369784832
22.0,0.00496163172647357
24.0,0.004220469854772091
26.0,0.0035325228236615658
28.0,0.002845698967576027
30.0,0.0022553838789463043
32.0,0.0017428167629987001
36.0,0.0009603124926798046
40.0,0.00044677077676169574
44.0,0.00011859934602398425
48.0,-1.3941305041953456e-05
52.0,5.265428626444191e-05
56.0,0.0002103630977217108
60.0,0.00046851320075802505
64.0,0.0006846043397672474
72.0,0.0004602971312124282
80.0,-8.093079668469727e-05
88.0,-0.0003198826452717185
96.0,-0.00022796359553467482
104.0,-0.0002310315758222714
112.0,8.202619210351259e-05
120.0,0.0004925464745610952
128.0,0.0005719464388675988
144.0,0.0006088271038606763
160.0,0.00010732919326983392
176.0,-0.0007277490803971887
192.0,-0.0005196621641516685
208.0,-0.0005186450434848666
224.0,-0.0007452677236869931
240.0,-0.0008786057005636394
256.0,-0.0010556817287579179
288.0,-0.00029462200473062694
320.0,-0.00017373889568261802
352.0,1.2452219380065799e-05
384.0,-0.0006582451751455665
416.0,-0.00036745358374901116
448.0,0.0007902655634097755
480.0,-0.0002792509621940553
512.0,-0.0006304901326075196
576.0,0.0007595137576572597
640.0,0.0003608633123803884
704.0,-0.00021215806191321462
768.0,0.00026160679408349097
832.0,0.00016266510647255927
896.0,-0.0004454509471543133
960.0,0.0010162187973037362
1024.0,0.0009299733792431653
1152.0,-0.0005193482502363622
1280.0,-0.0005398693028837442
1408.0,-0.0005576465046033263
1536.0,-0.00010184677375946194
1664.0,0.0006592459976673126
1792.0,-0.000491785816848278
1920.0,-8.522358984919265e-05
2048.0,-9.046385093824938e-05
2304.0,0.00041676219552755356
2560.0,5.9336438425816596e-05
2816.0,0.0004021280910819769
3072.0,0.0005919456598348916
3328.0,-7.250702765304595e-05
3584.0,0.0007640918483957648
3840.0,-0.0004922594525851309
4096.0,-0.00020812751608900726
4608.0,-0.000181425319169648
5120.0,-0.00021993090922478586
5632.0,7.252387149492279e-05
6144.0,-2.596268132037949e-06
6656.0,-6.544985080836341e-05
7168.0,-0.00039204052882269025
7680.0,-0.00039326041587628424
8192.0,0.00018435518722981215
9216.0,-2.8236258003744297e-05
10240.0,-0.00031320189009420574
11264.0,0.000159979157615453
12288.0,-9.860911086434498e-05
13312.0,-0.0001071518927346915
14336.0,0.00018272663874085993
end
