version,3.0
numOfCh,1
type,point
parent_name,800-cuts
ch_type,1_1
kcount,1
numberNandB,1
brightnessNandB,1
carpet pos,0
pc,0
Time (ms),CH1 Auto-Correlation
1.0,0.028352653607726097
2.0,0.026445647701621056
3.0,0.024704622104763985
4.0,0.023049402981996536
5.0,0.021486788988113403
6.0,0.020117217674851418
7.0,0.018889598548412323
8.0,0.01772122085094452
9.0,0.016695989295840263
10.0,0.015727411955595016
11.0,0.014807097613811493
12.0,0.013927959837019444
13.0,0.013124106451869011
14.0,0.012370900250971317
15.0,0.011600052937865257
16.0,0.010869577527046204
18.0,0.009629463776946068
20.0,0.008513583801686764
22.0,0.007510406896471977
24.0,0.006543377880007029
26.0,0.005686693824827671
28.0,0.004910108633339405
30.0,0.004242361523211002
32.0,0.0036977611016482115
36.0,0.0027265027165412903
40.0,0.0018775821663439274
44.0,0.001408340991474688
48.0,0.001237208372913301
52.0,0.0011429382720962167
56.0,0.0010910882847383618
60.0,0.0009441436268389225
64.0,0.0006634662859141827
72.0,-7.148418080760166e-05
80.0,-0.000689757289364934
88.0,-9.049660729942843e-05
96.0,0.0002702797937672585
104.0,0.0004862581263296306
112.0,0.000405872764531523
120.0,0.00010064423986477777
128.0,-3.489521986921318e-05
144.0,-0.00014763961371500045
160.0,0.0008560653077438474
176.0,0.0002559229906182736
192.0,-2.7649366529658437e-05
208.0,0.00013631460024043918
224.0,-9.440020949114114e-05
240.0,-0.0009015139075927436
256.0,-0.001342875650152564
288.0,-7.727115189481992e-06
320.0,0.00046120811020955443
352.0,0.0008093256619758904
384.0,0.001003182609565556
416.0,0.0004787198849953711
448.0,0.00014990332419984043
480.0,-0.0006341916159726679
512.0,-0.00025603381800465286
576.0,-0.00031887443037703633
640.0,0.00011933012137888
704.0,-0.00021570207900367677
768.0,0.0006332870107144117
832.0,0.0009933199035003781
896.0,0.0008558506960980594
960.0,0.0006842041620984674
1024.0,0.0010495862225070596
1152.0,9.087903890758753e-05
1280.0,0.0009625634411349893
1408.0,8.761041681282222e-05
1536.0,-2.0866587874479592e-05
1664.0,0.00010813553672051057
1792.0,0.0004601527762133628
1920.0,-0.0011713410494849086
2048.0,-3.0787577998125926e-05
2304.0,0.00037338599213398993
2560.0,0.0005148451309651136
2816.0,-0.00035878157359547913
3072.0,-0.0003597220638766885
3328.0,-0.0005241504986770451
3584.0,0.00030164228519424796
3840.0,-0.0001809578825486824
4096.0,0.0002654033014550805
4608.0,-1.5418937664435362e-06
5120.0,-0.00016156779020093381
5632.0,-0.00021851039491593838
6144.0,0.00025371223455294967
6656.0,-0.00035810942063108087
7168.0,-2.572988159954548e-05
7680.0,0.000285980204353109
8192.0,0.00014987497706897557
9216.0,8.596043335273862e-05
10240.0,-0.0005366510013118386
11264.0,0.0005199739243835211
12288.0,0.0003506784269120544
13312.0,-0.001158232567831874
14336.0,-0.002084186999127269
end
