version,3.0
numOfCh,1
type,point
parent_name,800-cuts
ch_type,1_1
kcount,1
numberNandB,1
brightnessNandB,1
carpet pos,0
pc,0
Time (ms),CH1 Auto-Correlation
1.0,0.06401415169239044
2.0,0.05992479622364044
3.0,0.05606989562511444
4.0,0.05244937911629677
5.0,0.04907175153493881
6.0,0.04589245468378067
7.0,0.042857203632593155
8.0,0.0400032103061676
9.0,0.03735705837607384
10.0,0.03480026125907898
11.0,0.03241923823952675
12.0,0.03014243394136429
13.0,0.027916455641388893
14.0,0.025947893038392067
15.0,0.024002479389309883
16.0,0.022240886464715004
18.0,0.019039615988731384
20.0,0.016255149617791176
22.0,0.014112824574112892
24.0,0.012384078465402126
26.0,0.01112445443868637
28.0,0.010024413466453552
30.0,0.008965124376118183
32.0,0.008192815817892551
36.0,0.006980580743402243
40.0,0.005828002002090216
44.0,0.004538780078291893
48.0,0.0037221715319901705
52.0,0.0029367092065513134
56.0,0.0022128981072455645
60.0,0.0014401989756152034
64.0,0.000525966752320528
72.0,-0.0005018952651880682
80.0,-0.0020498009398579597
88.0,-0.002888031303882599
96.0,-0.0028057429008185863
104.0,-0.002292800461873412
112.0,-0.003158783772960305
120.0,-0.0038378036115318537
128.0,-0.0030332861933857203
144.0,-0.002619548700749874
160.0,-0.0017769041005522013
176.0,-0.000680932542309165
192.0,0.0005498708924278617
208.0,0.0024579523596912622
224.0,0.0035141378175467253
240.0,0.0035459327045828104
256.0,0.0021769735030829906
288.0,0.00020687017240561545
320.0,-0.0004901991924270988
352.0,-0.0021465211175382137
384.0,-0.0034343176521360874
416.0,-0.0021825660951435566
448.0,0.00023346453963313252
480.0,0.0007801932515576482
512.0,0.002567168092355132
576.0,-0.0006275090272538364
640.0,-0.0005352278240025043
704.0,0.0028241858817636967
768.0,0.0009632129222154617
832.0,0.0007891503046266735
896.0,-0.0011318519245833158
960.0,0.0032648120541125536
1024.0,-0.00034227175638079643
1152.0,-0.002326588612049818
1280.0,-0.0003998054889962077
1408.0,-0.0006757877417840064
1536.0,-0.0010146424174308777
1664.0,-0.0014378142077475786
1792.0,0.0006454866379499435
1920.0,-0.0018309216247871518
2048.0,0.0003521187463775277
2304.0,-0.0006533889682032168
2560.0,-0.0005856693023815751
2816.0,-0.0008888777229003608
3072.0,-2.269543256261386e-05
3328.0,0.00016486896493006498
3584.0,0.0002075751981465146
3840.0,0.00035885770921595395
4096.0,0.0005833237082697451
4608.0,0.0008460298995487392
5120.0,-0.0008208686485886574
5632.0,-0.0014571873471140862
6144.0,-0.0006401872378773987
6656.0,-0.0003470287483651191
7168.0,0.0012821685522794724
7680.0,4.2317082261433825e-05
8192.0,0.0007025412051007152
9216.0,0.0002512942301109433
10240.0,-0.0007447717944160104
11264.0,0.001082698698155582
12288.0,-0.0004552289319690317
13312.0,0.0004004514485131949
14336.0,-0.0018279197392985225
end
