version,3.0
numOfCh,1
type,point
parent_name,800-cuts
ch_type,1_1
kcount,1
numberNandB,1
brightnessNandB,1
carpet pos,0
pc,0
Time (ms),CH1 Auto-Correlation
1.0,0.020407110452651978
2.0,0.01915447972714901
3.0,0.01796911098062992
4.0,0.01683901622891426
5.0,0.01578599214553833
6.0,0.01477379072457552
7.0,0.013840065337717533
8.0,0.012968081049621105
9.0,0.012171812355518341
10.0,0.011425096541643143
11.0,0.010722790844738483
12.0,0.010077254846692085
13.0,0.00948368664830923
14.0,0.008949021808803082
15.0,0.008455422706902027
16.0,0.007958305068314075
18.0,0.007001044694334269
20.0,0.006114899646490812
22.0,0.00536182289943099
24.0,0.0047183106653392315
26.0,0.00420075748115778
28.0,0.0037501428741961718
30.0,0.003337978618219495
32.0,0.0029800168704241514
36.0,0.002286178758367896
40.0,0.0016188801964744925
44.0,0.0009874742245301604
48.0,0.000558228581212461
52.0,0.0003280587261542678
56.0,0.000257427484029904
60.0,0.00032144118449650705
64.0,0.0005000727251172066
72.0,0.0008030541357584298
80.0,0.000606613524723798
88.0,0.00021758407820016146
96.0,-0.0005695291911251843
104.0,-0.0011727799428626895
112.0,-0.0008965304587036371
120.0,-0.00026747252559289336
128.0,0.0001549575972603634
144.0,0.0003400433051865548
160.0,0.0004974203184247017
176.0,2.735370617301669e-05
192.0,-0.0005015954375267029
208.0,-0.0012504586484283209
224.0,-0.0008406445267610252
240.0,-0.0001952296297531575
256.0,-0.00039324277895502746
288.0,-0.00013160261732991785
320.0,-0.000833806348964572
352.0,-3.2072828616946936e-05
384.0,0.00045268115354701877
416.0,-6.493108958238736e-05
448.0,-0.001458654529415071
480.0,-0.0014270456740632653
512.0,-0.0008397600031457841
576.0,-0.00037561176577582955
640.0,0.0005264790379442275
704.0,0.0004842698690481484
768.0,0.0006947587244212627
832.0,0.0012980346800759435
896.0,0.0011621029116213322
960.0,0.0004204508732073009
1024.0,-0.0007070645224303007
1152.0,-0.000598641752731055
1280.0,-0.00039433882921002805
1408.0,-0.0005681883776560426
1536.0,0.0008733918075449765
1664.0,0.0005297792376950383
1792.0,3.6228084354661405e-05
1920.0,-0.0004899208433926105
2048.0,-0.00010738994751591235
2304.0,0.0001731688535073772
2560.0,0.0001521365629741922
2816.0,-7.964163160067983e-06
3072.0,-0.0004588546871673316
3328.0,4.074654134456068e-05
3584.0,0.000255311606451869
3840.0,-0.0006273052422329783
4096.0,0.00018364198331255466
4608.0,-0.00014265479694586247
5120.0,-0.00011827271373476833
5632.0,-0.00036563939647749066
6144.0,-0.0004857304447796196
6656.0,0.0004465703677851707
7168.0,-0.00025982578517869115
7680.0,-0.00017747933452483267
8192.0,5.199428414925933e-05
9216.0,-3.99971213482786e-05
10240.0,0.00015471020014956594
11264.0,0.0001995936327148229
12288.0,0.00027336986386217177
13312.0,0.00010511702566873282
14336.0,-0.000764956756029278
end
