version,3.0
numOfCh,1
type,point
parent_name,800-cuts
ch_type,1_1
kcount,1
numberNandB,1
brightnessNandB,1
carpet pos,0
pc,0
Time (ms),CH1 Auto-Correlation
1.0,0.05209370702505112
2.0,0.04892352595925331
3.0,0.04603181034326553
4.0,0.04345882311463356
5.0,0.04095865786075592
6.0,0.038493040949106216
7.0,0.03626281023025513
8.0,0.03415633365511894
9.0,0.03216573968529701
10.0,0.030247557908296585
11.0,0.028389954939484596
12.0,0.026580940932035446
13.0,0.024973390623927116
14.0,0.023415682837367058
15.0,0.02198735624551773
16.0,0.02066708542406559
18.0,0.01841512694954872
20.0,0.016416005790233612
22.0,0.014563452452421188
24.0,0.012985743582248688
26.0,0.011826028116047382
28.0,0.010730513371527195
30.0,0.009567820467054844
32.0,0.008458612486720085
36.0,0.0068167466670274734
40.0,0.0055333152413368225
44.0,0.004390470217913389
48.0,0.003609814215451479
52.0,0.003079487243667245
56.0,0.0023518202360719442
60.0,0.0014238855801522732
64.0,0.0007307176128961146
72.0,-0.0002710818953346461
80.0,-0.0006782071432098746
88.0,-0.0007594497292302549
96.0,-0.0013213853817433119
104.0,-0.0017531979829072952
112.0,-0.0016483981162309647
120.0,-0.002015527570620179
128.0,-0.0024516272824257612
144.0,-0.003851165995001793
160.0,-0.0030738329514861107
176.0,-0.0035746253561228514
192.0,-0.0033392556942999363
208.0,-0.0018019903218373656
224.0,-0.001525125466287136
240.0,-0.0011066363658756018
256.0,-0.0006590501870959997
288.0,0.0011843780521303415
320.0,0.003978905733674765
352.0,0.001920264563523233
384.0,0.0025088684633374214
416.0,-0.0005775491008535028
448.0,-0.002776447217911482
480.0,-0.0031959819607436657
512.0,-0.0027842214331030846
576.0,-0.0015178867615759373
640.0,-9.77041563601233e-05
704.0,0.001057335757650435
768.0,0.0008848195429891348
832.0,0.000530900142621249
896.0,-0.0003393430670257658
960.0,0.0016202498227357864
1024.0,0.0016260510310530663
1152.0,0.00022564972459804267
1280.0,-0.0012969232629984617
1408.0,0.0010563185205683112
1536.0,0.0003012446395587176
1664.0,-0.0013427570229396224
1792.0,0.0006806551828049123
1920.0,-0.0016277938848361373
2048.0,-0.003264848841354251
2304.0,5.343445445760153e-05
2560.0,-3.0284472813946195e-05
2816.0,-0.00021842530986759812
3072.0,-0.00021230177662800997
3328.0,-0.00016825350758153945
3584.0,5.493118351296289e-07
3840.0,-0.0007931743748486042
4096.0,0.0003453275130596012
4608.0,-0.0002947477623820305
5120.0,-0.00033834221540018916
5632.0,-4.00395474571269e-05
6144.0,0.00015348137822002172
6656.0,0.0009346220758743584
7168.0,0.0004641897394321859
7680.0,0.00032758418819867074
8192.0,-0.00032684896723367274
9216.0,-0.0006493424880318344
10240.0,0.00036869815085083246
11264.0,0.0002578033891040832
12288.0,-0.00045951103675179183
13312.0,0.00010066335380543023
14336.0,0.00013601637328974903
end
