version,3.0
numOfCh,1
type,point
parent_name,800-cuts
ch_type,1_1
kcount,1
numberNandB,1
brightnessNandB,1
carpet pos,0
pc,0
Time (ms),CH1 Auto-Correlation
1.0,0.07295933365821838
2.0,0.06851369887590408
3.0,0.06439079344272614
4.0,0.06054682284593582
5.0,0.05695022642612457
6.0,0.05362655967473984
7.0,0.05052541568875313
8.0,0.047836147248744965
9.0,0.04534737020730972
10.0,0.0429651103913784
11.0,0.04074426740407944
12.0,0.038753919303417206
13.0,0.036935195326805115
14.0,0.03521847724914551
15.0,0.033610403537750244
16.0,0.03199736401438713
18.0,0.02895115129649639
20.0,0.026090968400239944
22.0,0.023497823625802994
24.0,0.021185649558901787
26.0,0.01908051036298275
28.0,0.017196688801050186
30.0,0.015529336407780647
32.0,0.014097227714955807
36.0,0.011750752106308937
40.0,0.009549200534820557
44.0,0.007802108768373728
48.0,0.006332303397357464
52.0,0.005201301071792841
56.0,0.004012154880911112
60.0,0.0030343926046043634
64.0,0.002341251354664564
72.0,0.00040699876262806356
80.0,-0.0008338179904967546
88.0,-0.002467823214828968
96.0,-0.002771905157715082
104.0,-0.0022556837648153305
112.0,-0.001251524779945612
120.0,-0.0006975993746891618
128.0,-0.000188962891115807
144.0,-0.0008478296804241836
160.0,-0.0009918835712596774
176.0,-0.0009612417779862881
192.0,-0.0013551367446780205
208.0,-0.0003770578477997333
224.0,0.0002788811980281025
240.0,0.0011327480897307396
256.0,0.001606079749763012
288.0,0.0008039152016863227
320.0,0.0029907359275966883
352.0,0.0043534873984754086
384.0,0.0005519294645637274
416.0,0.0014641633024439216
448.0,0.002162342192605138
480.0,0.0023012019228190184
512.0,-0.0004335781268309802
576.0,-0.0022703565191477537
640.0,-0.001205956912599504
704.0,0.002473191125318408
768.0,0.004325006622821093
832.0,0.0023025015834718943
896.0,0.003180072642862797
960.0,-0.0011459982488304377
1024.0,0.0019995644688606262
1152.0,-0.0027995663695037365
1280.0,-0.0005404974799603224
1408.0,-3.316064612590708e-05
1536.0,0.0015475270338356495
1664.0,-0.0017203401075676084
1792.0,0.0033464885782450438
1920.0,0.00016945775132626295
2048.0,-0.003091132966801524
2304.0,0.001808825763873756
2560.0,0.001676836865954101
2816.0,-0.0003812697541434318
3072.0,0.0003305110440123826
3328.0,0.0011531737400218844
3584.0,-0.0018385943258181214
3840.0,-0.001571004162542522
4096.0,0.0004572409379761666
4608.0,-0.0017552950885146856
5120.0,-0.0005253413110040128
5632.0,-0.0005259332829155028
6144.0,-0.001833927701227367
6656.0,-0.001664395211264491
7168.0,-0.0006575365550816059
7680.0,-0.0008980150450952351
8192.0,0.0016651900950819254
9216.0,7.337142596952617e-05
10240.0,0.0007020209450274706
11264.0,0.000981657998636365
12288.0,0.0010092041920870543
13312.0,-0.0007322400924749672
14336.0,-0.003950003068894148
end
