version,3.0
numOfCh,1
type,point
parent_name,800-cuts
ch_type,1_1
kcount,1
numberNandB,1
brightnessNandB,1
carpet pos,0
pc,0
Time (ms),CH1 Auto-Correlation
1.0,0.055615343153476715
2.0,0.05186426267027855
3.0,0.048351820558309555
4.0,0.045064348727464676
5.0,0.04192342236638069
6.0,0.03898276388645172
7.0,0.036209817975759506
8.0,0.033700451254844666
9.0,0.03135737031698227
10.0,0.029124032706022263
11.0,0.026978658512234688
12.0,0.024962522089481354
13.0,0.02312147244811058
14.0,0.02149900421500206
15.0,0.019919971004128456
16.0,0.018429873511195183
18.0,0.015661394223570824
20.0,0.013299339450895786
22.0,0.01104077510535717
24.0,0.00911896675825119
26.0,0.00743069127202034
28.0,0.006002939771860838
30.0,0.004955512937158346
32.0,0.004105434287339449
36.0,0.0028151548467576504
40.0,0.0023202942684292793
44.0,0.0023561380803585052
48.0,0.002493778709322214
52.0,0.0023596882820129395
56.0,0.002103556878864765
60.0,0.001800340716727078
64.0,0.0016509761335328221
72.0,0.0018699878128245473
80.0,0.0015149026876315475
88.0,0.001687417272478342
96.0,0.0015225077513605356
104.0,0.0016412199474871159
112.0,0.0011224794434383512
120.0,0.00047225638991221786
128.0,7.942741649458185e-05
144.0,0.002158490242436528
160.0,0.0009477412095293403
176.0,-0.000780896341893822
192.0,5.971436985419132e-05
208.0,0.0026044396217912436
224.0,0.002616537967696786
240.0,0.0017422200180590153
256.0,0.0026477922219783068
288.0,0.002922329818829894
320.0,0.0006462850142270327
352.0,-0.0002417366049485281
384.0,-0.002273778198286891
416.0,-0.002920453669503331
448.0,-0.0018904851749539375
480.0,-0.001838949741795659
512.0,-0.0033878800459206104
576.0,0.0009369888575747609
640.0,-0.002158919582143426
704.0,-0.0008062950219027698
768.0,-0.0014215154806151986
832.0,0.0028361440636217594
896.0,0.0033242455683648586
960.0,-0.0020031658932566643
1024.0,-0.0004951311275362968
1152.0,-0.000739938288461417
1280.0,-0.00193675491027534
1408.0,-0.0010538105852901936
1536.0,-0.0003564110375009477
1664.0,-0.00016954742022790015
1792.0,0.0019463154021650553
1920.0,-0.0008722935453988612
2048.0,0.00019996090850327164
2304.0,-9.887560008792207e-05
2560.0,-0.0010227338643744588
2816.0,0.0006147913518361747
3072.0,0.001145480084232986
3328.0,0.0009193484438583255
3584.0,-0.0012483219616115093
3840.0,-0.0004379288002382964
4096.0,0.0011990141356363893
4608.0,-0.0017690400127321482
5120.0,-0.00029037665808573365
5632.0,-0.0007521628867834806
6144.0,0.0018180947517976165
6656.0,-0.0006624952657148242
7168.0,0.0010855399305000901
7680.0,-0.0007057489128783345
8192.0,-0.00017889408627524972
9216.0,0.0018196626333519816
10240.0,-0.0006476864800788462
11264.0,-0.0003636451729107648
12288.0,0.00022045194054953754
13312.0,0.0003111479745712131
14336.0,-0.001044486416503787
end
