version,3.0
numOfCh,1
type,point
parent_name,800-cuts
ch_type,1_1
kcount,1
numberNandB,1
brightnessNandB,1
carpet pos,0
pc,0
Time (ms),CH1 Auto-Correlation
1.0,0.021534914150834084
2.0,0.019988931715488434
3.0,0.01852138340473175
4.0,0.017147453501820564
5.0,0.015866925939917564
6.0,0.014683577232062817
7.0,0.013606183230876923
8.0,0.01258506067097187
9.0,0.01160223688930273
10.0,0.010706519708037376
11.0,0.009877541102468967
12.0,0.009169121272861958
13.0,0.008499746210873127
14.0,0.007870727218687534
15.0,0.007321880664676428
16.0,0.006793451961129904
18.0,0.00591591652482748
20.0,0.005174725782126188
22.0,0.0045126513577997684
24.0,0.0039155506528913975
26.0,0.0034282966516911983
28.0,0.002981100231409073
30.0,0.0025315135717391968
32.0,0.0021278122439980507
36.0,0.001538942102342844
40.0,0.0010994987096637487
44.0,0.000810474855825305
48.0,0.0006059591541998088
52.0,0.00040123617509379983
56.0,0.0002783903037197888
60.0,0.00013256247621029615
64.0,-6.800051778554916e-05
72.0,3.603217692216276e-06
80.0,-4.0516060835216194e-05
88.0,-6.9646821430069394e-06
96.0,0.00031335168750956655
104.0,0.00042656419100239873
112.0,0.00037356646498665214
120.0,0.0003082855837419629
128.0,0.00045449077151715755
144.0,0.0003212795709259808
160.0,0.0004774418193846941
176.0,7.673673826502636e-05
192.0,-1.1576495126064401e-05
208.0,0.0001562624966027215
224.0,0.0002462352276779711
240.0,-0.0001355885760858655
256.0,-0.0002799919166136533
288.0,0.0002868613228201866
320.0,0.00018560599710326642
352.0,-0.00011455980711616576
384.0,0.0004445956146810204
416.0,0.0001358849258394912
448.0,4.585495116771199e-05
480.0,-6.043429493729491e-06
512.0,-0.00013240518455859274
576.0,0.00028896404546685517
640.0,0.00029884104151278734
704.0,0.00026265226188115776
768.0,0.0002474141656421125
832.0,-5.607598723145202e-05
896.0,-0.0007116018095985055
960.0,-0.0005455437349155545
1024.0,0.0001280016585951671
1152.0,-0.0005770412972196937
1280.0,-0.00052877381676808
1408.0,-0.00020019395742565393
1536.0,-0.00013446259254124016
1664.0,-0.0008482366683892906
1792.0,-0.000401493685785681
1920.0,-1.0945071153400932e-05
2048.0,0.0001331553648924455
2304.0,-0.0002614609256852418
2560.0,-3.382471913937479e-05
2816.0,0.00014284189091995358
3072.0,4.00303651986178e-05
3328.0,0.0004314874531701207
3584.0,-5.176027843845077e-05
3840.0,-0.00045705444063059986
4096.0,-0.00046192065929062665
4608.0,-0.00011750459088943899
5120.0,0.0005748244584538043
5632.0,0.00038331549149006605
6144.0,-6.175709131639451e-05
6656.0,-0.00010750561341410503
7168.0,-0.0003131784906145185
7680.0,-0.00024335674243047833
8192.0,0.0001859199401224032
9216.0,0.00016493155271746218
10240.0,-9.102677722694352e-06
11264.0,0.00013001287879887968
12288.0,0.00011987291509285569
13312.0,-0.0005384355899877846
14336.0,-4.274951425031759e-05
end
