version,3.0
numOfCh,1
type,point
parent_name,800-cuts
ch_type,1_1
kcount,1
numberNandB,1
brightnessNandB,1
carpet pos,0
pc,0
Time (ms),CH1 Auto-Correlation
1.0,0.060916218906641006
2.0,0.05695059522986412
3.0,0.053215302526950836
4.0,0.04973837733268738
5.0,0.046490635722875595
6.0,0.04342597723007202
7.0,0.040577661246061325
8.0,0.03788505494594574
9.0,0.03542281687259674
10.0,0.033215492963790894
11.0,0.031253669410943985
12.0,0.02946750819683075
13.0,0.02778572589159012
14.0,0.026280254125595093
15.0,0.024850746616721153
16.0,0.023558953776955605
18.0,0.021214988082647324
20.0,0.019204895943403244
22.0,0.017207486554980278
24.0,0.015494616702198982
26.0,0.014089316129684448
28.0,0.012913491576910019
30.0,0.011811289004981518
32.0,0.010832199826836586
36.0,0.009193779900670052
40.0,0.007720035035163164
44.0,0.006724353414028883
48.0,0.005655069835484028
52.0,0.004527039360255003
56.0,0.003530641086399555
60.0,0.00274882884696126
64.0,0.0023772853892296553
72.0,0.0014716563746333122
80.0,0.0013619193341583014
88.0,0.0009142897324636579
96.0,0.0011160799767822027
104.0,0.0010756476549431682
112.0,0.0009270017617382109
120.0,0.001067084027454257
128.0,0.001195100019685924
144.0,0.0006572369602508843
160.0,-0.0008614648832008243
176.0,-0.0014736553421244025
192.0,-0.000588269904255867
208.0,-0.0010670729679986835
224.0,-0.0017302724299952388
240.0,0.0010938586201518774
256.0,0.002030031057074666
288.0,1.3430284525384195e-05
320.0,-0.0008246476645581424
352.0,4.4587392039829865e-05
384.0,6.717942596878856e-05
416.0,0.0011455138446763158
448.0,-0.0010503313969820738
480.0,-0.0016012832056730986
512.0,0.0005321062635630369
576.0,0.00235764984972775
640.0,0.0033479684498161077
704.0,0.0015792433405295014
768.0,-0.0008762982906773686
832.0,-0.003042144002392888
896.0,0.00013729589409194887
960.0,-0.0005838045617565513
1024.0,0.0012294899206608534
1152.0,0.0017678332515060902
1280.0,0.0001630624756217003
1408.0,0.000389218534110114
1536.0,0.0007495713070966303
1664.0,0.00030207575764507055
1792.0,0.0025598483625799417
1920.0,-2.5851570171653293e-05
2048.0,0.00046096701407805085
2304.0,-0.0006011174409650266
2560.0,-0.0005782064981758595
2816.0,-0.000205375807126984
3072.0,0.0007036076858639717
3328.0,-0.0005489207105711102
3584.0,-0.0012098615989089012
3840.0,-0.0003936672874260694
4096.0,-0.0009266479755751789
4608.0,3.5454890166874975e-05
5120.0,-0.0008682631887495518
5632.0,-0.0015412579523399472
6144.0,-0.0009472912643104792
6656.0,-0.0016220624092966318
7168.0,-0.00018393511709291488
7680.0,1.9891749616363086e-05
8192.0,-0.0008453206392005086
9216.0,0.00031539148767478764
10240.0,0.0012713164323940873
11264.0,0.001148419687524438
12288.0,0.0004691169015131891
13312.0,-0.000997098977677524
14336.0,-0.002174688968807459
end
