version,3.0
numOfCh,1
type,point
parent_name,800-cuts
ch_type,1_1
kcount,1
numberNandB,1
brightnessNandB,1
carpet pos,0
pc,0
Time (ms),CH1 Auto-Correlation
1.0,0.025841252878308296
2.0,0.024002091959118843
3.0,0.022323133423924446
4.0,0.02078857831656933
5.0,0.01933828555047512
6.0,0.018049463629722595
7.0,0.016849303618073463
8.0,0.01571699045598507
9.0,0.014657082967460155
10.0,0.01366939302533865
11.0,0.012747127562761307
12.0,0.011902429163455963
13.0,0.011149797588586807
14.0,0.010488133877515793
15.0,0.009895365685224533
16.0,0.009331428445875645
18.0,0.008269231766462326
20.0,0.007432359270751476
22.0,0.006767075043171644
24.0,0.006077234633266926
26.0,0.005298474803566933
28.0,0.004554130136966705
30.0,0.003940358757972717
32.0,0.0034879089798778296
36.0,0.002740901429206133
40.0,0.002278077881783247
44.0,0.002179886447265744
48.0,0.0018811466870829463
52.0,0.0013843257911503315
56.0,0.001022702781483531
60.0,0.0008796498295851052
64.0,0.0007955840555950999
72.0,0.0008416277123615146
80.0,0.0009201233624480665
88.0,0.0008088980102911592
96.0,0.0002662368642631918
104.0,-0.0001489361166022718
112.0,-0.0005350043647922575
120.0,-0.00047264547902159393
128.0,0.00017318702884949744
144.0,0.0007253733929246664
160.0,0.0020097519736737013
176.0,0.001222317456267774
192.0,0.0006951452814973891
208.0,0.0003831447393167764
224.0,-0.00016354324179701507
240.0,-0.0008071837364695966
256.0,-0.0008325722883455455
288.0,-0.00011783630907302722
320.0,0.0013355509145185351
352.0,0.0005945292650721967
384.0,0.0001407653617206961
416.0,0.0007162770489230752
448.0,-6.359099643304944e-05
480.0,0.00039395157364197075
512.0,0.0010432557901367545
576.0,0.0002447386214043945
640.0,-0.0002727238752413541
704.0,0.0005922787822782993
768.0,0.00017118411778938025
832.0,-1.513814913778333e-05
896.0,0.000269765208940953
960.0,-0.0006502126925624907
1024.0,-6.882209709146991e-05
1152.0,-0.0001712069206405431
1280.0,7.564620773337083e-06
1408.0,-0.001554144429974258
1536.0,-4.573823753162287e-05
1664.0,-0.00042354469769634306
1792.0,-0.0002497559180483222
1920.0,-0.0008512076456099749
2048.0,-0.0007595133502036333
2304.0,-0.00026880649966187775
2560.0,-8.637340215500444e-05
2816.0,-0.0005038143717683852
3072.0,0.00025973745505325496
3328.0,0.0002633303520269692
3584.0,0.0005301890196278691
3840.0,4.290592187317088e-05
4096.0,0.0003358187386766076
4608.0,-0.00040288682794198394
5120.0,-0.0005751661956310272
5632.0,-0.00041731222881935537
6144.0,3.2746564102126285e-05
6656.0,0.0003404421731829643
7168.0,0.0001240319397766143
7680.0,-0.0006712378235533834
8192.0,-0.0003509728121571243
9216.0,0.0006378980469889939
10240.0,0.0002109942288370803
11264.0,-0.0005534929223358631
12288.0,7.179770182119682e-05
13312.0,-0.00017254649719689041
14336.0,-0.0008072407799772918
end
