version,3.0
numOfCh,1
type,point
parent_name,800-cuts
ch_type,1_1
kcount,1
numberNandB,1
brightnessNandB,1
carpet pos,0
pc,0
Time (ms),CH1 Auto-Correlation
1.0,0.03659691661596298
2.0,0.034300461411476135
3.0,0.03212461248040199
4.0,0.03010154701769352
5.0,0.02824562042951584
6.0,0.02648302912712097
7.0,0.024841103702783585
8.0,0.023322945460677147
9.0,0.02195082977414131
10.0,0.020664146170020103
11.0,0.01944234035909176
12.0,0.018263351172208786
13.0,0.017218073830008507
14.0,0.01623663865029812
15.0,0.015295051969587803
16.0,0.01442860160022974
18.0,0.01307760365307331
20.0,0.01191754825413227
22.0,0.010834631510078907
24.0,0.009931358508765697
26.0,0.009100920520722866
28.0,0.008207689970731735
30.0,0.0073518832214176655
32.0,0.006664395332336426
36.0,0.005402440205216408
40.0,0.004232061095535755
44.0,0.003273105015978217
48.0,0.002385322703048587
52.0,0.0017090918263420463
56.0,0.0012173240538686514
60.0,0.0009424217860214412
64.0,0.0005848334985785186
72.0,0.0006874457467347383
80.0,0.0011297191958874464
88.0,0.0007219506078399718
96.0,0.00027954296092502773
104.0,0.0001070738144335337
112.0,0.00026939305826090276
120.0,0.000346262997481972
128.0,8.223038457799703e-05
144.0,4.6785236918367445e-05
160.0,0.0013469888363033533
176.0,0.001875429879873991
192.0,0.0021424212027341127
208.0,0.0022944624070078135
224.0,0.0021321990061551332
240.0,0.0018929870566353202
256.0,0.000996319344267249
288.0,0.0006887647323310375
320.0,0.0012472941307350993
352.0,0.0006661788793280721
384.0,0.0010344504844397306
416.0,0.002917229663580656
448.0,0.0029592029750347137
480.0,0.0009925292106345296
512.0,0.0011247219517827034
576.0,0.0008393792086280882
640.0,0.0002198823494836688
704.0,-0.00011275730503257364
768.0,0.0012558174785226583
832.0,0.00101682567037642
896.0,0.00028613931499421597
960.0,0.001765226130373776
1024.0,0.0008314799051731825
1152.0,0.0005029453313909471
1280.0,0.001187545945867896
1408.0,-0.0008767886902205646
1536.0,0.0014955317601561546
1664.0,0.0008343913941644132
1792.0,0.0007033634465187788
1920.0,-0.0006347170565277338
2048.0,0.001424772897735238
2304.0,-0.00020113181381020695
2560.0,-2.255975778098218e-05
2816.0,0.00024296875926665962
3072.0,-0.0006914038676768541
3328.0,0.0001311775849899277
3584.0,-0.0006819728296250105
3840.0,8.756903184803377e-07
4096.0,-0.0009813967626541853
4608.0,-0.0003003886085934937
5120.0,-0.0010330104269087315
5632.0,-0.0007025488885119557
6144.0,-0.0010809045052155852
6656.0,-0.00013152176688890904
7168.0,-0.0005342625663615763
7680.0,-0.00025381610612384975
8192.0,-0.0009467836935073137
9216.0,-0.0008412915049120784
10240.0,-0.00037550987326540053
11264.0,-0.0006038949359208345
12288.0,-5.841103120474145e-05
13312.0,0.0025378093123435974
14336.0,0.001818029792048037
end
