version,3.0
numOfCh,1
type,point
parent_name,800-cuts
ch_type,1_1
kcount,1
numberNandB,1
brightnessNandB,1
carpet pos,0
pc,0
Time (ms),CH1 Auto-Correlation
1.0,0.05622442066669464
2.0,0.05257132276892662
3.0,0.0491005964577198
4.0,0.04596817493438721
5.0,0.042972590774297714
6.0,0.04023725166916847
7.0,0.037682801485061646
8.0,0.035251304507255554
9.0,0.03299972787499428
10.0,0.03098095767199993
11.0,0.02908363565802574
12.0,0.027350693941116333
13.0,0.02575192041695118
14.0,0.024242999032139778
15.0,0.02287345752120018
16.0,0.021613888442516327
18.0,0.019375206902623177
20.0,0.017451195046305656
22.0,0.01583215780556202
24.0,0.014423471875488758
26.0,0.013074053451418877
28.0,0.011807708069682121
30.0,0.010716781951487064
32.0,0.00961365457624197
36.0,0.007741295266896486
40.0,0.0063034058548510075
44.0,0.005302592646330595
48.0,0.0044190906919538975
52.0,0.003274718765169382
56.0,0.002026387955993414
60.0,0.0010871939593926072
64.0,0.0006259852088987827
72.0,0.0005760581698268652
80.0,0.0004131120222155005
88.0,-0.0006597329629585147
96.0,-0.0012191816931590438
104.0,-0.0007889373227953911
112.0,-0.0007764456677250564
120.0,-0.0012391648488119245
128.0,-0.0019878658931702375
144.0,-0.0016049559926614165
160.0,-0.002253250451758504
176.0,-0.002456286223605275
192.0,-0.0022310023196041584
208.0,-0.0020077908411622047
224.0,-0.0019494428997859359
240.0,-0.0032533560879528522
256.0,-0.003347855992615223
288.0,0.00039840719546191394
320.0,0.0022888313978910446
352.0,0.0011100929696112871
384.0,-0.0002711427805479616
416.0,4.4817359594162554e-05
448.0,0.00014010070299264044
480.0,-0.001491097267717123
512.0,0.0002348471462028101
576.0,0.0015001517022028565
640.0,0.0003495696000754833
704.0,0.002929440699517727
768.0,0.001191002898849547
832.0,-0.0017134041991084814
896.0,-0.0018101825844496489
960.0,-0.0011656683636829257
1024.0,0.00013783328176941723
1152.0,-0.00088045111624524
1280.0,-0.0005046322476118803
1408.0,0.0006372592761181295
1536.0,-0.00019157897622790188
1664.0,0.0013982800301164389
1792.0,-0.0006289500743150711
1920.0,0.000839151325635612
2048.0,0.0012001889990642667
2304.0,0.0008939723484218121
2560.0,6.61014491925016e-05
2816.0,-0.00034936133306473494
3072.0,-0.0008142670267261565
3328.0,-0.0009424910531379282
3584.0,-0.00035046262200921774
3840.0,0.000377162970835343
4096.0,0.00032410252606496215
4608.0,0.000194155887584202
5120.0,-0.0012840696144849062
5632.0,0.00021874421508982778
6144.0,7.252960494952276e-05
6656.0,-0.0002253270649816841
7168.0,-0.000884232867974788
7680.0,0.0003108810633420944
8192.0,-0.0003731310134753585
9216.0,0.00012967103975825012
10240.0,0.0005570008070208132
11264.0,-0.0004456753085833043
12288.0,-0.0008306806557811797
13312.0,-0.0004620998224709183
14336.0,0.0009325990104116499
end
