version,3.0
numOfCh,1
type,point
parent_name,800-cuts
ch_type,1_1
kcount,1
numberNandB,1
brightnessNandB,1
carpet pos,0
pc,0
Time (ms),CH1 Auto-Correlation
1.0,0.06732901185750961
2.0,0.0635804533958435
3.0,0.06014082953333855
4.0,0.05676841363310814
5.0,0.05355936661362648
6.0,0.05049913749098778
7.0,0.04760462045669556
8.0,0.044927340000867844
9.0,0.04239300638437271
10.0,0.04008347913622856
11.0,0.03792772814631462
12.0,0.035962771624326706
13.0,0.034139275550842285
14.0,0.032477058470249176
15.0,0.03081023506820202
16.0,0.029154097661376
18.0,0.026125289499759674
20.0,0.023383434861898422
22.0,0.020965272560715675
24.0,0.0187622532248497
26.0,0.016949821263551712
28.0,0.015216530300676823
30.0,0.013482525013387203
32.0,0.01196923479437828
36.0,0.00925354566425085
40.0,0.007169452495872974
44.0,0.005726057104766369
48.0,0.0046288068406283855
52.0,0.0038728108629584312
56.0,0.00305135827511549
60.0,0.0024192100390791893
64.0,0.0022867899388074875
72.0,0.0016201911494135857
80.0,0.001071264618076384
88.0,-0.00013636121002491564
96.0,-0.0015043617459014058
104.0,-0.0019733642693609
112.0,-0.002593717537820339
120.0,-0.0029220248106867075
128.0,-0.00167457468342036
144.0,0.0003333089698571712
160.0,0.0018097779247909784
176.0,0.0027929951902478933
192.0,0.0033433500211685896
208.0,0.003092695027589798
224.0,0.00141430227085948
240.0,0.00022902045748196542
256.0,-0.0005149554344825447
288.0,0.00024354711058549583
320.0,7.704103336436674e-05
352.0,0.0014498177915811539
384.0,-0.0012997231679037213
416.0,0.001028678147122264
448.0,-0.0001656545646255836
480.0,0.00043483386980369687
512.0,7.728471246082336e-05
576.0,-0.0022819722071290016
640.0,-0.0036002907436341047
704.0,-0.0021197879686951637
768.0,0.0033919650595635176
832.0,-2.9332828489714302e-05
896.0,-0.0018536222632974386
960.0,-0.00016488603432662785
1024.0,-0.0017444414552301168
1152.0,0.0002861360553652048
1280.0,0.0010202409466728568
1408.0,-0.0011861928505823016
1536.0,-8.802473894320428e-05
1664.0,-0.0026680766604840755
1792.0,-0.001531340996734798
1920.0,0.0012279748916625977
2048.0,-0.0006533375708386302
2304.0,0.0008180184522643685
2560.0,-0.0001923979725688696
2816.0,-0.0005451580509543419
3072.0,0.000748216756619513
3328.0,-0.0003318254020996392
3584.0,-1.5124773199204355e-05
3840.0,0.00037576293107122183
4096.0,0.0006301362882368267
4608.0,-0.00048705298104323447
5120.0,0.0004959019715897739
5632.0,-0.0021692824084311724
6144.0,-6.667932029813528e-05
6656.0,-0.0009111850522458553
7168.0,-9.888021304504946e-05
7680.0,-0.0009647422120906413
8192.0,0.001277583185583353
9216.0,0.0006515260320156813
10240.0,-0.00021622348867822438
11264.0,-0.0012034152168780565
12288.0,0.0012882190058007836
13312.0,0.0002868562296498567
14336.0,-0.0004682346188928932
end
