version,3.0
numOfCh,1
type,point
parent_name,800-cuts
ch_type,1_1
kcount,1
numberNandB,1
brightnessNandB,1
carpet pos,0
pc,0
Time (ms),CH1 Auto-Correlation
1.0,0.026653669774532318
2.0,0.024884073063731194
3.0,0.02328420616686344
4.0,0.021756881847977638
5.0,0.020304609090089798
6.0,0.018930481746792793
7.0,0.017643509432673454
8.0,0.01644774340093136
9.0,0.015323023311793804
10.0,0.014313671737909317
11.0,0.013434975408017635
12.0,0.012656345963478088
13.0,0.011967942118644714
14.0,0.011306713335216045
15.0,0.010678454302251339
16.0,0.010080770589411259
18.0,0.008951251395046711
20.0,0.007941963151097298
22.0,0.007082600146532059
24.0,0.006278073415160179
26.0,0.005589735694229603
28.0,0.0050963605754077435
30.0,0.004681399557739496
32.0,0.004287066403776407
36.0,0.0037802860606461763
40.0,0.0031939914915710688
44.0,0.002447515958920121
48.0,0.0019357524579390883
52.0,0.001668651937507093
56.0,0.0015252971788868308
60.0,0.0015253941528499126
64.0,0.0017892068717628717
72.0,0.0018694830359891057
80.0,0.0015950367087498307
88.0,0.001454878831282258
96.0,0.0013877793680876493
104.0,0.0011580998543649912
112.0,0.0006984847132116556
120.0,0.0003538378223311156
128.0,9.179655171465129e-05
144.0,0.0004037470789626241
160.0,-0.0003142231435049325
176.0,0.00011210147204110399
192.0,0.00011626043851720169
208.0,-0.0002513769140932709
224.0,-0.0004234718217048794
240.0,-0.0010537030175328255
256.0,-0.0013369328808039427
288.0,-0.0004889495321549475
320.0,0.00041270506335422397
352.0,0.0006650916766375303
384.0,5.594187314272858e-05
416.0,0.0013037160970270634
448.0,0.001620526541955769
480.0,0.0004586158029269427
512.0,0.0013580173254013062
576.0,-0.00020871908054687083
640.0,0.00037134511512704194
704.0,0.0004636298108380288
768.0,-0.000347904278896749
832.0,0.00034057581797242165
896.0,-0.0006762319826520979
960.0,-0.0008544710581190884
1024.0,-0.0003998854663223028
1152.0,0.00036101278965361416
1280.0,0.0004607050505001098
1408.0,-0.0008734922157600522
1536.0,-1.9568295101635158e-05
1664.0,0.0004093707539141178
1792.0,-0.0006843404262326658
1920.0,-0.00012672724551521242
2048.0,-0.0005783431697636843
2304.0,-0.0004383102641440928
2560.0,-0.0002950612979475409
2816.0,-0.000137443290441297
3072.0,-0.00038016034523025155
3328.0,-0.00040371809154748917
3584.0,-0.0004806888464372605
3840.0,-0.0004065581306349486
4096.0,0.00044135269126854837
4608.0,-0.0005374777829274535
5120.0,0.00022500214981846511
5632.0,0.00048184487968683243
6144.0,1.1124450793431606e-05
6656.0,0.000601183099206537
7168.0,0.00013226934242993593
7680.0,-0.0004382372717373073
8192.0,0.00017567774921189994
9216.0,9.876221156446263e-05
10240.0,-0.00012579935719259083
11264.0,-0.0001841047196649015
12288.0,-0.00024223285436164588
13312.0,-0.0003644303942564875
14336.0,0.0007466637180186808
end
