version,3.0
numOfCh,1
type,point
parent_name,800-cuts
ch_type,1_1
kcount,1
numberNandB,1
brightnessNandB,1
carpet pos,0
pc,0
Time (ms),CH1 Auto-Correlation
1.0,0.0490400493144989
2.0,0.04574787989258766
3.0,0.042603857815265656
4.0,0.03969219699501991
5.0,0.037130896002054214
6.0,0.03477994352579117
7.0,0.032599471509456635
8.0,0.030533069744706154
9.0,0.028590332716703415
10.0,0.02679934911429882
11.0,0.025194106623530388
12.0,0.023796353489160538
13.0,0.022450348362326622
14.0,0.021132441237568855
15.0,0.019942471757531166
16.0,0.018851615488529205
18.0,0.016970263794064522
20.0,0.015323815867304802
22.0,0.013700471259653568
24.0,0.01218338217586279
26.0,0.010796344839036465
28.0,0.009571106173098087
30.0,0.008536149747669697
32.0,0.007677465211600065
36.0,0.006147414445877075
40.0,0.005045254249125719
44.0,0.004284369293600321
48.0,0.0037663213443011045
52.0,0.0030646268278360367
56.0,0.0023503899574279785
60.0,0.0018326519057154655
64.0,0.0013668403262272477
72.0,0.0016336948610842228
80.0,0.0020142069552093744
88.0,0.0017728093080222607
96.0,0.0004836017033085227
104.0,-0.0006423699087463319
112.0,-0.00015616572636645287
120.0,0.0004683510051108897
128.0,3.680092413560487e-05
144.0,-0.0009790725307539105
160.0,-0.0016696240054443479
176.0,-0.0016563485842198133
192.0,-0.003495584474876523
208.0,-0.004602976143360138
224.0,-0.004403343889862299
240.0,-0.003101165872067213
256.0,-0.001989515032619238
288.0,0.00025613937759771943
320.0,0.0004980821977369487
352.0,0.001037848531268537
384.0,-0.0017019693041220307
416.0,-0.0010375527199357748
448.0,0.0003859798889607191
480.0,0.0013498410116881132
512.0,0.001206876477226615
576.0,0.0017247325740754604
640.0,0.000671383342705667
704.0,-5.584153041127138e-05
768.0,-0.0006934506818652153
832.0,-0.0011449799640104175
896.0,0.00047703745076432824
960.0,-0.0018460650462657213
1024.0,-0.0030743402894586325
1152.0,-0.0004433954309206456
1280.0,0.0008547312463633716
1408.0,0.0001760490267770365
1536.0,-0.0005795100587420166
1664.0,-0.001333616441115737
1792.0,-0.0024955205153673887
1920.0,0.00024886627215892076
2048.0,0.0011153618106618524
2304.0,-0.00011367322440491989
2560.0,-0.0010083599481731653
2816.0,0.0009685530094429851
3072.0,-0.0002808981225825846
3328.0,0.000318858161335811
3584.0,-0.00013717527326662093
3840.0,-0.0007854654686525464
4096.0,0.0012147572124376893
4608.0,-0.0001037105466821231
5120.0,-0.0004370308597572148
5632.0,8.08741242508404e-05
6144.0,0.0004909472772851586
6656.0,0.0008024601847864687
7168.0,0.0002465109573677182
7680.0,-0.0011282816994935274
8192.0,-0.00048622622853145003
9216.0,5.011479152017273e-05
10240.0,-2.5390858354512602e-05
11264.0,0.0001487418485339731
12288.0,7.462089797627414e-06
13312.0,-0.00018905960314441472
14336.0,2.541865615057759e-05
end
