version,3.0
numOfCh,1
type,point
parent_name,800-cuts
ch_type,1_1
kcount,1
numberNandB,1
brightnessNandB,1
carpet pos,0
pc,0
Time (ms),CH1 Auto-Correlation
1.0,0.022372407838702202
2.0,0.021006662398576736
3.0,0.019727695733308792
4.0,0.0185307115316391
5.0,0.017376581206917763
6.0,0.01628715731203556
7.0,0.015295489691197872
8.0,0.014353820122778416
9.0,0.013489091768860817
10.0,0.012693475931882858
11.0,0.011916492134332657
12.0,0.011193209327757359
13.0,0.010485702194273472
14.0,0.009820002131164074
15.0,0.00918609369546175
16.0,0.008572660386562347
18.0,0.007424002978950739
20.0,0.006420777644962072
22.0,0.005469367839396
24.0,0.004671826958656311
26.0,0.003954339772462845
28.0,0.00330207752995193
30.0,0.002693652641028166
32.0,0.0020748507231473923
36.0,0.001168709248304367
40.0,0.0006781091215088964
44.0,0.00036521951551549137
48.0,0.00025566425756551325
52.0,0.00011064046702813357
56.0,-0.00010035536251962185
60.0,-0.0003693673643283546
64.0,-0.0006112970877438784
72.0,-0.0008335598395206034
80.0,-0.0011322442442178726
88.0,-0.0010753065580502152
96.0,-0.0010346750495955348
104.0,-0.0006045624613761902
112.0,-0.00023651606170460582
120.0,0.00016516436880920082
128.0,0.0005059015820734203
144.0,0.0002572890662122518
160.0,-0.00013685932208318263
176.0,0.0003152947756461799
192.0,0.0003462643944658339
208.0,-0.00021092350652907044
224.0,-0.0005929475883021951
240.0,-0.0007421450573019683
256.0,-0.00019638612866401672
288.0,0.0003328397579025477
320.0,-0.0008619147702120245
352.0,-0.0010456735035404563
384.0,-0.0008166736806742847
416.0,-0.00019970096764154732
448.0,-1.8819781644197064e-06
480.0,0.0007754375692456961
512.0,0.00017108258907683194
576.0,0.00016205545398406684
640.0,6.69099681545049e-05
704.0,-0.0013657200615853071
768.0,-0.00015899413847364485
832.0,0.001250729663297534
896.0,0.00042013765778392553
960.0,0.0004248874611221254
1024.0,-0.00026920760865323246
1152.0,-0.0002691326953936368
1280.0,0.00042612769175320864
1408.0,0.0002965587191283703
1536.0,-0.00024932995438575745
1664.0,-0.0006627933471463621
1792.0,0.0002189003280363977
1920.0,0.00021252580336295068
2048.0,-0.00029784467187710106
2304.0,-0.0008734068833291531
2560.0,-0.00020835550094489008
2816.0,0.0001789807720342651
3072.0,-1.008696654025698e-05
3328.0,-0.000184405071195215
3584.0,-0.000203323841560632
3840.0,0.0005276893498376012
4096.0,-0.00013549104915000498
4608.0,0.000236892796237953
5120.0,8.24612652650103e-05
5632.0,-8.242105832323432e-05
6144.0,-0.00020880508236587048
6656.0,-5.74703881284222e-05
7168.0,-0.00032999878749251366
7680.0,0.0003338453534524888
8192.0,-0.0002765172393992543
9216.0,-7.0936971496848855e-06
10240.0,-4.1199175029760227e-05
11264.0,-2.363206476729829e-06
12288.0,5.817918281536549e-05
13312.0,-5.978377885185182e-06
14336.0,1.807091393857263e-05
end
