version,3.0
numOfCh,1
type,point
parent_name,800-cuts
ch_type,1_1
kcount,1
numberNandB,1
brightnessNandB,1
carpet pos,0
pc,0
Time (ms),CH1 Auto-Correlation
1.0,0.019233563914895058
2.0,0.01806369237601757
3.0,0.016976799815893173
4.0,0.0159950889647007
5.0,0.015085956081748009
6.0,0.014258592389523983
7.0,0.013465527445077896
8.0,0.012718715704977512
9.0,0.011976114474236965
10.0,0.011285446584224701
11.0,0.01063455082476139
12.0,0.010063471272587776
13.0,0.00950603000819683
14.0,0.008970191702246666
15.0,0.008441639132797718
16.0,0.00792500376701355
18.0,0.00700814463198185
20.0,0.006207026541233063
22.0,0.005498167127370834
24.0,0.004906701855361462
26.0,0.004422403872013092
28.0,0.003998636733740568
30.0,0.003645415185019374
32.0,0.0033359178341925144
36.0,0.0028229188174009323
40.0,0.0024773527402430773
44.0,0.002248557284474373
48.0,0.0018940817099064589
52.0,0.0014099233085289598
56.0,0.0010175546631217003
60.0,0.0007121611852198839
64.0,0.0004178085073363036
72.0,0.0002877087681554258
80.0,0.0002889126481022686
88.0,0.0003645010001491755
96.0,0.00042568956268951297
104.0,0.0004993020556867123
112.0,0.000186961711733602
120.0,-0.00029074159101583064
128.0,-0.00029834749875590205
144.0,9.56052535912022e-05
160.0,-0.0002597917628008872
176.0,-0.00031022107577882707
192.0,-0.00022287719184532762
208.0,-0.000657101278193295
224.0,-0.00063709745882079
240.0,-0.0005082625430077314
256.0,-0.0006323775742202997
288.0,-0.0007447401876561344
320.0,-9.461743320571259e-05
352.0,-0.00045420514652505517
384.0,-0.0003323382406961173
416.0,-0.00022498826729133725
448.0,-0.0007739058346487582
480.0,-0.0002940549165941775
512.0,0.00019779226568061858
576.0,0.0002303078945260495
640.0,-0.0002407209831289947
704.0,-0.00048627995420247316
768.0,-0.00021730309526901692
832.0,-0.0004181480617262423
896.0,-0.0012082925532013178
960.0,-0.00039194306009449065
1024.0,0.0008904162095859647
1152.0,0.00021107426437083632
1280.0,0.0005347653059288859
1408.0,-2.054438846244011e-05
1536.0,-0.00046067702351137996
1664.0,-0.00010234567889710888
1792.0,-3.7091307603986934e-05
1920.0,0.00014867576828692108
2048.0,0.0011656987480819225
2304.0,-0.00039366193232126534
2560.0,9.004625098896213e-06
2816.0,-0.0003798847901634872
3072.0,0.0001595008943695575
3328.0,-0.00012241005606483668
3584.0,0.0004719750431831926
3840.0,-0.0006350899930112064
4096.0,0.00038410918205045164
4608.0,-0.0005869891028851271
5120.0,0.00010800686141010374
5632.0,-0.0001297751150559634
6144.0,0.00014804134843870997
6656.0,8.501809497829527e-05
7168.0,-0.00036627508234232664
7680.0,0.0005588619969785213
8192.0,-0.0001252538786502555
9216.0,0.0003905205521732569
10240.0,-0.00037027845974080265
11264.0,3.309435487608425e-05
12288.0,-0.00019226668518967927
13312.0,0.0003970955149270594
14336.0,-0.00039288343396037817
end
