version,3.0
numOfCh,1
type,point
parent_name,800-cuts
ch_type,1_1
kcount,1
numberNandB,1
brightnessNandB,1
carpet pos,0
pc,0
Time (ms),CH1 Auto-Correlation
1.0,0.03134790435433388
2.0,0.029307149350643158
3.0,0.027427656576037407
4.0,0.025698145851492882
5.0,0.024098766967654228
6.0,0.022600365802645683
7.0,0.021229494363069534
8.0,0.01997048407793045
9.0,0.018808601424098015
10.0,0.01773495227098465
11.0,0.016705112531781197
12.0,0.01574418507516384
13.0,0.014865978620946407
14.0,0.014050251804292202
15.0,0.013264116831123829
16.0,0.012497412972152233
18.0,0.011078783310949802
20.0,0.009819199331104755
22.0,0.008585630916059017
24.0,0.007423750124871731
26.0,0.006437662988901138
28.0,0.005611916538327932
30.0,0.0048307632096111774
32.0,0.004166699945926666
36.0,0.002973206341266632
40.0,0.0020956897642463446
44.0,0.0016612322069704533
48.0,0.001339491456747055
52.0,0.0010009087854996324
56.0,0.0008045489666983485
60.0,0.0006083978805691004
64.0,0.00045648321975022554
72.0,0.0009292797767557204
80.0,0.0011326114181429148
88.0,0.0009282205137424171
96.0,0.0009297653450630605
104.0,0.00072742864722386
112.0,0.0006118059973232448
120.0,1.2762156075041275e-05
128.0,-0.0002603984030429274
144.0,0.000732816755771637
160.0,0.0018478790298104286
176.0,0.002135239541530609
192.0,0.001852379646152258
208.0,0.0014593858504667878
224.0,0.0007233252981677651
240.0,-0.00024162049521692097
256.0,-0.0018049569334834814
288.0,0.00019887728558387607
320.0,0.00043458311120048165
352.0,-0.0007957610650919378
384.0,0.0005402464303188026
416.0,0.0011044112034142017
448.0,0.0008722555940039456
480.0,0.0020483112893998623
512.0,0.002301180502399802
576.0,0.0010527512058615685
640.0,0.0010629181051626801
704.0,0.0007880044868215919
768.0,0.001378194079734385
832.0,-0.0006605415837839246
896.0,0.0005676245782524347
960.0,0.00187880324665457
1024.0,-0.0007910423446446657
1152.0,0.00014338766050059348
1280.0,0.0003193012089468539
1408.0,-0.0003104845527559519
1536.0,-0.00044630083721131086
1664.0,-0.0004178220115136355
1792.0,-0.00021303376706782728
1920.0,-0.0008512898348271847
2048.0,-0.0012785930885002017
2304.0,-0.0011138567933812737
2560.0,-0.0008404653635807335
2816.0,-0.0008246559300459921
3072.0,-0.0017577679827809334
3328.0,-0.0013160688104107976
3584.0,-0.0006938644219189882
3840.0,-0.0010805076453834772
4096.0,-0.0005648894002661109
4608.0,0.00017233665857929736
5120.0,0.001382076763547957
5632.0,0.001242204336449504
6144.0,0.0009423227165825665
6656.0,0.0005505075096152723
7168.0,-0.000311505573336035
7680.0,-0.00015334622003138065
8192.0,-0.0006578103639185429
9216.0,-0.0007465399685315788
10240.0,0.0001926355907926336
11264.0,0.0004064830136485398
12288.0,-6.255206244532019e-05
13312.0,0.00024386131553910673
14336.0,-0.0003238015924580395
end
