version,3.0
numOfCh,1
type,point
parent_name,800-cuts
ch_type,1_1
kcount,1
numberNandB,1
brightnessNandB,1
carpet pos,0
pc,0
Time (ms),CH1 Auto-Correlation
1.0,0.023225625976920128
2.0,0.021592017263174057
3.0,0.020052295178174973
4.0,0.018592871725559235
5.0,0.017265474423766136
6.0,0.01603519171476364
7.0,0.014964026398956776
8.0,0.014017577283084393
9.0,0.013137967325747013
10.0,0.012304608710110188
11.0,0.011503144167363644
12.0,0.010790261439979076
13.0,0.010112610645592213
14.0,0.009477225132286549
15.0,0.008874369785189629
16.0,0.008311239071190357
18.0,0.007395346183329821
20.0,0.0066843642853200436
22.0,0.006044816225767136
24.0,0.005446952767670155
26.0,0.0048361485823988914
28.0,0.004229101352393627
30.0,0.0037063448689877987
32.0,0.0032803956419229507
36.0,0.002585782203823328
40.0,0.002140586031600833
44.0,0.0017485852586105466
48.0,0.0013678382383659482
52.0,0.000997610972262919
56.0,0.000702760589774698
60.0,0.00039371103048324585
64.0,0.00011223052570130676
72.0,-0.0002211734972661361
80.0,-4.728725616587326e-05
88.0,2.420614328002557e-05
96.0,0.00010442974598845467
104.0,0.0003787669411394745
112.0,0.0006712095346301794
120.0,0.0008003208204172552
128.0,0.0006977450102567673
144.0,0.0003761679108720273
160.0,0.00025842501781880856
176.0,-8.206565689761192e-05
192.0,0.00037249119486659765
208.0,0.0011263438500463963
224.0,0.0012445537140592933
240.0,0.0009571550763212144
256.0,0.001164037617854774
288.0,-0.00025149693829007447
320.0,-0.00025960884522646666
352.0,0.00011940436525037512
384.0,-0.00042378250509500504
416.0,-0.0004951865412294865
448.0,-0.00020236612181179225
480.0,0.00026462931418791413
512.0,0.0008700069738551974
576.0,-7.926444959593937e-05
640.0,-0.0010176593204960227
704.0,-0.0008591518271714449
768.0,-0.00029052849276922643
832.0,-0.00016716786194592714
896.0,-0.0008061809930950403
960.0,0.00028922935598529875
1024.0,-0.0003994918952230364
1152.0,-0.00028857876895926893
1280.0,-0.0008281870395876467
1408.0,-0.0001492686424171552
1536.0,-0.0003542174235917628
1664.0,-0.0002754049201030284
1792.0,-0.0003388329641893506
1920.0,-4.1154518839903176e-05
2048.0,-0.00047430163249373436
2304.0,0.0003850544453598559
2560.0,0.0005651013925671577
2816.0,6.681618833681569e-05
3072.0,-0.0002276751765748486
3328.0,-0.0004682260623667389
3584.0,-0.00016765255713835359
3840.0,-0.0001551595632918179
4096.0,7.861225458327681e-05
4608.0,0.00019086163956671953
5120.0,-0.00032067365827970207
5632.0,-0.00015052022354211658
6144.0,-0.0002105256135109812
6656.0,0.0004803112242370844
7168.0,0.000345881242537871
7680.0,-0.0005003711557947099
8192.0,-0.0006998988101258874
9216.0,-1.8524282495491207e-05
10240.0,0.00019578808860387653
11264.0,-0.00023938783851917833
12288.0,0.00018273394380230457
13312.0,0.00023703341139480472
14336.0,-0.000734026893042028
end
