version,3.0
numOfCh,1
type,point
parent_name,800-cuts
ch_type,1_1
kcount,1
numberNandB,1
brightnessNandB,1
carpet pos,0
pc,0
Time (ms),CH1 Auto-Correlation
1.0,0.030510853976011276
2.0,0.028446704149246216
3.0,0.026539942249655724
4.0,0.024768106639385223
5.0,0.023142201825976372
6.0,0.021623317152261734
7.0,0.020211506634950638
8.0,0.01885167323052883
9.0,0.017611194401979446
10.0,0.016422705724835396
11.0,0.015323535539209843
12.0,0.014262058772146702
13.0,0.013325802981853485
14.0,0.012488683685660362
15.0,0.011706048622727394
16.0,0.01098413672298193
18.0,0.009627359919250011
20.0,0.00845619197934866
22.0,0.007406225893646479
24.0,0.00652634771540761
26.0,0.005869187880307436
28.0,0.005334722343832254
30.0,0.00481271231546998
32.0,0.004306131973862648
36.0,0.0034164711833000183
40.0,0.00301832496188581
44.0,0.0025955636519938707
48.0,0.002137953881174326
52.0,0.0017033935291692615
56.0,0.0015410290798172355
60.0,0.0017317392630502582
64.0,0.0016580462688580155
72.0,0.000902041734661907
80.0,0.00038837449392303824
88.0,1.0381233551015612e-05
96.0,-0.0008319841581396759
104.0,-0.0011560868006199598
112.0,-0.0014032326871529222
120.0,-0.0006829029298387468
128.0,0.00038533154292963445
144.0,-0.00017055343778338283
160.0,-0.0013139357324689627
176.0,-0.0012027156772091985
192.0,8.176125265890732e-05
208.0,-0.00019593974866438657
224.0,-0.0010558853391557932
240.0,-0.0009373843786306679
256.0,0.0002641887404024601
288.0,0.001646722899749875
320.0,0.0006103488267399371
352.0,0.00029059802182018757
384.0,-0.000288353388896212
416.0,-0.0005559822311624885
448.0,-0.0008059707470238209
480.0,-0.0008838950889185071
512.0,-0.0010139207588508725
576.0,-0.0004387904773466289
640.0,-0.00028813621611334383
704.0,0.0005241475882939994
768.0,-0.0007146025309339166
832.0,0.00019187122234143317
896.0,0.0016461031045764685
960.0,0.0003911009698640555
1024.0,-0.00019840522145386785
1152.0,-0.0007654833607375622
1280.0,-0.0013237359235063195
1408.0,-0.00043084315257146955
1536.0,-9.514849807601422e-05
1664.0,0.0005147942574694753
1792.0,-0.00038770228275097907
1920.0,0.00028196012135595083
2048.0,0.000160488038090989
2304.0,0.0002478425740264356
2560.0,0.0006482172175310552
2816.0,0.0003671663289424032
3072.0,0.00024354926426894963
3328.0,-0.0006678993813693523
3584.0,0.00021835998632013798
3840.0,-0.0003712968318723142
4096.0,-0.0007030743290670216
4608.0,0.0002782231313176453
5120.0,0.0001444376102881506
5632.0,-0.00035115325590595603
6144.0,-0.0002919329272117466
6656.0,-0.00043562334030866623
7168.0,0.00011044361599488184
7680.0,0.0002122291043633595
8192.0,-0.0003802799910772592
9216.0,-0.00016679700638633221
10240.0,-0.00012737295764964074
11264.0,0.00011430963786551729
12288.0,2.7368687369744293e-05
13312.0,-0.00010883368668146431
14336.0,-7.469882984878495e-05
end
