version,3.0
numOfCh,1
type,point
parent_name,800-cuts
ch_type,1_1
kcount,1
numberNandB,1
brightnessNandB,1
carpet pos,0
pc,0
Time (ms),CH1 Auto-Correlation
1.0,0.020013442263007164
2.0,0.018740277737379074
3.0,0.017549047246575356
4.0,0.01646478846669197
5.0,0.0154735017567873
6.0,0.014590262435376644
7.0,0.013769889250397682
8.0,0.01300876960158348
9.0,0.01233315747231245
10.0,0.011707120575010777
11.0,0.011133793741464615
12.0,0.010594005696475506
13.0,0.010071872733533382
14.0,0.009551241993904114
15.0,0.009048108011484146
16.0,0.008548163808882236
18.0,0.007568255066871643
20.0,0.006733010523021221
22.0,0.006011956837028265
24.0,0.005304345395416021
26.0,0.004666631575673819
28.0,0.004089648369699717
30.0,0.0035719391889870167
32.0,0.003106125397607684
36.0,0.0024559262674301863
40.0,0.0018301187083125114
44.0,0.001294640707783401
48.0,0.0008646870846860111
52.0,0.0004492398293223232
56.0,-2.1742162061855197e-05
60.0,-0.0004536381457000971
64.0,-0.000770402664784342
72.0,-0.0009666703990660608
80.0,-0.0010892747668549418
88.0,-0.0013448450481519103
96.0,-0.001425470458343625
104.0,-0.0011429424630478024
112.0,-0.0009967120131477714
120.0,-0.001054213149473071
128.0,-0.0008224916527979076
144.0,-0.0005927616148255765
160.0,-0.0004023397632408887
176.0,-0.00019055501616094261
192.0,-0.00041539568337611854
208.0,-0.0005827388959005475
224.0,-0.0005838966462761164
240.0,-0.0005763263907283545
256.0,-0.0007241615676321089
288.0,-0.00046710396418347955
320.0,-0.0006242415984161198
352.0,-0.00011741413618437946
384.0,-5.4003099648980424e-05
416.0,0.00025732358335517347
448.0,0.000299803854431957
480.0,0.00029405253008008003
512.0,0.0006347955204546452
576.0,-0.00044741242891177535
640.0,0.0003124104405287653
704.0,-0.00021961478341836482
768.0,-0.00015907688066363335
832.0,0.0008243458578363061
896.0,-0.0001478696067351848
960.0,-0.00034128307015635073
1024.0,0.00017911939357873052
1152.0,0.0005763508379459381
1280.0,-0.0005605741171166301
1408.0,-0.0003395728417672217
1536.0,0.000514468178153038
1664.0,0.00032131094485521317
1792.0,-0.00020025810226798058
1920.0,-0.00044709554640576243
2048.0,0.0004686192551162094
2304.0,-8.283677016152069e-05
2560.0,-0.00012399783008731902
2816.0,0.0001893470180220902
3072.0,0.00017195253167301416
3328.0,-6.0509570175781846e-05
3584.0,-0.00016795330157037824
3840.0,0.00028202609973959625
4096.0,-0.0003969202225562185
4608.0,-0.0001321495365118608
5120.0,0.00011443201219663024
5632.0,5.321584831108339e-05
6144.0,6.558934546774253e-05
6656.0,-0.00022045122750569135
7168.0,-0.00017662529717199504
7680.0,0.00013845005014445633
8192.0,-0.00022650406754110008
9216.0,-0.00014618498971685767
10240.0,-9.22752296901308e-05
11264.0,0.00022173376055434346
12288.0,-0.0001243420410901308
13312.0,0.00019568904826883227
14336.0,-4.1396542656002566e-05
end
