version,3.0
numOfCh,1
type,point
parent_name,800-cuts
ch_type,1_1
kcount,1
numberNandB,1
brightnessNandB,1
carpet pos,0
pc,0
Time (ms),CH1 Auto-Correlation
1.0,0.05406961962580681
2.0,0.05004289001226425
3.0,0.046238068491220474
4.0,0.04274097830057144
5.0,0.03951273486018181
6.0,0.03643917664885521
7.0,0.03358176723122597
8.0,0.03092847764492035
9.0,0.028459005057811737
10.0,0.026171009987592697
11.0,0.024129118770360947
12.0,0.02238559164106846
13.0,0.020839674398303032
14.0,0.019403567537665367
15.0,0.018168767914175987
16.0,0.016968466341495514
18.0,0.014699090272188187
20.0,0.012705708853900433
22.0,0.011004818603396416
24.0,0.009516917169094086
26.0,0.008165019564330578
28.0,0.006953204981982708
30.0,0.00604592077434063
32.0,0.0054284874349832535
36.0,0.00442776083946228
40.0,0.003840034594759345
44.0,0.0032047212589532137
48.0,0.0020052155014127493
52.0,0.0008124953019432724
56.0,0.000408880936447531
60.0,0.00045974532258696854
64.0,0.0008595377439633012
72.0,0.0017110987100750208
80.0,0.0019208758603781462
88.0,0.0005876559298485518
96.0,-0.000208901081350632
104.0,-0.0006619326886720955
112.0,-0.0025164438411593437
120.0,-0.003593809437006712
128.0,-0.0033253582660108805
144.0,-0.001345096156001091
160.0,-0.0013377255527302623
176.0,-0.0018517859280109406
192.0,-0.001760656712576747
208.0,-0.0027133370749652386
224.0,-0.003656140761449933
240.0,-0.002434492576867342
256.0,-0.0012096203863620758
288.0,-0.00040287230513058603
320.0,0.0017907675355672836
352.0,0.0005876488285139203
384.0,0.0004266569158062339
416.0,-0.0001602401171112433
448.0,0.0004575890488922596
480.0,-0.0008395788609050214
512.0,-5.4453936172649264e-05
576.0,-0.0006168551626615226
640.0,-0.0015554367564618587
704.0,-0.0006619360065087676
768.0,-0.0007446097442880273
832.0,0.001087700598873198
896.0,0.0011285848449915648
960.0,0.0008453017799183726
1024.0,0.0006180739728733897
1152.0,-0.0014011281309649348
1280.0,-0.0008387083071283996
1408.0,-9.981969196815044e-05
1536.0,0.000533113197889179
1664.0,-0.0007614220958203077
1792.0,0.0004818241868633777
1920.0,-1.2883448107459117e-05
2048.0,-0.0010415131691843271
2304.0,0.00046282634139060974
2560.0,-2.8968550395802595e-05
2816.0,-0.00031700238469056785
3072.0,-0.00031675229547545314
3328.0,0.0008890818571671844
3584.0,0.000219739435124211
3840.0,-0.0012528421357274055
4096.0,-0.0004311816010158509
4608.0,-0.00036266224924474955
5120.0,0.000512792554218322
5632.0,0.0007091747829690576
6144.0,-0.0004368829249870032
6656.0,-0.0007696954999119043
7168.0,-0.0007734320242889225
7680.0,-5.7237753935623914e-05
8192.0,0.00012401796993799508
9216.0,-0.0004551628662738949
10240.0,0.00032531487522646785
11264.0,8.997711120173335e-05
12288.0,-0.00032507715513929725
13312.0,0.000600289145950228
14336.0,-6.395054515451193e-05
end
