version,3.0
numOfCh,1
type,point
parent_name,800-cuts
ch_type,1_1
kcount,1
numberNandB,1
brightnessNandB,1
carpet pos,0
pc,0
Time (ms),CH1 Auto-Correlation
1.0,0.03549528121948242
2.0,0.03319519758224487
3.0,0.031005145981907845
4.0,0.028895694762468338
5.0,0.026881316676735878
6.0,0.025121422484517097
7.0,0.023508884012699127
8.0,0.022047916427254677
9.0,0.02068052627146244
10.0,0.019407076761126518
11.0,0.01816527359187603
12.0,0.01697998121380806
13.0,0.015930911526083946
14.0,0.01497094240039587
15.0,0.014057470485568047
16.0,0.013149933889508247
18.0,0.011563241481781006
20.0,0.010278124362230301
22.0,0.009202051907777786
24.0,0.008312319405376911
26.0,0.007490713149309158
28.0,0.00677931122481823
30.0,0.006108207628130913
32.0,0.005432593170553446
36.0,0.0041358936578035355
40.0,0.003211195580661297
44.0,0.0023858037311583757
48.0,0.001681366702541709
52.0,0.0011694610584527254
56.0,0.0008441319805569947
60.0,0.0008184787002392113
64.0,0.0008002249523997307
72.0,0.0007492972072213888
80.0,0.0012457264820113778
88.0,0.001583961071446538
96.0,0.0013355260016396642
104.0,0.0008001042879186571
112.0,0.0008025718852877617
120.0,1.1561937753867824e-05
128.0,-0.0010109771974384785
144.0,-0.0007166428258642554
160.0,0.0001951027661561966
176.0,0.00010594416380627081
192.0,0.0005757741164416075
208.0,0.0004543227842077613
224.0,0.0006517493748106062
240.0,0.0012298721121624112
256.0,0.0007081844378262758
288.0,-0.0008774718153290451
320.0,7.104773976607248e-05
352.0,0.0004376157303340733
384.0,0.0005708487005904317
416.0,0.002169921761378646
448.0,0.0016348038334399462
480.0,0.00015804776921868324
512.0,0.0006749423337168992
576.0,0.0003867309133056551
640.0,0.0017957998206838965
704.0,-0.0004187207669019699
768.0,-0.0005800280487164855
832.0,0.0006375489174388349
896.0,-0.00034493079874664545
960.0,-0.0006798020913265646
1024.0,0.0010274916421622038
1152.0,-0.00015604635700583458
1280.0,0.0002388722205068916
1408.0,-0.00023959531972650439
1536.0,-0.0004881231870967895
1664.0,1.3632258060169988e-06
1792.0,-0.00016717382823117077
1920.0,0.0005190039519220591
2048.0,0.0002769053680822253
2304.0,0.00012983962369617075
2560.0,0.00048729649279266596
2816.0,-0.000908144807908684
3072.0,-0.001112339086830616
3328.0,-0.0015675679314881563
3584.0,-0.0010067186085507274
3840.0,-0.0004070794384460896
4096.0,0.00040919583989307284
4608.0,-0.0002452351327519864
5120.0,5.645165219902992e-05
5632.0,-0.00026474983314983547
6144.0,0.0007536265184171498
6656.0,0.0006287997239269316
7168.0,-0.00010359288717154413
7680.0,0.0006375714438036084
8192.0,0.00038749241502955556
9216.0,-0.0010942055378109217
10240.0,9.414210944669321e-05
11264.0,-0.0007370998500846326
12288.0,0.0002678373421076685
13312.0,0.0003662278177216649
14336.0,-1.6457577658002265e-05
end
