version,3.0
numOfCh,1
type,point
parent_name,800-cuts
ch_type,1_1
kcount,1
numberNandB,1
brightnessNandB,1
carpet pos,0
pc,0
Time (ms),CH1 Auto-Correlation
1.0,0.028873691335320473
2.0,0.026838289573788643
3.0,0.024957934394478798
4.0,0.023305082693696022
5.0,0.02174510806798935
6.0,0.020298393443226814
7.0,0.01892136223614216
8.0,0.01767643541097641
9.0,0.016496123746037483
10.0,0.01545646507292986
11.0,0.014454860240221024
12.0,0.013490703888237476
13.0,0.012596085667610168
14.0,0.011788939125835896
15.0,0.011029914021492004
16.0,0.01031529251486063
18.0,0.00898734200745821
20.0,0.00781286135315895
22.0,0.0067695435136556625
24.0,0.005861508194357157
26.0,0.005032188259065151
28.0,0.004269059747457504
30.0,0.00351082906126976
32.0,0.002808567602187395
36.0,0.001766819623298943
40.0,0.0010942103108391166
44.0,0.000890297582373023
48.0,0.0008467720472253859
52.0,0.0007058578194119036
56.0,0.0007794115226715803
60.0,0.0007853430579416454
64.0,0.0004690404166467488
72.0,-1.7568247130839154e-05
80.0,-0.000799839268438518
88.0,-0.0017142813885584474
96.0,-0.0016515989555045962
104.0,-0.0006064334884285927
112.0,2.7356772989151068e-05
120.0,0.0008620191365480423
128.0,0.0015657971380278468
144.0,0.0007921279175207019
160.0,6.13080701441504e-05
176.0,1.8715543319558492e-06
192.0,0.000112990390334744
208.0,-0.00020960322581231594
224.0,-0.00039682540227659047
240.0,-0.0006879174616187811
256.0,-0.000823090027552098
288.0,0.0001472308940719813
320.0,-1.3101513104629703e-05
352.0,-0.000137962240842171
384.0,-0.0008280980982817709
416.0,-0.0012517940485849977
448.0,-0.00012100641470169649
480.0,-0.00023489876184612513
512.0,-0.00025340088177472353
576.0,0.0008023427217267454
640.0,0.0002151665830751881
704.0,0.00022754736710339785
768.0,1.9272723875474185e-05
832.0,6.528222729684785e-05
896.0,-0.0005604057223536074
960.0,-0.0005809426656924188
1024.0,0.0006192405126057565
1152.0,5.955528831691481e-05
1280.0,-0.00045325199607759714
1408.0,5.0101112719858065e-05
1536.0,0.0007573809125460684
1664.0,0.0009664983372204006
1792.0,0.0005071478080935776
1920.0,-0.0005643588374368846
2048.0,-1.651342427066993e-05
2304.0,0.00014806549006607383
2560.0,-0.00017023734108079225
2816.0,-0.0003770903858821839
3072.0,-3.2858944905456156e-05
3328.0,0.00010034172737505287
3584.0,-0.0006520809256471694
3840.0,-0.0007586654974147677
4096.0,-0.00028760521672666073
4608.0,-8.969461487140507e-05
5120.0,-0.0004403562343213707
5632.0,-0.00011424314288888127
6144.0,0.0001858955656643957
6656.0,0.00014154899690765887
7168.0,-0.00030670184059999883
7680.0,0.0009791108313947916
8192.0,-0.00024812176707200706
9216.0,0.0001847910025389865
10240.0,-0.00015407698811031878
11264.0,-0.00047657417599111795
12288.0,-0.00011648992222035304
13312.0,-0.0007205859874375165
14336.0,0.0001579352538101375
end
