version,3.0
numOfCh,1
type,point
parent_name,800-cuts
ch_type,1_1
kcount,1
numberNandB,1
brightnessNandB,1
carpet pos,0
pc,0
Time (ms),CH1 Auto-Correlation
1.0,0.06293307989835739
2.0,0.0588470958173275
3.0,0.05505751445889473
4.0,0.05148516595363617
5.0,0.04829530417919159
6.0,0.04535973072052002
7.0,0.042552173137664795
8.0,0.03994181007146835
9.0,0.037428997457027435
10.0,0.034924447536468506
11.0,0.032626207917928696
12.0,0.030487103387713432
13.0,0.028509696945548058
14.0,0.0266430526971817
15.0,0.024861108511686325
16.0,0.023134766146540642
18.0,0.020276067778468132
20.0,0.017940685153007507
22.0,0.016026314347982407
24.0,0.014563698321580887
26.0,0.01301245205104351
28.0,0.011490803211927414
30.0,0.009984414093196392
32.0,0.00858730636537075
36.0,0.006074773147702217
40.0,0.004271793179214001
44.0,0.0031409726943820715
48.0,0.0021455928217619658
52.0,0.0014037376968190074
56.0,0.0006888928473927081
60.0,0.00027304774266667664
64.0,0.00037409536889754236
72.0,-0.00015799832181073725
80.0,4.859965338255279e-05
88.0,0.000402345642214641
96.0,0.00030217974563129246
104.0,0.00012877676635980606
112.0,-0.0003259764926042408
120.0,-0.0016758475685492158
128.0,-0.001942060305736959
144.0,-0.002305334899574518
160.0,-0.0008742876816540956
176.0,-0.0002176047710236162
192.0,-0.0007497637416236103
208.0,-0.0015461998991668224
224.0,-0.0004186006844975054
240.0,0.0015407600440084934
256.0,0.0012649165000766516
288.0,0.0017474546330049634
320.0,0.0014179190620779991
352.0,0.0024805760476738214
384.0,0.0002226187352789566
416.0,-0.0018434511730447412
448.0,0.0005440288805402815
480.0,0.0010260441340506077
512.0,-0.0006399555131793022
576.0,-0.0033875484950840473
640.0,-0.0020218980498611927
704.0,0.001426402828656137
768.0,0.002170909894630313
832.0,0.00016796955605968833
896.0,-0.0022302784491330385
960.0,7.585954881506041e-05
1024.0,0.0013342981692403555
1152.0,-0.001379562309011817
1280.0,0.0002311640710104257
1408.0,0.00027253665030002594
1536.0,0.0008738144533708692
1664.0,-0.0007114488398656249
1792.0,0.0019024604698643088
1920.0,-0.001384051633067429
2048.0,-0.0025075431913137436
2304.0,-0.001208517816849053
2560.0,-0.00040938035817816854
2816.0,-0.000189536003745161
3072.0,-0.00030004000291228294
3328.0,-0.000955249066464603
3584.0,-0.0020955975633114576
3840.0,-0.00011398763308534399
4096.0,0.001212197938002646
4608.0,0.000479319627629593
5120.0,-0.0005265368963591754
5632.0,-0.0004995377967134118
6144.0,0.0009656434413045645
6656.0,0.0006968440138734877
7168.0,0.0011524813016876578
7680.0,0.00031385227339342237
8192.0,-0.0013162429677322507
9216.0,-0.0002580636355560273
10240.0,-0.0005842795944772661
11264.0,0.001261344295926392
12288.0,-0.0007742982124909759
13312.0,-0.000209208665182814
14336.0,0.0006949210655875504
end
