version,3.0
numOfCh,1
type,point
parent_name,800-cuts
ch_type,1_1
kcount,1
numberNandB,1
brightnessNandB,1
carpet pos,0
pc,0
Time (ms),CH1 Auto-Correlation
1.0,0.0226760096848011
2.0,0.0212290957570076
3.0,0.01989714615046978
4.0,0.018664799630641937
5.0,0.017542896792292595
6.0,0.016530541703104973
7.0,0.015627283602952957
8.0,0.014802745543420315
9.0,0.014039366506040096
10.0,0.013323637656867504
11.0,0.012653776444494724
12.0,0.012048953212797642
13.0,0.011470074765384197
14.0,0.010950456373393536
15.0,0.010450780391693115
16.0,0.01000924315303564
18.0,0.009179329499602318
20.0,0.008426212705671787
22.0,0.007764514535665512
24.0,0.007159027736634016
26.0,0.0066055236384272575
28.0,0.006142518948763609
30.0,0.005796550773084164
32.0,0.005380621645599604
36.0,0.004685377702116966
40.0,0.00417697336524725
44.0,0.0038330424576997757
48.0,0.003561168210580945
52.0,0.0033444606233388186
56.0,0.003292255336418748
60.0,0.0033142431639134884
64.0,0.003304561600089073
72.0,0.003024947363883257
80.0,0.002595366444438696
88.0,0.0019402095349505544
96.0,0.0012853556545451283
104.0,0.0007355194538831711
112.0,0.0002512945211492479
120.0,0.00022364953474607319
128.0,0.0003461717860773206
144.0,0.0001464478118577972
160.0,0.00011126026947749779
176.0,-0.0003154571750201285
192.0,-0.0006287439609877765
208.0,8.584220267948695e-06
224.0,0.0004987178253941238
240.0,0.0006988557288423181
256.0,0.0006471517845056951
288.0,0.00010691331408452243
320.0,-0.0007477039471268654
352.0,-0.0002943943836726248
384.0,-0.00010273992666043341
416.0,0.00032462275703437626
448.0,0.000878460647072643
480.0,0.0008793924935162067
512.0,0.0007695300737395883
576.0,-0.00013776394189335406
640.0,0.0004964956315234303
704.0,-0.0006325147696770728
768.0,-0.0004999284283258021
832.0,-0.000185987853910774
896.0,0.0001508144341642037
960.0,-0.00033101567532867193
1024.0,-0.0013023755745962262
1152.0,-0.00011811015428975224
1280.0,-0.00033096320112235844
1408.0,-0.001220451551489532
1536.0,-0.0006123532075434923
1664.0,-0.0002707904204726219
1792.0,-0.0003375392407178879
1920.0,0.00026891304878517985
2048.0,-6.191908323671669e-05
2304.0,-8.132327639032155e-05
2560.0,-0.00043110581464134157
2816.0,-0.0005499809049069881
3072.0,0.0003065300115849823
3328.0,-0.00027033305377699435
3584.0,0.00047312621609307826
3840.0,-0.0004752912209369242
4096.0,0.00029431574512273073
4608.0,0.0001889304694486782
5120.0,-5.931784107815474e-05
5632.0,1.0369722986069974e-05
6144.0,-0.0005749691626988351
6656.0,0.00010539899813011289
7168.0,2.498770300007891e-05
7680.0,0.00045501382555812597
8192.0,-0.00017628907517064363
9216.0,0.0001363333431072533
10240.0,-0.00011006189743056893
11264.0,-0.00042518292320892215
12288.0,0.0002068237226922065
13312.0,-0.00010926592949545011
14336.0,-0.00017831558943726122
end
