version,3.0
numOfCh,1
type,point
parent_name,800-cuts
ch_type,1_1
kcount,1
numberNandB,1
brightnessNandB,1
carpet pos,0
pc,0
Time (ms),CH1 Auto-Correlation
1.0,0.06976784020662308
2.0,0.06549078971147537
3.0,0.061640623956918716
4.0,0.05799853801727295
5.0,0.054591476917266846
6.0,0.05138884112238884
7.0,0.048331353813409805
8.0,0.045426808297634125
9.0,0.04271290823817253
10.0,0.04009092226624489
11.0,0.037749115377664566
12.0,0.03554714471101761
13.0,0.03351637348532677
14.0,0.03151847794651985
15.0,0.02958369255065918
16.0,0.027644053101539612
18.0,0.024183597415685654
20.0,0.021124184131622314
22.0,0.018496444448828697
24.0,0.01601029746234417
26.0,0.013778422959148884
28.0,0.011891531758010387
30.0,0.010246437042951584
32.0,0.00882670283317566
36.0,0.006573938298970461
40.0,0.004445645492523909
44.0,0.0025378663558512926
48.0,0.0010294360108673573
52.0,9.105701792577747e-07
56.0,-0.0010327944764867425
60.0,-0.0012557379668578506
64.0,-0.0013046259991824627
72.0,-0.0009723211987875402
80.0,0.00016590363520663232
88.0,0.0004046903341077268
96.0,0.0006391037022694945
104.0,0.0017893014010041952
112.0,0.0018881846917793155
120.0,0.0018480155849829316
128.0,0.0014004361582919955
144.0,0.0010975264012813568
160.0,0.002064419211819768
176.0,0.0023656103294342756
192.0,0.0006973760901018977
208.0,-0.0013849543174728751
224.0,-0.0030217808671295643
240.0,-0.0037384284660220146
256.0,-0.0016538721974939108
288.0,0.0013972617452964187
320.0,0.0023136029485613108
352.0,0.0012103429762646556
384.0,0.002526863943785429
416.0,0.0028579586651176214
448.0,0.0035002243239432573
480.0,0.004353165160864592
512.0,0.0018344599520787597
576.0,0.0011979768751189113
640.0,-0.0027610217221081257
704.0,-0.0024382902774959803
768.0,1.0211665539827663e-06
832.0,0.0015795936342328787
896.0,0.0011542518623173237
960.0,-0.00011024707782780752
1024.0,0.0005207270733080804
1152.0,0.0001526172272861004
1280.0,0.001976922620087862
1408.0,-0.00037538071046583354
1536.0,0.0006195487221702933
1664.0,0.000595707562752068
1792.0,-0.0019705379381775856
1920.0,-0.0030245783273130655
2048.0,-0.00011127199104521424
2304.0,-0.001976213650777936
2560.0,-0.001922645140439272
2816.0,-0.0012902365997433662
3072.0,-0.0010532446904107928
3328.0,-0.001046421704813838
3584.0,-0.00045782403321936727
3840.0,-0.001167019479908049
4096.0,-0.000918903446290642
4608.0,-0.00042100928840227425
5120.0,9.024018072523177e-05
5632.0,0.0018196952296420932
6144.0,0.0007421066984534264
6656.0,0.001886364771053195
7168.0,0.001154273864813149
7680.0,-0.0004947627894580364
8192.0,-0.0006334938807412982
9216.0,-0.0018958934815600514
10240.0,-0.0017703169723972678
11264.0,0.0008331513963639736
12288.0,0.004376351833343506
13312.0,-0.001890016021206975
14336.0,-0.0034999107010662556
end
