version,3.0
numOfCh,1
type,point
parent_name,800-cuts
ch_type,1_1
kcount,1
numberNandB,1
brightnessNandB,1
carpet pos,0
pc,0
Time (ms),CH1 Auto-Correlation
1.0,0.06405919790267944
2.0,0.05989588797092438
3.0,0.05603314936161041
4.0,0.05236412212252617
5.0,0.048876408487558365
6.0,0.04560583829879761
7.0,0.04258676618337631
8.0,0.039826832711696625
9.0,0.03724856302142143
10.0,0.0347975417971611
11.0,0.032591912895441055
12.0,0.030592458322644234
13.0,0.028745431452989578
14.0,0.027078712359070778
15.0,0.02554827742278576
16.0,0.024122461676597595
18.0,0.021668566390872
20.0,0.01971457339823246
22.0,0.01789962872862816
24.0,0.016378959640860558
26.0,0.015083125792443752
28.0,0.014054575003683567
30.0,0.012985908426344395
32.0,0.012015493586659431
36.0,0.010387723334133625
40.0,0.009487991221249104
44.0,0.008787475526332855
48.0,0.008569206111133099
52.0,0.008183058351278305
56.0,0.0074598039500415325
60.0,0.006362497806549072
64.0,0.005493612959980965
72.0,0.0038643295411020517
80.0,0.0023719079326838255
88.0,0.001397081883624196
96.0,0.0007250641356222332
104.0,-3.3636217267485335e-05
112.0,-1.1791828910645563e-05
120.0,0.0007666838355362415
128.0,0.0003786783490795642
144.0,-0.0008682850748300552
160.0,-0.0009299292578361928
176.0,-0.0013538545463234186
192.0,-0.0022355259861797094
208.0,-0.0028267684392631054
224.0,-0.00044269688078202307
240.0,-0.0015934703405946493
256.0,-0.0026985511649399996
288.0,0.0003450894437264651
320.0,0.0030944987665861845
352.0,0.001590578816831112
384.0,0.0006941667525097728
416.0,0.00030751852318644524
448.0,0.0005519915139302611
480.0,0.0001627472520340234
512.0,-0.0002951164497062564
576.0,0.0010990480659529567
640.0,-0.00011337937030475587
704.0,0.00033786342828534544
768.0,-0.0013953238958492875
832.0,-0.0010364354820922017
896.0,-0.0007835734286345541
960.0,-0.002022805390879512
1024.0,0.00011500473192427307
1152.0,0.000544100534170866
1280.0,0.0006402524304576218
1408.0,-0.0012179663171991706
1536.0,-0.0013741604052484035
1664.0,0.0010461211204528809
1792.0,-0.0025196997448801994
1920.0,-0.0017196428962051868
2048.0,0.00037557989708147943
2304.0,0.0005423297407105565
2560.0,0.001034399843774736
2816.0,-0.002300041960552335
3072.0,-0.0002340055361855775
3328.0,0.00035862921504303813
3584.0,0.0015645369421690702
3840.0,0.0007058354094624519
4096.0,-0.001019128249026835
4608.0,-0.0005367854028008878
5120.0,-0.0007622153498232365
5632.0,-5.4387412092182785e-05
6144.0,-0.0006679585203528404
6656.0,-0.0003486766363494098
7168.0,-0.001114246784709394
7680.0,-0.00015894243551883847
8192.0,0.0005960552953183651
9216.0,0.00038972910260781646
10240.0,0.0008683752384968102
11264.0,-0.0025041464250534773
12288.0,0.0017611125949770212
13312.0,0.0002605529152788222
14336.0,-0.005009375512599945
end
