version,3.0
numOfCh,1
type,point
parent_name,800-cuts
ch_type,1_1
kcount,1
numberNandB,1
brightnessNandB,1
carpet pos,0
pc,0
Time (ms),CH1 Auto-Correlation
1.0,0.06174062192440033
2.0,0.057687435299158096
3.0,0.05381780117750168
4.0,0.05013025179505348
5.0,0.04683796316385269
6.0,0.04372011870145798
7.0,0.040841322392225266
8.0,0.03808457776904106
9.0,0.035436131060123444
10.0,0.03296099230647087
11.0,0.03063567914068699
12.0,0.028468482196331024
13.0,0.026479585096240044
14.0,0.024638837203383446
15.0,0.022961603477597237
16.0,0.021361609920859337
18.0,0.018482670187950134
20.0,0.015900295227766037
22.0,0.013518178835511208
24.0,0.011302286759018898
26.0,0.00935392826795578
28.0,0.007671500090509653
30.0,0.006017069797962904
32.0,0.00466002756729722
36.0,0.002819737419486046
40.0,0.001705714501440525
44.0,0.0011813777964562178
48.0,0.0009587896056473255
52.0,0.00020137580577284098
56.0,-0.00072773004649207
60.0,-0.0019299400737509131
64.0,-0.0027982727624475956
72.0,-0.0036797074135392904
80.0,-0.0025235824286937714
88.0,-0.0009551224065944552
96.0,-0.0004054392338730395
104.0,-0.0013749244390055537
112.0,-0.0020249425433576107
120.0,-0.0017562704160809517
128.0,-0.0026355909649282694
144.0,-0.0024964245967566967
160.0,-0.001379293156787753
176.0,0.00023775294539518654
192.0,0.00034299795515835285
208.0,-0.0005911426269449294
224.0,-0.00035310545354150236
240.0,0.0002947707544080913
256.0,0.00025822603492997587
288.0,-0.0008469427702948451
320.0,-0.0004697678086813539
352.0,0.0017820881912484765
384.0,-0.00020740895706694573
416.0,-0.0004097134224139154
448.0,-0.0023603648878633976
480.0,0.0003465615736786276
512.0,0.0004904322559013963
576.0,0.0014955915976315737
640.0,0.0008054954814724624
704.0,-0.00020586064783856273
768.0,0.0017686145147308707
832.0,0.002841309178620577
896.0,0.0017262942856177688
960.0,0.0002403150574536994
1024.0,-0.0023077891673892736
1152.0,0.0008974885568022728
1280.0,9.694703476270661e-05
1408.0,0.0017242920584976673
1536.0,-0.0018298821523785591
1664.0,0.0008432120666839182
1792.0,0.0004202277341391891
1920.0,-0.00020639097783714533
2048.0,0.0008296666783280671
2304.0,-0.0013781714951619506
2560.0,-0.0006567203090526164
2816.0,0.00013235230289865285
3072.0,-0.0011018600780516863
3328.0,-0.0011787760304287076
3584.0,-0.0003209363203495741
3840.0,-0.0008569161873310804
4096.0,-0.0015976371942088008
4608.0,-0.00043277881923131645
5120.0,-0.00023173187219072133
5632.0,0.00020159536506980658
6144.0,0.0002691361296456307
6656.0,0.0002463330456521362
7168.0,3.941792238038033e-05
7680.0,-0.00019999676442239434
8192.0,0.00044012139551341534
9216.0,0.00017763081996235996
10240.0,0.0001169101451523602
11264.0,-0.00030290998984128237
12288.0,1.2611862985068001e-05
13312.0,-0.00013744070020038635
14336.0,0.00018974007980432361
end
