version,3.0
numOfCh,1
type,point
parent_name,800-cuts
ch_type,1_1
kcount,1
numberNandB,1
brightnessNandB,1
carpet pos,0
pc,0
Time (ms),CH1 Auto-Correlation
1.0,0.02010536938905716
2.0,0.018793979659676552
3.0,0.017546409741044044
4.0,0.016335701569914818
5.0,0.015185530297458172
6.0,0.01411222480237484
7.0,0.013095218688249588
8.0,0.012112290598452091
9.0,0.011218278668820858
10.0,0.010357250459492207
11.0,0.009590037167072296
12.0,0.008876366540789604
13.0,0.008231325075030327
14.0,0.007647427264600992
15.0,0.007096841000020504
16.0,0.006581660360097885
18.0,0.005634416826069355
20.0,0.004808912053704262
22.0,0.004140233621001244
24.0,0.0036407476291060448
26.0,0.0032216242980211973
28.0,0.0028133161831647158
30.0,0.0023667658679187298
32.0,0.00193901383318007
36.0,0.0013063288060948253
40.0,0.0007472207653336227
44.0,0.0002690908731892705
48.0,-8.672161493450403e-05
52.0,-0.0002624649787321687
56.0,-0.00035606868914328516
60.0,-0.000233816186664626
64.0,-0.00014970841584727168
72.0,-0.00030893663642928004
80.0,-0.0003640357172116637
88.0,-0.00010795726848300546
96.0,0.0001780505699571222
104.0,0.00015949821681715548
112.0,-7.406981603708118e-05
120.0,-0.00017509270401205868
128.0,-0.00023114454234018922
144.0,-0.0002807097043842077
160.0,2.321893407497555e-05
176.0,0.00035134836798533797
192.0,9.4359100330621e-05
208.0,9.9327509815339e-05
224.0,0.0007144866976886988
240.0,0.0005868914886377752
256.0,0.000793689803685993
288.0,-7.716354593867436e-05
320.0,0.00011773351434385404
352.0,2.5289016775786877e-05
384.0,-0.0007781651220284402
416.0,-0.00018516203272156417
448.0,0.0001101506786653772
480.0,-8.533745858585462e-05
512.0,-0.000609793933108449
576.0,-0.0001182394044008106
640.0,0.0004399825120344758
704.0,-5.822680759592913e-05
768.0,-0.0002216028078692034
832.0,-0.0005348051781766117
896.0,-0.00047635764349251986
960.0,0.00034119945485144854
1024.0,0.0002453277993481606
1152.0,-0.0008291533449664712
1280.0,-0.0006121291080489755
1408.0,-6.436705007217824e-05
1536.0,-0.0005478186649270356
1664.0,0.0006134035647846758
1792.0,-0.0004939499776810408
1920.0,-6.354702782118693e-05
2048.0,-0.0001710834476398304
2304.0,0.000180666713276878
2560.0,0.00030922077712602913
2816.0,-7.666787132620811e-05
3072.0,0.0002974561648443341
3328.0,-0.00024901004508137703
3584.0,-0.00024488649796694517
3840.0,7.712077604082879e-06
4096.0,0.0003214441239833832
4608.0,0.00032899845973588526
5120.0,1.0951594958896749e-05
5632.0,0.00018554102280177176
6144.0,-0.0004276092513464391
6656.0,-0.00030594062991440296
7168.0,0.00023374336888082325
7680.0,0.00025510365958325565
8192.0,-9.427731856703758e-05
9216.0,-0.00012997735757380724
10240.0,0.00023100193357095122
11264.0,-0.0003877062990795821
12288.0,-8.180445729522035e-05
13312.0,0.00022934394655749202
14336.0,-5.5774373322492465e-05
end
