version,3.0
numOfCh,1
type,point
parent_name,800-cuts
ch_type,1_1
kcount,1
numberNandB,1
brightnessNandB,1
carpet pos,0
pc,0
Time (ms),CH1 Auto-Correlation
1.0,0.020705876871943474
2.0,0.019366426393389702
3.0,0.018077528104186058
4.0,0.016903070732951164
5.0,0.015783922746777534
6.0,0.014739957638084888
7.0,0.013790296390652657
8.0,0.01287494134157896
9.0,0.012006739154458046
10.0,0.011208435520529747
11.0,0.010487951338291168
12.0,0.009798601269721985
13.0,0.009192626923322678
14.0,0.008620934560894966
15.0,0.008095432072877884
16.0,0.007598796393722296
18.0,0.006600136868655682
20.0,0.0056757451966404915
22.0,0.004942118190228939
24.0,0.004330728203058243
26.0,0.0037531128618866205
28.0,0.00324568641372025
30.0,0.00289016030728817
32.0,0.002641209401190281
36.0,0.0023358373437076807
40.0,0.0019584253896027803
44.0,0.0016255355440080166
48.0,0.0013795353006571531
52.0,0.0012108138762414455
56.0,0.0009442208684049547
60.0,0.0007593525806441903
64.0,0.00041777684236876667
72.0,0.00011561682185856625
80.0,0.00016298207629006356
88.0,3.498508522170596e-05
96.0,-0.00015271725715138018
104.0,-7.1454189310316e-05
112.0,0.00020311477419454604
120.0,0.00037530448753386736
128.0,0.00017524525173939764
144.0,0.00022457673912867904
160.0,0.000841488188598305
176.0,0.0005633191321976483
192.0,0.00025711095076985657
208.0,-0.00037731786142103374
224.0,-0.000893284915946424
240.0,-0.0010048599215224385
256.0,-0.000599290244281292
288.0,-0.0004015778540633619
320.0,-0.0006440551951527596
352.0,-0.0009626378887332976
384.0,-0.0003839909622911364
416.0,0.0006132444832473993
448.0,0.0002547200710978359
480.0,-0.0001720222207950428
512.0,0.0005386827397160232
576.0,0.00030799180967733264
640.0,0.00034492192207835615
704.0,-0.0002285191003466025
768.0,-0.0005738641484640539
832.0,-6.765738362446427e-05
896.0,0.00037108041578903794
960.0,0.00020772102288901806
1024.0,-0.0005516717210412025
1152.0,-0.0002632811083458364
1280.0,0.00021483327145688236
1408.0,0.0005692834383808076
1536.0,6.709137960569933e-05
1664.0,4.177649680059403e-05
1792.0,0.00028606585692614317
1920.0,0.0007490442949347198
2048.0,0.0008562376024201512
2304.0,-0.0003615939640440047
2560.0,0.0006117780576460063
2816.0,-5.0301656301598996e-05
3072.0,1.892966974992305e-05
3328.0,-9.411237988388166e-05
3584.0,0.00010467777610756457
3840.0,-0.00028616058989427984
4096.0,0.0005995656829327345
4608.0,0.0002981988072860986
5120.0,-2.0639929061871953e-05
5632.0,-0.00017538480460643768
6144.0,-2.8605927582248114e-05
6656.0,6.746170402038842e-05
7168.0,-5.6843869970180094e-05
7680.0,-0.0004664046864490956
8192.0,-0.00022200764215085655
9216.0,-0.0002944589068647474
10240.0,-0.00035093072801828384
11264.0,-0.00023412633163388819
12288.0,-0.000297204329399392
13312.0,-0.0002712646673899144
14336.0,-0.0001878852053778246
end
