version,3.0
numOfCh,1
type,point
parent_name,800-cuts
ch_type,1_1
kcount,1
numberNandB,1
brightnessNandB,1
carpet pos,0
pc,0
Time (ms),CH1 Auto-Correlation
1.0,0.06778015196323395
2.0,0.06361756473779678
3.0,0.059951648116111755
4.0,0.05650322884321213
5.0,0.053203076124191284
6.0,0.050037186592817307
7.0,0.04705839231610298
8.0,0.044282473623752594
9.0,0.04170272871851921
10.0,0.03933098167181015
11.0,0.03723185136914253
12.0,0.03529391065239906
13.0,0.033422671258449554
14.0,0.03179304674267769
15.0,0.03018167056143284
16.0,0.028639117255806923
18.0,0.025879215449094772
20.0,0.023422367870807648
22.0,0.021286096423864365
24.0,0.019411157816648483
26.0,0.01744340918958187
28.0,0.01548835914582014
30.0,0.013439505361020565
32.0,0.011488801799714565
36.0,0.007903642021119595
40.0,0.005574957001954317
44.0,0.003836326766759157
48.0,0.0026126247830688953
52.0,0.0022818539291620255
56.0,0.002253290731459856
60.0,0.002312885830178857
64.0,0.002168566919863224
72.0,0.0011789106065407395
80.0,0.001122998190112412
88.0,0.0004486919497139752
96.0,0.000726405531167984
104.0,0.0007729697972536087
112.0,0.00010956657206406817
120.0,3.7997371691744775e-05
128.0,0.00012948147195857018
144.0,-0.0020210915245115757
160.0,-0.003311487380415201
176.0,-0.004209230188280344
192.0,-0.0015830540796741843
208.0,-0.0014329282566905022
224.0,-0.002277480671182275
240.0,-0.0010677145328372717
256.0,-0.0010252483189105988
288.0,-0.002764080185443163
320.0,-0.00216873362660408
352.0,-0.0022839722223579884
384.0,-0.0008446621359325945
416.0,-1.255839833902428e-05
448.0,-0.002959699835628271
480.0,-0.0020094781648367643
512.0,-0.002442367374897003
576.0,-0.0007224967121146619
640.0,0.0014500630786642432
704.0,0.0002030166215263307
768.0,0.0004928080597892404
832.0,-0.000525280658621341
896.0,-0.0014552273787558079
960.0,-0.0005078996764495969
1024.0,0.0009591184207238257
1152.0,0.0013400198658928275
1280.0,-0.0019609075970947742
1408.0,-0.00042055314406752586
1536.0,-0.0010086812544614077
1664.0,-0.0006445150938816369
1792.0,0.0014358989428728819
1920.0,-0.0013105684192851186
2048.0,-1.6333566236426122e-05
2304.0,-0.0005756081081926823
2560.0,0.000994279282167554
2816.0,0.0027951840311288834
3072.0,-0.002088062698021531
3328.0,-0.0015717395581305027
3584.0,0.0009933642577379942
3840.0,0.0016925290692597628
4096.0,-0.002779314061626792
4608.0,0.0002774526656139642
5120.0,-0.0002335605095140636
5632.0,0.00010448808461660519
6144.0,-0.0015874378150328994
6656.0,0.0010211436310783029
7168.0,3.684571129269898e-05
7680.0,-0.0007866982487030327
8192.0,0.0010293059749528766
9216.0,0.0013693667715415359
10240.0,-0.0010619183303788304
11264.0,0.0011708838865160942
12288.0,-0.00013207005395088345
13312.0,-0.00010418510646559298
14336.0,-1.6129944924614392e-05
end
