version,3.0
numOfCh,1
type,point
parent_name,800-cuts
ch_type,1_1
kcount,1
numberNandB,1
brightnessNandB,1
carpet pos,0
pc,0
Time (ms),CH1 Auto-Correlation
1.0,0.03189999237656593
2.0,0.029673364013433456
3.0,0.02764897607266903
4.0,0.02580576203763485
5.0,0.02418239787220955
6.0,0.022726325318217278
7.0,0.02133355289697647
8.0,0.02008790336549282
9.0,0.018838871270418167
10.0,0.017693227156996727
11.0,0.016620103269815445
12.0,0.015614098869264126
13.0,0.014660010114312172
14.0,0.013778910040855408
15.0,0.012882338836789131
16.0,0.01202139351516962
18.0,0.010540434159338474
20.0,0.009330783039331436
22.0,0.008386384695768356
24.0,0.007432382553815842
26.0,0.00666882423684001
28.0,0.006064193788915873
30.0,0.005673123057931662
32.0,0.005336018744856119
36.0,0.004841731395572424
40.0,0.004293282516300678
44.0,0.003660287009552121
48.0,0.0030157400760799646
52.0,0.002490893006324768
56.0,0.002217731671407819
60.0,0.0020065540447831154
64.0,0.001729409210383892
72.0,0.0013480469351634383
80.0,0.000979445525445044
88.0,0.0007518055499531329
96.0,0.0009059535223059356
104.0,0.001105939969420433
112.0,0.0009296280331909657
120.0,0.000832273974083364
128.0,0.0009073129040189087
144.0,0.0007023776415735483
160.0,-0.00027522092568688095
176.0,-0.0008763552759774029
192.0,-0.0007717057014815509
208.0,-0.001555609400384128
224.0,-0.001564856618642807
240.0,-0.000844588503241539
256.0,-9.874645184027031e-05
288.0,2.8696244044112973e-05
320.0,0.0011122715659439564
352.0,0.0012637535110116005
384.0,0.0014140651328489184
416.0,0.0012797585222870111
448.0,0.0006749315070919693
480.0,2.924887212429894e-06
512.0,-0.0009456348489038646
576.0,-0.0004367120563983917
640.0,0.00016575120389461517
704.0,0.0009251965093426406
768.0,0.0007288712076842785
832.0,-9.893541573546827e-06
896.0,-0.0002580841537564993
960.0,-0.0005567737971432507
1024.0,9.123515155806672e-06
1152.0,-0.0010220034746453166
1280.0,-0.00035530541208572686
1408.0,0.0002036044024862349
1536.0,-0.00038381892954930663
1664.0,0.001454533776268363
1792.0,-0.0011098264949396253
1920.0,-0.0006778004462830722
2048.0,0.0007166731520555913
2304.0,-0.0004090550064574927
2560.0,-0.00022426981013268232
2816.0,-9.094906999962404e-05
3072.0,-0.0001628972968319431
3328.0,6.724996637785807e-05
3584.0,-0.0003045975463464856
3840.0,3.976655534643214e-06
4096.0,0.0011040227254852653
4608.0,0.0003670833248179406
5120.0,-0.000935282208956778
5632.0,-0.0012232414446771145
6144.0,-0.00046832647058181465
6656.0,-0.00021817006927449256
7168.0,0.001212973496876657
7680.0,6.0731006669811904e-05
8192.0,-1.028291262628045e-05
9216.0,-0.0007403166382573545
10240.0,-0.00018457572150509804
11264.0,0.0007876275340095162
12288.0,-0.00019650640024337918
13312.0,-0.0006635973695665598
14336.0,0.0010462816571816802
end
