version,3.0
numOfCh,1
type,point
parent_name,800-cuts
ch_type,1_1
kcount,1
numberNandB,1
brightnessNandB,1
carpet pos,0
pc,0
Time (ms),CH1 Auto-Correlation
1.0,0.01881936378777027
2.0,0.01764477789402008
3.0,0.01655123569071293
4.0,0.015530528500676155
5.0,0.01458644401282072
6.0,0.013768861070275307
7.0,0.012978867627680302
8.0,0.012244787998497486
9.0,0.011529712937772274
10.0,0.010849024169147015
11.0,0.010229773819446564
12.0,0.009644387289881706
13.0,0.009121488779783249
14.0,0.008641664870083332
15.0,0.008200929500162601
16.0,0.007765622343868017
18.0,0.006938159465789795
20.0,0.0061842151917517185
22.0,0.005464671645313501
24.0,0.004820450209081173
26.0,0.0043181381188333035
28.0,0.003814566880464554
30.0,0.0032995331566780806
32.0,0.0028342376463115215
36.0,0.0021260082721710205
40.0,0.0016443612985312939
44.0,0.0012428929330781102
48.0,0.0009506808128207922
52.0,0.0007923098746687174
56.0,0.0007750021759420633
60.0,0.0006904265028424561
64.0,0.00058234907919541
72.0,0.0005402735550887883
80.0,0.0005459451931528747
88.0,0.000503213086631149
96.0,0.0004625281726475805
104.0,3.0514554964611307e-05
112.0,-0.0003319191455375403
120.0,-0.000382906204322353
128.0,-0.00023650052025914192
144.0,-9.334167771157809e-06
160.0,-0.00023285616771318018
176.0,-0.00029075631755404174
192.0,0.00023439715732820332
208.0,0.0006099068559706211
224.0,0.0005690466496162117
240.0,0.00015901430742815137
256.0,0.0002804117393679917
288.0,0.00011336407624185085
320.0,-0.0004377245204523206
352.0,9.985369979403913e-05
384.0,-0.0006344373105093837
416.0,-0.00034563784720376134
448.0,-0.0009302889811806381
480.0,-0.0008750811102800071
512.0,0.00010905699309660122
576.0,0.00028063912759535015
640.0,0.0003685251867864281
704.0,0.00017791420395951718
768.0,-4.5892593334428966e-05
832.0,-0.00022950975107960403
896.0,4.8675297875888646e-05
960.0,8.256734872702509e-05
1024.0,0.0005024506244808435
1152.0,-0.0004846092197112739
1280.0,0.00023074040655046701
1408.0,-0.00042094654054380953
1536.0,-0.00012564429198391736
1664.0,-0.0005784421809948981
1792.0,0.0005188276409171522
1920.0,0.000406192964874208
2048.0,0.000492330000270158
2304.0,-0.00019331650400999933
2560.0,-7.333056419156492e-05
2816.0,0.00046635448234155774
3072.0,-0.0002096856915159151
3328.0,0.00016015047731343657
3584.0,0.0002367814158787951
3840.0,7.822056068107486e-05
4096.0,4.8524816520512104e-05
4608.0,-7.608364830957726e-05
5120.0,-0.0005248726811259985
5632.0,0.00018613127758726478
6144.0,-0.00034542917273938656
6656.0,0.0006629429408349097
7168.0,-0.00043835389078594744
7680.0,-2.659785604919307e-05
8192.0,-0.0004280964785721153
9216.0,-0.00014793321315664798
10240.0,0.0002790740109048784
11264.0,-0.0006501874304376543
12288.0,0.00033368365257047117
13312.0,-0.0001478218473494053
14336.0,-0.00039763093809597194
end
