version,3.0
numOfCh,1
type,point
parent_name,800-cuts
ch_type,1_1
kcount,1
numberNandB,1
brightnessNandB,1
carpet pos,0
pc,0
Time (ms),CH1 Auto-Correlation
1.0,0.027316784486174583
2.0,0.025569943711161613
3.0,0.0239509679377079
4.0,0.02243642508983612
5.0,0.021054746583104134
6.0,0.019769718870520592
7.0,0.01857740432024002
8.0,0.017469651997089386
9.0,0.01645260863006115
10.0,0.015463431365787983
11.0,0.014496426098048687
12.0,0.013602907769382
13.0,0.012765812687575817
14.0,0.012010396458208561
15.0,0.01129114255309105
16.0,0.010602690279483795
18.0,0.009363419376313686
20.0,0.008265120908617973
22.0,0.007332062814384699
24.0,0.006500748451799154
26.0,0.005815856624394655
28.0,0.005218972451984882
30.0,0.004624722525477409
32.0,0.004110177047550678
36.0,0.0031516344752162695
40.0,0.0021888618357479572
44.0,0.0014133536024019122
48.0,0.0009177634492516518
52.0,0.0006129500106908381
56.0,0.0003431685618124902
60.0,5.49019496247638e-05
64.0,-0.00013071218563709408
72.0,-0.0002067592431558296
80.0,-0.0007156400242820382
88.0,-0.001226588967256248
96.0,-0.0015223973896354437
104.0,-0.001574289402924478
112.0,-0.0013694751542061567
120.0,-0.0008297635358758271
128.0,-0.00023242671159096062
144.0,-0.0003558090247679502
160.0,-0.0005787069676443934
176.0,-0.0004571981553453952
192.0,0.00030901693389751017
208.0,0.0012443671002984047
224.0,0.0017409774009138346
240.0,0.000750012812204659
256.0,-0.00014253516565077007
288.0,0.0003595360612962395
320.0,0.0004558924993034452
352.0,0.0008239318849518895
384.0,-0.000511151971295476
416.0,-0.00017061828111764044
448.0,-0.0006839759880676866
480.0,0.0003867116174660623
512.0,0.0010190492030233145
576.0,0.000807464646641165
640.0,-0.0004295389517210424
704.0,-0.00012144674838054925
768.0,0.0002550358767621219
832.0,-0.00017451717576477677
896.0,-8.080522093223408e-05
960.0,0.0003546391671989113
1024.0,0.000462666735984385
1152.0,0.0003160962660331279
1280.0,0.001161202322691679
1408.0,0.0007904349477030337
1536.0,-0.0009382845601066947
1664.0,0.0005181496380828321
1792.0,0.0003078746085520834
1920.0,-0.0002611687232274562
2048.0,0.0002767369442153722
2304.0,-0.00036406872095540166
2560.0,-0.00032802135683596134
2816.0,-0.0001827931555453688
3072.0,-0.0007265135645866394
3328.0,-0.00016312231309711933
3584.0,-0.0009151039994321764
3840.0,0.0003013307286892086
4096.0,-0.0009076882270164788
4608.0,-0.000275536353001371
5120.0,-0.0002426026767352596
5632.0,1.4050791833142284e-05
6144.0,0.0003398054977878928
6656.0,-3.704435584950261e-05
7168.0,0.00015453476225957274
7680.0,0.0006766782607883215
8192.0,-0.0003919639275409281
9216.0,0.0004986218409612775
10240.0,-8.662212167109828e-06
11264.0,-0.00014343622024171054
12288.0,-0.0007395841530524194
13312.0,-0.0002326514950254932
14336.0,-0.0009248495916835964
end
