version,3.0
numOfCh,1
type,point
parent_name,800-cuts
ch_type,1_1
kcount,1
numberNandB,1
brightnessNandB,1
carpet pos,0
pc,0
Time (ms),CH1 Auto-Correlation
1.0,0.02003948763012886
2.0,0.01874711737036705
3.0,0.01751931942999363
4.0,0.01635597087442875
5.0,0.015277627855539322
6.0,0.01425066776573658
7.0,0.013309339992702007
8.0,0.012426718138158321
9.0,0.011595669202506542
10.0,0.01080927811563015
11.0,0.010071394965052605
12.0,0.009380755946040154
13.0,0.008785387501120567
14.0,0.00823606364428997
15.0,0.007732629310339689
16.0,0.007247597444802523
18.0,0.006352534051984549
20.0,0.005609720945358276
22.0,0.00500404741615057
24.0,0.004476773552596569
26.0,0.003993217833340168
28.0,0.003490603296086192
30.0,0.002992125228047371
32.0,0.002623787149786949
36.0,0.0021991110406816006
40.0,0.001983452355489135
44.0,0.0018343055853620172
48.0,0.0016084412345662713
52.0,0.0012729655718430877
56.0,0.0009774834616109729
60.0,0.0007275808020494878
64.0,0.0005896144430153072
72.0,0.0004278015112504363
80.0,0.0004153229237999767
88.0,0.0002458440139889717
96.0,4.165669088251889e-05
104.0,6.083462358219549e-05
112.0,0.0002876603975892067
120.0,0.0005870596505701542
128.0,0.0005664709024131298
144.0,0.00021790839673485607
160.0,0.0007270161295309663
176.0,2.148113935618312e-06
192.0,-0.0010834289714694023
208.0,-0.0015628351829946041
224.0,-0.001426013419404626
240.0,-0.0003588803519960493
256.0,0.0004305639013182372
288.0,-0.00028818665305152535
320.0,-0.0004925387329421937
352.0,-0.0002231527614640072
384.0,6.556803418789059e-05
416.0,0.0003389173361938447
448.0,0.00041781921754591167
480.0,1.6552379747736268e-05
512.0,-0.0005576342227868736
576.0,-0.000337594305165112
640.0,-0.00028451980324462056
704.0,-0.0002675627765711397
768.0,0.0005094863008707762
832.0,0.000880630686879158
896.0,0.0003951003309339285
960.0,0.00021103263134136796
1024.0,-0.0002456906659062952
1152.0,-0.00011804674431914464
1280.0,8.366919792024419e-05
1408.0,-0.0001792952825780958
1536.0,-0.0003854350361507386
1664.0,8.446323045063764e-05
1792.0,0.0003653366002254188
1920.0,-0.0005853647598996758
2048.0,0.0004258610715623945
2304.0,0.0005584073369391263
2560.0,-0.00030265338136814535
2816.0,0.0004131388268433511
3072.0,-0.00011638777505140752
3328.0,-0.00041631405474618077
3584.0,0.00018153000564780086
3840.0,0.000245405564783141
4096.0,-0.00010720510908868164
4608.0,2.1021476641180925e-05
5120.0,-2.1386931621236727e-05
5632.0,0.0002958398254122585
6144.0,-0.00024747668066993356
6656.0,-0.00026862978120334446
7168.0,-0.00040177025948651135
7680.0,0.0004047158872708678
8192.0,-0.00023799481277819723
9216.0,-0.00026309475651942194
10240.0,-0.00037491999682970345
11264.0,0.00019283372967038304
12288.0,-0.000591452291700989
13312.0,0.0006574731669388711
14336.0,-0.0006031596567481756
end
