version,3.0
numOfCh,1
type,point
parent_name,800-cuts
ch_type,1_1
kcount,1
numberNandB,1
brightnessNandB,1
carpet pos,0
pc,0
Time (ms),CH1 Auto-Correlation
1.0,0.02996421419084072
2.0,0.027918046340346336
3.0,0.026062680408358574
4.0,0.024301396682858467
5.0,0.022680222988128662
6.0,0.021256420761346817
7.0,0.019919781014323235
8.0,0.018697449937462807
9.0,0.017609253525733948
10.0,0.016586802899837494
11.0,0.015593288466334343
12.0,0.014605253003537655
13.0,0.013759546913206577
14.0,0.012993020005524158
15.0,0.012254972010850906
16.0,0.011517037637531757
18.0,0.010137765668332577
20.0,0.008905014023184776
22.0,0.007774535566568375
24.0,0.0066682687029242516
26.0,0.005548100918531418
28.0,0.004534307401627302
30.0,0.003679092274978757
32.0,0.002885333029553294
36.0,0.0016184445703402162
40.0,0.0007618212257511914
44.0,0.0004870033008046448
48.0,0.0004873714642599225
52.0,0.0005017208168283105
56.0,0.0004394013376440853
60.0,0.00022073969012126327
64.0,-0.0002106170722981915
72.0,-0.0008802702068351209
80.0,-0.0016931019490584731
88.0,-0.002047747140750289
96.0,-0.0017236198764294386
104.0,-0.0012962742475792766
112.0,-0.0008444913546554744
120.0,-0.0007146152202039957
128.0,-0.0005845981650054455
144.0,-0.00119054748211056
160.0,-0.0017502520931884646
176.0,-0.0019156435737386346
192.0,-0.002434094902127981
208.0,-0.0020070646423846483
224.0,-0.0009020483703352511
240.0,0.000918906182050705
256.0,0.0014315461739897728
288.0,0.00044431982678361237
320.0,5.169897121959366e-05
352.0,-0.00035487322020344436
384.0,0.0005181323504075408
416.0,-0.0003852842783089727
448.0,-1.571818756929133e-05
480.0,-0.0008631048258394003
512.0,0.0006927138892933726
576.0,-0.00010683783330023289
640.0,0.00017247571668121964
704.0,-0.0004936516052111983
768.0,-0.00040063943015411496
832.0,-0.000799046887550503
896.0,-0.0019814108964055777
960.0,0.0017151328502222896
1024.0,0.0008725657826289535
1152.0,6.450181535910815e-05
1280.0,-0.00016491141286678612
1408.0,-0.0007697970722801983
1536.0,-0.00034508525277487934
1664.0,0.0004855729057453573
1792.0,0.00023021403467282653
1920.0,-4.476456524571404e-05
2048.0,-0.0004761902673635632
2304.0,0.0008838298381306231
2560.0,-0.00033130458905361593
2816.0,0.00031890306854620576
3072.0,-0.000691031280439347
3328.0,0.0004776649293489754
3584.0,6.43213206785731e-05
3840.0,-0.0002626784553285688
4096.0,-2.558377309469506e-05
4608.0,1.4905691386957187e-05
5120.0,9.909010259434581e-05
5632.0,-6.74470720696263e-06
6144.0,-1.7430760635761544e-05
6656.0,-0.00045126565964892507
7168.0,-0.0001895555469673127
7680.0,-6.543815834447742e-05
8192.0,6.80729717714712e-05
9216.0,0.00013946215040050447
10240.0,-2.6711060854722746e-05
11264.0,0.00011606080079218373
12288.0,2.570909600763116e-05
13312.0,0.00010088815906783566
14336.0,-0.00014526484301313758
end
