version,3.0
numOfCh,1
type,point
parent_name,800-cuts
ch_type,1_1
kcount,1
numberNandB,1
brightnessNandB,1
carpet pos,0
pc,0
Time (ms),CH1 Auto-Correlation
1.0,0.07786678522825241
2.0,0.07265830039978027
3.0,0.06787783652544022
4.0,0.06337256729602814
5.0,0.05923942103981972
6.0,0.05543533340096474
7.0,0.05181071534752846
8.0,0.048568543046712875
9.0,0.045635778456926346
10.0,0.043038517236709595
11.0,0.04063531383872032
12.0,0.038384389132261276
13.0,0.0362672284245491
14.0,0.03434842452406883
15.0,0.032450392842292786
16.0,0.030599158257246017
18.0,0.02703065797686577
20.0,0.0239037424325943
22.0,0.020982101559638977
24.0,0.01815836876630783
26.0,0.015612903982400894
28.0,0.013627796433866024
30.0,0.012164763174951077
32.0,0.011048652231693268
36.0,0.009395923465490341
40.0,0.00772940693423152
44.0,0.006103108171373606
48.0,0.004801531322300434
52.0,0.004524285439401865
56.0,0.004594703204929829
60.0,0.004695715382695198
64.0,0.004815137945115566
72.0,0.00393007043749094
80.0,0.002093378221616149
88.0,0.00012567728117574006
96.0,-0.0017836453625932336
104.0,-0.002171353669837117
112.0,-0.002397507196292281
120.0,-0.001640662900172174
128.0,-0.002104151528328657
144.0,0.000759364920668304
160.0,0.000928492343518883
176.0,-0.00033978751162067056
192.0,-0.0011081796837970614
208.0,-0.00192127691116184
224.0,-0.001977847423404455
240.0,-0.0009867387125268579
256.0,-0.00021921902953181416
288.0,-0.000909268856048584
320.0,-0.0017356246244162321
352.0,-0.002702116034924984
384.0,-0.0006649185670539737
416.0,0.0011983892181888223
448.0,0.0007629378815181553
480.0,0.0034551944117993116
512.0,-0.0006084424094296992
576.0,-0.005467643495649099
640.0,-0.00408475985750556
704.0,0.0006161581259220839
768.0,5.510271148523316e-05
832.0,-0.0002734821173362434
896.0,-0.00081112131010741
960.0,-0.002407398074865341
1024.0,-0.002472494263201952
1152.0,0.0005793807213194668
1280.0,-0.0011843276442959905
1408.0,-0.002807280281558633
1536.0,0.0028554690070450306
1664.0,-0.0012849861523136497
1792.0,0.001764884334988892
1920.0,0.0027439738623797894
2048.0,-0.002815970918163657
2304.0,0.0005091930506750941
2560.0,0.0017747606616467237
2816.0,-0.0017831552540883422
3072.0,-0.0003865025064442307
3328.0,-0.00013352441601455212
3584.0,-0.0012069852091372013
3840.0,-0.0024345247074961662
4096.0,-2.4885162929422222e-05
4608.0,0.001580888987518847
5120.0,-0.0003657811612356454
5632.0,-0.0020541793201118708
6144.0,0.0007653713691979647
6656.0,0.0011573709780350327
7168.0,-0.0003221334482077509
7680.0,0.0002623925975058228
8192.0,-0.0007146068383008242
9216.0,0.0007628657040186226
10240.0,-0.0015029632486402988
11264.0,0.0017405104590579867
12288.0,-0.001835708157159388
13312.0,0.0011376802576705813
14336.0,-0.0009754722123034298
end
