version,3.0
numOfCh,1
type,point
parent_name,800-cuts
ch_type,1_1
kcount,1
numberNandB,1
brightnessNandB,1
carpet pos,0
pc,0
Time (ms),CH1 Auto-Correlation
1.0,0.02183975651860237
2.0,0.020429067313671112
3.0,0.01912095956504345
4.0,0.017906425520777702
5.0,0.016747578978538513
6.0,0.015679342672228813
7.0,0.014679600484669209
8.0,0.013732686638832092
9.0,0.012837953865528107
10.0,0.012008165940642357
11.0,0.011242136359214783
12.0,0.010515451431274414
13.0,0.009834915399551392
14.0,0.009211380034685135
15.0,0.008596286177635193
16.0,0.008004073053598404
18.0,0.00696193240582943
20.0,0.006062031723558903
22.0,0.005285914987325668
24.0,0.004687592387199402
26.0,0.004186633974313736
28.0,0.003701444249600172
30.0,0.0032515397761017084
32.0,0.002830278128385544
36.0,0.0022469512186944485
40.0,0.001814375282265246
44.0,0.0014710130635648966
48.0,0.0012322842376306653
52.0,0.0009909861255437136
56.0,0.000941030157264322
60.0,0.0010418675374239683
64.0,0.0012711104936897755
72.0,0.0017565784510225058
80.0,0.0020355461165308952
88.0,0.002360538812354207
96.0,0.0022944207303225994
104.0,0.0018665248062461615
112.0,0.0012049375800415874
120.0,0.0008960385457612574
128.0,0.00044756571878679097
144.0,0.0006642489461228251
160.0,0.0014424389228224754
176.0,0.0008761354838497937
192.0,0.00033156818244606256
208.0,1.856264134403318e-05
224.0,0.0003549956309143454
240.0,0.00016181454702746123
256.0,-0.00025336918770335615
288.0,0.0010048022959381342
320.0,0.000684625469148159
352.0,0.0002837184874806553
384.0,-4.102334060007706e-06
416.0,0.00029642169829458
448.0,-0.00033193023409694433
480.0,0.00014524714788421988
512.0,-0.00022216943034436554
576.0,-0.0004525698896031827
640.0,-0.00019755873654503375
704.0,-0.0015541602624580264
768.0,-0.0012363146524876356
832.0,-0.001525416038930416
896.0,-0.0002534354862291366
960.0,0.001060505281202495
1024.0,0.00015499224537052214
1152.0,0.0004079922800883651
1280.0,0.0008074862998910248
1408.0,0.0009281883831135929
1536.0,0.0011848238063976169
1664.0,0.0005790084251202643
1792.0,-3.7930472899461165e-05
1920.0,0.00025939056649804115
2048.0,-0.00033580922172404826
2304.0,-0.0003654997854027897
2560.0,-0.00014578207628801465
2816.0,0.00013771862722933292
3072.0,5.724751463276334e-05
3328.0,5.314694863045588e-05
3584.0,0.0002025433350354433
3840.0,-0.0004711671790573746
4096.0,-0.0005698440363630652
4608.0,0.000697270268574357
5120.0,-0.00041960866656154394
5632.0,-0.0006180162308737636
6144.0,0.00023589478223584592
6656.0,-0.0008058116072788835
7168.0,-0.0005501655396074057
7680.0,-0.0007553648902103305
8192.0,0.00016954926832113415
9216.0,0.00011533999349921942
10240.0,2.7561345632420853e-05
11264.0,-6.585761184396688e-06
12288.0,0.00019327085465192795
13312.0,4.3085023207822815e-05
14336.0,0.00046910930541343987
end
