version,3.0
numOfCh,1
type,point
parent_name,800-cuts
ch_type,1_1
kcount,1
numberNandB,1
brightnessNandB,1
carpet pos,0
pc,0
Time (ms),CH1 Auto-Correlation
1.0,0.03367301821708679
2.0,0.03149518370628357
3.0,0.029468566179275513
4.0,0.027530960738658905
5.0,0.02573765069246292
6.0,0.02408421039581299
7.0,0.022514868527650833
8.0,0.021046165376901627
9.0,0.019712256267666817
10.0,0.01841939613223076
11.0,0.017241645604372025
12.0,0.016141563653945923
13.0,0.015062764286994934
14.0,0.014026744291186333
15.0,0.013115900568664074
16.0,0.012231328524649143
18.0,0.010714193806052208
20.0,0.009504279121756554
22.0,0.008481396362185478
24.0,0.007644413039088249
26.0,0.0069727711379528046
28.0,0.0063714231364429
30.0,0.005727739538997412
32.0,0.005086889490485191
36.0,0.003937902394682169
40.0,0.0031352548394352198
44.0,0.002596236765384674
48.0,0.002216190565377474
52.0,0.001930617610923946
56.0,0.001746521214954555
60.0,0.0015433002263307571
64.0,0.001747029135003686
72.0,0.001956762745976448
80.0,0.0017118758987635374
88.0,0.0014052001060917974
96.0,0.0009991416009142995
104.0,0.0005245826905593276
112.0,0.00013052368012722582
120.0,-0.00027219197363592684
128.0,-0.0004991643945686519
144.0,0.00017136904352810234
160.0,0.0013655074872076511
176.0,0.002202852861955762
192.0,0.002382796723395586
208.0,0.0009349544416181743
224.0,-0.0008385005057789385
240.0,-0.0005409815930761397
256.0,-6.306490831775591e-05
288.0,-0.0005774940946139395
320.0,5.248536399449222e-05
352.0,0.0010759138967841864
384.0,-8.704128413228318e-05
416.0,-0.00040830139187164605
448.0,-0.0008941232808865607
480.0,-0.002150080632418394
512.0,-0.0013238185783848166
576.0,-0.0007722991867922246
640.0,-0.0013442810159176588
704.0,-0.00020968624448869377
768.0,0.0013215894578024745
832.0,0.0003518811136018485
896.0,-0.0014339664485305548
960.0,-0.0014755893498659134
1024.0,-6.041922097210772e-05
1152.0,-0.0009328706073574722
1280.0,-0.0006601358763873577
1408.0,0.00023180681455414742
1536.0,0.00048768651322461665
1664.0,-0.000190960374311544
1792.0,0.0004903796361759305
1920.0,-0.0008623580797575414
2048.0,-0.0005921204574406147
2304.0,0.00037675604107789695
2560.0,0.0013619496021419764
2816.0,0.0006438540876843035
3072.0,-0.0007562609389424324
3328.0,-0.0002287513780174777
3584.0,0.000380063196644187
3840.0,-0.0007446330855600536
4096.0,-0.0003173856239300221
4608.0,0.0001902895310195163
5120.0,0.0004714450624305755
5632.0,-0.0002995411050505936
6144.0,-0.0003227817942388356
6656.0,-0.0006604442023672163
7168.0,0.00025191050372086465
7680.0,0.00035552337067201734
8192.0,-0.0003027510829269886
9216.0,-0.00040252634789794683
10240.0,8.272803825093433e-05
11264.0,-0.00038902342203073204
12288.0,-7.914871821412817e-05
13312.0,6.269373261602595e-05
14336.0,1.2643651643884368e-05
end
