version,3.0
numOfCh,1
type,point
parent_name,800-cuts
ch_type,1_1
kcount,1
numberNandB,1
brightnessNandB,1
carpet pos,0
pc,0
Time (ms),CH1 Auto-Correlation
1.0,0.018796253949403763
2.0,0.017598066478967667
3.0,0.01646416261792183
4.0,0.015416898764669895
5.0,0.014429070055484772
6.0,0.013503230176866055
7.0,0.01266084797680378
8.0,0.011902947910130024
9.0,0.011172790080308914
10.0,0.01051425002515316
11.0,0.009903551079332829
12.0,0.009351891465485096
13.0,0.008844362571835518
14.0,0.008358522318303585
15.0,0.007881940342485905
16.0,0.0073885987512767315
18.0,0.006480623036623001
20.0,0.005679179448634386
22.0,0.004967219196259975
24.0,0.004364612977951765
26.0,0.00381164881400764
28.0,0.003421112662181258
30.0,0.0031747787725180387
32.0,0.0029658800922334194
36.0,0.002348729409277439
40.0,0.001724569359794259
44.0,0.0012338283704593778
48.0,0.0008454823400825262
52.0,0.0005763461231254041
56.0,0.0002919023099821061
60.0,9.507893264526501e-05
64.0,-4.275358878658153e-05
72.0,-0.00011208533396711573
80.0,-0.00014885934069752693
88.0,-0.00037143193185329437
96.0,-0.0006397970719262958
104.0,-0.0006222444935701787
112.0,-0.0006526446086354554
120.0,-0.0006080124294385314
128.0,-0.0005525933811441064
144.0,-0.0005506888846866786
160.0,1.0191027286055032e-05
176.0,7.470614946214482e-05
192.0,-0.0002680413890630007
208.0,-0.0001184584543807432
224.0,-0.00012646059622056782
240.0,0.000123562800581567
256.0,1.7811498764785938e-05
288.0,-0.0004646017914637923
320.0,0.000419345626141876
352.0,-0.0008441254030913115
384.0,-0.0007096827612258494
416.0,-0.00037406955379992723
448.0,0.00047512646415270865
480.0,0.0003269925946369767
512.0,-0.0004960824153386056
576.0,7.788971743138973e-06
640.0,0.00012559590686578304
704.0,-0.00020323097123764455
768.0,2.0203246094752103e-05
832.0,-0.00037785788299515843
896.0,0.0004539865185506642
960.0,-0.0005960783455520868
1024.0,-0.0004375990538392216
1152.0,0.00018766299763228744
1280.0,0.0005379123613238335
1408.0,-5.6013657740550116e-05
1536.0,-0.0005090638296678662
1664.0,-0.00017434405162930489
1792.0,-1.7773289073375054e-05
1920.0,-0.00022678228560835123
2048.0,0.0005195122212171555
2304.0,-0.0004873434081673622
2560.0,1.4055701285542455e-05
2816.0,-2.9802969947922975e-05
3072.0,-0.00016077519103419036
3328.0,0.00012043747847201303
3584.0,-0.0002549025812186301
3840.0,-0.00019256117229815573
4096.0,0.0002901439438574016
4608.0,-5.700703331967816e-05
5120.0,3.981068584835157e-05
5632.0,0.00020135399245191365
6144.0,0.00010845618817256764
6656.0,3.0543655157089233e-05
7168.0,-1.4462285435001832e-05
7680.0,-0.00022238571546040475
8192.0,5.069079634267837e-05
9216.0,0.00019424334459472448
10240.0,-0.0003195320023223758
11264.0,0.00020434150064829737
12288.0,-3.754642602871172e-05
13312.0,-0.0001354655105387792
14336.0,0.0004231081111356616
end
