version,3.0
numOfCh,1
type,point
parent_name,800-cuts
ch_type,1_1
kcount,1
numberNandB,1
brightnessNandB,1
carpet pos,0
pc,0
Time (ms),CH1 Auto-Correlation
1.0,0.026077119633555412
2.0,0.02423381246626377
3.0,0.022548705339431763
4.0,0.021000562235713005
5.0,0.01953665167093277
6.0,0.018166465684771538
7.0,0.016872474923729897
8.0,0.015651119872927666
9.0,0.014523237012326717
10.0,0.013431846164166927
11.0,0.012406691908836365
12.0,0.011445026844739914
13.0,0.01061270572245121
14.0,0.009855333715677261
15.0,0.009130933322012424
16.0,0.00844424869865179
18.0,0.007080636452883482
20.0,0.005958190653473139
22.0,0.00496754702180624
24.0,0.0041498406790196896
26.0,0.0034299837425351143
28.0,0.0028002955950796604
30.0,0.0021846569143235683
32.0,0.0016674796352162957
36.0,0.0009672766318544745
40.0,0.0004639209946617484
44.0,0.00022157869534566998
48.0,0.0002462055126670748
52.0,0.0003256157215218991
56.0,0.0003069233207497746
60.0,0.00040402027661912143
64.0,0.0005457584047690034
72.0,0.0006272225873544812
80.0,0.0005273118731565773
88.0,0.0005415915511548519
96.0,0.0005021573160775006
104.0,0.0006261258386075497
112.0,0.0005387556157074869
120.0,0.0005839189980179071
128.0,0.0006988325039856136
144.0,0.0005145809263922274
160.0,0.0009905024198815227
176.0,0.00043825525790452957
192.0,-0.00047009409172460437
208.0,-0.0005250630783848464
224.0,0.0001351199607597664
240.0,0.0005428932490758598
256.0,0.0013184576528146863
288.0,0.0007476523751392961
320.0,0.0012017175322398543
352.0,0.0009073430555872619
384.0,0.0009527805959805846
416.0,0.0003337352827657014
448.0,0.00030203332426026464
480.0,0.0005006880383007228
512.0,0.0013138429494574666
576.0,-0.0005164147587493062
640.0,0.0010400026803836226
704.0,0.00043644619290716946
768.0,0.0009282783139497042
832.0,0.00019061699276790023
896.0,-0.0005872832844033837
960.0,0.0001315285626333207
1024.0,-0.00015111213724594563
1152.0,0.00011896355863427743
1280.0,-0.00044541325769387186
1408.0,-5.61460510652978e-05
1536.0,-0.0005848865839652717
1664.0,-0.00014680057938676327
1792.0,-0.00036555685801431537
1920.0,0.0002109291817760095
2048.0,-0.00022629105660598725
2304.0,-0.00010088921408168972
2560.0,6.897087587276474e-05
2816.0,0.00023640424478799105
3072.0,-0.00035460348590277135
3328.0,-0.0005843757535330951
3584.0,-0.00013387356011662632
3840.0,-9.874019451672211e-05
4096.0,-0.0003953189589083195
4608.0,0.0005987753975205123
5120.0,0.00021223255316726863
5632.0,-0.00027104900800623
6144.0,-0.0009255801560357213
6656.0,-0.00016797264106571674
7168.0,-2.155808215320576e-05
7680.0,5.756202881457284e-05
8192.0,-0.00046342515270225704
9216.0,0.0003965192590840161
10240.0,4.9961850891122594e-05
11264.0,1.8582208213047124e-05
12288.0,-0.0006620878702960908
13312.0,-0.00040999246994033456
14336.0,0.00014993140939623117
end
