version,3.0
numOfCh,1
type,point
parent_name,800-cuts
ch_type,1_1
kcount,1
numberNandB,1
brightnessNandB,1
carpet pos,0
pc,0
Time (ms),CH1 Auto-Correlation
1.0,0.059525441378355026
2.0,0.055490754544734955
3.0,0.05178220197558403
4.0,0.04836035519838333
5.0,0.045114610344171524
6.0,0.042059510946273804
7.0,0.03926105424761772
8.0,0.03677338734269142
9.0,0.03439855948090553
10.0,0.032196275889873505
11.0,0.03022335283458233
12.0,0.02855128049850464
13.0,0.026839418336749077
14.0,0.025225313380360603
15.0,0.023612042888998985
16.0,0.022098900750279427
18.0,0.019624756649136543
20.0,0.017262624576687813
22.0,0.015293953008949757
24.0,0.013586059212684631
26.0,0.012180082499980927
28.0,0.010914148762822151
30.0,0.009637703187763691
32.0,0.008622108958661556
36.0,0.006954812910407782
40.0,0.005525057669728994
44.0,0.00419717887416482
48.0,0.003448733827099204
52.0,0.0027141787577420473
56.0,0.001829958287999034
60.0,0.0013355921255424619
64.0,0.0013275102246552706
72.0,0.0008817584603093565
80.0,0.0005347999976947904
88.0,0.0006796400994062424
96.0,-0.00024426361778751016
104.0,-0.0012424112064763904
112.0,-0.0017796517349779606
120.0,-0.0018637581961229444
128.0,-0.0012849995400756598
144.0,-0.001737285521812737
160.0,-0.004661552142351866
176.0,-0.005333975423127413
192.0,-0.003838250646367669
208.0,-0.0016357022104784846
224.0,-0.0005411591846495867
240.0,0.0004511258448474109
256.0,0.001529419212602079
288.0,0.000830245204269886
320.0,0.0005235262797214091
352.0,0.0021672495640814304
384.0,0.002534746890887618
416.0,-0.00036541876033879817
448.0,-0.0016613251063972712
480.0,-0.00245514209382236
512.0,-0.0022788613568991423
576.0,-0.0006092804251238704
640.0,0.002449712948873639
704.0,0.0005955029628239572
768.0,-0.002040907507762313
832.0,-0.0034470800310373306
896.0,-0.0009916865965351462
960.0,0.002141506876796484
1024.0,0.003922971896827221
1152.0,0.0001849123218562454
1280.0,0.0007109341095201671
1408.0,-0.001049352460540831
1536.0,-0.0012253352906554937
1664.0,-0.0002440692187519744
1792.0,-0.0025468748062849045
1920.0,0.0015481676673516631
2048.0,-0.0015058188000693917
2304.0,0.0018213166622444987
2560.0,-0.0007818281301297247
2816.0,-0.0013087766710668802
3072.0,-0.0005787720438092947
3328.0,0.00037712391349487007
3584.0,-0.0008431336027570069
3840.0,-0.00038836494786664844
4096.0,-0.00042905189911834896
4608.0,8.560228889109567e-05
5120.0,-4.714110036729835e-05
5632.0,0.00028696132358163595
6144.0,0.0003155666927341372
6656.0,-3.0261162464739755e-05
7168.0,0.0003724741982296109
7680.0,0.0001735147088766098
8192.0,-0.0016636839136481285
9216.0,0.0001905694807646796
10240.0,-4.7763791371835396e-05
11264.0,-0.00039706824463792145
12288.0,-0.00047848050598986447
13312.0,-0.0006185916136018932
14336.0,0.0012065147748216987
end
