version,3.0
numOfCh,1
type,point
parent_name,800-cuts
ch_type,1_1
kcount,1
numberNandB,1
brightnessNandB,1
carpet pos,0
pc,0
Time (ms),CH1 Auto-Correlation
1.0,0.06895200163125992
2.0,0.06425616890192032
3.0,0.05999432131648064
4.0,0.055827461183071136
5.0,0.05202467739582062
6.0,0.04858139529824257
7.0,0.04536813497543335
8.0,0.0423227921128273
9.0,0.03945969417691231
10.0,0.03678620234131813
11.0,0.03422064334154129
12.0,0.03179324045777321
13.0,0.029485195875167847
14.0,0.027415595948696136
15.0,0.02562810480594635
16.0,0.0239206925034523
18.0,0.021008675917983055
20.0,0.018548093736171722
22.0,0.01645837537944317
24.0,0.014518650248646736
26.0,0.01290147751569748
28.0,0.011473034508526325
30.0,0.010450664907693863
32.0,0.009707629680633545
36.0,0.00822246354073286
40.0,0.0066004726104438305
44.0,0.004816587548702955
48.0,0.003337800968438387
52.0,0.0027154781855642796
56.0,0.002192886546254158
60.0,0.0020026429556310177
64.0,0.0017246637726202607
72.0,0.00020836391195189208
80.0,0.0002956934040412307
88.0,0.001711466466076672
96.0,0.0022442988120019436
104.0,0.0012870673090219498
112.0,0.00018347766308579594
120.0,0.0003765352303162217
128.0,0.0018183019710704684
144.0,0.0026681791059672832
160.0,0.0022797223646193743
176.0,0.0037172548472881317
192.0,0.0034036431461572647
208.0,0.002948322333395481
224.0,0.0018528727814555168
240.0,0.0007129431469365954
256.0,0.00023303015041165054
288.0,0.0017777851317077875
320.0,0.0009238130878657103
352.0,0.0038761035539209843
384.0,0.0017758806934580207
416.0,0.0032764412462711334
448.0,0.0010251905769109726
480.0,-0.0008863415569067001
512.0,0.00015497095591854304
576.0,0.0021563421469181776
640.0,0.0006190260755829513
704.0,0.0006339567480608821
768.0,-0.0006599686457775533
832.0,-0.0027831902261823416
896.0,0.00021446439495775849
960.0,-0.0008430833113379776
1024.0,0.0008531363564543426
1152.0,-0.001028875121846795
1280.0,0.0015584694920107722
1408.0,0.0022416082210838795
1536.0,-0.0014247909421101213
1664.0,0.0003196118923369795
1792.0,0.0007024264195933938
1920.0,-0.002064363332465291
2048.0,0.0011189724318683147
2304.0,-0.001545240287669003
2560.0,-9.461904119234532e-05
2816.0,0.0008275018190033734
3072.0,0.0019196867942810059
3328.0,-0.0022663024719804525
3584.0,0.00010555291373748332
3840.0,-0.0019641544204205275
4096.0,-5.2690113079734147e-05
4608.0,-0.00040074586286209524
5120.0,7.636380178155378e-05
5632.0,8.588832133682445e-05
6144.0,-0.00020045757992193103
6656.0,-0.00018471147632226348
7168.0,-0.0005441203247755766
7680.0,0.0004289994831196964
8192.0,-0.0021142782643437386
9216.0,-0.0006730916211381555
10240.0,0.0003699369844980538
11264.0,-0.0015079460572451353
12288.0,0.0006507175276055932
13312.0,0.0021896844264119864
14336.0,0.0006535113789141178
end
