version,3.0
numOfCh,1
type,point
parent_name,800-cuts
ch_type,1_1
kcount,1
numberNandB,1
brightnessNandB,1
carpet pos,0
pc,0
Time (ms),CH1 Auto-Correlation
1.0,0.019977834075689316
2.0,0.01864207535982132
3.0,0.017413292080163956
4.0,0.016286326572299004
5.0,0.015223163180053234
6.0,0.014189661480486393
7.0,0.01318281702697277
8.0,0.012262375093996525
9.0,0.011410576291382313
10.0,0.010655581951141357
11.0,0.00997234508395195
12.0,0.009338106028735638
13.0,0.008725037798285484
14.0,0.008125138469040394
15.0,0.007609251886606216
16.0,0.0070901187136769295
18.0,0.006127560511231422
20.0,0.005245584063231945
22.0,0.004530163947492838
24.0,0.0038803014904260635
26.0,0.003372550942003727
28.0,0.0029981881380081177
30.0,0.002652188530191779
32.0,0.002352794399484992
36.0,0.0019384960178285837
40.0,0.0015207084361463785
44.0,0.0010930148418992758
48.0,0.0006780339172109962
52.0,0.000454682536656037
56.0,0.00032096265931613743
60.0,0.00019646936561912298
64.0,0.00022195212659426033
72.0,0.0005240542232058942
80.0,0.0005889437161386013
88.0,0.0005486341542564332
96.0,0.0007790744421072304
104.0,0.0011261124163866043
112.0,0.0011686010984703898
120.0,0.0013281949795782566
128.0,0.0013437187299132347
144.0,0.0008058393141254783
160.0,0.0001799795136321336
176.0,0.0001754398545017466
192.0,0.00015754959895275533
208.0,-3.3810356399044394e-05
224.0,5.571036308538169e-05
240.0,0.0003368612960912287
256.0,0.0008242589537985623
288.0,0.00020629417849704623
320.0,-0.0002129582135239616
352.0,-2.247745214845054e-05
384.0,0.00068203906994313
416.0,0.00026700831949710846
448.0,-0.00025241708499379456
480.0,0.0002591396332718432
512.0,-0.0005973674706183374
576.0,-0.0009801305131986737
640.0,0.00015219311171676964
704.0,0.000515907013323158
768.0,0.00030352961039170623
832.0,0.0003474074474070221
896.0,0.0008447855361737311
960.0,0.00044733815593644977
1024.0,-0.00014178751735016704
1152.0,0.0002868024748750031
1280.0,-0.0004144732665736228
1408.0,-0.0006775023066438735
1536.0,-0.0007289586937986314
1664.0,-0.0001726461196085438
1792.0,-0.00040792618528939784
1920.0,0.0003127115487586707
2048.0,0.0002935557859018445
2304.0,-0.00012548336235340685
2560.0,-0.000582952459808439
2816.0,3.9678292523603886e-05
3072.0,-0.0002665210922714323
3328.0,-0.0007950043072924018
3584.0,-0.0005695577128790319
3840.0,-0.00018347648438066244
4096.0,-7.348602230194956e-05
4608.0,4.2320185457356274e-05
5120.0,0.00022257929958868772
5632.0,0.0001969757431652397
6144.0,0.00041434282320551574
6656.0,0.0001171152398455888
7168.0,4.488392369239591e-05
7680.0,-0.0003721271059475839
8192.0,0.00024146508076228201
9216.0,-0.0001019013361656107
10240.0,-0.0002718899922911078
11264.0,0.00021803853451274335
12288.0,-0.00016644876450300217
13312.0,9.767559822648764e-05
14336.0,9.326277358923107e-05
end
