version,3.0
numOfCh,1
type,point
parent_name,800-cuts
ch_type,1_1
kcount,1
numberNandB,1
brightnessNandB,1
carpet pos,0
pc,0
Time (ms),CH1 Auto-Correlation
1.0,0.02160559594631195
2.0,0.020153874531388283
3.0,0.018820906057953835
4.0,0.017529910430312157
5.0,0.016371242702007294
6.0,0.015381548553705215
7.0,0.014436841011047363
8.0,0.013557561673223972
9.0,0.01273358054459095
10.0,0.011987047269940376
11.0,0.011280609294772148
12.0,0.010590516030788422
13.0,0.009983209893107414
14.0,0.009404902346432209
15.0,0.008863676339387894
16.0,0.008342714048922062
18.0,0.007385788485407829
20.0,0.006569596007466316
22.0,0.005830505397170782
24.0,0.005212890915572643
26.0,0.004714802838861942
28.0,0.004293926525861025
30.0,0.003950759302824736
32.0,0.0036368912551552057
36.0,0.0030040049459785223
40.0,0.0023101321421563625
44.0,0.001816354924812913
48.0,0.0014934965874999762
52.0,0.0010727072367444634
56.0,0.000751847866922617
60.0,0.0005356749170459807
64.0,0.0005710324039682746
72.0,0.0009589535184204578
80.0,0.0008981467108242214
88.0,0.0007961062365211546
96.0,0.0004250413621775806
104.0,-0.00021131600078660995
112.0,-0.0006989181274548173
120.0,-0.000821693625766784
128.0,-0.0005416370695456862
144.0,-0.00026723137125372887
160.0,-0.0004950936418026686
176.0,-9.869108180282637e-05
192.0,0.0003585698432289064
208.0,0.0007291833171620965
224.0,0.0006319028907455504
240.0,0.00011785018432419747
256.0,-5.110089205118129e-06
288.0,0.00015921768499538302
320.0,-1.8867185644921847e-05
352.0,-2.1222611394478008e-05
384.0,-5.686343683919404e-06
416.0,0.0003096752625424415
448.0,0.0004068212874699384
480.0,-6.757858500350267e-05
512.0,-0.0013067681575194001
576.0,0.0002426938444841653
640.0,-0.0004139053635299206
704.0,1.463317221350735e-05
768.0,-0.0003668099525384605
832.0,0.0008886710274964571
896.0,0.0007996897329576313
960.0,0.0006342302658595145
1024.0,-0.0004543801478575915
1152.0,-5.522997525986284e-05
1280.0,-0.0005132535006850958
1408.0,-0.0003322272386867553
1536.0,-0.0005402767565101385
1664.0,-0.00014168096822686493
1792.0,0.0005190546507947147
1920.0,0.0008925636648200452
2048.0,0.0005772548029199243
2304.0,-3.458904393482953e-05
2560.0,-0.0004725857579614967
2816.0,-5.4351407015929e-05
3072.0,-5.281929043121636e-05
3328.0,-0.0005492525524459779
3584.0,-0.000146753343869932
3840.0,0.00036648361128754914
4096.0,0.000391473644413054
4608.0,-0.0002407242136541754
5120.0,-0.0005002418765798211
5632.0,0.00011749527766369283
6144.0,-0.00020864009275101125
6656.0,-0.0005034470232203603
7168.0,-0.00029409199487417936
7680.0,0.0004894902813248336
8192.0,-0.00014186122280079871
9216.0,0.00020415634207893163
10240.0,9.445172327104956e-05
11264.0,0.00026687144418247044
12288.0,-0.00020679805311374366
13312.0,0.000284375884803012
14336.0,-0.00023834635794628412
end
