version,3.0
numOfCh,1
type,point
parent_name,c1204_1dot0-0dot01
ch_type,1_1
kcount,1
numberNandB,1
brightnessNandB,1
carpet pos,0
pc,0
Time (ms),CH1 Auto-Correlation
1.0,0.42753729224205017
2.0,0.4268123209476471
3.0,0.42613744735717773
4.0,0.4255196154117584
5.0,0.4249238669872284
6.0,0.42427536845207214
7.0,0.4236292839050293
8.0,0.4229540228843689
9.0,0.4223208427429199
10.0,0.42169198393821716
11.0,0.4210473895072937
12.0,0.4204345941543579
13.0,0.41986629366874695
14.0,0.41927480697631836
15.0,0.4186127781867981
16.0,0.4179213345050812
18.0,0.41661906242370605
20.0,0.4153015613555908
22.0,0.4139890670776367
24.0,0.4127350449562073
26.0,0.4115184247493744
28.0,0.4103756844997406
30.0,0.40928584337234497
32.0,0.40822935104370117
36.0,0.4060952365398407
40.0,0.4036477208137512
44.0,0.401346892118454
48.0,0.39908772706985474
52.0,0.3969579041004181
56.0,0.3949960768222809
60.0,0.3934158682823181
64.0,0.3920532464981079
72.0,0.38929271697998047
80.0,0.38582512736320496
88.0,0.3822638988494873
96.0,0.37899917364120483
104.0,0.37610238790512085
112.0,0.3732580244541168
120.0,0.3706429600715637
128.0,0.3683302700519562
144.0,0.36370864510536194
160.0,0.35920053720474243
176.0,0.3573058545589447
192.0,0.357832133769989
208.0,0.3585699796676636
224.0,0.358144074678421
240.0,0.3561600148677826
256.0,0.352505624294281
288.0,0.34345903992652893
320.0,0.3303394913673401
352.0,0.3140757977962494
384.0,0.2965651750564575
416.0,0.28556519746780396
448.0,0.2817632853984833
480.0,0.27925992012023926
512.0,0.2770501673221588
576.0,0.2607782185077667
640.0,0.23131631314754486
704.0,0.20853540301322937
768.0,0.19965992867946625
832.0,0.1946021318435669
896.0,0.1739652007818222
960.0,0.1562783569097519
1024.0,0.15151214599609375
1152.0,0.13145887851715088
1280.0,0.08718173205852509
1408.0,0.030112383887171745
1536.0,-0.03588276356458664
1664.0,-0.09525355696678162
1792.0,-0.16765888035297394
1920.0,-0.22671537101268768
2048.0,-0.27739256620407104
2304.0,-0.35152438282966614
2560.0,-0.3793727159500122
2816.0,-0.3570862412452698
3072.0,-0.33571678400039673
3328.0,-0.30935046076774597
3584.0,-0.3539295792579651
3840.0,-0.3080075979232788
4096.0,-0.20676688849925995
end
