version,3.0
numOfCh,1
type,point
parent_name,c1204_1dot0-0dot01
ch_type,1_1
kcount,1
numberNandB,1
brightnessNandB,1
carpet pos,0
pc,0
Time (ms),CH1 Auto-Correlation
1.0,0.04015490412712097
2.0,0.03700396418571472
3.0,0.034258995205163956
4.0,0.03195178508758545
5.0,0.029801111668348312
6.0,0.027845673263072968
7.0,0.026285219937562943
8.0,0.024848897010087967
9.0,0.023558564484119415
10.0,0.022331880405545235
11.0,0.02115819603204727
12.0,0.020051421597599983
13.0,0.019009003415703773
14.0,0.018078500404953957
15.0,0.017266888171434402
16.0,0.016472237184643745
18.0,0.015234735794365406
20.0,0.01418138388544321
22.0,0.013259481638669968
24.0,0.012430813163518906
26.0,0.011756365187466145
28.0,0.011146243661642075
30.0,0.010567343793809414
32.0,0.0100392522290349
36.0,0.009125798009335995
40.0,0.008355490863323212
44.0,0.007686544209718704
48.0,0.00694974884390831
52.0,0.006128089968115091
56.0,0.005311932880431414
60.0,0.004725457169115543
64.0,0.004341719672083855
72.0,0.0041893245652318
80.0,0.00409081531688571
88.0,0.003948619123548269
96.0,0.003317475551739335
104.0,0.002858667867258191
112.0,0.0024990926031023264
120.0,0.0026179435662925243
128.0,0.00261073000729084
144.0,0.002807749668136239
160.0,0.00113015528768301
176.0,0.00022787506168242544
192.0,-1.5406712918775156e-05
208.0,-0.0016209710156545043
224.0,-0.001760803279466927
240.0,-0.0010629863245412707
256.0,-4.677451943280175e-05
288.0,0.0004002764471806586
320.0,-0.000505008501932025
352.0,-0.0007725302712060511
384.0,-0.0002048499445663765
416.0,-0.00014847125567030162
448.0,0.0007433217251673341
480.0,0.00021987267246004194
512.0,-0.0010042139329016209
576.0,-0.002095866948366165
640.0,-7.299858407350257e-05
704.0,-0.0007695556851103902
768.0,0.002184965880587697
832.0,0.0006228648126125336
896.0,0.0005932208150625229
960.0,-0.0005569832283072174
1024.0,0.0014250853564590216
1152.0,0.0018715006299316883
1280.0,0.0006916120182722807
1408.0,0.0008080099942162633
1536.0,0.0007753230165690184
1664.0,-0.0006909166113473475
1792.0,6.680212391074747e-05
1920.0,-0.0009426221367903054
2048.0,-0.002675510011613369
2304.0,0.0008999920100905001
2560.0,0.000564456800930202
2816.0,-0.0013894811272621155
3072.0,0.0013782370369881392
3328.0,-0.0003605560341384262
3584.0,-0.00034864325425587595
3840.0,-0.0008880984969437122
4096.0,-0.0005076279048807919
4608.0,0.0003186992835253477
5120.0,-0.00015967575018294156
5632.0,-0.0008904399001039565
6144.0,-0.0002328379196114838
6656.0,-0.0005910200998187065
7168.0,-0.0015855937963351607
7680.0,-0.0008108498877845705
8192.0,-0.0008574118837714195
end
