version,3.0
numOfCh,1
type,point
parent_name,c1204_1dot0-0dot01
ch_type,1_1
kcount,1
numberNandB,1
brightnessNandB,1
carpet pos,0
pc,0
Time (ms),CH1 Auto-Correlation
1.0,0.04197723791003227
2.0,0.03884996473789215
3.0,0.03614392876625061
4.0,0.033795326948165894
5.0,0.03175646439194679
6.0,0.030019458383321762
7.0,0.028435636311769485
8.0,0.02701682038605213
9.0,0.025736987590789795
10.0,0.02453872188925743
11.0,0.023411335423588753
12.0,0.022311680018901825
13.0,0.021413760259747505
14.0,0.020580735057592392
15.0,0.0197154451161623
16.0,0.018932560458779335
18.0,0.017588654533028603
20.0,0.01641716994345188
22.0,0.015286652371287346
24.0,0.014116940088570118
26.0,0.013057258911430836
28.0,0.012184247374534607
30.0,0.01149303000420332
32.0,0.010920527391135693
36.0,0.009932328946888447
40.0,0.008610057644546032
44.0,0.007733431179076433
48.0,0.007180402521044016
52.0,0.006894326768815517
56.0,0.006785474717617035
60.0,0.00638872804120183
64.0,0.006212027743458748
72.0,0.005498703569173813
80.0,0.004627757240086794
88.0,0.0037761321291327477
96.0,0.0026592358481138945
104.0,0.0020716197323054075
112.0,0.0018769445596262813
120.0,0.0023538260720670223
128.0,0.002252261620014906
144.0,0.0021797206718474627
160.0,0.0017003023531287909
176.0,0.0016108960844576359
192.0,0.0009562791674397886
208.0,0.00039899657713249326
224.0,-0.00010495894821360707
240.0,-0.0011644968762993813
256.0,-0.0017508676974102855
288.0,-0.0021862327121198177
320.0,-0.0017275437712669373
352.0,-0.0015678697964176536
384.0,-0.002395268063992262
416.0,-0.002321140607818961
448.0,-0.00099181046243757
480.0,-0.0007859927718527615
512.0,-0.000723161909263581
576.0,0.00011089725012425333
640.0,0.0012647277908399701
704.0,0.0004178147646598518
768.0,-0.0008165847975760698
832.0,0.001504921237938106
896.0,0.0012654337333515286
960.0,0.0006669362774118781
1024.0,-0.0015789764001965523
1152.0,-0.00039537844713777304
1280.0,-0.00036306376568973064
1408.0,0.0008401761297136545
1536.0,0.0017170842038467526
1664.0,-0.0006927672657184303
1792.0,-0.002927361521869898
1920.0,-0.0020681300666183233
2048.0,-0.0007040288182906806
2304.0,-0.0002510700433049351
2560.0,0.0011647316860035062
2816.0,-0.001327207195572555
3072.0,-0.00024208867398556322
3328.0,-0.0018941317684948444
3584.0,4.824358256882988e-05
3840.0,0.0013324590399861336
4096.0,-0.0017617599805817008
4608.0,-0.0014801890356466174
5120.0,0.0005273411516100168
5632.0,-1.0570061931503005e-05
6144.0,0.0006891227094456553
6656.0,0.0011537084355950356
7168.0,0.00014174275565892458
7680.0,0.0009629636770114303
8192.0,-0.0002559975837357342
end
