version,3.0
numOfCh,1
type,point
parent_name,c1204_1dot0-0dot01
ch_type,1_1
kcount,1
numberNandB,1
brightnessNandB,1
carpet pos,0
pc,0
Time (ms),CH1 Auto-Correlation
1.0,0.0442035011947155
2.0,0.04124046117067337
3.0,0.038646284490823746
4.0,0.03632360324263573
5.0,0.03418608754873276
6.0,0.03228847309947014
7.0,0.030553607270121574
8.0,0.02905784733593464
9.0,0.027733301743865013
10.0,0.026651039719581604
11.0,0.02561754360795021
12.0,0.0247321967035532
13.0,0.023985598236322403
14.0,0.023287592455744743
15.0,0.022593917325139046
16.0,0.022001542150974274
18.0,0.020895497873425484
20.0,0.01993424817919731
22.0,0.019145220518112183
24.0,0.01840309053659439
26.0,0.01762743666768074
28.0,0.016751401126384735
30.0,0.015921616926789284
32.0,0.015195157378911972
36.0,0.014062766917049885
40.0,0.013270284049212933
44.0,0.012640447355806828
48.0,0.01192339789122343
52.0,0.011052556335926056
56.0,0.01054405327886343
60.0,0.01051426026970148
64.0,0.01035684160888195
72.0,0.009530715644359589
80.0,0.009001468308269978
88.0,0.008622483350336552
96.0,0.008067661896348
104.0,0.007745335344225168
112.0,0.006828335113823414
120.0,0.005842675920575857
128.0,0.005353109445422888
144.0,0.004335579928010702
160.0,0.005073524545878172
176.0,0.005517860408872366
192.0,0.004378858953714371
208.0,0.0031618583016097546
224.0,0.0032917542848736048
240.0,0.004159123171120882
256.0,0.004818161483854055
288.0,0.0033574725966900587
320.0,0.00277524976991117
352.0,0.0044202739372849464
384.0,0.0033420950639992952
416.0,0.0027897709514945745
448.0,0.0029697625432163477
480.0,0.003399467095732689
512.0,0.0024745333939790726
576.0,-0.0014859369257465005
640.0,-0.003441558452323079
704.0,-0.001474239630624652
768.0,0.0017362795770168304
832.0,0.002509924117475748
896.0,0.0016472241841256618
960.0,-0.0012929682852700353
1024.0,-0.001922169467434287
1152.0,-0.001977845560759306
1280.0,0.0010661534033715725
1408.0,-0.002036891644820571
1536.0,-0.0031045034993439913
1664.0,-0.0003538330493029207
1792.0,-0.002338206861168146
1920.0,-0.004211608786135912
2048.0,-0.0011232972610741854
2304.0,0.0004993237089365721
2560.0,0.00011090131010860205
2816.0,-0.0019364821491762996
3072.0,-0.0014449756126850843
3328.0,-0.002622617408633232
3584.0,-0.0004034389858134091
3840.0,-0.00014836683112662286
4096.0,-0.002164343139156699
4608.0,0.0006718942313455045
5120.0,0.000468999904114753
5632.0,-0.00047939433716237545
6144.0,0.0010846237419173121
6656.0,0.002758854767307639
7168.0,0.00047905941028147936
7680.0,0.0008734582806937397
8192.0,-0.000814767146948725
end
