version,3.0
numOfCh,1
type,point
parent_name,c1204_1dot0-0dot01
ch_type,1_1
kcount,1
numberNandB,1
brightnessNandB,1
carpet pos,0
pc,0
Time (ms),CH1 Auto-Correlation
1.0,1.039355993270874
2.0,1.0378098487854004
3.0,1.0363491773605347
4.0,1.0349905490875244
5.0,1.033687710762024
6.0,1.0323853492736816
7.0,1.0310801267623901
8.0,1.0298964977264404
9.0,1.0287654399871826
10.0,1.027693510055542
11.0,1.0266647338867188
12.0,1.0257455110549927
13.0,1.024794578552246
14.0,1.0238747596740723
15.0,1.0229467153549194
16.0,1.021904468536377
18.0,1.0197038650512695
20.0,1.0174816846847534
22.0,1.0149613618850708
24.0,1.0124027729034424
26.0,1.0099412202835083
28.0,1.007708191871643
30.0,1.0056565999984741
32.0,1.0037343502044678
36.0,1.000022292137146
40.0,0.9960876703262329
44.0,0.9925301671028137
48.0,0.9894489645957947
52.0,0.9863260388374329
56.0,0.9828956127166748
60.0,0.979185938835144
64.0,0.975810706615448
72.0,0.9701936841011047
80.0,0.9654597043991089
88.0,0.9621037840843201
96.0,0.9595131278038025
104.0,0.9560713768005371
112.0,0.9516649842262268
120.0,0.947175145149231
128.0,0.9427918791770935
144.0,0.9347911477088928
160.0,0.9275774955749512
176.0,0.9196493625640869
192.0,0.9111802577972412
208.0,0.9007397890090942
224.0,0.8901374340057373
240.0,0.8809805512428284
256.0,0.8733749389648438
288.0,0.8671302199363708
320.0,0.8622921705245972
352.0,0.845894992351532
384.0,0.8246905207633972
416.0,0.8062053918838501
448.0,0.7885844111442566
480.0,0.7763189077377319
512.0,0.7615520358085632
576.0,0.7054789662361145
640.0,0.6518078446388245
704.0,0.5853646397590637
768.0,0.5293437838554382
832.0,0.4850122630596161
896.0,0.42823565006256104
960.0,0.3749440014362335
1024.0,0.3210705518722534
1152.0,0.21423986554145813
1280.0,0.13546466827392578
1408.0,0.06506514549255371
1536.0,0.0038672846276313066
1664.0,-0.03021252155303955
1792.0,-0.059152450412511826
1920.0,-0.06888929009437561
2048.0,-0.08992486447095871
2304.0,-0.10799047350883484
2560.0,-0.12563836574554443
2816.0,-0.14410264790058136
3072.0,-0.15817958116531372
3328.0,-0.1769210696220398
3584.0,-0.19984574615955353
3840.0,-0.23172642290592194
4096.0,-0.27371975779533386
end
