version,3.0
numOfCh,1
type,point
parent_name,c1204_1dot0-0dot01
ch_type,1_1
kcount,1
numberNandB,1
brightnessNandB,1
carpet pos,0
pc,0
Time (ms),CH1 Auto-Correlation
1.0,0.4723510146141052
2.0,0.4711747169494629
3.0,0.4700600206851959
4.0,0.46901369094848633
5.0,0.46808725595474243
6.0,0.46720123291015625
7.0,0.4663691222667694
8.0,0.46554458141326904
9.0,0.4647800028324127
10.0,0.46399426460266113
11.0,0.4633079469203949
12.0,0.4626151919364929
13.0,0.4619019329547882
14.0,0.46123984456062317
15.0,0.46063750982284546
16.0,0.4599999189376831
18.0,0.45883709192276
20.0,0.45765331387519836
22.0,0.45665693283081055
24.0,0.45560213923454285
26.0,0.45458269119262695
28.0,0.45354610681533813
30.0,0.4524102210998535
32.0,0.451254665851593
36.0,0.449178546667099
40.0,0.4469096064567566
44.0,0.44461435079574585
48.0,0.4422159790992737
52.0,0.4400998651981354
56.0,0.43836134672164917
60.0,0.4366230368614197
64.0,0.43469396233558655
72.0,0.43011540174484253
80.0,0.4261169731616974
88.0,0.4221636652946472
96.0,0.41830524802207947
104.0,0.41484853625297546
112.0,0.4115756154060364
120.0,0.40950697660446167
128.0,0.4072231948375702
144.0,0.40272194147109985
160.0,0.39791879057884216
176.0,0.3943314254283905
192.0,0.3902190625667572
208.0,0.38587385416030884
224.0,0.3790905177593231
240.0,0.3717498481273651
256.0,0.3645919859409332
288.0,0.34991469979286194
320.0,0.33778971433639526
352.0,0.3301050066947937
384.0,0.3236643373966217
416.0,0.3202710449695587
448.0,0.31340521574020386
480.0,0.3049949109554291
512.0,0.2989397644996643
576.0,0.2955244779586792
640.0,0.2957957088947296
704.0,0.2880483865737915
768.0,0.2790200114250183
832.0,0.2700977921485901
896.0,0.25053268671035767
960.0,0.22445721924304962
1024.0,0.19957667589187622
1152.0,0.15703091025352478
1280.0,0.11605121195316315
1408.0,0.07708191871643066
1536.0,0.03711995109915733
1664.0,-0.004137113224714994
1792.0,-0.030016008764505386
1920.0,-0.050848089158535004
2048.0,-0.0697605237364769
2304.0,-0.1263839155435562
2560.0,-0.13458217680454254
2816.0,-0.15438783168792725
3072.0,-0.20799045264720917
3328.0,-0.26060760021209717
3584.0,-0.3202827274799347
3840.0,-0.38550713658332825
4096.0,-0.46587857604026794
end
