version,3.0
numOfCh,1
type,point
parent_name,c1204_1dot0-0dot01
ch_type,1_1
kcount,1
numberNandB,1
brightnessNandB,1
carpet pos,0
pc,0
Time (ms),CH1 Auto-Correlation
1.0,0.04319358244538307
2.0,0.04011096432805061
3.0,0.03752148151397705
4.0,0.03523535281419754
5.0,0.03319597244262695
6.0,0.031391944736242294
7.0,0.029780661687254906
8.0,0.028295941650867462
9.0,0.026991011574864388
10.0,0.02579873614013195
11.0,0.024825770407915115
12.0,0.023955419659614563
13.0,0.02310824580490589
14.0,0.022323990240693092
15.0,0.021478688344359398
16.0,0.020656485110521317
18.0,0.019430221989750862
20.0,0.018228281289339066
22.0,0.017234213650226593
24.0,0.016342978924512863
26.0,0.01558256521821022
28.0,0.01496882364153862
30.0,0.014478717930614948
32.0,0.014031687751412392
36.0,0.013417164795100689
40.0,0.012820112518966198
44.0,0.012027273885905743
48.0,0.011028571985661983
52.0,0.01026340201497078
56.0,0.009805713780224323
60.0,0.009294448420405388
64.0,0.008910064585506916
72.0,0.007577262353152037
80.0,0.0064131817780435085
88.0,0.005583330523222685
96.0,0.004822114482522011
104.0,0.004483858123421669
112.0,0.0033252444118261337
120.0,0.0025305654853582382
128.0,0.002233373001217842
144.0,0.0011222482426092029
160.0,0.0012152231065556407
176.0,0.0011754060396924615
192.0,0.0010855329455807805
208.0,0.002017672173678875
224.0,0.0018193500582128763
240.0,0.0014842541422694921
256.0,0.00015433355292771012
288.0,-0.0003100039903074503
320.0,0.00037560577038675547
352.0,0.0009942291071638465
384.0,0.0013329065404832363
416.0,0.001417021732777357
448.0,0.0026736014988273382
480.0,0.002154562622308731
512.0,0.0024654895532876253
576.0,0.003145424649119377
640.0,0.0024531695526093245
704.0,0.000767200137488544
768.0,-0.00045696846791543067
832.0,-0.002568627707660198
896.0,-0.0015731083694845438
960.0,-0.0010501820361241698
1024.0,0.0010851906845346093
1152.0,0.0017118172254413366
1280.0,-0.001015460817143321
1408.0,-0.0006652699667029083
1536.0,0.0014657292049378157
1664.0,0.00048270184197463095
1792.0,-0.0006684837280772626
1920.0,-0.0005438638036139309
2048.0,-0.0032493816688656807
2304.0,-0.0005473038763739169
2560.0,0.00016905796655919403
2816.0,0.00016203767154365778
3072.0,-0.0006740904645994306
3328.0,0.002034631557762623
3584.0,-0.0002207218494731933
3840.0,0.00023947181762196124
4096.0,0.00037414769758470356
4608.0,-0.0012989990646019578
5120.0,-0.0012379353865981102
5632.0,-0.0014547313330695033
6144.0,-0.00016569446597713977
6656.0,-0.00021680710779037327
7168.0,7.216943777166307e-05
7680.0,-0.0006006871117278934
8192.0,-0.0007058971095830202
end
