version,3.0
numOfCh,1
type,point
parent_name,c1204_1dot0-0dot01
ch_type,1_1
kcount,1
numberNandB,1
brightnessNandB,1
carpet pos,0
pc,0
Time (ms),CH1 Auto-Correlation
1.0,0.04149067401885986
2.0,0.03820719197392464
3.0,0.03542939946055412
4.0,0.032991282641887665
5.0,0.030872125178575516
6.0,0.029013741761446
7.0,0.02744521200656891
8.0,0.02605067379772663
9.0,0.02485593594610691
10.0,0.023843420669436455
11.0,0.022863976657390594
12.0,0.02195012755692005
13.0,0.021137569099664688
14.0,0.020375186577439308
15.0,0.019666606560349464
16.0,0.01895127445459366
18.0,0.017690228298306465
20.0,0.016442790627479553
22.0,0.015453682281076908
24.0,0.014488578774034977
26.0,0.013587101362645626
28.0,0.01284858025610447
30.0,0.012146021239459515
32.0,0.011514594778418541
36.0,0.010301897302269936
40.0,0.009571013040840626
44.0,0.008965468034148216
48.0,0.008215184323489666
52.0,0.007677846122533083
56.0,0.007520248182117939
60.0,0.007362166419625282
64.0,0.007012910209596157
72.0,0.005961992312222719
80.0,0.0050507960841059685
88.0,0.0046844277530908585
96.0,0.0046617258340120316
104.0,0.004310838878154755
112.0,0.00388718256726861
120.0,0.0035580946132540703
128.0,0.003165267175063491
144.0,0.0032611906062811613
160.0,0.002850254997611046
176.0,0.0026475784834474325
192.0,0.0019772083032876253
208.0,0.0016487522516399622
224.0,0.0010516754118725657
240.0,0.0013340807054191828
256.0,0.0012425928143784404
288.0,0.0005241120816208422
320.0,0.0008096177480183542
352.0,0.0013806672068312764
384.0,0.0010935572208836675
416.0,0.0017091152258217335
448.0,3.527175431372598e-05
480.0,-0.0007487718248739839
512.0,-0.0009969209786504507
576.0,-0.00037406981573440135
640.0,0.0009255778859369457
704.0,0.00025281982379965484
768.0,-7.271935464814305e-05
832.0,-0.00041272013913840055
896.0,1.16186620289227e-05
960.0,0.001071500708349049
1024.0,0.0003503525222185999
1152.0,0.00029813978471793234
1280.0,0.0008220483432523906
1408.0,0.0002764674136415124
1536.0,-0.0005465464200824499
1664.0,0.0008067757007665932
1792.0,0.001554480753839016
1920.0,0.002192289801314473
2048.0,-0.0020002308301627636
2304.0,-0.0008490884792990983
2560.0,0.000849677890073508
2816.0,-0.0004786600184161216
3072.0,-0.0001049395214067772
3328.0,-0.0014166987966746092
3584.0,-0.0008515091612935066
3840.0,-0.0014078500680625439
4096.0,0.0008095829398371279
4608.0,0.0014783055521547794
5120.0,-0.0005379166686907411
5632.0,0.00024383295385632664
6144.0,-0.0012695185141637921
6656.0,-0.0013462580973282456
7168.0,0.00042390788439661264
7680.0,-0.0010624101851135492
8192.0,-0.00043378741247579455
end
