version,3.0
numOfCh,1
type,point
parent_name,c1204_1dot0-0dot01
ch_type,1_1
kcount,1
numberNandB,1
brightnessNandB,1
carpet pos,0
pc,0
Time (ms),CH1 Auto-Correlation
1.0,0.04124236851930618
2.0,0.037914618849754333
3.0,0.03500071540474892
4.0,0.03244871273636818
5.0,0.030339522287249565
6.0,0.028422832489013672
7.0,0.02668105810880661
8.0,0.025108875706791878
9.0,0.02371843531727791
10.0,0.022371923550963402
11.0,0.021254150196909904
12.0,0.020243419334292412
13.0,0.019327132031321526
14.0,0.018424423411488533
15.0,0.017592888325452805
16.0,0.0168613288551569
18.0,0.01565554551780224
20.0,0.014640120789408684
22.0,0.013738678768277168
24.0,0.012931542471051216
26.0,0.012152586132287979
28.0,0.011461710557341576
30.0,0.01092478446662426
32.0,0.010453165508806705
36.0,0.009873723611235619
40.0,0.009725675918161869
44.0,0.009248774498701096
48.0,0.008831944316625595
52.0,0.00865782517939806
56.0,0.008250362239778042
60.0,0.007435934152454138
64.0,0.006456041242927313
72.0,0.004680652637034655
80.0,0.0033917592372745275
88.0,0.0029845708049833775
96.0,0.003174438839778304
104.0,0.0035902427043765783
112.0,0.0038773673586547375
120.0,0.004342227708548307
128.0,0.004018646664917469
144.0,0.004236089531332254
160.0,0.00437814649194479
176.0,0.004195584449917078
192.0,0.0026896840427070856
208.0,0.001924003823660314
224.0,0.001960352063179016
240.0,0.001955736195668578
256.0,0.0008560841088183224
288.0,0.0015975225251168013
320.0,0.0011109972838312387
352.0,0.0017162789590656757
384.0,0.002090394962579012
416.0,0.0027130714152008295
448.0,0.0028797134291380644
480.0,0.0018906185869127512
512.0,0.0022827063221484423
576.0,0.0033093057572841644
640.0,0.0032137532252818346
704.0,0.0013507591793313622
768.0,-0.0007643919088877738
832.0,-0.001938650500960648
896.0,-0.0010503417579457164
960.0,-0.00030440889531746507
1024.0,3.1446252251043916e-05
1152.0,0.0007247823523357511
1280.0,9.350887557957321e-05
1408.0,-0.0005557634867727757
1536.0,-0.000667525629978627
1664.0,0.00039186477079056203
1792.0,0.00039005608414299786
1920.0,-0.00010535977344261482
2048.0,-0.0032801704946905375
2304.0,-0.0013726446777582169
2560.0,-0.0020930576138198376
2816.0,-0.001285581849515438
3072.0,-7.172719051595777e-05
3328.0,0.0001306765916524455
3584.0,-0.0002343788801226765
3840.0,0.0005742391222156584
4096.0,0.0015050909714773297
4608.0,0.0002764182281680405
5120.0,0.0009772564517334104
5632.0,0.0003051348903682083
6144.0,-0.0022535028401762247
6656.0,-0.0018610175466164947
7168.0,-0.00028464107890613377
7680.0,-0.0019416246796026826
8192.0,-0.0012409230694174767
end
