version,3.0
numOfCh,1
type,point
parent_name,c1204_1dot0-0dot01
ch_type,1_1
kcount,1
numberNandB,1
brightnessNandB,1
carpet pos,0
pc,0
Time (ms),CH1 Auto-Correlation
1.0,0.04356446489691734
2.0,0.04053885117173195
3.0,0.03799495846033096
4.0,0.0358092375099659
5.0,0.03385511413216591
6.0,0.032166168093681335
7.0,0.030710872262716293
8.0,0.029506832361221313
9.0,0.028397241607308388
10.0,0.027350742369890213
11.0,0.026342563331127167
12.0,0.02531176619231701
13.0,0.02443169802427292
14.0,0.023653468117117882
15.0,0.022963162511587143
16.0,0.02225320227444172
18.0,0.020935652777552605
20.0,0.01981942728161812
22.0,0.01876465603709221
24.0,0.017829272896051407
26.0,0.017076220363378525
28.0,0.016465378925204277
30.0,0.015994016081094742
32.0,0.015691295266151428
36.0,0.015034390613436699
40.0,0.014085652306675911
44.0,0.013137423433363438
48.0,0.012305357493460178
52.0,0.011492718942463398
56.0,0.010679402388632298
60.0,0.010167534463107586
64.0,0.0097195478156209
72.0,0.009070274420082569
80.0,0.008554687723517418
88.0,0.008321357890963554
96.0,0.008063291199505329
104.0,0.0077541000209748745
112.0,0.007149099837988615
120.0,0.006364996545016766
128.0,0.005324443336576223
144.0,0.005739397369325161
160.0,0.006620029453188181
176.0,0.006416597869247198
192.0,0.006214580964297056
208.0,0.005723658483475447
224.0,0.004144394304603338
240.0,0.003603836288675666
256.0,0.004496571607887745
288.0,0.004721997305750847
320.0,0.003910772502422333
352.0,0.0020482358522713184
384.0,0.00036874430952593684
416.0,-0.0008599122520536184
448.0,-0.0010802987962961197
480.0,-0.002823192160576582
512.0,-0.004372973460704088
576.0,-0.0037944363430142403
640.0,-0.0035555828362703323
704.0,-0.003429693402722478
768.0,-0.0027473215013742447
832.0,-0.0038928957656025887
896.0,-0.003301223274320364
960.0,-0.0030160367023199797
1024.0,-0.001645582728087902
1152.0,1.2198452168377116e-05
1280.0,0.0017328772228211164
1408.0,0.0020075009670108557
1536.0,0.0011145713506266475
1664.0,-0.0005941525450907648
1792.0,-0.002824101597070694
1920.0,-0.0010117777856066823
2048.0,-0.0008249541861005127
2304.0,0.0003588683612179011
2560.0,0.0018538823351264
2816.0,0.0011063781566917896
3072.0,-0.001621425966732204
3328.0,0.0010564773110672832
3584.0,0.0011227823561057448
3840.0,-0.0024916173424571753
4096.0,-0.002464774064719677
4608.0,-0.00021248013945296407
5120.0,0.0011464032577350736
5632.0,-0.0011889990419149399
6144.0,0.0005702704656869173
6656.0,0.0018843950238078833
7168.0,-0.00025395405828021467
7680.0,-0.0005935060908086598
8192.0,-0.001721590873785317
end
