version,3.0
numOfCh,1
type,point
parent_name,c1204_1dot0-0dot01
ch_type,1_1
kcount,1
numberNandB,1
brightnessNandB,1
carpet pos,0
pc,0
Time (ms),CH1 Auto-Correlation
1.0,0.04123064875602722
2.0,0.038029395043849945
3.0,0.03525849059224129
4.0,0.03287672996520996
5.0,0.030846530571579933
6.0,0.029024377465248108
7.0,0.02735687419772148
8.0,0.025891602039337158
9.0,0.024521207436919212
10.0,0.02328495867550373
11.0,0.02220170386135578
12.0,0.02120255120098591
13.0,0.020193440839648247
14.0,0.019320467486977577
15.0,0.018517345190048218
16.0,0.017742590978741646
18.0,0.016310501843690872
20.0,0.015148450620472431
22.0,0.014232486486434937
24.0,0.013437945395708084
26.0,0.012832204811275005
28.0,0.01215235237032175
30.0,0.011312405578792095
32.0,0.010599806904792786
36.0,0.008906889706850052
40.0,0.007651426829397678
44.0,0.006933515425771475
48.0,0.006464853882789612
52.0,0.006199164316058159
56.0,0.005876646842807531
60.0,0.005598686635494232
64.0,0.005242283456027508
72.0,0.004303580615669489
80.0,0.003055564360693097
88.0,0.0016406807117164135
96.0,0.00040681296377442777
104.0,0.0003545754589140415
112.0,0.0003156980674248189
120.0,7.102149538695812e-05
128.0,0.0005593140376731753
144.0,0.0015172010753303766
160.0,0.0011599971912801266
176.0,0.00018696895858738571
192.0,-0.0007465853122994304
208.0,-0.0010238639079034328
224.0,-0.001304100500419736
240.0,-0.0008045767899602652
256.0,0.00029112803167663515
288.0,0.0017475972417742014
320.0,0.001776472432538867
352.0,0.0017221560701727867
384.0,0.0006655472679995
416.0,0.00041956917266361415
448.0,-5.6216231314465404e-05
480.0,-0.0015136522706598043
512.0,-0.0019742888398468494
576.0,-0.0024268648121505976
640.0,-0.0014437759527936578
704.0,0.0003628747072070837
768.0,0.0008277313900180161
832.0,0.0011097455862909555
896.0,-0.0011460401583462954
960.0,-0.002521025948226452
1024.0,-0.0030276821926236153
1152.0,-0.0006105310749262571
1280.0,1.723202694847714e-05
1408.0,-0.0007069110870361328
1536.0,0.001158784725703299
1664.0,0.0009839119156822562
1792.0,0.0002926834858953953
1920.0,0.0019668927416205406
2048.0,-0.000756721303332597
2304.0,0.0013853199779987335
2560.0,-0.0012321514077484608
2816.0,-0.0018703965470194817
3072.0,-0.0008305575465783477
3328.0,-0.00011673467088257894
3584.0,0.00023342829081229866
3840.0,0.0009768953314051032
4096.0,-0.0003317912050988525
4608.0,-0.0007349453517235816
5120.0,-0.0003760067920666188
5632.0,0.0009542946936562657
6144.0,-0.0007017510361038148
6656.0,-0.0011183168971911073
7168.0,0.0005146610783413053
7680.0,4.890784839517437e-05
8192.0,-0.001952555263414979
end
