version,3.0
numOfCh,1
type,point
parent_name,c1204_1dot0-0dot01
ch_type,1_1
kcount,1
numberNandB,1
brightnessNandB,1
carpet pos,0
pc,0
Time (ms),CH1 Auto-Correlation
1.0,0.03799642249941826
2.0,0.034928761422634125
3.0,0.032291196286678314
4.0,0.030006583780050278
5.0,0.02805863507091999
6.0,0.02638360671699047
7.0,0.02485223487019539
8.0,0.023495974019169807
9.0,0.022372152656316757
10.0,0.021381091326475143
11.0,0.02041899971663952
12.0,0.01966092176735401
13.0,0.01889539137482643
14.0,0.01819070801138878
15.0,0.01752086728811264
16.0,0.01688346266746521
18.0,0.0157790407538414
20.0,0.014820425771176815
22.0,0.01401412021368742
24.0,0.01336640678346157
26.0,0.013045959174633026
28.0,0.012810825370252132
30.0,0.012666729278862476
32.0,0.012495424598455429
36.0,0.012132512405514717
40.0,0.011833981610834599
44.0,0.011471351608633995
48.0,0.010757067240774632
52.0,0.010111561976373196
56.0,0.009365523234009743
60.0,0.008439147844910622
64.0,0.007984841242432594
72.0,0.00725121283903718
80.0,0.006818425841629505
88.0,0.0059763528406620026
96.0,0.0044752066023647785
104.0,0.0038534305058419704
112.0,0.004894789308309555
120.0,0.0058380793780088425
128.0,0.006366634741425514
144.0,0.0043812040239572525
160.0,0.004028109833598137
176.0,0.00280271889641881
192.0,0.0024625156074762344
208.0,0.0024072241503745317
224.0,0.0016264270525425673
240.0,0.0014180934522300959
256.0,-5.201079329708591e-05
288.0,0.00025204845587722957
320.0,-0.0004994029295630753
352.0,-0.0011683700140565634
384.0,-0.0025592150632292032
416.0,-0.0022195603232830763
448.0,-0.0002865578280761838
480.0,-0.0006527359364554286
512.0,0.00013531360309571028
576.0,-0.0001220171179738827
640.0,-0.0005554083618335426
704.0,-0.0008038332452997565
768.0,-0.0005170212825760245
832.0,-0.0003170510462950915
896.0,0.002274696948006749
960.0,0.002342943800613284
1024.0,0.0029755751602351665
1152.0,0.003293369896709919
1280.0,0.0012558117741718888
1408.0,-0.0014944113790988922
1536.0,-0.0028723874129354954
1664.0,-0.0026741051115095615
1792.0,-0.003235636046156287
1920.0,-0.00034426464117132127
2048.0,0.001276648254133761
2304.0,6.678346107946709e-05
2560.0,-0.0009237097692675889
2816.0,-0.002779268426820636
3072.0,0.0008355266181752086
3328.0,0.005003929603844881
3584.0,-0.0004397796292323619
3840.0,-0.0018414227524772286
4096.0,-1.3306222172104754e-05
4608.0,0.0006669966969639063
5120.0,-0.0002191574458265677
5632.0,-0.0011583282612264156
6144.0,-0.001283627818338573
6656.0,-0.0018968931399285793
7168.0,-0.0019029697868973017
7680.0,0.0012469870271161199
8192.0,-0.0010365279158577323
end
