version,3.0
numOfCh,1
type,point
parent_name,c1204_1dot0-0dot01
ch_type,1_1
kcount,1
numberNandB,1
brightnessNandB,1
carpet pos,0
pc,0
Time (ms),CH1 Auto-Correlation
1.0,0.040866680443286896
2.0,0.03792714700102806
3.0,0.035411663353443146
4.0,0.03325244039297104
5.0,0.031416237354278564
6.0,0.029774485155940056
7.0,0.028310367837548256
8.0,0.026881027966737747
9.0,0.025457527488470078
10.0,0.024230707436800003
11.0,0.02310759946703911
12.0,0.022035839036107063
13.0,0.0210907943546772
14.0,0.020257988944649696
15.0,0.01948820799589157
16.0,0.018741171807050705
18.0,0.017299287021160126
20.0,0.016005268320441246
22.0,0.014760810881853104
24.0,0.01374770700931549
26.0,0.012731717899441719
28.0,0.012000360526144505
30.0,0.011407427489757538
32.0,0.010957480408251286
36.0,0.010067122057080269
40.0,0.009455645456910133
44.0,0.008967827074229717
48.0,0.0085822194814682
52.0,0.00853567011654377
56.0,0.008295389823615551
60.0,0.007521022576838732
64.0,0.007044139783829451
72.0,0.006533691193908453
80.0,0.005961143411695957
88.0,0.005672981031239033
96.0,0.004656711593270302
104.0,0.003640704555436969
112.0,0.003848424879834056
120.0,0.003562839701771736
128.0,0.003107859520241618
144.0,0.002815056359395385
160.0,0.002761495765298605
176.0,0.002782357856631279
192.0,0.0035156412050127983
208.0,0.0030286808032542467
224.0,0.0022678689565509558
240.0,0.0022305226884782314
256.0,0.0022031180560588837
288.0,0.0002271587582072243
320.0,0.0007091635488905013
352.0,0.0008821607334539294
384.0,0.0004110328445676714
416.0,0.00040934214484877884
448.0,0.002226416254416108
480.0,0.002283425536006689
512.0,-0.0002670522080734372
576.0,-0.0007868409156799316
640.0,0.0005678232409991324
704.0,0.0009921856690198183
768.0,-0.0007021219353191555
832.0,-0.0007040929631330073
896.0,0.002841006964445114
960.0,0.0017553397919982672
1024.0,0.002349500311538577
1152.0,0.0006530627142637968
1280.0,-0.0019098587799817324
1408.0,-0.001507220440544188
1536.0,-0.0015520646702498198
1664.0,-0.0023388059344142675
1792.0,-0.0007616303628310561
1920.0,-0.0004998340737074614
2048.0,0.003340790281072259
2304.0,-0.0009260844672098756
2560.0,-0.0006588001269847155
2816.0,0.001615938381291926
3072.0,-0.0012415797682479024
3328.0,-0.0019349124049767852
3584.0,-0.0014531054766848683
3840.0,-0.0021596322767436504
4096.0,-3.5535296774469316e-05
4608.0,-0.001962176291272044
5120.0,-0.0008819240028969944
5632.0,0.0013763337628915906
6144.0,0.0020009910222142935
6656.0,0.0007437142776325345
7168.0,-0.0006707306019961834
7680.0,-0.00026858464116230607
8192.0,-0.000190427279449068
end
