version,3.0
numOfCh,1
type,point
parent_name,c1204_1dot0-0dot01
ch_type,1_1
kcount,1
numberNandB,1
brightnessNandB,1
carpet pos,0
pc,0
Time (ms),CH1 Auto-Correlation
1.0,0.046142928302288055
2.0,0.04306074231863022
3.0,0.04040950536727905
4.0,0.0380123145878315
5.0,0.035914868116378784
6.0,0.03398007154464722
7.0,0.03223932534456253
8.0,0.030756812542676926
9.0,0.02940836362540722
10.0,0.028256094083189964
11.0,0.027254365384578705
12.0,0.026262376457452774
13.0,0.025345638394355774
14.0,0.02445581927895546
15.0,0.023630889132618904
16.0,0.02290577068924904
18.0,0.021418588235974312
20.0,0.020123906433582306
22.0,0.018669098615646362
24.0,0.01743406429886818
26.0,0.016427814960479736
28.0,0.015603851526975632
30.0,0.014608049765229225
32.0,0.013819169253110886
36.0,0.013034156523644924
40.0,0.012158633209764957
44.0,0.01124544907361269
48.0,0.01064461749047041
52.0,0.009837043471634388
56.0,0.008987292647361755
60.0,0.008509431034326553
64.0,0.00851115770637989
72.0,0.008130369707942009
80.0,0.007477383129298687
88.0,0.007380960509181023
96.0,0.006878257263451815
104.0,0.005945627111941576
112.0,0.005103787872940302
120.0,0.004690980538725853
128.0,0.004403067287057638
144.0,0.003934687934815884
160.0,0.0037586959078907967
176.0,0.0028116193134337664
192.0,0.002040391555055976
208.0,0.0020037356298416853
224.0,0.0010381487663835287
240.0,-1.1164329407620244e-05
256.0,0.0007567148422822356
288.0,0.0009656085749156773
320.0,0.0016729227500036359
352.0,0.0022550667636096478
384.0,0.0023613160010427237
416.0,0.000448082631919533
448.0,-0.0009610590059310198
480.0,-0.0005370641592890024
512.0,-0.0012253436725586653
576.0,-0.0011989313643425703
640.0,-0.0019850507378578186
704.0,-0.0009253199095837772
768.0,0.0006345920264720917
832.0,-0.001539616729132831
896.0,-0.0029196522664278746
960.0,-0.0012813423527404666
1024.0,-0.0025485593359917402
1152.0,-0.0018584151985123754
1280.0,-0.004357579629868269
1408.0,-0.003699622582644224
1536.0,0.00038393004797399044
1664.0,0.0007818032754585147
1792.0,0.0016516197938472033
1920.0,0.004316817037761211
2048.0,0.0015144308563321829
2304.0,-0.0010351864621043205
2560.0,-0.0008715752046555281
2816.0,-0.000992522924207151
3072.0,-0.0023406161926686764
3328.0,-0.005252092145383358
3584.0,-0.0023774527944624424
3840.0,0.0012492381501942873
4096.0,0.0015619919868186116
4608.0,0.0011230655945837498
5120.0,-0.0012783575803041458
5632.0,-0.0015699369832873344
6144.0,0.0033328128047287464
6656.0,0.0011875821510329843
7168.0,-0.001098171342164278
7680.0,-0.00012512975081335753
8192.0,0.0006475024856626987
end
