version,3.0
numOfCh,1
type,point
parent_name,c1204_1dot0-0dot01
ch_type,1_1
kcount,1
numberNandB,1
brightnessNandB,1
carpet pos,0
pc,0
Time (ms),CH1 Auto-Correlation
1.0,0.09381622821092606
2.0,0.09114615619182587
3.0,0.08870671689510345
4.0,0.08659298717975616
5.0,0.0846385806798935
6.0,0.08287259191274643
7.0,0.08131143450737
8.0,0.07983681559562683
9.0,0.07850784063339233
10.0,0.07719076424837112
11.0,0.07593119144439697
12.0,0.07472693920135498
13.0,0.07346803694963455
14.0,0.0722067728638649
15.0,0.07094749063253403
16.0,0.06987149268388748
18.0,0.06795810908079147
20.0,0.06609916687011719
22.0,0.06452616304159164
24.0,0.06296438723802567
26.0,0.06126212328672409
28.0,0.05954834073781967
30.0,0.05803288519382477
32.0,0.056807905435562134
36.0,0.054702792316675186
40.0,0.052543967962265015
44.0,0.049982648342847824
48.0,0.04672490060329437
52.0,0.043812092393636703
56.0,0.041686415672302246
60.0,0.03976667299866676
64.0,0.03787725418806076
72.0,0.034701522439718246
80.0,0.031060952693223953
88.0,0.026732219383120537
96.0,0.024102868512272835
104.0,0.023115862160921097
112.0,0.02249329909682274
120.0,0.021793464198708534
128.0,0.020665667951107025
144.0,0.0181970726698637
160.0,0.017448941245675087
176.0,0.016860967501997948
192.0,0.01602059043943882
208.0,0.01611980050802231
224.0,0.019357360899448395
240.0,0.021975994110107422
256.0,0.022979844361543655
288.0,0.024640211835503578
320.0,0.024614527821540833
352.0,0.022507579997181892
384.0,0.015670059248805046
416.0,0.013403816148638725
448.0,0.012344610877335072
480.0,0.013884848915040493
512.0,0.014695889316499233
576.0,0.023167842999100685
640.0,0.011529164388775826
704.0,0.0029191537760198116
768.0,0.002089031273499131
832.0,0.0035042944364249706
896.0,0.0015067134518176317
960.0,0.002500292146578431
1024.0,-0.000810185621958226
1152.0,-0.001459080958738923
1280.0,-0.008405204862356186
1408.0,-0.007130402605980635
1536.0,-0.0025008548982441425
1664.0,-0.006958837155252695
1792.0,-0.0120047302916646
1920.0,-0.006246691569685936
2048.0,-0.003054732922464609
2304.0,-0.002716607181355357
2560.0,-0.011576211079955101
2816.0,0.004254563711583614
3072.0,0.005590915679931641
3328.0,0.0016618261579424143
3584.0,0.0031994322780519724
3840.0,-0.006417648401111364
4096.0,-0.010411733761429787
end
