version,3.0
numOfCh,1
type,point
parent_name,dirty_0dot069-0dot01
ch_type,1_1
kcount,1
numberNandB,1
brightnessNandB,1
carpet pos,0
pc,0
Time (ms),CH1 Auto-Correlation
1.0,0.28769364953041077
2.0,0.28723210096359253
3.0,0.28679296374320984
4.0,0.2863563001155853
5.0,0.2859225869178772
6.0,0.2854929268360138
7.0,0.28505146503448486
8.0,0.2846215069293976
9.0,0.28422337770462036
10.0,0.2838420271873474
11.0,0.2834526002407074
12.0,0.2830521762371063
13.0,0.28265824913978577
14.0,0.2822573184967041
15.0,0.2818930447101593
16.0,0.2815406620502472
18.0,0.2808550298213959
20.0,0.28018850088119507
22.0,0.2795218527317047
24.0,0.27887260913848877
26.0,0.2782711982727051
28.0,0.27765926718711853
30.0,0.2770634591579437
32.0,0.2764612138271332
36.0,0.275152325630188
40.0,0.27376481890678406
44.0,0.2723843455314636
48.0,0.27116191387176514
52.0,0.2701418995857239
56.0,0.2691650390625
60.0,0.2682439982891083
64.0,0.26737016439437866
72.0,0.2654596269130707
80.0,0.26359841227531433
88.0,0.26163047552108765
96.0,0.2595822215080261
104.0,0.2574528753757477
112.0,0.255185604095459
120.0,0.25303760170936584
128.0,0.2509883642196655
144.0,0.2478359341621399
160.0,0.24516735970973969
176.0,0.24249368906021118
192.0,0.2397681623697281
208.0,0.2367791086435318
224.0,0.23437175154685974
240.0,0.23231422901153564
256.0,0.23029585182666779
288.0,0.2271568328142166
320.0,0.22408060729503632
352.0,0.21915026009082794
384.0,0.2133553922176361
416.0,0.20596161484718323
448.0,0.19793806970119476
480.0,0.19183191657066345
512.0,0.18587183952331543
576.0,0.17858020961284637
640.0,0.1739821583032608
704.0,0.16568531095981598
768.0,0.1545717865228653
832.0,0.14609770476818085
896.0,0.13943292200565338
960.0,0.1348993331193924
1024.0,0.13056786358356476
1152.0,0.11452009528875351
1280.0,0.10175669193267822
1408.0,0.09952299296855927
1536.0,0.09887038171291351
1664.0,0.09755237400531769
1792.0,0.09458319842815399
1920.0,0.08471332490444183
2048.0,0.07755837589502335
2304.0,0.06440318375825882
2560.0,0.04194951429963112
2816.0,-0.001667131669819355
3072.0,-0.04794105142354965
3328.0,-0.08091912418603897
3584.0,-0.1011674776673317
3840.0,-0.11523069441318512
4096.0,-0.11183683574199677
4608.0,-0.09962088614702225
5120.0,-0.0993274599313736
5632.0,-0.10294608771800995
6144.0,-0.09985050559043884
6656.0,-0.08605720102787018
7168.0,-0.07411442697048187
7680.0,-0.06685201078653336
8192.0,-0.04358723759651184
9216.0,-0.018590779975056648
10240.0,0.023002266883850098
11264.0,0.033055663108825684
12288.0,0.012990719638764858
13312.0,-0.015352590009570122
14336.0,-0.042613714933395386
end
