version,3.0
numOfCh,1
type,point
parent_name,dirty_0dot069-0dot01
ch_type,1_1
kcount,1
numberNandB,1
brightnessNandB,1
carpet pos,0
pc,0
Time (ms),CH1 Auto-Correlation
1.0,0.3755890429019928
2.0,0.374921053647995
3.0,0.3742460012435913
4.0,0.3735639452934265
5.0,0.37287846207618713
6.0,0.37219950556755066
7.0,0.3715282678604126
8.0,0.37085437774658203
9.0,0.37019285559654236
10.0,0.36952853202819824
11.0,0.36886894702911377
12.0,0.368200421333313
13.0,0.3675299286842346
14.0,0.3668818473815918
15.0,0.36622679233551025
16.0,0.3655563294887543
18.0,0.36419013142585754
20.0,0.36281818151474
22.0,0.3614400029182434
24.0,0.36009323596954346
26.0,0.3587450087070465
28.0,0.3574685752391815
30.0,0.3561839163303375
32.0,0.35489386320114136
36.0,0.35232242941856384
40.0,0.3496887981891632
44.0,0.34712356328964233
48.0,0.34465688467025757
52.0,0.3421371877193451
56.0,0.3395606577396393
60.0,0.33709412813186646
64.0,0.33465972542762756
72.0,0.3297680914402008
80.0,0.3252064883708954
88.0,0.32093510031700134
96.0,0.31717705726623535
104.0,0.31348833441734314
112.0,0.3095138370990753
120.0,0.3049931824207306
128.0,0.30036357045173645
144.0,0.29057061672210693
160.0,0.28059035539627075
176.0,0.27095797657966614
192.0,0.26190152764320374
208.0,0.25303274393081665
224.0,0.24420368671417236
240.0,0.23601122200489044
256.0,0.22722680866718292
288.0,0.21069714426994324
320.0,0.19570717215538025
352.0,0.18207001686096191
384.0,0.1656244546175003
416.0,0.15075995028018951
448.0,0.13778306543827057
480.0,0.12526364624500275
512.0,0.11411845684051514
576.0,0.09168005734682083
640.0,0.06823473423719406
704.0,0.044817496091127396
768.0,0.018504366278648376
832.0,-0.00549849821254611
896.0,-0.02382284589111805
960.0,-0.03663376718759537
1024.0,-0.04309534281492233
1152.0,-0.03991440311074257
1280.0,-0.030876297503709793
1408.0,-0.013010312803089619
1536.0,0.000265262060565874
1664.0,-0.0005052654887549579
1792.0,0.002796230372041464
1920.0,-0.00016215883078984916
2048.0,-0.008774650283157825
2304.0,-0.028547609224915504
2560.0,-0.011743538081645966
2816.0,0.038365863263607025
3072.0,0.08100279420614243
3328.0,0.09116720408201218
3584.0,0.011928187683224678
3840.0,-0.05095721036195755
4096.0,-0.10227156430482864
4608.0,-0.11642823368310928
5120.0,-0.09623872488737106
5632.0,-0.07974442094564438
6144.0,-0.016901269555091858
6656.0,0.007338079158216715
7168.0,-0.026860075071454048
7680.0,-0.09254821389913559
8192.0,-0.14241012930870056
9216.0,0.060333047062158585
10240.0,0.05399186164140701
11264.0,0.012906762771308422
12288.0,0.09495949745178223
13312.0,0.09064135700464249
14336.0,-0.18869079649448395
end
