version,3.0
numOfCh,1
type,point
parent_name,dirty_0dot069-0dot01
ch_type,1_1
kcount,1
numberNandB,1
brightnessNandB,1
carpet pos,0
pc,0
Time (ms),CH1 Auto-Correlation
1.0,0.28935933113098145
2.0,0.28882426023483276
3.0,0.28827551007270813
4.0,0.28773945569992065
5.0,0.28721117973327637
6.0,0.28667011857032776
7.0,0.2861277759075165
8.0,0.2856120765209198
9.0,0.2851068675518036
10.0,0.2846148610115051
11.0,0.28413283824920654
12.0,0.28365641832351685
13.0,0.28319522738456726
14.0,0.2827253043651581
15.0,0.2822549343109131
16.0,0.2817818522453308
18.0,0.2808243930339813
20.0,0.2798689603805542
22.0,0.2789199948310852
24.0,0.278023898601532
26.0,0.27716249227523804
28.0,0.276253879070282
30.0,0.2753206193447113
32.0,0.274404376745224
36.0,0.27256810665130615
40.0,0.27074307203292847
44.0,0.2689763903617859
48.0,0.26720356941223145
52.0,0.26547589898109436
56.0,0.2637077867984772
60.0,0.2618531882762909
64.0,0.2600344717502594
72.0,0.2561180293560028
80.0,0.2517787218093872
88.0,0.24737653136253357
96.0,0.24314135313034058
104.0,0.23909339308738708
112.0,0.23532280325889587
120.0,0.2316754162311554
128.0,0.22822721302509308
144.0,0.22122414410114288
160.0,0.21448375284671783
176.0,0.20803014934062958
192.0,0.20223291218280792
208.0,0.19715029001235962
224.0,0.1922750473022461
240.0,0.18755567073822021
256.0,0.18372634053230286
288.0,0.17643623054027557
320.0,0.1691049486398697
352.0,0.1637524515390396
384.0,0.1588415801525116
416.0,0.15505573153495789
448.0,0.15123790502548218
480.0,0.14623099565505981
512.0,0.14074942469596863
576.0,0.12898539006710052
640.0,0.1186690628528595
704.0,0.10961060225963593
768.0,0.10435659438371658
832.0,0.09811510145664215
896.0,0.09008051455020905
960.0,0.08559249341487885
1024.0,0.08198101073503494
1152.0,0.07341282069683075
1280.0,0.06467226892709732
1408.0,0.06312095373868942
1536.0,0.060043998062610626
1664.0,0.0506688691675663
1792.0,0.038742512464523315
1920.0,0.024566497653722763
2048.0,0.012033944949507713
2304.0,-0.013821057043969631
2560.0,-0.029222287237644196
2816.0,-0.026998160406947136
3072.0,-0.00012973764387425035
3328.0,0.02598675526678562
3584.0,0.03347396478056908
3840.0,0.024869322776794434
4096.0,0.04046804830431938
4608.0,0.05572370067238808
5120.0,0.0526544451713562
5632.0,0.048986777663230896
6144.0,-0.004599317442625761
6656.0,-0.054568927735090256
7168.0,-0.0779462680220604
7680.0,-0.0533159039914608
8192.0,-0.07924874871969223
9216.0,-0.04748886823654175
10240.0,-0.07764595746994019
11264.0,-0.13239014148712158
12288.0,-0.14632773399353027
13312.0,-0.17003701627254486
14336.0,-0.1726529747247696
end
