version,3.0
numOfCh,1
type,point
parent_name,dirty_0dot069-0dot01
ch_type,1_1
kcount,1
numberNandB,1
brightnessNandB,1
carpet pos,0
pc,0
Time (ms),CH1 Auto-Correlation
1.0,0.14386701583862305
2.0,0.143344447016716
3.0,0.1428491175174713
4.0,0.1423242688179016
5.0,0.14180822670459747
6.0,0.14128077030181885
7.0,0.14074231684207916
8.0,0.14017672836780548
9.0,0.13959631323814392
10.0,0.13901670277118683
11.0,0.1384436935186386
12.0,0.1378811150789261
13.0,0.13733448088169098
14.0,0.13683052361011505
15.0,0.13634935021400452
16.0,0.13583803176879883
18.0,0.13481195271015167
20.0,0.13380321860313416
22.0,0.13281406462192535
24.0,0.1318066269159317
26.0,0.13076359033584595
28.0,0.1296844333410263
30.0,0.12857350707054138
32.0,0.12748712301254272
36.0,0.12529464066028595
40.0,0.12313272058963776
44.0,0.12105727195739746
48.0,0.11904938519001007
52.0,0.11695320159196854
56.0,0.11478934437036514
60.0,0.11255306005477905
64.0,0.11027224361896515
72.0,0.10602520406246185
80.0,0.10212496668100357
88.0,0.09818751364946365
96.0,0.09415165334939957
104.0,0.0904461070895195
112.0,0.08688899129629135
120.0,0.08342110365629196
128.0,0.08005477488040924
144.0,0.07227340340614319
160.0,0.06301883608102798
176.0,0.054382506757974625
192.0,0.04724184051156044
208.0,0.04150751233100891
224.0,0.03662997484207153
240.0,0.03232717514038086
256.0,0.028531905263662338
288.0,0.02152172289788723
320.0,0.015444526448845863
352.0,0.010562038980424404
384.0,0.007295920979231596
416.0,0.005601056385785341
448.0,0.004939001984894276
480.0,0.005187194794416428
512.0,0.005694998893886805
576.0,0.0061961025930941105
640.0,0.0034153745509684086
704.0,-0.0006246741395443678
768.0,-0.004363236948847771
832.0,-0.007357442751526833
896.0,-0.00863240472972393
960.0,-0.009334820322692394
1024.0,-0.01038437895476818
1152.0,-0.018109051510691643
1280.0,-0.027356158941984177
1408.0,-0.02517864853143692
1536.0,-0.02021363005042076
1664.0,-0.01654352992773056
1792.0,-0.01173896249383688
1920.0,-0.013846579939126968
2048.0,-0.01731211505830288
2304.0,0.006021095905452967
2560.0,0.027841033414006233
2816.0,0.017283599823713303
3072.0,0.010062051936984062
3328.0,0.017906682565808296
3584.0,0.009411257691681385
3840.0,0.00437032338231802
4096.0,-0.005815440323203802
4608.0,-0.014947559684515
5120.0,-0.022697169333696365
5632.0,-0.003175807185471058
6144.0,-0.003240114776417613
6656.0,0.01953970454633236
7168.0,-0.018987109884619713
7680.0,-0.03125753626227379
8192.0,-0.013069326058030128
9216.0,0.021767206490039825
10240.0,-0.02373759262263775
11264.0,0.011217683553695679
12288.0,-0.004202856216579676
13312.0,0.018836762756109238
14336.0,-0.009289484471082687
end
