version,3.0
numOfCh,1
type,point
parent_name,dirty_0dot069-0dot01
ch_type,1_1
kcount,1
numberNandB,1
brightnessNandB,1
carpet pos,0
pc,0
Time (ms),CH1 Auto-Correlation
1.0,0.027079543098807335
2.0,0.026893578469753265
3.0,0.02671288698911667
4.0,0.026536783203482628
5.0,0.026365598663687706
6.0,0.026195529848337173
7.0,0.02602466568350792
8.0,0.025860100984573364
9.0,0.025695722550153732
10.0,0.025526493787765503
11.0,0.025359418243169785
12.0,0.025194786489009857
13.0,0.02502862736582756
14.0,0.02486197091639042
15.0,0.024694105610251427
16.0,0.024528855457901955
18.0,0.024197697639465332
20.0,0.023873882368206978
22.0,0.02355855703353882
24.0,0.02325376123189926
26.0,0.02294928953051567
28.0,0.022651392966508865
30.0,0.0223519429564476
32.0,0.022061429917812347
36.0,0.02152024768292904
40.0,0.021004147827625275
44.0,0.020511168986558914
48.0,0.020046193152666092
52.0,0.019613932818174362
56.0,0.019191410392522812
60.0,0.01877855882048607
64.0,0.018369397148489952
72.0,0.01762208715081215
80.0,0.016919033601880074
88.0,0.016226470470428467
96.0,0.015599392354488373
104.0,0.015069727785885334
112.0,0.014596018940210342
120.0,0.014176861383020878
128.0,0.013785419054329395
144.0,0.01310676895081997
160.0,0.012414633296430111
176.0,0.011813347227871418
192.0,0.011427908204495907
208.0,0.011070366017520428
224.0,0.010737727396190166
240.0,0.010503065772354603
256.0,0.010449277237057686
288.0,0.01038349512964487
320.0,0.010203804820775986
352.0,0.00997188314795494
384.0,0.009691962040960789
416.0,0.009220913052558899
448.0,0.009177999570965767
480.0,0.00909939594566822
512.0,0.009262955747544765
576.0,0.00842883437871933
640.0,0.007452338933944702
704.0,0.006241991184651852
768.0,0.005178926978260279
832.0,0.005797675810754299
896.0,0.006201772019267082
960.0,0.005597792100161314
1024.0,0.004577320534735918
1152.0,0.0036069140769541264
1280.0,0.0028689862228929996
1408.0,0.0015442129224538803
1536.0,0.0009228892158716917
1664.0,3.067740544793196e-05
1792.0,-0.0011936943046748638
1920.0,-0.0009420249261893332
2048.0,0.00012278417125344276
2304.0,0.00010136569471796975
2560.0,-0.0017093645874410868
2816.0,-0.0036647149827331305
3072.0,-0.004645755514502525
3328.0,-0.004020740278065205
3584.0,-0.004543935880064964
3840.0,-0.0031396462582051754
4096.0,-0.002887515816837549
4608.0,0.0010286729084327817
5120.0,0.0008621224551461637
5632.0,-0.0010842705378308892
6144.0,-0.003583180718123913
6656.0,-0.008501812815666199
7168.0,-0.00907263532280922
7680.0,-0.007254950702190399
8192.0,-0.003991191741079092
9216.0,-0.0001748786453390494
10240.0,0.004733662120997906
11264.0,0.002331195864826441
12288.0,-0.0013118177885189652
13312.0,0.002061391482129693
14336.0,0.003400667803362012
end
