version,3.0
numOfCh,1
type,point
parent_name,dirty_0dot069-0dot01
ch_type,1_1
kcount,1
numberNandB,1
brightnessNandB,1
carpet pos,0
pc,0
Time (ms),CH1 Auto-Correlation
1.0,0.5987399816513062
2.0,0.5982344150543213
3.0,0.5977272391319275
4.0,0.5971935391426086
5.0,0.5966689586639404
6.0,0.596153974533081
7.0,0.5956248641014099
8.0,0.595090389251709
9.0,0.5945421457290649
10.0,0.5939775705337524
11.0,0.5933976769447327
12.0,0.5928247570991516
13.0,0.5922551155090332
14.0,0.5916858911514282
15.0,0.5911341905593872
16.0,0.590582549571991
18.0,0.5895930528640747
20.0,0.5886379480361938
22.0,0.5877102613449097
24.0,0.5867251753807068
26.0,0.58576500415802
28.0,0.5848149657249451
30.0,0.5838620066642761
32.0,0.5829155445098877
36.0,0.5809102654457092
40.0,0.578824520111084
44.0,0.5766443610191345
48.0,0.5743730068206787
52.0,0.5719782114028931
56.0,0.5696943402290344
60.0,0.5674812197685242
64.0,0.5653505921363831
72.0,0.5610123872756958
80.0,0.5565128326416016
88.0,0.5519421100616455
96.0,0.5475513339042664
104.0,0.5436224937438965
112.0,0.5402721166610718
120.0,0.537598192691803
128.0,0.5352897047996521
144.0,0.530599057674408
160.0,0.5270451903343201
176.0,0.5247505903244019
192.0,0.5237206816673279
208.0,0.5229727625846863
224.0,0.5214746594429016
240.0,0.5195805430412292
256.0,0.5175132751464844
288.0,0.5120426416397095
320.0,0.5058008432388306
352.0,0.4969017803668976
384.0,0.4875439405441284
416.0,0.48054710030555725
448.0,0.4766966700553894
480.0,0.4755565822124481
512.0,0.47482824325561523
576.0,0.465015172958374
640.0,0.4532034397125244
704.0,0.44087454676628113
768.0,0.42769646644592285
832.0,0.42101094126701355
896.0,0.42321106791496277
960.0,0.4226057827472687
1024.0,0.4112131595611572
1152.0,0.39333048462867737
1280.0,0.3759962022304535
1408.0,0.3392631411552429
1536.0,0.31069737672805786
1664.0,0.2784257233142853
1792.0,0.2683860957622528
1920.0,0.24662674963474274
2048.0,0.22391389310359955
2304.0,0.1861097365617752
2560.0,0.14331500232219696
2816.0,0.10121279209852219
3072.0,0.054240673780441284
3328.0,0.014732958748936653
3584.0,-0.022089337930083275
3840.0,-0.0388743132352829
4096.0,-0.04614314064383507
4608.0,-0.07264166325330734
5120.0,-0.0986744686961174
5632.0,-0.12222588807344437
6144.0,-0.13702523708343506
6656.0,-0.13547825813293457
7168.0,-0.12514273822307587
7680.0,-0.12659913301467896
8192.0,-0.1336096078157425
9216.0,-0.1908387988805771
10240.0,-0.26809030771255493
11264.0,-0.3275585472583771
12288.0,-0.41422000527381897
13312.0,-0.44490355253219604
14336.0,-0.4386047124862671
end
