version,3.0
numOfCh,1
type,point
parent_name,dirty_0dot069-0dot01
ch_type,1_1
kcount,1
numberNandB,1
brightnessNandB,1
carpet pos,0
pc,0
Time (ms),CH1 Auto-Correlation
1.0,0.35132065415382385
2.0,0.3507172465324402
3.0,0.35010379552841187
4.0,0.3494839072227478
5.0,0.34885674715042114
6.0,0.3482247292995453
7.0,0.3475929796695709
8.0,0.3469509184360504
9.0,0.3463365435600281
10.0,0.3456871807575226
11.0,0.34503474831581116
12.0,0.34439563751220703
13.0,0.34378138184547424
14.0,0.34316667914390564
15.0,0.34254202246665955
16.0,0.34189948439598083
18.0,0.34065374732017517
20.0,0.3394772708415985
22.0,0.3383270800113678
24.0,0.3371765613555908
26.0,0.33605241775512695
28.0,0.3350050151348114
30.0,0.33403998613357544
32.0,0.33310380578041077
36.0,0.3312867283821106
40.0,0.32954445481300354
44.0,0.32790452241897583
48.0,0.3263840973377228
52.0,0.3248884975910187
56.0,0.32336360216140747
60.0,0.3218655586242676
64.0,0.3203197717666626
72.0,0.31680747866630554
80.0,0.31319931149482727
88.0,0.3095785081386566
96.0,0.30597415566444397
104.0,0.3025711178779602
112.0,0.2995677590370178
120.0,0.29682114720344543
128.0,0.29439663887023926
144.0,0.2889723777770996
160.0,0.28390300273895264
176.0,0.27957841753959656
192.0,0.2758304178714752
208.0,0.27236735820770264
224.0,0.2688222825527191
240.0,0.26507994532585144
256.0,0.26158520579338074
288.0,0.25339365005493164
320.0,0.2456236630678177
352.0,0.2374269813299179
384.0,0.22907765209674835
416.0,0.218929260969162
448.0,0.21091055870056152
480.0,0.2050650268793106
512.0,0.20002596080303192
576.0,0.1976543366909027
640.0,0.1937319040298462
704.0,0.18479584157466888
768.0,0.17094258964061737
832.0,0.15998908877372742
896.0,0.15679816901683807
960.0,0.15103396773338318
1024.0,0.14230114221572876
1152.0,0.1281970888376236
1280.0,0.12126574665307999
1408.0,0.1181858628988266
1536.0,0.11818930506706238
1664.0,0.12458720803260803
1792.0,0.11740028858184814
1920.0,0.10745730251073837
2048.0,0.09737614542245865
2304.0,0.1025163009762764
2560.0,0.0936734676361084
2816.0,0.08070822805166245
3072.0,0.07951667159795761
3328.0,0.07268372923135757
3584.0,0.0677637830376625
3840.0,0.06680800020694733
4096.0,0.07303935289382935
4608.0,0.07361524552106857
5120.0,0.03174300864338875
5632.0,-0.04385540634393692
6144.0,-0.10323268920183182
6656.0,-0.12335648387670517
7168.0,-0.14931942522525787
7680.0,-0.1710416078567505
8192.0,-0.1601819545030594
9216.0,-0.1757735311985016
10240.0,-0.17788268625736237
11264.0,-0.1522672027349472
12288.0,-0.1438729166984558
13312.0,-0.18711180984973907
14336.0,-0.14788441359996796
end
