version,3.0
numOfCh,1
type,point
parent_name,dirty_0dot069-0dot01
ch_type,1_1
kcount,1
numberNandB,1
brightnessNandB,1
carpet pos,0
pc,0
Time (ms),CH1 Auto-Correlation
1.0,0.33242297172546387
2.0,0.33187294006347656
3.0,0.3313068747520447
4.0,0.33075830340385437
5.0,0.330209344625473
6.0,0.3296707272529602
7.0,0.32913070917129517
8.0,0.3285910189151764
9.0,0.32804083824157715
10.0,0.3274850845336914
11.0,0.3269169330596924
12.0,0.3263787627220154
13.0,0.32583487033843994
14.0,0.3252837657928467
15.0,0.32474589347839355
16.0,0.3242233395576477
18.0,0.3231782019138336
20.0,0.3220888078212738
22.0,0.3209788501262665
24.0,0.3198617696762085
26.0,0.3187791109085083
28.0,0.3177446126937866
30.0,0.31669938564300537
32.0,0.3156587481498718
36.0,0.3136689066886902
40.0,0.31176483631134033
44.0,0.3098057508468628
48.0,0.30783870816230774
52.0,0.3058355748653412
56.0,0.30376872420310974
60.0,0.30166149139404297
64.0,0.2995288372039795
72.0,0.2954901456832886
80.0,0.29144155979156494
88.0,0.2874341607093811
96.0,0.28371813893318176
104.0,0.2801664471626282
112.0,0.2768307626247406
120.0,0.2740676701068878
128.0,0.27108344435691833
144.0,0.264726847410202
160.0,0.25815528631210327
176.0,0.25077512860298157
192.0,0.24363325536251068
208.0,0.23671956360340118
224.0,0.22956624627113342
240.0,0.22304460406303406
256.0,0.21694353222846985
288.0,0.20553135871887207
320.0,0.1956678032875061
352.0,0.18685947358608246
384.0,0.17993894219398499
416.0,0.17587383091449738
448.0,0.17407357692718506
480.0,0.17224831879138947
512.0,0.16791805624961853
576.0,0.15773862600326538
640.0,0.14693723618984222
704.0,0.13999462127685547
768.0,0.13637030124664307
832.0,0.13361357152462006
896.0,0.13572224974632263
960.0,0.1398044228553772
1024.0,0.14121666550636292
1152.0,0.13298161327838898
1280.0,0.11145593225955963
1408.0,0.09785377234220505
1536.0,0.10023317486047745
1664.0,0.10268060863018036
1792.0,0.09766142815351486
1920.0,0.09427624195814133
2048.0,0.0946919322013855
2304.0,0.07863136380910873
2560.0,0.0808742493391037
2816.0,0.08195412158966064
3072.0,0.045312147587537766
3328.0,0.01309510413557291
3584.0,-0.004514183383435011
3840.0,0.004952054936438799
4096.0,-0.030684566125273705
4608.0,-0.04032308608293533
5120.0,-0.04032275080680847
5632.0,-0.08238715678453445
6144.0,-0.10912375897169113
6656.0,-0.09188245236873627
7168.0,-0.08983061462640762
7680.0,-0.07258588820695877
8192.0,-0.033259615302085876
9216.0,-0.059188976883888245
10240.0,-0.11510536819696426
11264.0,-0.05007435008883476
12288.0,-0.14765341579914093
13312.0,-0.13499394059181213
14336.0,-0.08084549754858017
end
