version,3.0
numOfCh,1
type,point
parent_name,dirty_0dot069-0dot01
ch_type,1_1
kcount,1
numberNandB,1
brightnessNandB,1
carpet pos,0
pc,0
Time (ms),CH1 Auto-Correlation
1.0,0.8090554475784302
2.0,0.8084091544151306
3.0,0.8077704906463623
4.0,0.8071174621582031
5.0,0.806455671787262
6.0,0.8058125376701355
7.0,0.8051626086235046
8.0,0.8045327067375183
9.0,0.803921639919281
10.0,0.8032835125923157
11.0,0.8026418685913086
12.0,0.80198073387146
13.0,0.8013213276863098
14.0,0.8006609678268433
15.0,0.799997866153717
16.0,0.79935222864151
18.0,0.7980479598045349
20.0,0.7967129349708557
22.0,0.7954118251800537
24.0,0.7941381335258484
26.0,0.7928367853164673
28.0,0.7915425300598145
30.0,0.7902041077613831
32.0,0.7887912392616272
36.0,0.7859401106834412
40.0,0.7831223011016846
44.0,0.7805072665214539
48.0,0.7779150605201721
52.0,0.775306224822998
56.0,0.7727827429771423
60.0,0.7701371908187866
64.0,0.767296314239502
72.0,0.7611367702484131
80.0,0.7543320059776306
88.0,0.7472831606864929
96.0,0.7402220964431763
104.0,0.7336986660957336
112.0,0.7274410128593445
120.0,0.7208606600761414
128.0,0.7146236896514893
144.0,0.7023930549621582
160.0,0.6890150308609009
176.0,0.6761033535003662
192.0,0.6630422472953796
208.0,0.6486876010894775
224.0,0.6332505941390991
240.0,0.6162707805633545
256.0,0.5989161729812622
288.0,0.5608132481575012
320.0,0.5228523015975952
352.0,0.4895898997783661
384.0,0.45867717266082764
416.0,0.43174275755882263
448.0,0.4083690345287323
480.0,0.38822728395462036
512.0,0.37262001633644104
576.0,0.34745895862579346
640.0,0.3268633186817169
704.0,0.31135910749435425
768.0,0.3020249903202057
832.0,0.2862637937068939
896.0,0.26147085428237915
960.0,0.24352969229221344
1024.0,0.22396008670330048
1152.0,0.16792084276676178
1280.0,0.11356627196073532
1408.0,0.06069596856832504
1536.0,0.01765424758195877
1664.0,-0.01267869770526886
1792.0,-0.03517467901110649
1920.0,-0.05800295248627663
2048.0,-0.08028405159711838
2304.0,-0.12444550544023514
2560.0,-0.1417091339826584
2816.0,-0.1514466255903244
3072.0,-0.17949418723583221
3328.0,-0.19807790219783783
3584.0,-0.19603241980075836
3840.0,-0.1950736939907074
4096.0,-0.21730633080005646
4608.0,-0.24068665504455566
5120.0,-0.25831279158592224
5632.0,-0.21482089161872864
6144.0,-0.16016273200511932
6656.0,-0.11452999711036682
7168.0,-0.1202792376279831
7680.0,-0.1016199067234993
8192.0,-0.1031070202589035
9216.0,0.3380048871040344
10240.0,0.5522252321243286
11264.0,0.09107805043458939
12288.0,-0.04856162518262863
13312.0,-0.17298045754432678
14336.0,-0.2516457438468933
end
