version,3.0
numOfCh,1
type,point
parent_name,dirty_0dot069-0dot01
ch_type,1_1
kcount,1
numberNandB,1
brightnessNandB,1
carpet pos,0
pc,0
Time (ms),CH1 Auto-Correlation
1.0,0.11293108016252518
2.0,0.11242887377738953
3.0,0.11190789937973022
4.0,0.11138161271810532
5.0,0.11086760461330414
6.0,0.11035213619470596
7.0,0.10986151546239853
8.0,0.10941839218139648
9.0,0.10896531492471695
10.0,0.1085524782538414
11.0,0.10810591280460358
12.0,0.10763424634933472
13.0,0.10717320442199707
14.0,0.10669264942407608
15.0,0.10621710121631622
16.0,0.10574834048748016
18.0,0.10484188050031662
20.0,0.10397865623235703
22.0,0.1031489223241806
24.0,0.10230748355388641
26.0,0.1014183908700943
28.0,0.10052213817834854
30.0,0.09966394305229187
32.0,0.0988171398639679
36.0,0.09729490429162979
40.0,0.09581378847360611
44.0,0.09430158883333206
48.0,0.09290368854999542
52.0,0.09155267477035522
56.0,0.09015064686536789
60.0,0.08882027864456177
64.0,0.08761877566576004
72.0,0.08531408756971359
80.0,0.08356649428606033
88.0,0.0824958086013794
96.0,0.08166016638278961
104.0,0.08069446682929993
112.0,0.07988201826810837
120.0,0.07911735028028488
128.0,0.07843104749917984
144.0,0.07680052518844604
160.0,0.07409708946943283
176.0,0.07073074579238892
192.0,0.06775610148906708
208.0,0.06592273712158203
224.0,0.06510386615991592
240.0,0.0645730271935463
256.0,0.06366445869207382
288.0,0.06367646157741547
320.0,0.06374409049749374
352.0,0.06274162977933884
384.0,0.05905965715646744
416.0,0.05474863946437836
448.0,0.05181371420621872
480.0,0.0513576939702034
512.0,0.049344614148139954
576.0,0.04387742280960083
640.0,0.03905658423900604
704.0,0.03402738273143768
768.0,0.026519400998950005
832.0,0.024085238575935364
896.0,0.020724844187498093
960.0,0.01645595394074917
1024.0,0.013938996009528637
1152.0,0.0012470828369259834
1280.0,-0.008953401818871498
1408.0,-0.014062291011214256
1536.0,-0.01863730140030384
1664.0,-0.02494947612285614
1792.0,-0.026215052232146263
1920.0,-0.029653387144207954
2048.0,-0.029985180124640465
2304.0,-0.026919476687908173
2560.0,-0.03336823359131813
2816.0,-0.02737821824848652
3072.0,-0.028432179242372513
3328.0,-0.02533794194459915
3584.0,-0.026477238163352013
3840.0,-0.01713714562356472
4096.0,-0.0075521222315728664
4608.0,-0.0019669141620397568
5120.0,0.008148080669343472
5632.0,0.0061059435829520226
6144.0,0.00016410909302067012
6656.0,-0.010163739323616028
7168.0,-0.0047388700768351555
7680.0,0.0016658249078318477
8192.0,0.02176811918616295
9216.0,0.019061384722590446
10240.0,0.005995798856019974
11264.0,0.00626142043620348
12288.0,-0.030237356200814247
13312.0,-0.023519286885857582
14336.0,-0.008086244575679302
end
