version,3.0
numOfCh,1
type,point
parent_name,dirty_0dot069-0dot01
ch_type,1_1
kcount,1
numberNandB,1
brightnessNandB,1
carpet pos,0
pc,0
Time (ms),CH1 Auto-Correlation
1.0,0.4139305353164673
2.0,0.41346973180770874
3.0,0.4129762351512909
4.0,0.4124990403652191
5.0,0.41201481223106384
6.0,0.4115084409713745
7.0,0.4109800159931183
8.0,0.4104527235031128
9.0,0.40993261337280273
10.0,0.409408837556839
11.0,0.408870667219162
12.0,0.4083539545536041
13.0,0.4078389108181
14.0,0.40732836723327637
15.0,0.40682825446128845
16.0,0.4063423275947571
18.0,0.405447393655777
20.0,0.4046280086040497
22.0,0.4038698375225067
24.0,0.40311357378959656
26.0,0.4023503065109253
28.0,0.401581734418869
30.0,0.40081197023391724
32.0,0.4000580310821533
36.0,0.3986341655254364
40.0,0.3972993791103363
44.0,0.395891010761261
48.0,0.3944961130619049
52.0,0.39314591884613037
56.0,0.3918125629425049
60.0,0.39043712615966797
64.0,0.3890536427497864
72.0,0.385936975479126
80.0,0.38286295533180237
88.0,0.3801911771297455
96.0,0.3779296576976776
104.0,0.3756858706474304
112.0,0.373008668422699
120.0,0.370343953371048
128.0,0.3677768111228943
144.0,0.3624667227268219
160.0,0.3568388521671295
176.0,0.35080984234809875
192.0,0.34459593892097473
208.0,0.3394685387611389
224.0,0.33442223072052
240.0,0.3286779820919037
256.0,0.3231838047504425
288.0,0.3156485855579376
320.0,0.3087143898010254
352.0,0.3012530207633972
384.0,0.29197534918785095
416.0,0.28193461894989014
448.0,0.2719823122024536
480.0,0.26158225536346436
512.0,0.24945911765098572
576.0,0.22606810927391052
640.0,0.20726598799228668
704.0,0.19412221014499664
768.0,0.18400973081588745
832.0,0.178252175450325
896.0,0.17242230474948883
960.0,0.1665949523448944
1024.0,0.16639630496501923
1152.0,0.16563400626182556
1280.0,0.16855788230895996
1408.0,0.167308509349823
1536.0,0.1525701880455017
1664.0,0.1373826265335083
1792.0,0.12620708346366882
1920.0,0.11716806888580322
2048.0,0.11642222851514816
2304.0,0.12775041162967682
2560.0,0.13410130143165588
2816.0,0.11061003804206848
3072.0,0.04945865646004677
3328.0,-0.014626861549913883
3584.0,-0.050200242549180984
3840.0,-0.06211342662572861
4096.0,-0.07129798084497452
4608.0,-0.07509971410036087
5120.0,-0.06633682548999786
5632.0,-0.06733221560716629
6144.0,-0.04990244284272194
6656.0,-0.026929669082164764
7168.0,-0.03894222900271416
7680.0,-0.04176368564367294
8192.0,-0.044179514050483704
9216.0,-0.06412720680236816
10240.0,-0.11943832784891129
11264.0,-0.1856575757265091
12288.0,-0.24961456656455994
13312.0,-0.2553022801876068
14336.0,-0.3230621814727783
end
