version,3.0
numOfCh,1
type,point
parent_name,dirty_0dot069-0dot01
ch_type,1_1
kcount,1
numberNandB,1
brightnessNandB,1
carpet pos,0
pc,0
Time (ms),CH1 Auto-Correlation
1.0,0.28756463527679443
2.0,0.2869616746902466
3.0,0.2863365709781647
4.0,0.28571444749832153
5.0,0.2850998044013977
6.0,0.2844669818878174
7.0,0.2838349938392639
8.0,0.2832010090351105
9.0,0.2825644612312317
10.0,0.281945139169693
11.0,0.28134647011756897
12.0,0.2807452082633972
13.0,0.2801680564880371
14.0,0.27960026264190674
15.0,0.2790663540363312
16.0,0.27853983640670776
18.0,0.2774496078491211
20.0,0.2763424515724182
22.0,0.2751787602901459
24.0,0.2739506661891937
26.0,0.2727821171283722
28.0,0.2716525197029114
30.0,0.27054673433303833
32.0,0.26944854855537415
36.0,0.26731255650520325
40.0,0.2654148042201996
44.0,0.263439416885376
48.0,0.26147887110710144
52.0,0.25962337851524353
56.0,0.25759798288345337
60.0,0.2555673122406006
64.0,0.2535993456840515
72.0,0.24980752170085907
80.0,0.24574287235736847
88.0,0.2415686398744583
96.0,0.23755021393299103
104.0,0.23375634849071503
112.0,0.23009921610355377
120.0,0.22669872641563416
128.0,0.22330474853515625
144.0,0.2161707729101181
160.0,0.20884881913661957
176.0,0.20127354562282562
192.0,0.19356977939605713
208.0,0.18582168221473694
224.0,0.1777401715517044
240.0,0.16959938406944275
256.0,0.16149388253688812
288.0,0.14568650722503662
320.0,0.13279087841510773
352.0,0.12307505309581757
384.0,0.1166401207447052
416.0,0.10890853404998779
448.0,0.09921099245548248
480.0,0.09095349907875061
512.0,0.08401235193014145
576.0,0.07535330951213837
640.0,0.06345006078481674
704.0,0.05164649710059166
768.0,0.044590745121240616
832.0,0.03799869865179062
896.0,0.03351361304521561
960.0,0.030689619481563568
1024.0,0.026819253340363503
1152.0,0.023844867944717407
1280.0,0.027018094435334206
1408.0,0.034842636436223984
1536.0,0.0423860102891922
1664.0,0.055701956152915955
1792.0,0.07058610767126083
1920.0,0.0767565444111824
2048.0,0.08000664412975311
2304.0,0.05787690356373787
2560.0,0.03982041776180267
2816.0,0.04603671655058861
3072.0,0.05022067204117775
3328.0,0.05586769059300423
3584.0,0.017319314181804657
3840.0,-0.01305196899920702
4096.0,0.0013327979249879718
4608.0,-0.0076944222673773766
5120.0,-0.04491889476776123
5632.0,-0.035624004900455475
6144.0,0.010217944160103798
6656.0,0.01898934319615364
7168.0,-0.01592135988175869
7680.0,0.019727330654859543
8192.0,-0.025695228949189186
9216.0,-0.009586459025740623
10240.0,-0.05011193826794624
11264.0,-0.13869845867156982
12288.0,-0.15611927211284637
13312.0,-0.1665264368057251
14336.0,-0.22230404615402222
end
