version,3.0
numOfCh,1
type,point
parent_name,dirty_0dot069-0dot01
ch_type,1_1
kcount,1
numberNandB,1
brightnessNandB,1
carpet pos,0
pc,0
Time (ms),CH1 Auto-Correlation
1.0,0.03965649753808975
2.0,0.03943009674549103
3.0,0.039207737892866135
4.0,0.03899088129401207
5.0,0.038775648921728134
6.0,0.03856677561998367
7.0,0.038366273045539856
8.0,0.03816406428813934
9.0,0.03796301782131195
10.0,0.03776294365525246
11.0,0.03757083788514137
12.0,0.037381865084171295
13.0,0.03719586133956909
14.0,0.03701749071478844
15.0,0.036838822066783905
16.0,0.03666730225086212
18.0,0.03632454201579094
20.0,0.03598063439130783
22.0,0.035655613988637924
24.0,0.035341471433639526
26.0,0.035045355558395386
28.0,0.03477562218904495
30.0,0.034522201865911484
32.0,0.03425661846995354
36.0,0.033721957355737686
40.0,0.03324107453227043
44.0,0.03277157247066498
48.0,0.0322859100997448
52.0,0.0317671112716198
56.0,0.03129646182060242
60.0,0.030917203053832054
64.0,0.03057328425347805
72.0,0.02985280007123947
80.0,0.02907596156001091
88.0,0.028254607692360878
96.0,0.027498409152030945
104.0,0.026795469224452972
112.0,0.026098981499671936
120.0,0.025381827726960182
128.0,0.02470136620104313
144.0,0.023355770856142044
160.0,0.021983567625284195
176.0,0.020662087947130203
192.0,0.01915651187300682
208.0,0.017547473311424255
224.0,0.015932496637105942
240.0,0.014295590110123158
256.0,0.01298455148935318
288.0,0.01094295084476471
320.0,0.009166231378912926
352.0,0.007534226402640343
384.0,0.005968277808278799
416.0,0.004506934899836779
448.0,0.00350167672149837
480.0,0.002462437143549323
512.0,0.0012319996021687984
576.0,-0.000427744525950402
640.0,-0.0024683179799467325
704.0,-0.0037023231852799654
768.0,-0.005049105267971754
832.0,-0.0060928151942789555
896.0,-0.007340141572058201
960.0,-0.007646508514881134
1024.0,-0.007077017333358526
1152.0,-0.006097840610891581
1280.0,-0.005247694440186024
1408.0,-0.0034567476250231266
1536.0,-0.0018028521444648504
1664.0,-0.00367475557141006
1792.0,-0.005900188349187374
1920.0,-0.007156996056437492
2048.0,-0.007933011278510094
2304.0,-0.007285578176379204
2560.0,0.0033276230096817017
2816.0,0.009576722979545593
3072.0,0.007296236231923103
3328.0,0.000782658054959029
3584.0,-0.0037672731559723616
3840.0,-0.0034106364473700523
4096.0,0.004666290245950222
4608.0,0.0024954178370535374
5120.0,-0.008231270126998425
5632.0,-0.00664482731372118
6144.0,0.004430963657796383
6656.0,-0.0008199402946047485
7168.0,0.007003133650869131
7680.0,0.0003059646987821907
8192.0,-0.006622590124607086
9216.0,-0.007048589177429676
10240.0,0.006480836775153875
11264.0,0.006127872969955206
12288.0,-0.01220464613288641
13312.0,0.008131778798997402
14336.0,0.008839789777994156
end
