version,3.0
numOfCh,1
type,point
parent_name,dirty_0dot069-0dot01
ch_type,1_1
kcount,1
numberNandB,1
brightnessNandB,1
carpet pos,0
pc,0
Time (ms),CH1 Auto-Correlation
1.0,0.19378606975078583
2.0,0.19341298937797546
3.0,0.19304172694683075
4.0,0.19268587231636047
5.0,0.19234828650951385
6.0,0.192018061876297
7.0,0.19168619811534882
8.0,0.19135601818561554
9.0,0.1910061538219452
10.0,0.1906684786081314
11.0,0.19033363461494446
12.0,0.18999774754047394
13.0,0.18966297805309296
14.0,0.1893189549446106
15.0,0.18897414207458496
16.0,0.1886231005191803
18.0,0.18789581954479218
20.0,0.18716993927955627
22.0,0.1864735633134842
24.0,0.1858285665512085
26.0,0.18519125878810883
28.0,0.18461079895496368
30.0,0.184046670794487
32.0,0.18347235023975372
36.0,0.18233470618724823
40.0,0.1812821924686432
44.0,0.1802239567041397
48.0,0.17913886904716492
52.0,0.17810484766960144
56.0,0.17707102000713348
60.0,0.1760011464357376
64.0,0.17493249475955963
72.0,0.17267245054244995
80.0,0.17029130458831787
88.0,0.1677837073802948
96.0,0.16522763669490814
104.0,0.1626020073890686
112.0,0.15996991097927094
120.0,0.1573047935962677
128.0,0.15470680594444275
144.0,0.15022258460521698
160.0,0.14618292450904846
176.0,0.14243897795677185
192.0,0.1389985829591751
208.0,0.13578957319259644
224.0,0.13281197845935822
240.0,0.12954135239124298
256.0,0.12619800865650177
288.0,0.12026605755090714
320.0,0.11440601944923401
352.0,0.10666628926992416
384.0,0.10023486614227295
416.0,0.09409239888191223
448.0,0.08777021616697311
480.0,0.08239082992076874
512.0,0.07830699533224106
576.0,0.06972198933362961
640.0,0.06314545124769211
704.0,0.0616903081536293
768.0,0.06436951458454132
832.0,0.07062466442584991
896.0,0.07785284519195557
960.0,0.08340877294540405
1024.0,0.0849456936120987
1152.0,0.08588521182537079
1280.0,0.08432581275701523
1408.0,0.07002858817577362
1536.0,0.05183090642094612
1664.0,0.03371050953865051
1792.0,0.023605911061167717
1920.0,0.017219820991158485
2048.0,0.010555562563240528
2304.0,0.003915995359420776
2560.0,-0.011085386388003826
2816.0,-0.020717212930321693
3072.0,-0.024762600660324097
3328.0,-0.032242532819509506
3584.0,-0.041012972593307495
3840.0,-0.03129531070590019
4096.0,-0.020484639331698418
4608.0,-0.03574833646416664
5120.0,-0.03461354598402977
5632.0,-0.02568569965660572
6144.0,-0.0330396369099617
6656.0,-0.039669882506132126
7168.0,-0.032205980271101
7680.0,-0.03158280998468399
8192.0,-0.03211936354637146
9216.0,-0.02098384127020836
10240.0,-0.03316541761159897
11264.0,-0.0436706468462944
12288.0,-0.012040612287819386
13312.0,0.014307319186627865
14336.0,0.0396888330578804
end
