version,3.0
numOfCh,1
type,point
parent_name,dirty_0dot069-0dot01
ch_type,1_1
kcount,1
numberNandB,1
brightnessNandB,1
carpet pos,0
pc,0
Time (ms),CH1 Auto-Correlation
1.0,0.05120394006371498
2.0,0.050936032086610794
3.0,0.0506780631840229
4.0,0.0504160113632679
5.0,0.050166789442300797
6.0,0.04991456866264343
7.0,0.04966443032026291
8.0,0.04941500723361969
9.0,0.04917242377996445
10.0,0.048932842910289764
11.0,0.04869553819298744
12.0,0.0484568327665329
13.0,0.048232998698949814
14.0,0.04802146181464195
15.0,0.04781240597367287
16.0,0.04760388657450676
18.0,0.047194015234708786
20.0,0.046796128153800964
22.0,0.04639685899019241
24.0,0.046014588326215744
26.0,0.045620083808898926
28.0,0.04523928463459015
30.0,0.04487650841474533
32.0,0.04454054310917854
36.0,0.04387093335390091
40.0,0.04321218654513359
44.0,0.04257005825638771
48.0,0.04192795231938362
52.0,0.041256196796894073
56.0,0.0405878871679306
60.0,0.03996175900101662
64.0,0.03936433419585228
72.0,0.03827658295631409
80.0,0.037143975496292114
88.0,0.03585971146821976
96.0,0.03466789796948433
104.0,0.03351602330803871
112.0,0.03238115832209587
120.0,0.031310610473155975
128.0,0.030131477862596512
144.0,0.027727387845516205
160.0,0.02546563744544983
176.0,0.023399027064442635
192.0,0.02159573882818222
208.0,0.019998803734779358
224.0,0.018576044589281082
240.0,0.017281046137213707
256.0,0.015838533639907837
288.0,0.012980462983250618
320.0,0.011203442700207233
352.0,0.009743493981659412
384.0,0.008246184326708317
416.0,0.007047869730740786
448.0,0.006010873708873987
480.0,0.005513855721801519
512.0,0.004747344180941582
576.0,0.0026314633432775736
640.0,0.0019362408202141523
704.0,0.0020774374715983868
768.0,0.002588040428236127
832.0,0.002334444085136056
896.0,0.0014260829193517566
960.0,0.0005595636903308332
1024.0,0.0009249242139048874
1152.0,0.0023432800080627203
1280.0,0.0018790023168548942
1408.0,-0.002746877958998084
1536.0,-0.0055372570641338825
1664.0,-0.0037937883753329515
1792.0,-0.0007558318902738392
1920.0,0.000768350379075855
2048.0,0.0024738048668950796
2304.0,0.00046479376032948494
2560.0,-0.0014110961928963661
2816.0,-0.004153510555624962
3072.0,-0.0022589045111089945
3328.0,-0.00038001281791366637
3584.0,0.001673669321462512
3840.0,-0.0033040663693100214
4096.0,-0.008402577601373196
4608.0,-0.00886708963662386
5120.0,-0.008460508659482002
5632.0,-0.010939810425043106
6144.0,-0.005553837865591049
6656.0,-3.6598488804884255e-05
7168.0,0.009191880002617836
7680.0,-0.0016624717973172665
8192.0,-0.0033096126280725002
9216.0,0.010366600938141346
10240.0,0.007860231213271618
11264.0,-0.0031454942654818296
12288.0,-0.0056578246876597404
13312.0,-0.0012333325576037169
14336.0,0.0027661488857120275
end
