version,3.0
numOfCh,1
type,point
parent_name,dirty_0dot069-0dot01
ch_type,1_1
kcount,1
numberNandB,1
brightnessNandB,1
carpet pos,0
pc,0
Time (ms),CH1 Auto-Correlation
1.0,0.22379688918590546
2.0,0.22337646782398224
3.0,0.2229606956243515
4.0,0.22251905500888824
5.0,0.22208942472934723
6.0,0.2216612994670868
7.0,0.22122779488563538
8.0,0.22079405188560486
9.0,0.22034792602062225
10.0,0.2198888659477234
11.0,0.21944117546081543
12.0,0.21900303661823273
13.0,0.21854813396930695
14.0,0.21807678043842316
15.0,0.2175935059785843
16.0,0.2171306163072586
18.0,0.21623389422893524
20.0,0.21532684564590454
22.0,0.21444416046142578
24.0,0.213554248213768
26.0,0.2126302272081375
28.0,0.21168997883796692
30.0,0.2107229381799698
32.0,0.2097168266773224
36.0,0.20769771933555603
40.0,0.20561319589614868
44.0,0.20355385541915894
48.0,0.20144622027873993
52.0,0.19938445091247559
56.0,0.19737856090068817
60.0,0.19537164270877838
64.0,0.19340117275714874
72.0,0.1892862468957901
80.0,0.18518739938735962
88.0,0.18129555881023407
96.0,0.1773008406162262
104.0,0.17309850454330444
112.0,0.16867630183696747
120.0,0.16425055265426636
128.0,0.15997076034545898
144.0,0.15178439021110535
160.0,0.14409127831459045
176.0,0.1361585259437561
192.0,0.1271713674068451
208.0,0.11832074075937271
224.0,0.10952667146921158
240.0,0.1012505516409874
256.0,0.09363488107919693
288.0,0.0802898183465004
320.0,0.07032110542058945
352.0,0.062276292592287064
384.0,0.056194256991147995
416.0,0.05163541063666344
448.0,0.048292916268110275
480.0,0.04504797235131264
512.0,0.040434811264276505
576.0,0.03604903444647789
640.0,0.03690606728196144
704.0,0.03730808198451996
768.0,0.04341445863246918
832.0,0.051484204828739166
896.0,0.061992064118385315
960.0,0.06596680730581284
1024.0,0.06324481964111328
1152.0,0.056906528770923615
1280.0,0.046803172677755356
1408.0,0.03405212610960007
1536.0,0.02150193229317665
1664.0,0.01114100031554699
1792.0,0.0004737435665447265
1920.0,-0.01013717520982027
2048.0,-0.017114102840423584
2304.0,-0.013666477054357529
2560.0,-0.004321123473346233
2816.0,-0.003318869974464178
3072.0,-0.0012620148481801152
3328.0,0.0018707218114286661
3584.0,0.017334185540676117
3840.0,0.005093772895634174
4096.0,0.002968583023175597
4608.0,0.01063249446451664
5120.0,0.007461690343916416
5632.0,-0.010524682700634003
6144.0,-0.006258648820221424
6656.0,-0.020724033936858177
7168.0,-0.027013355866074562
7680.0,-0.017068948596715927
8192.0,-0.034840427339076996
9216.0,-0.044199418276548386
10240.0,-0.048142023384571075
11264.0,-0.017305398359894753
12288.0,-0.04104551672935486
13312.0,-0.05526522174477577
14336.0,-0.016447769477963448
end
