version,3.0
numOfCh,1
type,point
parent_name,dirty_0dot069-0dot01
ch_type,1_1
kcount,1
numberNandB,1
brightnessNandB,1
carpet pos,0
pc,0
Time (ms),CH1 Auto-Correlation
1.0,0.2700798809528351
2.0,0.26972103118896484
3.0,0.26936325430870056
4.0,0.2689962089061737
5.0,0.2686300277709961
6.0,0.2682686448097229
7.0,0.2678992748260498
8.0,0.2675316333770752
9.0,0.2671525776386261
10.0,0.2667718231678009
11.0,0.2664075493812561
12.0,0.2660466730594635
13.0,0.26568713784217834
14.0,0.26532506942749023
15.0,0.26497313380241394
16.0,0.26462942361831665
18.0,0.2639433443546295
20.0,0.2632600963115692
22.0,0.26260635256767273
24.0,0.26195576786994934
26.0,0.26131388545036316
28.0,0.26070040464401245
30.0,0.2601189613342285
32.0,0.2595144212245941
36.0,0.2583094537258148
40.0,0.2571588456630707
44.0,0.25605452060699463
48.0,0.25493961572647095
52.0,0.25380751490592957
56.0,0.252658486366272
60.0,0.251442551612854
64.0,0.2501763105392456
72.0,0.24769222736358643
80.0,0.2453102469444275
88.0,0.2431344985961914
96.0,0.24097256362438202
104.0,0.23886102437973022
112.0,0.23690707981586456
120.0,0.2349463403224945
128.0,0.23286622762680054
144.0,0.22876818478107452
160.0,0.22440624237060547
176.0,0.21981126070022583
192.0,0.21560251712799072
208.0,0.21194815635681152
224.0,0.20806241035461426
240.0,0.2038605958223343
256.0,0.1994590163230896
288.0,0.19030405580997467
320.0,0.18195831775665283
352.0,0.17390218377113342
384.0,0.1661345362663269
416.0,0.15874083340168
448.0,0.15056480467319489
480.0,0.14111362397670746
512.0,0.13085812330245972
576.0,0.11445530503988266
640.0,0.09696265310049057
704.0,0.0816747397184372
768.0,0.07164575159549713
832.0,0.06474529951810837
896.0,0.05612490326166153
960.0,0.04616031423211098
1024.0,0.03665315732359886
1152.0,0.024130577221512794
1280.0,0.014938884414732456
1408.0,0.008759243413805962
1536.0,0.012252353131771088
1664.0,0.018331242725253105
1792.0,0.020499208942055702
1920.0,0.015652649104595184
2048.0,0.010454246774315834
2304.0,-0.00857719499617815
2560.0,-0.023343879729509354
2816.0,-0.025967085734009743
3072.0,-0.006992981303483248
3328.0,0.01109157782047987
3584.0,-0.007202387787401676
3840.0,-0.04457191005349159
4096.0,-0.0848565623164177
4608.0,-0.10446847975254059
5120.0,-0.05435832589864731
5632.0,-0.015851512551307678
6144.0,-0.0018786198925226927
6656.0,-0.0038534170016646385
7168.0,-0.014201043173670769
7680.0,-0.03866066038608551
8192.0,-0.05234994366765022
9216.0,-0.07970523089170456
10240.0,-0.07534097135066986
11264.0,0.0029136878438293934
12288.0,0.08001304417848587
13312.0,0.09555699676275253
14336.0,0.09270984679460526
end
