version,3.0
numOfCh,1
type,point
parent_name,dirty_0dot069-0dot01
ch_type,1_1
kcount,1
numberNandB,1
brightnessNandB,1
carpet pos,0
pc,0
Time (ms),CH1 Auto-Correlation
1.0,0.4404340386390686
2.0,0.4399711489677429
3.0,0.43951180577278137
4.0,0.4390566945075989
5.0,0.4386311173439026
6.0,0.4382188320159912
7.0,0.4377976357936859
8.0,0.43737050890922546
9.0,0.43695226311683655
10.0,0.4365271031856537
11.0,0.43612003326416016
12.0,0.4357258379459381
13.0,0.43535056710243225
14.0,0.43498843908309937
15.0,0.43461841344833374
16.0,0.43423256278038025
18.0,0.43344753980636597
20.0,0.43267694115638733
22.0,0.4319104850292206
24.0,0.431144654750824
26.0,0.43035000562667847
28.0,0.42951688170433044
30.0,0.42867428064346313
32.0,0.4278357923030853
36.0,0.4262387454509735
40.0,0.42483729124069214
44.0,0.42347100377082825
48.0,0.4221712648868561
52.0,0.4209492802619934
56.0,0.4196740388870239
60.0,0.4183647334575653
64.0,0.4170745611190796
72.0,0.41449037194252014
80.0,0.4116537272930145
88.0,0.40855857729911804
96.0,0.4056242108345032
104.0,0.40294840931892395
112.0,0.4002935290336609
120.0,0.3979758024215698
128.0,0.3959101140499115
144.0,0.391893595457077
160.0,0.3887697756290436
176.0,0.386568546295166
192.0,0.3847127854824066
208.0,0.3824317753314972
224.0,0.3797917068004608
240.0,0.3772128224372864
256.0,0.3753271996974945
288.0,0.3709523379802704
320.0,0.36509034037590027
352.0,0.3589543104171753
384.0,0.3525458872318268
416.0,0.3452880382537842
448.0,0.33913353085517883
480.0,0.33275577425956726
512.0,0.32539334893226624
576.0,0.31583619117736816
640.0,0.30626001954078674
704.0,0.29024651646614075
768.0,0.27280375361442566
832.0,0.26178035140037537
896.0,0.25054746866226196
960.0,0.2360234558582306
1024.0,0.21637175977230072
1152.0,0.17498567700386047
1280.0,0.146976500749588
1408.0,0.1163417249917984
1536.0,0.09891591221094131
1664.0,0.08527839183807373
1792.0,0.06292196363210678
1920.0,0.046179771423339844
2048.0,0.03527290001511574
2304.0,0.0037516728043556213
2560.0,-0.012613738887012005
2816.0,-0.03799455612897873
3072.0,-0.04769506677985191
3328.0,-0.053317841142416
3584.0,-0.05731906741857529
3840.0,-0.060490481555461884
4096.0,-0.05720178410410881
4608.0,-0.05359691008925438
5120.0,-0.04763013496994972
5632.0,-0.049621984362602234
6144.0,-0.04646363854408264
6656.0,-0.046451907604932785
7168.0,-0.06199059262871742
7680.0,-0.08349314332008362
8192.0,-0.09526107460260391
9216.0,-0.07143578678369522
10240.0,-0.04334409162402153
11264.0,0.05138517916202545
12288.0,-0.03513043373823166
13312.0,-0.24201259016990662
14336.0,-0.5391654372215271
end
