version,3.0
numOfCh,1
type,point
parent_name,dirty_0dot069-0dot01
ch_type,1_1
kcount,1
numberNandB,1
brightnessNandB,1
carpet pos,0
pc,0
Time (ms),CH1 Auto-Correlation
1.0,0.07723911106586456
2.0,0.0769844502210617
3.0,0.07672792673110962
4.0,0.0764755830168724
5.0,0.07622308284044266
6.0,0.07596174627542496
7.0,0.07571262866258621
8.0,0.0754564180970192
9.0,0.07521215826272964
10.0,0.07496662437915802
11.0,0.0747334361076355
12.0,0.07451360672712326
13.0,0.07428811490535736
14.0,0.07406771928071976
15.0,0.07383667677640915
16.0,0.07360439002513885
18.0,0.07313339412212372
20.0,0.0726785808801651
22.0,0.0722615197300911
24.0,0.07186364382505417
26.0,0.07146874070167542
28.0,0.0710717961192131
30.0,0.0706753358244896
32.0,0.07025863975286484
36.0,0.0694652870297432
40.0,0.06874861568212509
44.0,0.06809423863887787
48.0,0.06745105236768723
52.0,0.06683465838432312
56.0,0.06625242531299591
60.0,0.0656500980257988
64.0,0.06504050642251968
72.0,0.06373124569654465
80.0,0.06241486966609955
88.0,0.06113194674253464
96.0,0.05982396379113197
104.0,0.058471307158470154
112.0,0.05706912651658058
120.0,0.05568019300699234
128.0,0.05441591143608093
144.0,0.05211064964532852
160.0,0.050274018198251724
176.0,0.04883263632655144
192.0,0.04751912131905556
208.0,0.04640435427427292
224.0,0.045243967324495316
240.0,0.044244639575481415
256.0,0.04344538226723671
288.0,0.04176340252161026
320.0,0.039546899497509
352.0,0.03718145936727524
384.0,0.034049127250909805
416.0,0.0314260832965374
448.0,0.028941523283720016
480.0,0.026906181126832962
512.0,0.025256456807255745
576.0,0.022465484216809273
640.0,0.020103121176362038
704.0,0.01743699423968792
768.0,0.014254244975745678
832.0,0.011256074532866478
896.0,0.009279926307499409
960.0,0.009215290658175945
1024.0,0.011321687139570713
1152.0,0.017032137140631676
1280.0,0.020574135705828667
1408.0,0.024922890588641167
1536.0,0.02696790173649788
1664.0,0.02788838930428028
1792.0,0.025879524648189545
1920.0,0.023670997470617294
2048.0,0.024161895737051964
2304.0,0.0226073507219553
2560.0,0.0182991623878479
2816.0,0.01584184728562832
3072.0,0.009381200186908245
3328.0,0.00939507782459259
3584.0,0.005788048729300499
3840.0,0.0023291087709367275
4096.0,0.0012054635444656014
4608.0,0.0038814805448055267
5120.0,-0.0020730565302073956
5632.0,-0.01384612638503313
6144.0,-0.019453411921858788
6656.0,-0.015158920548856258
7168.0,-0.00960610993206501
7680.0,-0.012729705311357975
8192.0,-0.020390786230564117
9216.0,-0.021744640544056892
10240.0,-0.019574124366044998
11264.0,-0.037093181163072586
12288.0,-0.01175756473094225
13312.0,-0.045462172478437424
14336.0,-0.002209122758358717
end
