version,3.0
numOfCh,1
type,point
parent_name,1-cuts
ch_type,1_1
kcount,1
numberNandB,1
brightnessNandB,1
carpet pos,0
pc,0
Time (ms),CH1 Auto-Correlation
1.0,0.03605303913354874
2.0,0.0354321114718914
3.0,0.03483296185731888
4.0,0.03426423296332359
5.0,0.0337158627808094
6.0,0.03317588195204735
7.0,0.03265805542469025
8.0,0.03215032443404198
9.0,0.031674642115831375
10.0,0.03120606206357479
11.0,0.030749108642339706
12.0,0.030295513570308685
13.0,0.029857579618692398
14.0,0.029445352032780647
15.0,0.029053770005702972
16.0,0.02866334095597267
18.0,0.027885304763913155
20.0,0.02714082971215248
22.0,0.02642330899834633
24.0,0.025773273780941963
26.0,0.025161391124129295
28.0,0.024585358798503876
30.0,0.024030642583966255
32.0,0.02351968362927437
36.0,0.022604873403906822
40.0,0.021721264347434044
44.0,0.020984791219234467
48.0,0.020358864217996597
52.0,0.019802309572696686
56.0,0.019246704876422882
60.0,0.018646640703082085
64.0,0.01811964437365532
72.0,0.01728089340031147
80.0,0.016500717028975487
88.0,0.01570669375360012
96.0,0.015093700960278511
104.0,0.014417465776205063
112.0,0.013523939996957779
120.0,0.01257383730262518
128.0,0.011690020561218262
144.0,0.01010467205196619
160.0,0.009498704224824905
176.0,0.009591501206159592
192.0,0.009563074447214603
208.0,0.009207947179675102
224.0,0.008694758638739586
240.0,0.008458280004560947
256.0,0.008140873163938522
288.0,0.008073225617408752
320.0,0.00822425913065672
352.0,0.007828344590961933
384.0,0.00764804519712925
416.0,0.0072283148765563965
448.0,0.006730938795953989
480.0,0.006332387216389179
512.0,0.005612378008663654
576.0,0.004754005465656519
640.0,0.004216337110847235
704.0,0.0029661599546670914
768.0,0.0009198093903250992
832.0,-0.000216353073483333
896.0,-0.0010785579215735197
960.0,-0.0026480553206056356
1024.0,-0.0012581822229549289
1152.0,0.00012719449296128005
1280.0,-0.0014327969402074814
1408.0,-0.0013824343914166093
1536.0,-0.0019008837407454848
1664.0,-0.002573189092800021
1792.0,-0.00369576015509665
1920.0,-0.0028217763174325228
2048.0,-0.0028189988806843758
2304.0,-0.005793345160782337
2560.0,-0.0041125440038740635
2816.0,-0.006121386308223009
3072.0,-0.0010753816459327936
3328.0,-0.00034015419078059494
3584.0,0.003122152993455529
3840.0,0.006895822938531637
4096.0,0.006942355539649725
4608.0,0.0015129208331927657
5120.0,-0.0010479824850335717
5632.0,0.0027833781205117702
6144.0,-0.0023256950080394745
6656.0,-0.007079761475324631
7168.0,-0.0015659499913454056
7680.0,0.003501951927319169
8192.0,0.001412669662386179
9216.0,-0.0035706034395843744
10240.0,-0.004616988822817802
11264.0,0.00522714015096426
12288.0,-0.0010459809564054012
13312.0,-0.0062234182842075825
14336.0,-0.00956733152270317
end
