version,3.0
numOfCh,1
type,point
parent_name,1-cuts
ch_type,1_1
kcount,1
numberNandB,1
brightnessNandB,1
carpet pos,0
pc,0
Time (ms),CH1 Auto-Correlation
1.0,0.06493058800697327
2.0,0.06373728811740875
3.0,0.06256372481584549
4.0,0.06143447011709213
5.0,0.06036698445677757
6.0,0.05931670591235161
7.0,0.05828779563307762
8.0,0.05727441608905792
9.0,0.05631038919091225
10.0,0.05536288768053055
11.0,0.05446145683526993
12.0,0.0535842701792717
13.0,0.052728984504938126
14.0,0.051889125257730484
15.0,0.05109132081270218
16.0,0.05033024773001671
18.0,0.04892336204648018
20.0,0.047625135630369186
22.0,0.04639299958944321
24.0,0.045192424207925797
26.0,0.0439944863319397
28.0,0.042835332453250885
30.0,0.041706811636686325
32.0,0.040605127811431885
36.0,0.038480132818222046
40.0,0.03652428835630417
44.0,0.03488320857286453
48.0,0.033643681555986404
52.0,0.03258288651704788
56.0,0.03137180581688881
60.0,0.030111949890851974
64.0,0.02885471284389496
72.0,0.026470640674233437
80.0,0.02402888424694538
88.0,0.02200356498360634
96.0,0.02058365009725094
104.0,0.019881241023540497
112.0,0.019302835687994957
120.0,0.018676862120628357
128.0,0.017929380759596825
144.0,0.016331015154719353
160.0,0.01535643171519041
176.0,0.014236480928957462
192.0,0.013671830296516418
208.0,0.01293315552175045
224.0,0.011269855313003063
240.0,0.009019924327731133
256.0,0.007259896490722895
288.0,0.005407396238297224
320.0,0.003419421846047044
352.0,0.0037100440822541714
384.0,0.00458952970802784
416.0,0.007807634770870209
448.0,0.009800286032259464
480.0,0.010817117989063263
512.0,0.01070866733789444
576.0,0.009690454229712486
640.0,0.008209398947656155
704.0,0.0067930640652775764
768.0,0.0038012629374861717
832.0,0.0021538613364100456
896.0,0.001442539505660534
960.0,-0.00026832561707124114
1024.0,-6.849771307315677e-05
1152.0,-0.0027511045336723328
1280.0,-0.0005169102805666625
1408.0,0.0016963602975010872
1536.0,-0.0007042163633741438
1664.0,-0.0009751508478075266
1792.0,-0.0002597344864625484
1920.0,0.0018309468869119883
2048.0,-0.0029097474180161953
2304.0,-0.005545729771256447
2560.0,-0.0031305854208767414
2816.0,-0.0036822364199906588
3072.0,-0.0037587210536003113
3328.0,-0.0010578327346593142
3584.0,0.0016849569510668516
3840.0,-0.0003753564669750631
4096.0,-0.0007535142358392477
4608.0,0.005957896821200848
5120.0,0.002240432659164071
5632.0,-0.00033427562448196113
6144.0,-0.0013055948074907064
6656.0,-0.004014888312667608
7168.0,-0.0034798611886799335
7680.0,0.0022593927569687366
8192.0,0.003238104050979018
9216.0,-0.001789821544662118
10240.0,-0.0072887553833425045
11264.0,-0.009311539120972157
12288.0,0.001110071549192071
13312.0,-0.0018797883531078696
14336.0,-0.0071875471621751785
end
