version,3.0
numOfCh,1
type,point
parent_name,1-cuts
ch_type,1_1
kcount,1
numberNandB,1
brightnessNandB,1
carpet pos,0
pc,0
Time (ms),CH1 Auto-Correlation
1.0,0.06429862231016159
2.0,0.06310306489467621
3.0,0.06197056174278259
4.0,0.06089343503117561
5.0,0.059868957847356796
6.0,0.05888485535979271
7.0,0.05792199447751045
8.0,0.05696289241313934
9.0,0.0560489259660244
10.0,0.055137742310762405
11.0,0.05424521490931511
12.0,0.05336464196443558
13.0,0.052507445216178894
14.0,0.051676053553819656
15.0,0.050845690071582794
16.0,0.049982938915491104
18.0,0.048446908593177795
20.0,0.04700799658894539
22.0,0.04562653228640556
24.0,0.04429149627685547
26.0,0.0430397167801857
28.0,0.041834812611341476
30.0,0.04072089493274689
32.0,0.03963075950741768
36.0,0.037607915699481964
40.0,0.0356205478310585
44.0,0.03386678919196129
48.0,0.032335732132196426
52.0,0.0309218168258667
56.0,0.02951967343688011
60.0,0.028253404423594475
64.0,0.027132587507367134
72.0,0.025171596556901932
80.0,0.02371288649737835
88.0,0.02290569804608822
96.0,0.022101782262325287
104.0,0.021052207797765732
112.0,0.019733743742108345
120.0,0.018539881333708763
128.0,0.018064269796013832
144.0,0.017745133489370346
160.0,0.017622830346226692
176.0,0.01801268383860588
192.0,0.018296977505087852
208.0,0.017995191738009453
224.0,0.016814809292554855
240.0,0.01529422216117382
256.0,0.013694876804947853
288.0,0.011749804019927979
320.0,0.01090253982692957
352.0,0.009194259531795979
384.0,0.00750522967427969
416.0,0.008711997419595718
448.0,0.006973923649638891
480.0,0.005409058649092913
512.0,0.00504597183316946
576.0,0.004321615677326918
640.0,0.004272959660738707
704.0,0.0021970150992274284
768.0,0.003349017584696412
832.0,0.0049016945995390415
896.0,0.004731451161205769
960.0,0.005442917346954346
1024.0,0.0069691999815404415
1152.0,0.008363986387848854
1280.0,0.009502874687314034
1408.0,0.00858988706022501
1536.0,0.005401935428380966
1664.0,0.002850126475095749
1792.0,0.004254330415278673
1920.0,0.00376886036247015
2048.0,0.005897941067814827
2304.0,0.005365142598748207
2560.0,0.005102603230625391
2816.0,0.0023616706021130085
3072.0,0.0002661514445208013
3328.0,0.0023695831187069416
3584.0,0.0006347119924612343
3840.0,-0.002944582374766469
4096.0,-0.003187677124515176
4608.0,-0.0014351229183375835
5120.0,-0.0031524510122835636
5632.0,0.0035361475311219692
6144.0,8.535659435437992e-05
6656.0,-0.001438493374735117
7168.0,-0.0035298410803079605
7680.0,0.005084988661110401
8192.0,-0.00018418297986499965
9216.0,-0.00986598338931799
10240.0,-0.008686535991728306
11264.0,-0.017812935635447502
12288.0,-0.01792248897254467
13312.0,-0.012368830852210522
14336.0,-0.0013375421985983849
end
