version,3.0
numOfCh,1
type,point
parent_name,1-cuts
ch_type,1_1
kcount,1
numberNandB,1
brightnessNandB,1
carpet pos,0
pc,0
Time (ms),CH1 Auto-Correlation
1.0,0.023840291425585747
2.0,0.023457909002900124
3.0,0.023085862398147583
4.0,0.022712405771017075
5.0,0.022345099598169327
6.0,0.021997883915901184
7.0,0.021669114008545876
8.0,0.02134420908987522
9.0,0.021014655008912086
10.0,0.02068905532360077
11.0,0.020381908863782883
12.0,0.02008211240172386
13.0,0.019794443622231483
14.0,0.01953136920928955
15.0,0.019280295819044113
16.0,0.01904195174574852
18.0,0.018570441752672195
20.0,0.018110327422618866
22.0,0.01767885684967041
24.0,0.017283201217651367
26.0,0.016890451312065125
28.0,0.016498439013957977
30.0,0.01613161526620388
32.0,0.01579608954489231
36.0,0.015190187841653824
40.0,0.01465617585927248
44.0,0.014199400320649147
48.0,0.01380198635160923
52.0,0.013469191268086433
56.0,0.013189161196351051
60.0,0.012934998609125614
64.0,0.012643116526305676
72.0,0.012116625905036926
80.0,0.011697263456881046
88.0,0.011066008359193802
96.0,0.010433217510581017
104.0,0.009805615060031414
112.0,0.009211394004523754
120.0,0.008820969611406326
128.0,0.008356387726962566
144.0,0.007519597187638283
160.0,0.007041261997073889
176.0,0.006769176572561264
192.0,0.006558988709002733
208.0,0.006193307228386402
224.0,0.005795305594801903
240.0,0.005507862661033869
256.0,0.005462088622152805
288.0,0.0057120658457279205
320.0,0.005482635926455259
352.0,0.0051933578215539455
384.0,0.0050232852809131145
416.0,0.004447383806109428
448.0,0.004209577105939388
480.0,0.004133054055273533
512.0,0.0038372986018657684
576.0,0.0036181851755827665
640.0,0.004807381425052881
704.0,0.005073852837085724
768.0,0.004327175673097372
832.0,0.002845878480002284
896.0,0.0019486700184643269
960.0,0.000710768683347851
1024.0,-0.0010188615415245295
1152.0,-0.002161567099392414
1280.0,-0.0010069558629766107
1408.0,-0.0008973379735834897
1536.0,-0.0011595378164201975
1664.0,-0.000810887839179486
1792.0,-0.0018196257296949625
1920.0,-0.0017428840510547161
2048.0,-0.001388080883771181
2304.0,-0.00022408472432289273
2560.0,-0.0007172582554630935
2816.0,-0.0011466461000964046
3072.0,-0.000552272773347795
3328.0,0.001396687119267881
3584.0,0.001833685440942645
3840.0,0.002813466126099229
4096.0,0.003994392231106758
4608.0,0.001753746415488422
5120.0,-0.0016700935084372759
5632.0,-0.0037628519348800182
6144.0,-0.003771258285269141
6656.0,-0.0039172000251710415
7168.0,-0.003558739088475704
7680.0,-0.0034413652028888464
8192.0,-0.001692251767963171
9216.0,0.0014005161356180906
10240.0,-0.0007997329230420291
11264.0,-0.0028742493595927954
12288.0,2.4304417820530944e-05
13312.0,0.00471873302012682
14336.0,0.004620349500328302
end
