version,3.0
numOfCh,1
type,point
parent_name,1-cuts
ch_type,1_1
kcount,1
numberNandB,1
brightnessNandB,1
carpet pos,0
pc,0
Time (ms),CH1 Auto-Correlation
1.0,0.021729247644543648
2.0,0.02132675051689148
3.0,0.020924655720591545
4.0,0.02054215967655182
5.0,0.02017996646463871
6.0,0.01983555220067501
7.0,0.01948358863592148
8.0,0.019140401855111122
9.0,0.01880420185625553
10.0,0.018471993505954742
11.0,0.018155621364712715
12.0,0.01784246228635311
13.0,0.017531275749206543
14.0,0.017224859446287155
15.0,0.01692553423345089
16.0,0.016627753153443336
18.0,0.016075152903795242
20.0,0.015550944022834301
22.0,0.015035693533718586
24.0,0.014545690268278122
26.0,0.014096546918153763
28.0,0.013686870224773884
30.0,0.013295398093760014
32.0,0.012934321537613869
36.0,0.012267857789993286
40.0,0.01170448400080204
44.0,0.011218789964914322
48.0,0.01073254644870758
52.0,0.010256937704980373
56.0,0.00988528411835432
60.0,0.0096487021073699
64.0,0.009485487826168537
72.0,0.00917013268917799
80.0,0.008839763700962067
88.0,0.008511199615895748
96.0,0.008173221722245216
104.0,0.007797001861035824
112.0,0.007424097042530775
120.0,0.00712527334690094
128.0,0.006741287652403116
144.0,0.0059894416481256485
160.0,0.005734124220907688
176.0,0.005567494779825211
192.0,0.005349013954401016
208.0,0.005107192788273096
224.0,0.0047622197307646275
240.0,0.004395442083477974
256.0,0.004002865869551897
288.0,0.003185851266607642
320.0,0.0029318644665181637
352.0,0.0022395364940166473
384.0,0.0018430383643135428
416.0,0.0018813220085576177
448.0,0.00119618303142488
480.0,0.0002722863282542676
512.0,-0.0003106487274635583
576.0,-0.0004981367383152246
640.0,9.010920621221885e-05
704.0,0.0007532142335548997
768.0,0.0015197154134511948
832.0,0.0013149973237887025
896.0,0.0005713360151275992
960.0,0.0008402109961025417
1024.0,0.0008376618498004973
1152.0,0.00024248132831417024
1280.0,-0.0003334545763209462
1408.0,0.00012805082951672375
1536.0,0.0009651086875237525
1664.0,0.0009705359698273242
1792.0,0.0003921972238458693
1920.0,-6.515217683045194e-05
2048.0,-0.0007979618385434151
2304.0,-0.0019535301253199577
2560.0,-0.001515193609520793
2816.0,-0.000531270750798285
3072.0,0.0010590337915346026
3328.0,-0.00048826594138517976
3584.0,-0.002200873801484704
3840.0,-0.0024339347146451473
4096.0,-0.0017003633547574282
4608.0,-0.0012466132175177336
5120.0,0.0008275135769508779
5632.0,-0.0007268651970662177
6144.0,-0.00042414688505232334
6656.0,-0.0020987617317587137
7168.0,-0.0018341606482863426
7680.0,-0.002926991553977132
8192.0,0.0010574959451332688
9216.0,-0.001141090877354145
10240.0,0.0016411412507295609
11264.0,0.0031244736164808273
12288.0,0.0004524879914242774
13312.0,0.00585093954578042
14336.0,-0.0035726812202483416
end
