version,3.0
numOfCh,1
type,point
parent_name,1-cuts
ch_type,1_1
kcount,1
numberNandB,1
brightnessNandB,1
carpet pos,0
pc,0
Time (ms),CH1 Auto-Correlation
1.0,0.020101362839341164
2.0,0.019719000905752182
3.0,0.019348986446857452
4.0,0.018984219059348106
5.0,0.018638748675584793
6.0,0.01830829679965973
7.0,0.01798483170568943
8.0,0.017671087756752968
9.0,0.017359204590320587
10.0,0.017061255872249603
11.0,0.016779132187366486
12.0,0.016509465873241425
13.0,0.01625046879053116
14.0,0.016004864126443863
15.0,0.0157671757042408
16.0,0.015528516843914986
18.0,0.015082955360412598
20.0,0.014652970246970654
22.0,0.01424065139144659
24.0,0.013840309344232082
26.0,0.01346717868000269
28.0,0.013138525187969208
30.0,0.012821637094020844
32.0,0.0125274658203125
36.0,0.011916590854525566
40.0,0.011379830539226532
44.0,0.0109366774559021
48.0,0.010530252009630203
52.0,0.010132930241525173
56.0,0.009736919775605202
60.0,0.009362893179059029
64.0,0.009005457162857056
72.0,0.008335907012224197
80.0,0.007780855521559715
88.0,0.00727778859436512
96.0,0.006741854827851057
104.0,0.00634706811979413
112.0,0.0060449871234595776
120.0,0.005757965613156557
128.0,0.0054568140767514706
144.0,0.00499402591958642
160.0,0.004756538197398186
176.0,0.004659180995076895
192.0,0.004270728677511215
208.0,0.003636549459770322
224.0,0.002965094055980444
240.0,0.0024376141373068094
256.0,0.0019511516438797116
288.0,0.0009987285593524575
320.0,0.000843342742882669
352.0,0.0006759806419722736
384.0,0.0013173625338822603
416.0,0.0017176428809762
448.0,0.0011124088196083903
480.0,0.0008789005223661661
512.0,0.0012463073944672942
576.0,0.0019085102248936892
640.0,0.002829701639711857
704.0,0.002919410355389118
768.0,0.0019066691165789962
832.0,0.001806383952498436
896.0,0.0009511449607089162
960.0,4.009071199106984e-05
1024.0,-0.00032581345294602215
1152.0,6.542406936205225e-06
1280.0,0.0005133333615958691
1408.0,0.00025810860097408295
1536.0,0.0004058212216477841
1664.0,0.0002454688074067235
1792.0,0.00059296446852386
1920.0,0.0010554903419688344
2048.0,0.001505348482169211
2304.0,-0.0008221936295740306
2560.0,-0.00012849962513428181
2816.0,-0.0013411296531558037
3072.0,-0.002809595549479127
3328.0,-0.0009751450852490962
3584.0,-0.0032632257789373398
3840.0,-0.0019572111777961254
4096.0,-0.0009173595462925732
4608.0,-7.364547491306439e-05
5120.0,0.0007541393861174583
5632.0,0.00034571182914078236
6144.0,0.0013549409341067076
6656.0,0.0014369923155754805
7168.0,0.0018121703760698438
7680.0,0.0001969485019799322
8192.0,-0.00013341194426175207
9216.0,0.0002590007788967341
10240.0,-0.0024818889796733856
11264.0,-0.00190432567615062
12288.0,-0.0014428964350372553
13312.0,-0.0026809361297637224
14336.0,0.0005570403882302344
end
