version,3.0
numOfCh,1
type,point
parent_name,1-cuts
ch_type,1_1
kcount,1
numberNandB,1
brightnessNandB,1
carpet pos,0
pc,0
Time (ms),CH1 Auto-Correlation
1.0,0.03816292807459831
2.0,0.037570420652627945
3.0,0.036995548754930496
4.0,0.03644109144806862
5.0,0.03589056804776192
6.0,0.035359885543584824
7.0,0.0348283015191555
8.0,0.03431173413991928
9.0,0.03382037580013275
10.0,0.03335780277848244
11.0,0.032895997166633606
12.0,0.03245474398136139
13.0,0.03201591968536377
14.0,0.03159412369132042
15.0,0.03118935041129589
16.0,0.030788177624344826
18.0,0.030025195330381393
20.0,0.029306229203939438
22.0,0.028637513518333435
24.0,0.028028739616274834
26.0,0.027468986809253693
28.0,0.026957649737596512
30.0,0.026480207219719887
32.0,0.026040060445666313
36.0,0.025205258280038834
40.0,0.024385623633861542
44.0,0.023653918877243996
48.0,0.02294561080634594
52.0,0.022242221981287003
56.0,0.02162090130150318
60.0,0.020965395495295525
64.0,0.02032012864947319
72.0,0.019394071772694588
80.0,0.01875174231827259
88.0,0.01780548132956028
96.0,0.01671936921775341
104.0,0.01583142578601837
112.0,0.014884366653859615
120.0,0.01393631100654602
128.0,0.013158071786165237
144.0,0.012011841870844364
160.0,0.010870430618524551
176.0,0.010050063952803612
192.0,0.009854074567556381
208.0,0.009894736111164093
224.0,0.010145262815058231
240.0,0.010200598277151585
256.0,0.010251843370497227
288.0,0.009959722869098186
320.0,0.009270851500332355
352.0,0.008607368916273117
384.0,0.00752921961247921
416.0,0.005833762232214212
448.0,0.004440619610249996
480.0,0.0036634865682572126
512.0,0.0026805796660482883
576.0,0.002293906407430768
640.0,0.002132201101630926
704.0,0.0018551991088315845
768.0,-0.0009899758733808994
832.0,-0.0013435417786240578
896.0,0.00038990197936072946
960.0,0.0012320419773459435
1024.0,0.0011821602238342166
1152.0,0.0012363909045234323
1280.0,0.004929422866553068
1408.0,0.004035092890262604
1536.0,0.0038566470611840487
1664.0,0.004611312411725521
1792.0,0.00197261618450284
1920.0,0.0014322054339572787
2048.0,0.00020163269073236734
2304.0,0.00017719555762596428
2560.0,-0.00013223201676737517
2816.0,0.0019229438621550798
3072.0,0.00036932865623384714
3328.0,-0.0032837281469255686
3584.0,-0.002380367834120989
3840.0,-0.004192606080323458
4096.0,-0.004070895723998547
4608.0,-0.0012409189948812127
5120.0,-0.002739539835602045
5632.0,-0.0007220123079605401
6144.0,-0.004956959281116724
6656.0,-0.0027382289990782738
7168.0,-0.001417970284819603
7680.0,-0.004307715222239494
8192.0,-0.0031264449935406446
9216.0,-0.0008188195643015206
10240.0,0.00034480096655897796
11264.0,0.003175347577780485
12288.0,-0.0024170218966901302
13312.0,-0.002338067162781954
14336.0,0.002204091288149357
end
