version,3.0
numOfCh,1
type,point
parent_name,1-cuts
ch_type,1_1
kcount,1
numberNandB,1
brightnessNandB,1
carpet pos,0
pc,0
Time (ms),CH1 Auto-Correlation
1.0,0.021803908050060272
2.0,0.02140697091817856
3.0,0.021023694425821304
4.0,0.02065485529601574
5.0,0.020282844081521034
6.0,0.01992265321314335
7.0,0.01956065557897091
8.0,0.019220465794205666
9.0,0.01890009082853794
10.0,0.01857747882604599
11.0,0.018266180530190468
12.0,0.017971685156226158
13.0,0.017683004960417747
14.0,0.017392994835972786
15.0,0.01710650883615017
16.0,0.01681937463581562
18.0,0.016257407143712044
20.0,0.01572410948574543
22.0,0.01521895732730627
24.0,0.014744099229574203
26.0,0.014280401170253754
28.0,0.013814402744174004
30.0,0.013356157578527927
32.0,0.012900025583803654
36.0,0.012049789540469646
40.0,0.011264175176620483
44.0,0.010524867102503777
48.0,0.00984263140708208
52.0,0.00923866592347622
56.0,0.008713062852621078
60.0,0.008212696760892868
64.0,0.007751586847007275
72.0,0.007062060292810202
80.0,0.006579596549272537
88.0,0.0062504480592906475
96.0,0.006007477641105652
104.0,0.005814970470964909
112.0,0.0057308245450258255
120.0,0.0057145943865180016
128.0,0.00569492531940341
144.0,0.005501773674041033
160.0,0.005227519199252129
176.0,0.004816928878426552
192.0,0.0043173907324671745
208.0,0.004147023428231478
224.0,0.0038618766702711582
240.0,0.003626549383625388
256.0,0.0035096651408821344
288.0,0.002714534755796194
320.0,0.0021973750554025173
352.0,0.002030898816883564
384.0,0.001967386808246374
416.0,0.0018422899302095175
448.0,0.0010353198740631342
480.0,0.0004103662504348904
512.0,0.00024397637753281742
576.0,0.0007075789617374539
640.0,0.0009062720346264541
704.0,0.00017014714831020683
768.0,-0.0003355017979629338
832.0,-7.558382640127093e-05
896.0,0.0003661868395283818
960.0,0.0009829385671764612
1024.0,0.0004337522550486028
1152.0,0.0005164172034710646
1280.0,0.0008834674372337759
1408.0,7.580211968161166e-05
1536.0,-0.00047146884026005864
1664.0,-9.967661753762513e-05
1792.0,0.001094031729735434
1920.0,0.00045923914876766503
2048.0,0.0008949804469011724
2304.0,-0.0008982921135611832
2560.0,-0.00301407091319561
2816.0,0.0005883207777515054
3072.0,0.0028177513740956783
3328.0,0.0011734368745237589
3584.0,-0.0007128375000320375
3840.0,-0.0001941122318385169
4096.0,0.00028709459002129734
4608.0,-0.0020841634832322598
5120.0,-0.0023284642957150936
5632.0,-0.0023949856404215097
6144.0,-0.0010223672725260258
6656.0,-0.0029187502805143595
7168.0,-0.0012694080360233784
7680.0,1.9344726752024144e-05
8192.0,-0.00030911870999261737
9216.0,-0.0011516263475641608
10240.0,0.0012744000414386392
11264.0,0.0018900351133197546
12288.0,0.002007413189858198
13312.0,0.0011870627058669925
14336.0,-0.0005956017412245274
end
