version,3.0
numOfCh,1
type,point
parent_name,1-cuts
ch_type,1_1
kcount,1
numberNandB,1
brightnessNandB,1
carpet pos,0
pc,0
Time (ms),CH1 Auto-Correlation
1.0,0.03315344825387001
2.0,0.03253129869699478
3.0,0.031926706433296204
4.0,0.031335603445768356
5.0,0.030768096446990967
6.0,0.03022664412856102
7.0,0.029713990166783333
8.0,0.029218044131994247
9.0,0.028716644272208214
10.0,0.028240973129868507
11.0,0.027785994112491608
12.0,0.02733403444290161
13.0,0.026898520067334175
14.0,0.026470506563782692
15.0,0.02605649083852768
16.0,0.02565867081284523
18.0,0.024887612089514732
20.0,0.024167997762560844
22.0,0.023494906723499298
24.0,0.02282142825424671
26.0,0.02214878238737583
28.0,0.02151157334446907
30.0,0.020900333300232887
32.0,0.020349884405732155
36.0,0.01931009627878666
40.0,0.01831929385662079
44.0,0.01743009313941002
48.0,0.016628554090857506
52.0,0.015913022682070732
56.0,0.015247969888150692
60.0,0.014695417135953903
64.0,0.014116983860731125
72.0,0.01312357559800148
80.0,0.012288915924727917
88.0,0.011415007524192333
96.0,0.010827765800058842
104.0,0.0102609321475029
112.0,0.009474714286625385
120.0,0.008470753207802773
128.0,0.007607304025441408
144.0,0.006219157949090004
160.0,0.005381459835916758
176.0,0.005050011444836855
192.0,0.004679379053413868
208.0,0.004468871280550957
224.0,0.00405627628788352
240.0,0.0038835727609694004
256.0,0.0038378864992409945
288.0,0.004333507269620895
320.0,0.004700438119471073
352.0,0.004484014585614204
384.0,0.004240655805915594
416.0,0.003133014077320695
448.0,0.0023358191829174757
480.0,0.0029218567069619894
512.0,0.003275311551988125
576.0,0.0013109662104398012
640.0,0.0012464411556720734
704.0,0.0005572804948315024
768.0,0.0008864419651217759
832.0,0.0003501828759908676
896.0,-0.0004923444357700646
960.0,0.0004004536021966487
1024.0,-0.0009407151956111193
1152.0,-0.001519499928690493
1280.0,-0.0026357329916208982
1408.0,-0.003519816789776087
1536.0,-0.003276583505794406
1664.0,-0.0031594601459801197
1792.0,-0.002736347261816263
1920.0,-0.003187136957421899
2048.0,-0.00147559167817235
2304.0,-0.0020761354826390743
2560.0,-0.0003726580471266061
2816.0,-0.0012024791212752461
3072.0,-0.002442661439999938
3328.0,-0.00268812058493495
3584.0,-0.00014828259008936584
3840.0,-0.0003287141735199839
4096.0,-0.001553569920361042
4608.0,0.0007033640285953879
5120.0,0.0007849110988900065
5632.0,0.0016781073063611984
6144.0,0.0024303493555635214
6656.0,0.0022396815475076437
7168.0,-0.0008698125020600855
7680.0,-0.0033866940066218376
8192.0,-0.0011706484947353601
9216.0,-0.00021411487250588834
10240.0,2.147134182450827e-06
11264.0,0.003000582568347454
12288.0,-0.0026329108513891697
13312.0,0.00037655647611245513
14336.0,-0.0006290069431997836
end
