version,3.0
numOfCh,1
type,point
parent_name,1-cuts
ch_type,1_1
kcount,1
numberNandB,1
brightnessNandB,1
carpet pos,0
pc,0
Time (ms),CH1 Auto-Correlation
1.0,0.06968569755554199
2.0,0.06840501725673676
3.0,0.06714863330125809
4.0,0.06594696640968323
5.0,0.06478708237409592
6.0,0.06366895884275436
7.0,0.06259215623140335
8.0,0.061568982899188995
9.0,0.060560572892427444
10.0,0.059568725526332855
11.0,0.05858944356441498
12.0,0.05764966458082199
13.0,0.05669347569346428
14.0,0.055790189653635025
15.0,0.054933980107307434
16.0,0.05408807843923569
18.0,0.05244242772459984
20.0,0.050806816667318344
22.0,0.04923543334007263
24.0,0.04772162064909935
26.0,0.046277519315481186
28.0,0.044927943497896194
30.0,0.0436396449804306
32.0,0.042397432029247284
36.0,0.040051158517599106
40.0,0.038034506142139435
44.0,0.036366626620292664
48.0,0.03499112278223038
52.0,0.03378245234489441
56.0,0.03270256891846657
60.0,0.03158852085471153
64.0,0.030415482819080353
72.0,0.028277002274990082
80.0,0.026736384257674217
88.0,0.025494547560811043
96.0,0.02452116273343563
104.0,0.023409783840179443
112.0,0.022040972486138344
120.0,0.020932694897055626
128.0,0.019515052437782288
144.0,0.016286009922623634
160.0,0.013673994690179825
176.0,0.01155230775475502
192.0,0.00953332707285881
208.0,0.007369520608335733
224.0,0.00558000011369586
240.0,0.004146777093410492
256.0,0.0029655923135578632
288.0,0.002769251586869359
320.0,0.003265193197876215
352.0,0.0022095851600170135
384.0,-0.0014695159625262022
416.0,-0.0036159248556941748
448.0,-0.005117637105286121
480.0,-0.006536797620356083
512.0,-0.007974972017109394
576.0,-0.009037872776389122
640.0,-0.0045246402733027935
704.0,-0.0018247414845973253
768.0,0.0012263021199032664
832.0,0.001078674104064703
896.0,0.00016822910401970148
960.0,0.00122735311742872
1024.0,0.00307456124573946
1152.0,0.0028107082471251488
1280.0,-0.0009172350983135402
1408.0,-0.0007923349621705711
1536.0,8.057588274823502e-05
1664.0,-0.0021428726613521576
1792.0,-0.0017571585485711694
1920.0,-0.0024808156304061413
2048.0,-0.007875211536884308
2304.0,-0.004345320165157318
2560.0,-0.009535732679069042
2816.0,-0.006021484266966581
3072.0,-0.0028018734883517027
3328.0,0.006092379800975323
3584.0,0.00663728965446353
3840.0,-0.006101731210947037
4096.0,-0.00790784414857626
4608.0,0.006245141848921776
5120.0,0.003694579005241394
5632.0,0.0025990328285843134
6144.0,-0.004616971593350172
6656.0,0.0027622280176728964
7168.0,-0.005619362462311983
7680.0,-0.0031569518614560366
8192.0,0.0013766800984740257
9216.0,0.0009104550117626786
10240.0,0.0022770659998059273
11264.0,-0.0014190522488206625
12288.0,-0.007898211479187012
13312.0,-0.0022056049201637506
14336.0,0.005667145363986492
end
