version,3.0
numOfCh,1
type,point
parent_name,1-cuts
ch_type,1_1
kcount,1
numberNandB,1
brightnessNandB,1
carpet pos,0
pc,0
Time (ms),CH1 Auto-Correlation
1.0,0.03178740665316582
2.0,0.031174147501587868
3.0,0.03058081865310669
4.0,0.030020857229828835
5.0,0.029490534216165543
6.0,0.02897191420197487
7.0,0.028467465192079544
8.0,0.02796926535665989
9.0,0.02748986706137657
10.0,0.027037642896175385
11.0,0.026602767407894135
12.0,0.02619536593556404
13.0,0.02581106126308441
14.0,0.025438858196139336
15.0,0.02508877031505108
16.0,0.02473754808306694
18.0,0.024027325212955475
20.0,0.023313958197832108
22.0,0.022615820169448853
24.0,0.02193918079137802
26.0,0.021275024861097336
28.0,0.020626135170459747
30.0,0.020038677379488945
32.0,0.019460754469037056
36.0,0.018381400033831596
40.0,0.01740994304418564
44.0,0.016594907268881798
48.0,0.015844212844967842
52.0,0.015070655383169651
56.0,0.014241145923733711
60.0,0.013452908024191856
64.0,0.01272317860275507
72.0,0.011484554037451744
80.0,0.010272221639752388
88.0,0.00924543384462595
96.0,0.008381948806345463
104.0,0.007689441554248333
112.0,0.007122493349015713
120.0,0.0065246885642409325
128.0,0.005975537933409214
144.0,0.005186348222196102
160.0,0.004784584976732731
176.0,0.004500055685639381
192.0,0.0039796382188797
208.0,0.003394385799765587
224.0,0.0031669989693909883
240.0,0.0031218170188367367
256.0,0.002978129778057337
288.0,0.0025352512020617723
320.0,0.001968413358554244
352.0,0.002399431774392724
384.0,0.003550887107849121
416.0,0.003994425758719444
448.0,0.0032329962123185396
480.0,0.0026992971543222666
512.0,0.0021176247391849756
576.0,-0.001198010053485632
640.0,-0.00144986342638731
704.0,-0.0004643719003070146
768.0,0.0003969719400629401
832.0,0.000906484667211771
896.0,0.0003210172872059047
960.0,-7.286694744834676e-05
1024.0,0.0005255855503492057
1152.0,0.0007576979114674032
1280.0,0.00035009373095817864
1408.0,-0.002754755085334182
1536.0,-0.0010850537801161408
1664.0,-8.594166865805164e-05
1792.0,-0.0018968394724652171
1920.0,-0.00349185848608613
2048.0,-0.001573606627061963
2304.0,-0.0010965393157675862
2560.0,-0.004136306699365377
2816.0,-0.0026020524092018604
3072.0,-0.0010936097241938114
3328.0,0.0012566196965053678
3584.0,0.00045011984184384346
3840.0,4.978247034159722e-06
4096.0,-0.00018628037651069462
4608.0,-0.0008747279644012451
5120.0,-0.0001708532072370872
5632.0,0.002983653685078025
6144.0,-0.0056282468140125275
6656.0,-0.001087373006157577
7168.0,-2.2638523660134524e-05
7680.0,0.002543112263083458
8192.0,0.002195491222664714
9216.0,0.0014982967404648662
10240.0,-0.0019531508442014456
11264.0,-0.0027215881273150444
12288.0,-0.0014851965242996812
13312.0,-0.0001653061917750165
14336.0,0.0007821526378393173
end
