version,3.0
numOfCh,1
type,point
parent_name,1-cuts
ch_type,1_1
kcount,1
numberNandB,1
brightnessNandB,1
carpet pos,0
pc,0
Time (ms),CH1 Auto-Correlation
1.0,0.02722907066345215
2.0,0.026662830263376236
3.0,0.026107830926775932
4.0,0.02556375414133072
5.0,0.025035466998815536
6.0,0.024533137679100037
7.0,0.024072036147117615
8.0,0.023627934977412224
9.0,0.023203305900096893
10.0,0.022783108055591583
11.0,0.022382861003279686
12.0,0.02198636718094349
13.0,0.021607358008623123
14.0,0.021235177293419838
15.0,0.020861919969320297
16.0,0.020490258932113647
18.0,0.019805317744612694
20.0,0.019159352406859398
22.0,0.01853342540562153
24.0,0.01793080009520054
26.0,0.017362354323267937
28.0,0.016846707090735435
30.0,0.016349993646144867
32.0,0.015875305980443954
36.0,0.014956586062908173
40.0,0.014119322411715984
44.0,0.013327271677553654
48.0,0.012621903792023659
52.0,0.011966640129685402
56.0,0.011308197863399982
60.0,0.010674896650016308
64.0,0.010037116706371307
72.0,0.008753909729421139
80.0,0.007575557101517916
88.0,0.0065512703731656075
96.0,0.00585546437650919
104.0,0.005313025321811438
112.0,0.004808119032531977
120.0,0.004346251487731934
128.0,0.0040789321064949036
144.0,0.0037829598877578974
160.0,0.003634653752669692
176.0,0.0034915234427899122
192.0,0.0033738529309630394
208.0,0.0033837121445685625
224.0,0.003316405927762389
240.0,0.0031766919419169426
256.0,0.0031283327843993902
288.0,0.0027544081676751375
320.0,0.0024556524585932493
352.0,0.002368301386013627
384.0,0.001850028638727963
416.0,0.0009833489311859012
448.0,0.000953272741753608
480.0,0.0010593283222988248
512.0,0.0013032028218731284
576.0,0.003315059235319495
640.0,0.0030957628041505814
704.0,0.0013538076309487224
768.0,0.0012873734813183546
832.0,0.0015588115202262998
896.0,0.0015102509642019868
960.0,0.000803600181825459
1024.0,0.0007957941852509975
1152.0,0.0017404757672920823
1280.0,0.0009468990610912442
1408.0,-0.000652463233564049
1536.0,-0.002014175523072481
1664.0,-0.0006444770260713995
1792.0,-0.0012880997965112329
1920.0,-0.0030277688056230545
2048.0,-0.004338519647717476
2304.0,-0.002564891939982772
2560.0,-0.00035548274172469974
2816.0,-0.0007056525209918618
3072.0,-0.0009804629953578115
3328.0,-0.0013296063989400864
3584.0,0.0007335588452406228
3840.0,0.0004600058600772172
4096.0,0.00029908071155659854
4608.0,-0.0018725828267633915
5120.0,-0.0008082073763944209
5632.0,-0.0008308520773425698
6144.0,-0.0004253291990607977
6656.0,0.0015068160137161613
7168.0,-0.00040955666918307543
7680.0,-0.0004989749286323786
8192.0,-0.00030097519629634917
9216.0,0.0030586617067456245
10240.0,0.0027141517493873835
11264.0,-0.001699049025774002
12288.0,-0.004034968093037605
13312.0,-0.001651845290325582
14336.0,-0.0004586200520861894
end
