version,3.0
numOfCh,1
type,point
parent_name,1-cuts
ch_type,1_1
kcount,1
numberNandB,1
brightnessNandB,1
carpet pos,0
pc,0
Time (ms),CH1 Auto-Correlation
1.0,0.03526131808757782
2.0,0.034661438316106796
3.0,0.034076038748025894
4.0,0.03350292518734932
5.0,0.03293740004301071
6.0,0.032389577478170395
7.0,0.03184952586889267
8.0,0.03133520856499672
9.0,0.030834423378109932
10.0,0.0303344763815403
11.0,0.02983473800122738
12.0,0.02933022752404213
13.0,0.02885040082037449
14.0,0.02839367464184761
15.0,0.02792544662952423
16.0,0.027469240128993988
18.0,0.026611071079969406
20.0,0.025822360068559647
22.0,0.02509528398513794
24.0,0.024397244676947594
26.0,0.023696932941675186
28.0,0.023001398891210556
30.0,0.022321678698062897
32.0,0.021678827702999115
36.0,0.02048277109861374
40.0,0.019351216033101082
44.0,0.018355824053287506
48.0,0.017482545226812363
52.0,0.016680974513292313
56.0,0.015934767201542854
60.0,0.015272398479282856
64.0,0.014677738770842552
72.0,0.013586638495326042
80.0,0.012506075203418732
88.0,0.01163401734083891
96.0,0.01091007236391306
104.0,0.010377098806202412
112.0,0.009853639639914036
120.0,0.009421367198228836
128.0,0.008908510208129883
144.0,0.008159540593624115
160.0,0.007767669856548309
176.0,0.007837742567062378
192.0,0.00795619934797287
208.0,0.007782575208693743
224.0,0.007298606913536787
240.0,0.007037104573100805
256.0,0.0066963909193873405
288.0,0.005487037822604179
320.0,0.004728994332253933
352.0,0.003654611762613058
384.0,0.002506491495296359
416.0,0.0013553015887737274
448.0,0.0013469008263200521
480.0,0.0015801637200638652
512.0,0.0014941664412617683
576.0,0.0017004094552248716
640.0,0.0015576567966490984
704.0,0.0029916404746472836
768.0,0.0031397452112287283
832.0,0.0018018156988546252
896.0,0.0017854715697467327
960.0,0.002225320553407073
1024.0,0.0020498635713011026
1152.0,0.0032468694262206554
1280.0,0.002871609525755048
1408.0,0.002409568754956126
1536.0,0.0024831651244312525
1664.0,0.0009938213042914867
1792.0,0.0028740265406668186
1920.0,0.0023787005338817835
2048.0,0.0014846931444481015
2304.0,0.0005153864622116089
2560.0,-0.00041403615614399314
2816.0,5.788876660517417e-05
3072.0,-0.00017708884843159467
3328.0,-0.0007589534507133067
3584.0,-0.0029263971373438835
3840.0,-0.0021830659825354815
4096.0,-0.0012495004339143634
4608.0,-0.0025095008313655853
5120.0,-0.0041831620037555695
5632.0,-0.004212780389934778
6144.0,-0.0029275233391672373
6656.0,-0.0026761426124721766
7168.0,-0.002787852892652154
7680.0,-0.0012029787758365273
8192.0,-0.0008585182949900627
9216.0,-0.0007039400516077876
10240.0,0.00013910754933021963
11264.0,-0.0019985404796898365
12288.0,0.0017700797179713845
13312.0,0.0042252917774021626
14336.0,0.006487643346190453
end
