version,3.0
numOfCh,1
type,point
parent_name,1-cuts
ch_type,1_1
kcount,1
numberNandB,1
brightnessNandB,1
carpet pos,0
pc,0
Time (ms),CH1 Auto-Correlation
1.0,0.06596364825963974
2.0,0.06471837311983109
3.0,0.06354080140590668
4.0,0.06236677244305611
5.0,0.0612342543900013
6.0,0.060118429362773895
7.0,0.05906306579709053
8.0,0.05805455520749092
9.0,0.05708209052681923
10.0,0.056138619780540466
11.0,0.05522445961833
12.0,0.05436507612466812
13.0,0.05352534353733063
14.0,0.05268701910972595
15.0,0.05188601464033127
16.0,0.051139067858457565
18.0,0.04974240064620972
20.0,0.048430297523736954
22.0,0.047164179384708405
24.0,0.04592699557542801
26.0,0.04474116861820221
28.0,0.04359166696667671
30.0,0.042482104152441025
32.0,0.041460055857896805
36.0,0.039599038660526276
40.0,0.0378577746450901
44.0,0.03616733103990555
48.0,0.03467686101794243
52.0,0.03332599252462387
56.0,0.032073479145765305
60.0,0.030801571905612946
64.0,0.029528073966503143
72.0,0.02699960768222809
80.0,0.02457536943256855
88.0,0.02244233712553978
96.0,0.02033187635242939
104.0,0.018681922927498817
112.0,0.01736401952803135
120.0,0.016408024355769157
128.0,0.015519622713327408
144.0,0.013204445131123066
160.0,0.011463027447462082
176.0,0.01003044843673706
192.0,0.00942713301628828
208.0,0.008242595009505749
224.0,0.006875453982502222
240.0,0.006218074355274439
256.0,0.006703671999275684
288.0,0.0054003349505364895
320.0,0.004619469400495291
352.0,0.002924348460510373
384.0,0.0018161293119192123
416.0,0.0010517151094973087
448.0,0.00010589551675366238
480.0,0.0008903861162252724
512.0,0.0024052937515079975
576.0,0.0025801609735935926
640.0,0.001694595324806869
704.0,0.0016847985098138452
768.0,0.002002064138650894
832.0,0.0038400799967348576
896.0,0.003929739817976952
960.0,0.0033097711857408285
1024.0,0.0054324413649737835
1152.0,0.001400291919708252
1280.0,-0.004261186812072992
1408.0,-0.0052359686233103275
1536.0,-0.007573968265205622
1664.0,-0.004624228458851576
1792.0,-0.006054949481040239
1920.0,-0.004154478199779987
2048.0,-0.00570273119956255
2304.0,-0.007142074406147003
2560.0,-0.005000794306397438
2816.0,-0.0030790260061621666
3072.0,-0.0027444178704172373
3328.0,-0.0013825338101014495
3584.0,0.003063822630792856
3840.0,0.007131777238100767
4096.0,0.002899104030802846
4608.0,0.0009464994654990733
5120.0,0.004926724825054407
5632.0,0.005325018893927336
6144.0,-0.0002146882761735469
6656.0,-0.0023348676040768623
7168.0,-0.0056404476054012775
7680.0,-0.011428043246269226
8192.0,-0.00860140472650528
9216.0,0.0032464121468365192
10240.0,0.00561539875343442
11264.0,-0.004343088716268539
12288.0,-0.004527098033577204
13312.0,0.002289538737386465
14336.0,0.001947255921550095
end
