version,3.0
numOfCh,1
type,point
parent_name,1-cuts
ch_type,1_1
kcount,1
numberNandB,1
brightnessNandB,1
carpet pos,0
pc,0
Time (ms),CH1 Auto-Correlation
1.0,0.031805913895368576
2.0,0.031225156038999557
3.0,0.030672332271933556
4.0,0.03012991137802601
5.0,0.029618078842759132
6.0,0.02912507951259613
7.0,0.028639329597353935
8.0,0.02816484309732914
9.0,0.027696898207068443
10.0,0.02724779210984707
11.0,0.026798292994499207
12.0,0.026381943374872208
13.0,0.025964194908738136
14.0,0.025542622432112694
15.0,0.025127694010734558
16.0,0.024717744439840317
18.0,0.023905141279101372
20.0,0.02312931977212429
22.0,0.022380508482456207
24.0,0.02164584957063198
26.0,0.02091604471206665
28.0,0.02020876295864582
30.0,0.019540326669812202
32.0,0.01892632618546486
36.0,0.017809787765145302
40.0,0.016823189333081245
44.0,0.01592567376792431
48.0,0.015151257626712322
52.0,0.014512177556753159
56.0,0.014023893512785435
60.0,0.013610683381557465
64.0,0.013202440924942493
72.0,0.012374717742204666
80.0,0.01145350281149149
88.0,0.010613084770739079
96.0,0.009851008653640747
104.0,0.009136217646300793
112.0,0.008715207688510418
120.0,0.008542736060917377
128.0,0.008139161393046379
144.0,0.0075490428134799
160.0,0.006962717045098543
176.0,0.006783691700547934
192.0,0.0067952764220535755
208.0,0.006594002712517977
224.0,0.005981906317174435
240.0,0.0047891950234770775
256.0,0.003768650349229574
288.0,0.0022697243839502335
320.0,0.0022885887883603573
352.0,0.0028585137333720922
384.0,0.003218310419470072
416.0,0.0035816440358757973
448.0,0.0025356654077768326
480.0,0.0011484863935038447
512.0,-0.00022632120817434043
576.0,-0.0001487811387050897
640.0,-0.000392734888009727
704.0,0.00022644255659542978
768.0,0.0014921458205208182
832.0,0.0025445062201470137
896.0,0.0028913281857967377
960.0,0.002026746980845928
1024.0,0.0017700593452900648
1152.0,0.0012267905985936522
1280.0,0.0005528550827875733
1408.0,0.00015185792290139943
1536.0,-0.0006805867305956781
1664.0,-0.001137436251156032
1792.0,-0.0002996399125549942
1920.0,-0.0006540626054629683
2048.0,-0.0015110839158296585
2304.0,0.00021243258379399776
2560.0,-0.0014201621524989605
2816.0,-0.002546467585489154
3072.0,-0.003486386500298977
3328.0,-0.00023940241953823715
3584.0,0.0012415644014254212
3840.0,-0.00014458635996561497
4096.0,-0.00028770064818672836
4608.0,-0.003976391162723303
5120.0,-0.0027928263880312443
5632.0,-0.0005538179539144039
6144.0,-7.184219430200756e-05
6656.0,-0.0007258467958308756
7168.0,0.0017478110967203975
7680.0,0.0028157418128103018
8192.0,0.0012199904303997755
9216.0,0.0020016205962747335
10240.0,0.0017526347655802965
11264.0,-0.003306484082713723
12288.0,-0.0030653108842670918
13312.0,0.00040195626206696033
14336.0,-0.0019924272783100605
end
