version,3.0
numOfCh,1
type,point
parent_name,1-cuts
ch_type,1_1
kcount,1
numberNandB,1
brightnessNandB,1
carpet pos,0
pc,0
Time (ms),CH1 Auto-Correlation
1.0,0.03755107894539833
2.0,0.03697121888399124
3.0,0.03641495108604431
4.0,0.03587082773447037
5.0,0.03534463047981262
6.0,0.03482086583971977
7.0,0.03430616855621338
8.0,0.03378184884786606
9.0,0.033272113651037216
10.0,0.03277947008609772
11.0,0.032316550612449646
12.0,0.03187200427055359
13.0,0.031442005187273026
14.0,0.031000880524516106
15.0,0.030569829046726227
16.0,0.030145788565278053
18.0,0.029329895973205566
20.0,0.028573622927069664
22.0,0.027869103476405144
24.0,0.027192462235689163
26.0,0.02656577341258526
28.0,0.02596292831003666
30.0,0.02538352645933628
32.0,0.024830367416143417
36.0,0.023830914869904518
40.0,0.022961819544434547
44.0,0.022217372432351112
48.0,0.02157842554152012
52.0,0.020975863561034203
56.0,0.020425083115696907
60.0,0.019933924078941345
64.0,0.01941775344312191
72.0,0.0184315238147974
80.0,0.017543116584420204
88.0,0.01690608076751232
96.0,0.016523119062185287
104.0,0.016057029366493225
112.0,0.015569597482681274
120.0,0.014931611716747284
128.0,0.014324120245873928
144.0,0.013352238573133945
160.0,0.012815872207283974
176.0,0.012070205062627792
192.0,0.010852336883544922
208.0,0.009858553297817707
224.0,0.009749014861881733
240.0,0.009593509137630463
256.0,0.009246754460036755
288.0,0.008795887231826782
320.0,0.00798682402819395
352.0,0.007242985535413027
384.0,0.007160564884543419
416.0,0.006725424434989691
448.0,0.005887627601623535
480.0,0.005410412326455116
512.0,0.005553308874368668
576.0,0.00554725481197238
640.0,0.0041935923509299755
704.0,0.0012996074510738254
768.0,-0.000593043863773346
832.0,-0.0018382143462076783
896.0,-0.0009654955356381834
960.0,-0.0014172288356348872
1024.0,-0.0011691852705553174
1152.0,-0.0032970430329442024
1280.0,-0.004689357243478298
1408.0,-0.005404211115092039
1536.0,-0.003851642832159996
1664.0,-0.005072756204754114
1792.0,-0.003772817086428404
1920.0,-0.0007055282476358116
2048.0,0.0009804785950109363
2304.0,6.246205884963274e-05
2560.0,0.0018312034662812948
2816.0,0.00018830587214324623
3072.0,0.00026606954634189606
3328.0,-0.0009954867418855429
3584.0,-0.004532651510089636
3840.0,-0.0066028195433318615
4096.0,-0.0062753502279520035
4608.0,-0.0034465137869119644
5120.0,0.0032477739732712507
5632.0,0.004037479404360056
6144.0,0.0006452075322158635
6656.0,-0.002692652866244316
7168.0,0.0001940052752615884
7680.0,0.00643595727160573
8192.0,1.2903424249088857e-05
9216.0,-0.0011802153894677758
10240.0,-0.0036890520714223385
11264.0,-0.005396418273448944
12288.0,-0.003475898876786232
13312.0,0.0063651734963059425
14336.0,0.0021141497418284416
end
