version,3.0
numOfCh,1
type,point
parent_name,1-cuts
ch_type,1_1
kcount,1
numberNandB,1
brightnessNandB,1
carpet pos,0
pc,0
Time (ms),CH1 Auto-Correlation
1.0,0.07197057455778122
2.0,0.07084256410598755
3.0,0.0697864517569542
4.0,0.06873811036348343
5.0,0.06769897788763046
6.0,0.06672050803899765
7.0,0.0657888874411583
8.0,0.06485460698604584
9.0,0.0639619380235672
10.0,0.0631231963634491
11.0,0.06232414394617081
12.0,0.06157715618610382
13.0,0.060853295028209686
14.0,0.06017598509788513
15.0,0.05949942767620087
16.0,0.05882609263062477
18.0,0.057501062750816345
20.0,0.05620864778757095
22.0,0.05493774265050888
24.0,0.053705938160419464
26.0,0.05252169445157051
28.0,0.05137224495410919
30.0,0.05025240033864975
32.0,0.04913473501801491
36.0,0.04700229689478874
40.0,0.045088544487953186
44.0,0.04334946349263191
48.0,0.04179929569363594
52.0,0.0402708426117897
56.0,0.03883443772792816
60.0,0.037461720407009125
64.0,0.03628845140337944
72.0,0.0340983085334301
80.0,0.032439425587654114
88.0,0.031145652756094933
96.0,0.029937230050563812
104.0,0.02866591513156891
112.0,0.027784230187535286
120.0,0.027112824842333794
128.0,0.02580062486231327
144.0,0.02370475046336651
160.0,0.022492488846182823
176.0,0.02095572091639042
192.0,0.019253354519605637
208.0,0.017952991649508476
224.0,0.016495531424880028
240.0,0.014125477522611618
256.0,0.012355107814073563
288.0,0.010975170880556107
320.0,0.0094898771494627
352.0,0.007051794324070215
384.0,0.005448413547128439
416.0,0.006137209944427013
448.0,0.006541608367115259
480.0,0.0061186375096440315
512.0,0.00523401191458106
576.0,0.0036945559550076723
640.0,0.00418346282094717
704.0,0.005037990398705006
768.0,0.0014567590551450849
832.0,-0.0018715340411290526
896.0,-0.004219983238726854
960.0,-0.0019362373277544975
1024.0,-0.0034170483704656363
1152.0,-0.006617454346269369
1280.0,-0.007455945014953613
1408.0,-0.005084211938083172
1536.0,-0.0037612044252455235
1664.0,-0.0037997220642864704
1792.0,-0.004111346323043108
1920.0,-0.00800121296197176
2048.0,-0.0067353700287640095
2304.0,0.0006475092959590256
2560.0,-0.0006905877962708473
2816.0,0.0024813346099108458
3072.0,0.003978355322033167
3328.0,0.0037515033036470413
3584.0,0.0002002535038627684
3840.0,0.0019011931726709008
4096.0,0.000374826806364581
4608.0,-0.0021161683835089207
5120.0,0.0012561960611492395
5632.0,0.0015218846965581179
6144.0,-0.0016532824374735355
6656.0,0.0030385125428438187
7168.0,0.0033772438764572144
7680.0,0.0023461587261408567
8192.0,-0.005766158923506737
9216.0,-0.005638314876705408
10240.0,0.0031248487066477537
11264.0,-0.0018799087265506387
12288.0,-0.0030204900540411472
13312.0,-0.0030778758227825165
14336.0,-0.007077567279338837
end
