version,3.0
numOfCh,1
type,point
parent_name,1-cuts
ch_type,1_1
kcount,1
numberNandB,1
brightnessNandB,1
carpet pos,0
pc,0
Time (ms),CH1 Auto-Correlation
1.0,0.02302595041692257
2.0,0.022618627175688744
3.0,0.022214392200112343
4.0,0.021824974566698074
5.0,0.021435851231217384
6.0,0.021056175231933594
7.0,0.020693408325314522
8.0,0.020342012867331505
9.0,0.020000623539090157
10.0,0.019666455686092377
11.0,0.019336126744747162
12.0,0.018999826163053513
13.0,0.018676569685339928
14.0,0.01836230233311653
15.0,0.018049336969852448
16.0,0.017747124657034874
18.0,0.01714738830924034
20.0,0.016593487933278084
22.0,0.016089314594864845
24.0,0.01558784581720829
26.0,0.015119809657335281
28.0,0.014667602255940437
30.0,0.014235520735383034
32.0,0.013821243308484554
36.0,0.01301938109099865
40.0,0.012309864163398743
44.0,0.011683164164423943
48.0,0.011103935539722443
52.0,0.010502892546355724
56.0,0.009981179609894753
60.0,0.009489964693784714
64.0,0.00902676209807396
72.0,0.008218877017498016
80.0,0.007483850233256817
88.0,0.0067906868644058704
96.0,0.0061334786005318165
104.0,0.005491556134074926
112.0,0.004843587521463633
120.0,0.004162747412919998
128.0,0.0036129129584878683
144.0,0.0030563625041395426
160.0,0.0025770915672183037
176.0,0.0022690100595355034
192.0,0.0023235816042870283
208.0,0.00233622919768095
224.0,0.001922838157042861
240.0,0.0016945147654041648
256.0,0.001764991320669651
288.0,0.0021499567665159702
320.0,0.0020363538060337305
352.0,0.0004156813374720514
384.0,-0.0004400047182571143
416.0,-0.0009207740076817572
448.0,-0.0015759944217279553
480.0,-0.00234646606259048
512.0,-0.0030549305956810713
576.0,-0.002640067134052515
640.0,-0.001999086234718561
704.0,-0.0024986076168715954
768.0,-0.002774930326268077
832.0,-0.0015784407733008265
896.0,6.000621397106443e-06
960.0,0.0007307195919565856
1024.0,0.0010673683136701584
1152.0,0.002465851604938507
1280.0,0.0008039777749218047
1408.0,-0.00030500369030050933
1536.0,-0.0012982562184333801
1664.0,-0.0023571038618683815
1792.0,-0.0022667257580906153
1920.0,-0.0012541146716102958
2048.0,0.0018260786309838295
2304.0,0.003174156416207552
2560.0,-0.0005140193388797343
2816.0,-0.0027780886739492416
3072.0,-0.004069870803505182
3328.0,-0.0008274164283648133
3584.0,0.00018545391503721476
3840.0,-0.0005574537790380418
4096.0,-0.0017600064165890217
4608.0,0.0015948121435940266
5120.0,-0.0007342065218836069
5632.0,7.648699829587713e-05
6144.0,0.0019285398302599788
6656.0,0.0009528344380669296
7168.0,0.0009571131085976958
7680.0,-0.001706418115645647
8192.0,0.0003913356049451977
9216.0,0.0001674587110755965
10240.0,-0.0013092088047415018
11264.0,0.0014002728275954723
12288.0,-0.0009418170666322112
13312.0,0.0009827532339841127
14336.0,-0.0006569577381014824
end
