version,3.0
numOfCh,1
type,point
parent_name,1-cuts
ch_type,1_1
kcount,1
numberNandB,1
brightnessNandB,1
carpet pos,0
pc,0
Time (ms),CH1 Auto-Correlation
1.0,0.03151997923851013
2.0,0.030937446281313896
3.0,0.03039979189634323
4.0,0.02988087385892868
5.0,0.029389819130301476
6.0,0.028915414586663246
7.0,0.028446145355701447
8.0,0.027988331392407417
9.0,0.02753218449652195
10.0,0.027097627520561218
11.0,0.026690427213907242
12.0,0.026296475902199745
13.0,0.025916635990142822
14.0,0.025550004094839096
15.0,0.02517305314540863
16.0,0.024807609617710114
18.0,0.02409529872238636
20.0,0.023410115391016006
22.0,0.022763410583138466
24.0,0.02218528278172016
26.0,0.021598566323518753
28.0,0.021022068336606026
30.0,0.02047318033874035
32.0,0.019987188279628754
36.0,0.019140183925628662
40.0,0.01839894987642765
44.0,0.01777169294655323
48.0,0.017147352918982506
52.0,0.01657005026936531
56.0,0.016087189316749573
60.0,0.015627052634954453
64.0,0.015170887112617493
72.0,0.014164389111101627
80.0,0.013193736784160137
88.0,0.012190094217658043
96.0,0.011121475137770176
104.0,0.010025094263255596
112.0,0.009119031019508839
120.0,0.008567212149500847
128.0,0.008157365955412388
144.0,0.007642455864697695
160.0,0.006825454533100128
176.0,0.00581224774941802
192.0,0.0051710461266338825
208.0,0.004786807112395763
224.0,0.004233939573168755
240.0,0.0034665472339838743
256.0,0.0028205327689647675
288.0,0.0019295577658340335
320.0,0.0009688645368441939
352.0,9.026584302773699e-05
384.0,0.00039210476097650826
416.0,0.0009445599280297756
448.0,0.0013838565209880471
480.0,0.0020457373466342688
512.0,0.0028353077359497547
576.0,0.0014008494326844811
640.0,0.0004901238717138767
704.0,-0.0007755903643555939
768.0,-0.00012383425200823694
832.0,-0.001766016473993659
896.0,-0.0030798944644629955
960.0,-0.0024954136461019516
1024.0,-0.0007536414195783436
1152.0,0.0007699301349930465
1280.0,0.0007392959669232368
1408.0,-0.0020865655969828367
1536.0,-0.0012680767104029655
1664.0,-0.00274328188970685
1792.0,-0.004174856934696436
1920.0,-0.006678920239210129
2048.0,-0.006656566169112921
2304.0,-0.0009825607994571328
2560.0,0.00020707292424049228
2816.0,0.0008350666612386703
3072.0,-0.0004976378404535353
3328.0,0.0008709448738954961
3584.0,-0.00020861555822193623
3840.0,0.00432601710781455
4096.0,0.0021503795869648457
4608.0,-0.0005686496151611209
5120.0,-0.0005223262123763561
5632.0,0.0008162379963323474
6144.0,0.0008502898854203522
6656.0,-0.0009102644398808479
7168.0,-0.0013793165562674403
7680.0,-0.0005963157746009529
8192.0,-0.003976298496127129
9216.0,0.0007110604783520103
10240.0,0.0031937125604599714
11264.0,-0.00044289612560532987
12288.0,-0.0033558926079422235
13312.0,0.0021327012218534946
14336.0,0.0016839058371260762
end
