version,3.0
numOfCh,1
type,point
parent_name,1-cuts
ch_type,1_1
kcount,1
numberNandB,1
brightnessNandB,1
carpet pos,0
pc,0
Time (ms),CH1 Auto-Correlation
1.0,0.06495919823646545
2.0,0.06375957280397415
3.0,0.06258219480514526
4.0,0.061423491686582565
5.0,0.06028900668025017
6.0,0.05919687822461128
7.0,0.05812973156571388
8.0,0.0571107342839241
9.0,0.05613371357321739
10.0,0.05520324409008026
11.0,0.05430759862065315
12.0,0.05341728404164314
13.0,0.05255426838994026
14.0,0.05171235278248787
15.0,0.05086462199687958
16.0,0.050044432282447815
18.0,0.04850608855485916
20.0,0.04702020436525345
22.0,0.045644406229257584
24.0,0.04441316798329353
26.0,0.04322216287255287
28.0,0.042089998722076416
30.0,0.04095574840903282
32.0,0.03984376788139343
36.0,0.03760700300335884
40.0,0.035588547587394714
44.0,0.03381595015525818
48.0,0.03233882039785385
52.0,0.030904443934559822
56.0,0.029553573578596115
60.0,0.02827010117471218
64.0,0.027147840708494186
72.0,0.025507887825369835
80.0,0.023944297805428505
88.0,0.022151125594973564
96.0,0.020683294162154198
104.0,0.019320176914334297
112.0,0.01781785674393177
120.0,0.016043657436966896
128.0,0.014508639462292194
144.0,0.012300068512558937
160.0,0.011621723882853985
176.0,0.012174196541309357
192.0,0.012235875241458416
208.0,0.011726846918463707
224.0,0.01134111825376749
240.0,0.01100094337016344
256.0,0.0101542379707098
288.0,0.008507838472723961
320.0,0.00809565745294094
352.0,0.007857589982450008
384.0,0.006083579268306494
416.0,0.00450046407058835
448.0,0.0039601195603609085
480.0,0.0019595192279666662
512.0,0.001115546328946948
576.0,0.0026554737705737352
640.0,-0.0029027508571743965
704.0,-0.0063087791204452515
768.0,-0.004146956373006105
832.0,0.00012001908908132464
896.0,0.0010791087988764048
960.0,-0.0005145897157490253
1024.0,0.0003331560001242906
1152.0,-0.0005371393053792417
1280.0,0.00029412045842036605
1408.0,0.0032285370398312807
1536.0,0.0012331800535321236
1664.0,0.001649077283218503
1792.0,-0.0009921283926814795
1920.0,0.0016501303762197495
2048.0,-0.0008773053414188325
2304.0,-0.0018577659502625465
2560.0,-0.005654317792505026
2816.0,-0.005321407690644264
3072.0,-0.008166849613189697
3328.0,-0.00843989197164774
3584.0,-0.0034163903910666704
3840.0,0.0038418970070779324
4096.0,-0.006562388502061367
4608.0,-0.004981194622814655
5120.0,-0.0007496653124690056
5632.0,0.004004100803285837
6144.0,0.007256032899022102
6656.0,0.003920402843505144
7168.0,0.0041278875432908535
7680.0,0.004609871655702591
8192.0,0.003283919533714652
9216.0,-0.005604701582342386
10240.0,-0.0037680275272578
11264.0,-0.0009186802781186998
12288.0,-0.0049240076914429665
13312.0,0.007264806888997555
14336.0,-0.0029643243178725243
end
