version,3.0
numOfCh,1
type,point
parent_name,1-cuts
ch_type,1_1
kcount,1
numberNandB,1
brightnessNandB,1
carpet pos,0
pc,0
Time (ms),CH1 Auto-Correlation
1.0,0.02691263146698475
2.0,0.026482483372092247
3.0,0.026068631559610367
4.0,0.025677552446722984
5.0,0.02529415301978588
6.0,0.024935385212302208
7.0,0.024596447125077248
8.0,0.024272792041301727
9.0,0.023952730000019073
10.0,0.023636523634195328
11.0,0.023323986679315567
12.0,0.023019321262836456
13.0,0.022722970694303513
14.0,0.022436289116740227
15.0,0.022158794105052948
16.0,0.021878506988286972
18.0,0.021366188302636147
20.0,0.020878350362181664
22.0,0.02040611207485199
24.0,0.01995711214840412
26.0,0.01953086443245411
28.0,0.01913096383213997
30.0,0.01875901408493519
32.0,0.01841527223587036
36.0,0.01774820312857628
40.0,0.017127960920333862
44.0,0.01647382415831089
48.0,0.015845900401473045
52.0,0.015208768658339977
56.0,0.014652606099843979
60.0,0.01412607729434967
64.0,0.013652722351253033
72.0,0.012749872170388699
80.0,0.011774914339184761
88.0,0.010676282458007336
96.0,0.00976382102817297
104.0,0.008970719762146473
112.0,0.008291852660477161
120.0,0.007810711394995451
128.0,0.007417723070830107
144.0,0.007068099919706583
160.0,0.006860679481178522
176.0,0.006691506132483482
192.0,0.006666956935077906
208.0,0.006691641639918089
224.0,0.006867528427392244
240.0,0.006974324584007263
256.0,0.006966758519411087
288.0,0.006010022480040789
320.0,0.004827043041586876
352.0,0.0032978737726807594
384.0,0.002285036724060774
416.0,0.0017013774486258626
448.0,0.0015620848862454295
480.0,0.0021358123049139977
512.0,0.0028558922931551933
576.0,0.003249314846470952
640.0,0.001434823265299201
704.0,0.001075846143066883
768.0,0.001502923434600234
832.0,0.0008183825993910432
896.0,-0.0008821188239380717
960.0,-0.0017651966772973537
1024.0,-0.0008382614469155669
1152.0,-0.00021452161308843642
1280.0,-0.0004214504442643374
1408.0,8.35511164041236e-05
1536.0,9.206953836837783e-05
1664.0,9.648218110669404e-05
1792.0,-0.0008929536561481655
1920.0,-0.00022704350703861564
2048.0,-0.0005911028711125255
2304.0,0.00018981054017785937
2560.0,0.0007924725650809705
2816.0,-0.0011036249343305826
3072.0,-0.0018470301292836666
3328.0,0.00039257481694221497
3584.0,0.0006519390153698623
3840.0,0.0017908907029777765
4096.0,0.0016701846616342664
4608.0,0.0005051690386608243
5120.0,-0.0015859833220019937
5632.0,-0.005357034038752317
6144.0,-0.0045517669059336185
6656.0,-0.002465973375365138
7168.0,0.00015532765246462077
7680.0,-0.00040403881575912237
8192.0,-0.0020161690190434456
9216.0,-0.0018662858055904508
10240.0,-0.0035559176467359066
11264.0,0.0026990417391061783
12288.0,0.005093003157526255
13312.0,-0.00025856817956082523
14336.0,0.001553765032440424
end
