version,3.0
numOfCh,1
type,point
parent_name,1-cuts
ch_type,1_1
kcount,1
numberNandB,1
brightnessNandB,1
carpet pos,0
pc,0
Time (ms),CH1 Auto-Correlation
1.0,0.06261967867612839
2.0,0.061428461223840714
3.0,0.06026314198970795
4.0,0.05915383994579315
5.0,0.05805198475718498
6.0,0.056963447481393814
7.0,0.0559147372841835
8.0,0.05492482706904411
9.0,0.05398113653063774
10.0,0.053038690239191055
11.0,0.05209677666425705
12.0,0.051187001168727875
13.0,0.050297826528549194
14.0,0.0494396910071373
15.0,0.04859193414449692
16.0,0.04775535687804222
18.0,0.046135712414979935
20.0,0.04460625350475311
22.0,0.04317085072398186
24.0,0.041806794703006744
26.0,0.040502939373254776
28.0,0.03924567624926567
30.0,0.03800234571099281
32.0,0.03677348792552948
36.0,0.034758664667606354
40.0,0.03314607962965965
44.0,0.03167795017361641
48.0,0.030364735051989555
52.0,0.029145287349820137
56.0,0.02802259661257267
60.0,0.026850365102291107
64.0,0.025735056027770042
72.0,0.02407144568860531
80.0,0.022709138691425323
88.0,0.021417420357465744
96.0,0.020027579739689827
104.0,0.01850060746073723
112.0,0.017773639410734177
120.0,0.017342831939458847
128.0,0.016862139105796814
144.0,0.015571856871247292
160.0,0.013991770334541798
176.0,0.012476110830903053
192.0,0.011317441239953041
208.0,0.01066096592694521
224.0,0.010634324513375759
240.0,0.010421833954751492
256.0,0.010022303089499474
288.0,0.009590551257133484
320.0,0.00797912385314703
352.0,0.0063852411694824696
384.0,0.006757802329957485
416.0,0.006191401742398739
448.0,0.0046754940412938595
480.0,0.0038490681909024715
512.0,0.004169025458395481
576.0,0.0027647705283015966
640.0,-0.0003239006910007447
704.0,-0.0016297808615490794
768.0,-0.0015691323205828667
832.0,-0.002767841098830104
896.0,-0.005024806596338749
960.0,-0.008050539530813694
1024.0,-0.0053098201751708984
1152.0,-0.005225067958235741
1280.0,-0.004896302241832018
1408.0,-0.0012203609803691506
1536.0,0.004232810344547033
1664.0,0.004959553014487028
1792.0,0.004322853405028582
1920.0,0.006674507632851601
2048.0,0.006404044572263956
2304.0,0.001773678231984377
2560.0,0.0016732255462557077
2816.0,-0.007017886266112328
3072.0,-0.0070930365473032
3328.0,-0.001548190601170063
3584.0,-0.0022098668850958347
3840.0,-0.0021271216683089733
4096.0,-0.0038382746279239655
4608.0,-0.008157065138220787
5120.0,-0.0032763206399977207
5632.0,0.0023160711862146854
6144.0,-0.0012498855357989669
6656.0,-0.005081504117697477
7168.0,0.00028457387816160917
7680.0,0.003990566823631525
8192.0,-0.000642061117105186
9216.0,0.004794134758412838
10240.0,-0.003648377489298582
11264.0,0.003958689048886299
12288.0,-0.004215299151837826
13312.0,-0.005527910310775042
14336.0,0.012080450542271137
end
