version,3.0
numOfCh,1
type,point
parent_name,1-cuts
ch_type,1_1
kcount,1
numberNandB,1
brightnessNandB,1
carpet pos,0
pc,0
Time (ms),CH1 Auto-Correlation
1.0,0.022764122113585472
2.0,0.022374004125595093
3.0,0.02199762873351574
4.0,0.02163407951593399
5.0,0.021274646744132042
6.0,0.020922796800732613
7.0,0.020580986514687538
8.0,0.02025250904262066
9.0,0.019940881058573723
10.0,0.019642705097794533
11.0,0.01934945397078991
12.0,0.019064882770180702
13.0,0.018785547465085983
14.0,0.018510138615965843
15.0,0.018239706754684448
16.0,0.01797584444284439
18.0,0.01748417690396309
20.0,0.017007699236273766
22.0,0.016571003943681717
24.0,0.01616935431957245
26.0,0.01577671803534031
28.0,0.015407302416861057
30.0,0.015046708285808563
32.0,0.014689654111862183
36.0,0.01398273091763258
40.0,0.013308608904480934
44.0,0.012684617191553116
48.0,0.012115812860429287
52.0,0.011531355790793896
56.0,0.011001032777130604
60.0,0.010537280701100826
64.0,0.010057446546852589
72.0,0.00912183802574873
80.0,0.008312536403536797
88.0,0.007699285168200731
96.0,0.007249636109918356
104.0,0.006854390259832144
112.0,0.0065284790471196175
120.0,0.00619396660476923
128.0,0.006011868827044964
144.0,0.005886202212423086
160.0,0.005710616707801819
176.0,0.00527198426425457
192.0,0.004707185551524162
208.0,0.004183899145573378
224.0,0.003993493039160967
240.0,0.0034925693180412054
256.0,0.002849745098501444
288.0,0.002264121314510703
320.0,0.002174729248508811
352.0,0.002046157605946064
384.0,0.0029578511603176594
416.0,0.0036040679551661015
448.0,0.003074976848438382
480.0,0.0015947036445140839
512.0,0.0003727819712366909
576.0,-0.00025449032546021044
640.0,0.0005411406746134162
704.0,0.0007791461539454758
768.0,0.001027613296173513
832.0,0.0012477379059419036
896.0,0.0008821603842079639
960.0,0.0007536872290074825
1024.0,0.00046980445040389895
1152.0,0.0014100081752985716
1280.0,0.0016779290745034814
1408.0,0.0007000571931712329
1536.0,0.0006262920796871185
1664.0,0.00172481092158705
1792.0,0.0016284430166706443
1920.0,0.002029458526521921
2048.0,0.002763875760138035
2304.0,0.001241417950950563
2560.0,-0.001014085253700614
2816.0,-0.000918241566978395
3072.0,0.0012275759363546968
3328.0,0.0017456593923270702
3584.0,0.0006079106824472547
3840.0,0.00111509975977242
4096.0,0.0008679082384333014
4608.0,-0.0005091942148283124
5120.0,-0.0013590054586529732
5632.0,-0.00155536865349859
6144.0,-0.0008697304292581975
6656.0,0.00047621713019907475
7168.0,0.0005983512382954359
7680.0,-0.0017056030919775367
8192.0,-0.0029122051782906055
9216.0,-0.001595249748788774
10240.0,-0.0032676076516509056
11264.0,-0.0015850666677579284
12288.0,-0.002001065295189619
13312.0,-0.0006651022122241557
14336.0,0.0002018716768361628
end
