version,3.0
numOfCh,1
type,point
parent_name,1-cuts
ch_type,1_1
kcount,1
numberNandB,1
brightnessNandB,1
carpet pos,0
pc,0
Time (ms),CH1 Auto-Correlation
1.0,0.0678866058588028
2.0,0.06674265116453171
3.0,0.06562285125255585
4.0,0.06454034149646759
5.0,0.06347435712814331
6.0,0.06246127933263779
7.0,0.06147745996713638
8.0,0.06052231043577194
9.0,0.059590186923742294
10.0,0.058684252202510834
11.0,0.05779414623975754
12.0,0.05690969154238701
13.0,0.056057658046483994
14.0,0.055246446281671524
15.0,0.05443784222006798
16.0,0.05363764241337776
18.0,0.052145667374134064
20.0,0.05069921538233757
22.0,0.04926786571741104
24.0,0.0478610061109066
26.0,0.0465131476521492
28.0,0.045180823653936386
30.0,0.043928757309913635
32.0,0.04272722080349922
36.0,0.040594447404146194
40.0,0.03889169543981552
44.0,0.0374138206243515
48.0,0.035950206220149994
52.0,0.03440340235829353
56.0,0.032866645604372025
60.0,0.0313911959528923
64.0,0.03005112148821354
72.0,0.02751622349023819
80.0,0.025105373933911324
88.0,0.02303985320031643
96.0,0.02123066782951355
104.0,0.019787216559052467
112.0,0.01815703883767128
120.0,0.016668615862727165
128.0,0.015607371926307678
144.0,0.0141917634755373
160.0,0.01276068203151226
176.0,0.011177361011505127
192.0,0.010166432708501816
208.0,0.00989700760692358
224.0,0.00883635226637125
240.0,0.006642044987529516
256.0,0.004434713162481785
288.0,0.0019305477617308497
320.0,0.001567276194691658
352.0,0.0018005786696448922
384.0,0.0016977175837382674
416.0,0.000389345979783684
448.0,-0.00020439241779968143
480.0,-0.001809283741749823
512.0,-0.004315313417464495
576.0,-0.004232719540596008
640.0,-0.00329714291729033
704.0,-0.003182081039994955
768.0,-0.0019271326018497348
832.0,-0.0035718646831810474
896.0,-0.0064245956018567085
960.0,-0.0073318276554346085
1024.0,-0.00596878957003355
1152.0,-0.003378600114956498
1280.0,-0.002833106555044651
1408.0,-0.0005486587760969996
1536.0,0.002474456327036023
1664.0,0.004327184986323118
1792.0,-0.0011419440852478147
1920.0,-0.004976874683052301
2048.0,-0.0071959723718464375
2304.0,-0.006282959133386612
2560.0,-0.0034993356093764305
2816.0,0.006013152655214071
3072.0,0.010028291493654251
3328.0,0.006601923611015081
3584.0,-0.000700970645993948
3840.0,-0.0052742124535143375
4096.0,-0.005709741730242968
4608.0,0.002766781020909548
5120.0,-0.0053514037281274796
5632.0,-0.0058544352650642395
6144.0,0.0007973446045070887
6656.0,0.004324896261096001
7168.0,-0.0007605309947393835
7680.0,0.0008767485851421952
8192.0,-0.0008458246593363583
9216.0,-0.0031305456068366766
10240.0,0.006826669909060001
11264.0,0.0021191462874412537
12288.0,-0.003889978863298893
13312.0,-0.005004079546779394
14336.0,0.0038450718857347965
end
