version,3.0
numOfCh,1
type,point
parent_name,1-cuts
ch_type,1_1
kcount,1
numberNandB,1
brightnessNandB,1
carpet pos,0
pc,0
Time (ms),CH1 Auto-Correlation
1.0,0.026448294520378113
2.0,0.026057513430714607
3.0,0.02567167580127716
4.0,0.025302661582827568
5.0,0.02494337409734726
6.0,0.024582913145422935
7.0,0.024224992841482162
8.0,0.023870443925261497
9.0,0.023516090586781502
10.0,0.02318641170859337
11.0,0.022869398817420006
12.0,0.0225523691624403
13.0,0.02223801054060459
14.0,0.021935731172561646
15.0,0.021646719425916672
16.0,0.021377356722950935
18.0,0.020861197263002396
20.0,0.0203561931848526
22.0,0.019868766888976097
24.0,0.01939752697944641
26.0,0.01892915926873684
28.0,0.0184799712151289
30.0,0.018059080466628075
32.0,0.017653437331318855
36.0,0.016908148303627968
40.0,0.016247138381004333
44.0,0.01565932109951973
48.0,0.015156479552388191
52.0,0.014714214019477367
56.0,0.014267287217080593
60.0,0.01379111222922802
64.0,0.013351961970329285
72.0,0.012726674787700176
80.0,0.012232689186930656
88.0,0.01178046129643917
96.0,0.011350761167705059
104.0,0.010860427282750607
112.0,0.010412200354039669
120.0,0.009949111379683018
128.0,0.009576519019901752
144.0,0.00927817728370428
160.0,0.008664483204483986
176.0,0.008208144456148148
192.0,0.007667303550988436
208.0,0.007232354488223791
224.0,0.006779229734092951
240.0,0.00622772891074419
256.0,0.005858180578798056
288.0,0.005791112314909697
320.0,0.005680895410478115
352.0,0.005633001681417227
384.0,0.005462337750941515
416.0,0.0046054162085056305
448.0,0.004015771206468344
480.0,0.003743062261492014
512.0,0.003491640090942383
576.0,0.0027685731183737516
640.0,0.002951701171696186
704.0,0.0023871734738349915
768.0,0.003172270255163312
832.0,0.002564342925325036
896.0,0.0018569754902273417
960.0,0.0020284673664718866
1024.0,0.001461297390051186
1152.0,-2.3624224922969006e-05
1280.0,-0.00017009089060593396
1408.0,-0.0006272416794672608
1536.0,-0.002148633124306798
1664.0,-0.003311509732156992
1792.0,-0.0037641075905412436
1920.0,-0.002957888413220644
2048.0,-0.0025605501141399145
2304.0,-0.001873697037808597
2560.0,-0.002840359229594469
2816.0,-0.0011526207672432065
3072.0,-0.0038630987983196974
3328.0,0.0006501408061012626
3584.0,0.000928726396523416
3840.0,0.0025909924879670143
4096.0,0.001705688307993114
4608.0,0.0014470091555267572
5120.0,-0.0021657429169863462
5632.0,-0.004731794353574514
6144.0,-0.0037088918033987284
6656.0,-0.0036277666222304106
7168.0,0.0001400747278239578
7680.0,0.0008199805160984397
8192.0,0.0028763010632246733
9216.0,0.0022725535091012716
10240.0,-0.004910728428512812
11264.0,0.0002158240822609514
12288.0,0.0012359748361632228
13312.0,0.0020521008409559727
14336.0,-0.006460584234446287
end
