version,3.0
numOfCh,1
type,point
parent_name,1-cuts
ch_type,1_1
kcount,1
numberNandB,1
brightnessNandB,1
carpet pos,0
pc,0
Time (ms),CH1 Auto-Correlation
1.0,0.025457637384533882
2.0,0.025074712932109833
3.0,0.024711167439818382
4.0,0.024368179962038994
5.0,0.024043356999754906
6.0,0.02372654527425766
7.0,0.023422978818416595
8.0,0.02313474379479885
9.0,0.022856706753373146
10.0,0.02259109355509281
11.0,0.022321633994579315
12.0,0.02206154726445675
13.0,0.021805310621857643
14.0,0.021561652421951294
15.0,0.021321436390280724
16.0,0.021087676286697388
18.0,0.020627614110708237
20.0,0.020176980644464493
22.0,0.019737811759114265
24.0,0.019315185025334358
26.0,0.01891258731484413
28.0,0.01851450465619564
30.0,0.01816040277481079
32.0,0.017831040546298027
36.0,0.017252977937459946
40.0,0.01668955385684967
44.0,0.016201788559556007
48.0,0.015821412205696106
52.0,0.015455109998583794
56.0,0.015094686299562454
60.0,0.014724058099091053
64.0,0.014382324181497097
72.0,0.01378183625638485
80.0,0.013211029581725597
88.0,0.012725088745355606
96.0,0.012300100177526474
104.0,0.011840705759823322
112.0,0.011394228786230087
120.0,0.010894806124269962
128.0,0.010449470952153206
144.0,0.009583205915987492
160.0,0.009008067660033703
176.0,0.008772199042141438
192.0,0.008275325410068035
208.0,0.007918342016637325
224.0,0.007407170254737139
240.0,0.0067925723269581795
256.0,0.0062559316866099834
288.0,0.00621661776676774
320.0,0.006039207335561514
352.0,0.006098451558500528
384.0,0.005948718171566725
416.0,0.005766785703599453
448.0,0.005481979809701443
480.0,0.005282817408442497
512.0,0.004787753336131573
576.0,0.0035666583571583033
640.0,0.0027375309728085995
704.0,0.0021701836958527565
768.0,0.001604651566594839
832.0,0.0012450163485482335
896.0,0.0015365066938102245
960.0,0.000966097810305655
1024.0,-0.00019365498155821115
1152.0,-9.611426503397524e-05
1280.0,0.0018763907719403505
1408.0,0.0021357182413339615
1536.0,0.0008153854869306087
1664.0,0.0012689281720668077
1792.0,0.002171861007809639
1920.0,0.001831438043154776
2048.0,0.002041912404820323
2304.0,0.0020085389260202646
2560.0,0.002545021940022707
2816.0,0.003182656830176711
3072.0,0.0025308639742434025
3328.0,0.001760888728313148
3584.0,-0.00017369535635225475
3840.0,-0.00027987861540168524
4096.0,-0.002156987553462386
4608.0,-0.0027482756413519382
5120.0,-0.002137612085789442
5632.0,-0.0027271348517388105
6144.0,-0.00481963949277997
6656.0,-0.005191212985664606
7168.0,-0.0047004446387290955
7680.0,-0.0033798059448599815
8192.0,-0.003852254943922162
9216.0,-0.0036576499696820974
10240.0,-0.00023550927289761603
11264.0,0.0013823957415297627
12288.0,-0.0001467640104237944
13312.0,0.003655004780739546
14336.0,0.009618760086596012
end
