version,3.0
numOfCh,1
type,point
parent_name,1-cuts
ch_type,1_1
kcount,1
numberNandB,1
brightnessNandB,1
carpet pos,0
pc,0
Time (ms),CH1 Auto-Correlation
1.0,0.019494276493787766
2.0,0.01912176050245762
3.0,0.018751440569758415
4.0,0.018394075334072113
5.0,0.01804758794605732
6.0,0.01771262288093567
7.0,0.01739121600985527
8.0,0.01708178035914898
9.0,0.016780398786067963
10.0,0.01647757925093174
11.0,0.016174741089344025
12.0,0.015880925580859184
13.0,0.015602277591824532
14.0,0.01532704383134842
15.0,0.015062902122735977
16.0,0.014806045219302177
18.0,0.01432102546095848
20.0,0.013868756592273712
22.0,0.013432133011519909
24.0,0.013021848164498806
26.0,0.012638515792787075
28.0,0.012273699045181274
30.0,0.011905896477401257
32.0,0.011559385806322098
36.0,0.010931447148323059
40.0,0.010359966196119785
44.0,0.009827463887631893
48.0,0.009348840452730656
52.0,0.008943750523030758
56.0,0.008556593209505081
60.0,0.008230366744101048
64.0,0.00794894341379404
72.0,0.007325418759137392
80.0,0.006710927002131939
88.0,0.006260750815272331
96.0,0.005957453045994043
104.0,0.005791419185698032
112.0,0.005675198510289192
120.0,0.005481348838657141
128.0,0.005285824183374643
144.0,0.004925795365124941
160.0,0.00429419195279479
176.0,0.0038236486725509167
192.0,0.003229657420888543
208.0,0.0025264988653361797
224.0,0.0018310568993911147
240.0,0.001169190276414156
256.0,0.0008909924072213471
288.0,0.0007630416075699031
320.0,0.0008013167534954846
352.0,0.000591002288274467
384.0,0.0002109910419676453
416.0,0.0002587497001513839
448.0,0.0002465920988470316
480.0,0.0006008265190757811
512.0,0.0006625789101235569
576.0,0.00033134742989204824
640.0,0.0005173199460841715
704.0,5.3710886277258396e-05
768.0,-4.500092109083198e-05
832.0,0.0004776317218784243
896.0,0.00032548437593504786
960.0,0.00030524589237757027
1024.0,5.7985533203464e-05
1152.0,0.0005733690341003239
1280.0,-0.0009545141365379095
1408.0,-0.0018311599269509315
1536.0,-0.0024397908709943295
1664.0,-0.0021056686528027058
1792.0,-0.0008343358640559018
1920.0,0.00019108876585960388
2048.0,0.000953401206061244
2304.0,-0.0007708027842454612
2560.0,-0.004095754586160183
2816.0,-0.0006781098200008273
3072.0,-0.0006072205142118037
3328.0,-0.0008008503937162459
3584.0,-0.0014125460293143988
3840.0,0.0007308618514798582
4096.0,0.0028215451166033745
4608.0,0.0020619339775294065
5120.0,0.0005575647810474038
5632.0,-0.0010679421247914433
6144.0,-0.0006740433163940907
6656.0,-0.0015475167892873287
7168.0,-0.0021418516989797354
7680.0,-0.00046182217192836106
8192.0,0.002224614843726158
9216.0,0.0011042378610000014
10240.0,0.00048801442608237267
11264.0,-0.002142478944733739
12288.0,-0.0017707310616970062
13312.0,0.0017460723174735904
14336.0,-0.0006223272066563368
end
