version,3.0
numOfCh,1
type,point
parent_name,1-cuts
ch_type,1_1
kcount,1
numberNandB,1
brightnessNandB,1
carpet pos,0
pc,0
Time (ms),CH1 Auto-Correlation
1.0,0.05406805872917175
2.0,0.052918046712875366
3.0,0.05180107429623604
4.0,0.05071482062339783
5.0,0.049671269953250885
6.0,0.04866151884198189
7.0,0.04770289734005928
8.0,0.046756722033023834
9.0,0.04586959257721901
10.0,0.04501939192414284
11.0,0.04415177181363106
12.0,0.04330630972981453
13.0,0.042479515075683594
14.0,0.0416874885559082
15.0,0.04091965779662132
16.0,0.040199343115091324
18.0,0.03887748718261719
20.0,0.03761222958564758
22.0,0.03639620542526245
24.0,0.035182882100343704
26.0,0.03405590355396271
28.0,0.0329383909702301
30.0,0.031900420784950256
32.0,0.03088906779885292
36.0,0.029061919078230858
40.0,0.027421006932854652
44.0,0.02595456689596176
48.0,0.024639282375574112
52.0,0.02329375594854355
56.0,0.02202417701482773
60.0,0.02071802131831646
64.0,0.0195541400462389
72.0,0.017698056995868683
80.0,0.016040612012147903
88.0,0.01423636544495821
96.0,0.012704827822744846
104.0,0.011494235135614872
112.0,0.010451065376400948
120.0,0.009699692018330097
128.0,0.00872635468840599
144.0,0.006993642542511225
160.0,0.005417833104729652
176.0,0.003997352905571461
192.0,0.0033528946805745363
208.0,0.0032403094228357077
224.0,0.004175309091806412
240.0,0.004612528719007969
256.0,0.0047895219177007675
288.0,0.004867481999099255
320.0,0.004865141585469246
352.0,0.004448655992746353
384.0,0.004675569478422403
416.0,0.004331314004957676
448.0,0.002998389769345522
480.0,0.001502862898632884
512.0,-0.0001099732326110825
576.0,-0.0011666344944387674
640.0,-0.0005736419116146863
704.0,-0.0005665770149789751
768.0,0.0003485041670501232
832.0,0.0006070545059628785
896.0,-3.830864079645835e-05
960.0,-0.0026396263856440783
1024.0,-0.004087834618985653
1152.0,-0.00394499721005559
1280.0,-0.0018071173690259457
1408.0,-0.0015488127246499062
1536.0,0.0005197640275582671
1664.0,0.0013474782463163137
1792.0,-0.0019615343771874905
1920.0,-0.0009712189785204828
2048.0,-0.0010391224641352892
2304.0,-0.0022231871262192726
2560.0,-0.0002773893065750599
2816.0,-0.006336009595543146
3072.0,-0.004046883434057236
3328.0,-0.0021662560757249594
3584.0,-0.0034309986513108015
3840.0,-0.0002483677526470274
4096.0,-0.0012630679411813617
4608.0,0.002770703984424472
5120.0,0.0010624431306496263
5632.0,0.00351391127333045
6144.0,0.002081572776660323
6656.0,-0.00023468509607482702
7168.0,0.0025241998955607414
7680.0,0.001798751181922853
8192.0,-0.004788396414369345
9216.0,0.003348774742335081
10240.0,-0.003335982095450163
11264.0,0.002474455162882805
12288.0,-0.0011987232137471437
13312.0,-0.003410790115594864
14336.0,-0.00020848889835178852
end
