version,3.0
numOfCh,1
type,point
parent_name,1-cuts
ch_type,1_1
kcount,1
numberNandB,1
brightnessNandB,1
carpet pos,0
pc,0
Time (ms),CH1 Auto-Correlation
1.0,0.030337078496813774
2.0,0.029744217172265053
3.0,0.029178978875279427
4.0,0.028609126806259155
5.0,0.02805841900408268
6.0,0.0275458712130785
7.0,0.02705683372914791
8.0,0.026591381058096886
9.0,0.026147963479161263
10.0,0.025710823014378548
11.0,0.02528517320752144
12.0,0.024881593883037567
13.0,0.024487119168043137
14.0,0.024094417691230774
15.0,0.02370763197541237
16.0,0.02333664894104004
18.0,0.0226085614413023
20.0,0.021929964423179626
22.0,0.02127576246857643
24.0,0.020622828975319862
26.0,0.020019950345158577
28.0,0.019436506554484367
30.0,0.018855052068829536
32.0,0.018305514007806778
36.0,0.017320744693279266
40.0,0.0163811556994915
44.0,0.015432866290211678
48.0,0.014589190483093262
52.0,0.013837067410349846
56.0,0.01316115539520979
60.0,0.012485083192586899
64.0,0.011841071769595146
72.0,0.010766138322651386
80.0,0.009877817705273628
88.0,0.009105225093662739
96.0,0.008463984355330467
104.0,0.007774244993925095
112.0,0.007051798980683088
120.0,0.006608656607568264
128.0,0.006426930893212557
144.0,0.005880267824977636
160.0,0.005358633119612932
176.0,0.004865207243710756
192.0,0.004370520357042551
208.0,0.0038135594222694635
224.0,0.0033275727182626724
240.0,0.0030447975732386112
256.0,0.003151932032778859
288.0,0.0036530252546072006
320.0,0.0035404765512794256
352.0,0.002915562829002738
384.0,0.0020519807003438473
416.0,0.0008277022861875594
448.0,4.5076983951730654e-05
480.0,-0.0005693543935194612
512.0,-0.001073186402209103
576.0,-0.0021694719325751066
640.0,-0.0020522361155599356
704.0,-0.0010482774814590812
768.0,-0.00013310053327586502
832.0,0.0004247899923939258
896.0,0.0007975492044351995
960.0,0.0005676340078935027
1024.0,0.001268918626010418
1152.0,0.002094125375151634
1280.0,0.0023740860633552074
1408.0,0.002765051322057843
1536.0,0.002904960885643959
1664.0,0.0028960516210645437
1792.0,0.002287158276885748
1920.0,0.000838588341139257
2048.0,0.0013131683226674795
2304.0,0.0020797678735107183
2560.0,0.004709259606897831
2816.0,0.0038479415234178305
3072.0,0.0003732945187948644
3328.0,-0.0025720945559442043
3584.0,-0.0018392573110759258
3840.0,0.0008677087025716901
4096.0,0.0023306242655962706
4608.0,-0.0018305209232494235
5120.0,0.0007906671380624175
5632.0,-0.0020659184083342552
6144.0,-0.0041808164678514
6656.0,-0.00014148019545245916
7168.0,-6.543443760165246e-06
7680.0,-0.005180043168365955
8192.0,-0.0014392201555892825
9216.0,-0.0007955287001095712
10240.0,-0.0026619508862495422
11264.0,-0.00029652303783223033
12288.0,-0.00130779342725873
13312.0,2.0698353182524443e-05
14336.0,3.0205661460058764e-05
end
