version,3.0
numOfCh,1
type,point
parent_name,1-cuts
ch_type,1_1
kcount,1
numberNandB,1
brightnessNandB,1
carpet pos,0
pc,0
Time (ms),CH1 Auto-Correlation
1.0,0.028565755113959312
2.0,0.02800372987985611
3.0,0.027469592168927193
4.0,0.0269561056047678
5.0,0.026444368064403534
6.0,0.025962818413972855
7.0,0.02548660896718502
8.0,0.025036416947841644
9.0,0.024606918916106224
10.0,0.024193262681365013
11.0,0.023802874609827995
12.0,0.02342366799712181
13.0,0.023054486140608788
14.0,0.022687098011374474
15.0,0.022333890199661255
16.0,0.02199024334549904
18.0,0.02131255902349949
20.0,0.020662035793066025
22.0,0.02002381719648838
24.0,0.019449559971690178
26.0,0.0188940167427063
28.0,0.018358377739787102
30.0,0.017851315438747406
32.0,0.01735728606581688
36.0,0.016411108896136284
40.0,0.015498553402721882
44.0,0.014629887416958809
48.0,0.01386619545519352
52.0,0.01328628696501255
56.0,0.012876663357019424
60.0,0.012548599392175674
64.0,0.012233039364218712
72.0,0.011717481538653374
80.0,0.011275370605289936
88.0,0.010771905072033405
96.0,0.010314934886991978
104.0,0.009821811690926552
112.0,0.009321610443294048
120.0,0.008793368004262447
128.0,0.008279410190880299
144.0,0.007765944115817547
160.0,0.007310574874281883
176.0,0.006998589728027582
192.0,0.006877096835523844
208.0,0.006814952008426189
224.0,0.006654378492385149
240.0,0.0061650569550693035
256.0,0.006010271608829498
288.0,0.005119461566209793
320.0,0.0034731526393443346
352.0,0.0027604857459664345
384.0,0.002510745543986559
416.0,0.002638706471771002
448.0,0.0027249359991401434
480.0,0.0026252977550029755
512.0,0.002573307603597641
576.0,5.382071321946569e-05
640.0,-0.0021757532376796007
704.0,-0.0035917393397539854
768.0,-0.004067650530487299
832.0,-0.003474339609965682
896.0,-0.004345913417637348
960.0,-0.003998983651399612
1024.0,-0.004242969676852226
1152.0,-0.004962943494319916
1280.0,-0.003433452220633626
1408.0,-0.0016206863801926374
1536.0,2.6704341507866047e-05
1664.0,0.0013004831271246076
1792.0,0.0025173677131533623
1920.0,0.002844484755769372
2048.0,0.0025222483091056347
2304.0,0.004617670085281134
2560.0,0.004353349097073078
2816.0,0.0010232817148789763
3072.0,-0.0015165295917540789
3328.0,-0.0013895867159590125
3584.0,-0.001258317963220179
3840.0,0.0005769911804236472
4096.0,0.003939391113817692
4608.0,0.0020595688838511705
5120.0,-0.0013341630110517144
5632.0,-0.0029990137554705143
6144.0,0.000963343249168247
6656.0,0.002790770260617137
7168.0,-0.0010561736999079585
7680.0,-0.001748371054418385
8192.0,-0.000647590437438339
9216.0,-0.0011503659188747406
10240.0,-0.0024361691903322935
11264.0,-0.0001286604965571314
12288.0,-0.005820079240947962
13312.0,0.00045189529191702604
14336.0,-0.0034018319565802813
end
