version,3.0
numOfCh,1
type,point
parent_name,1-cuts
ch_type,1_1
kcount,1
numberNandB,1
brightnessNandB,1
carpet pos,0
pc,0
Time (ms),CH1 Auto-Correlation
1.0,0.06954900920391083
2.0,0.06836637854576111
3.0,0.06723460555076599
4.0,0.06612803786993027
5.0,0.0650598555803299
6.0,0.064026840031147
7.0,0.06303882598876953
8.0,0.062097590416669846
9.0,0.061225272715091705
10.0,0.06036803126335144
11.0,0.05954766646027565
12.0,0.058768872171640396
13.0,0.058060143142938614
14.0,0.05737248808145523
15.0,0.05669183284044266
16.0,0.056044358760118484
18.0,0.05480829253792763
20.0,0.05363918095827103
22.0,0.05244899168610573
24.0,0.05125470086932182
26.0,0.05009101703763008
28.0,0.048923294991254807
30.0,0.047780852764844894
32.0,0.046612244099378586
36.0,0.04442940279841423
40.0,0.04242512583732605
44.0,0.040705278515815735
48.0,0.039258282631635666
52.0,0.037850894033908844
56.0,0.03667612373828888
60.0,0.035539817065000534
64.0,0.03443867713212967
72.0,0.03288213163614273
80.0,0.031642962247133255
88.0,0.03054632619023323
96.0,0.029660657048225403
104.0,0.0286694448441267
112.0,0.027405979111790657
120.0,0.02612110786139965
128.0,0.025078481063246727
144.0,0.02388179674744606
160.0,0.023356137797236443
176.0,0.023333190008997917
192.0,0.023509321734309196
208.0,0.023508509621024132
224.0,0.021975785493850708
240.0,0.019307760521769524
256.0,0.017148345708847046
288.0,0.013702424243092537
320.0,0.011911793611943722
352.0,0.011993839405477047
384.0,0.010249014012515545
416.0,0.009300942532718182
448.0,0.00902288593351841
480.0,0.007769046351313591
512.0,0.006446890067309141
576.0,0.0029637322295457125
640.0,-0.000257110339589417
704.0,-1.9750450519495644e-05
768.0,0.0008741900091990829
832.0,0.0011494274949654937
896.0,0.0006749795866198838
960.0,-0.002334753517061472
1024.0,-0.00578779773786664
1152.0,-0.011712194420397282
1280.0,-0.013607967644929886
1408.0,-0.009037401527166367
1536.0,-0.00847554113715887
1664.0,-0.0016191108152270317
1792.0,0.0005859642405994236
1920.0,0.002957161981612444
2048.0,0.003232536604627967
2304.0,0.007987032644450665
2560.0,0.014316563494503498
2816.0,0.010043852962553501
3072.0,0.0022513032890856266
3328.0,-0.0036191444378346205
3584.0,-0.00964871421456337
3840.0,-0.015269666910171509
4096.0,-0.011722865514457226
4608.0,0.004332107026129961
5120.0,0.006235101725906134
5632.0,-0.002996805589646101
6144.0,-0.012947621755301952
6656.0,-0.004638466518372297
7168.0,-0.0009183127549476922
7680.0,0.005407360848039389
8192.0,-0.007039470598101616
9216.0,-0.00012943806359544396
10240.0,0.005925500299781561
11264.0,-0.005857388023287058
12288.0,0.006392114795744419
13312.0,0.003060288494452834
14336.0,-0.0009748160373419523
end
