version,3.0
numOfCh,1
type,point
parent_name,1-cuts
ch_type,1_1
kcount,1
numberNandB,1
brightnessNandB,1
carpet pos,0
pc,0
Time (ms),CH1 Auto-Correlation
1.0,0.03701278567314148
2.0,0.03643729165196419
3.0,0.035895805805921555
4.0,0.035386838018894196
5.0,0.034895159304142
6.0,0.03441190719604492
7.0,0.03394898772239685
8.0,0.03351209685206413
9.0,0.03309398517012596
10.0,0.03267427533864975
11.0,0.032271645963191986
12.0,0.03189196437597275
13.0,0.031508978456258774
14.0,0.03115426003932953
15.0,0.030821453779935837
16.0,0.03049486316740513
18.0,0.02986328676342964
20.0,0.029238279908895493
22.0,0.028612149879336357
24.0,0.02799096889793873
26.0,0.027402536943554878
28.0,0.02682206779718399
30.0,0.02622591145336628
32.0,0.02563147433102131
36.0,0.024467814713716507
40.0,0.02338421158492565
44.0,0.02235807292163372
48.0,0.021476592868566513
52.0,0.020738821476697922
56.0,0.020077615976333618
60.0,0.019419800490140915
64.0,0.018781300634145737
72.0,0.017719043418765068
80.0,0.01673084683716297
88.0,0.01596732623875141
96.0,0.015325253829360008
104.0,0.014708597213029861
112.0,0.014072863385081291
120.0,0.01355538796633482
128.0,0.013011487200856209
144.0,0.012080845423042774
160.0,0.011499416083097458
176.0,0.011076490394771099
192.0,0.010618248023092747
208.0,0.010119258426129818
224.0,0.009540052153170109
240.0,0.008379088714718819
256.0,0.007319185417145491
288.0,0.005757777485996485
320.0,0.005049701314419508
352.0,0.003854462644085288
384.0,0.0030122462194412947
416.0,0.0018351501785218716
448.0,0.0011275509605184197
480.0,0.0013151754392310977
512.0,0.000632311450317502
576.0,5.293926369631663e-05
640.0,-0.0002690190449357033
704.0,0.00011801298387581483
768.0,-8.851936581777409e-05
832.0,-0.0011622278252616525
896.0,-0.0017673707334324718
960.0,-0.002448813756927848
1024.0,-0.00368700735270977
1152.0,-0.004053808283060789
1280.0,-0.004768194165080786
1408.0,-0.005027111619710922
1536.0,-0.0010458346223458648
1664.0,0.002740254858508706
1792.0,0.0036253102589398623
1920.0,0.004033241420984268
2048.0,0.005061558913439512
2304.0,0.007384132593870163
2560.0,0.005579771939665079
2816.0,-0.00175226922146976
3072.0,-0.006269030272960663
3328.0,-0.0071051111444830894
3584.0,-0.0033738072961568832
3840.0,-0.0010908546391874552
4096.0,0.0008407385321334004
4608.0,0.004241112153977156
5120.0,-0.002030208008363843
5632.0,-0.006474344525486231
6144.0,0.0013374026166275144
6656.0,0.005090464372187853
7168.0,0.0013681561686098576
7680.0,-0.0068649123422801495
8192.0,-0.0012337856460362673
9216.0,0.0006066419300623238
10240.0,-0.004255016800016165
11264.0,-0.0034027795772999525
12288.0,-0.0025334248784929514
13312.0,-0.00026462896494194865
14336.0,0.002338784048333764
end
