version,3.0
numOfCh,1
type,point
parent_name,1-cuts
ch_type,1_1
kcount,1
numberNandB,1
brightnessNandB,1
carpet pos,0
pc,0
Time (ms),CH1 Auto-Correlation
1.0,0.02751946821808815
2.0,0.026963161304593086
3.0,0.02642020769417286
4.0,0.025878915563225746
5.0,0.025348788127303123
6.0,0.024845963343977928
7.0,0.024347595870494843
8.0,0.023870881646871567
9.0,0.023406341671943665
10.0,0.022947300225496292
11.0,0.022512352094054222
12.0,0.022075658664107323
13.0,0.02165016531944275
14.0,0.0212485883384943
15.0,0.020854409784078598
16.0,0.020470311865210533
18.0,0.019752981141209602
20.0,0.019086841493844986
22.0,0.018467895686626434
24.0,0.01788465306162834
26.0,0.017325518652796745
28.0,0.0168001726269722
30.0,0.01631426438689232
32.0,0.01587665267288685
36.0,0.015075292438268661
40.0,0.014310382306575775
44.0,0.01361329946666956
48.0,0.012955095618963242
52.0,0.012307786382734776
56.0,0.011672338470816612
60.0,0.011129628866910934
64.0,0.01061470527201891
72.0,0.009691357612609863
80.0,0.008662484586238861
88.0,0.007681204937398434
96.0,0.006751785520464182
104.0,0.00595305347815156
112.0,0.005283205769956112
120.0,0.004718569573014975
128.0,0.004179537761956453
144.0,0.003968723583966494
160.0,0.003728291019797325
176.0,0.0028876757714897394
192.0,0.0018301967065781355
208.0,0.0010781764285638928
224.0,0.0006973547860980034
240.0,0.00017771181592252105
256.0,-0.0006232438609004021
288.0,-0.00011983259173575789
320.0,0.0008842289680615067
352.0,0.0015970017993822694
384.0,0.0026539296377450228
416.0,0.0030979064758867025
448.0,0.0036286956164985895
480.0,0.003349764971062541
512.0,0.0024485441390424967
576.0,0.0008519705152139068
640.0,-0.0008409414440393448
704.0,-0.001562897115945816
768.0,-0.000459224364021793
832.0,-0.0003659187932498753
896.0,-0.0007195222424343228
960.0,-0.0013865469954907894
1024.0,-0.0005099948612041771
1152.0,-0.0008141676080413163
1280.0,0.00038703135214746
1408.0,-0.0003683447721414268
1536.0,-0.0014911772450432181
1664.0,0.0017712014960125089
1792.0,0.003868997795507312
1920.0,-0.00017853410099633038
2048.0,-0.002676848554983735
2304.0,-0.0015372454654425383
2560.0,-0.0017482045805081725
2816.0,0.0006138636963441968
3072.0,0.00024283297534566373
3328.0,-0.0003267069114372134
3584.0,0.0003391968202777207
3840.0,-0.001951496466062963
4096.0,-0.0029529710300266743
4608.0,-0.0014166135806590319
5120.0,0.001439979299902916
5632.0,0.0028680358082056046
6144.0,0.001268223044462502
6656.0,-0.0017179724527522922
7168.0,-0.001308862934820354
7680.0,-0.001477391691878438
8192.0,-0.0027565385680645704
9216.0,0.0012172034475952387
10240.0,-0.0021340029779821634
11264.0,0.0014503049897029996
12288.0,0.0030364554841071367
13312.0,-0.0010097484337165952
14336.0,-0.0010762837482616305
end
