version,3.0
numOfCh,1
type,point
parent_name,1-cuts
ch_type,1_1
kcount,1
numberNandB,1
brightnessNandB,1
carpet pos,0
pc,0
Time (ms),CH1 Auto-Correlation
1.0,0.024278614670038223
2.0,0.023706311360001564
3.0,0.023159360513091087
4.0,0.022633621469140053
5.0,0.022118929773569107
6.0,0.02162325568497181
7.0,0.02115638181567192
8.0,0.02071613259613514
9.0,0.020294876769185066
10.0,0.01987495832145214
11.0,0.019464682787656784
12.0,0.019050361588597298
13.0,0.01865917630493641
14.0,0.018286187201738358
15.0,0.01793035678565502
16.0,0.01758386567234993
18.0,0.016974544152617455
20.0,0.016417311504483223
22.0,0.015909820795059204
24.0,0.015435229055583477
26.0,0.014972478151321411
28.0,0.014501764439046383
30.0,0.01401503011584282
32.0,0.013528670184314251
36.0,0.012670215219259262
40.0,0.011941072531044483
44.0,0.011263887397944927
48.0,0.010628961026668549
52.0,0.010045705363154411
56.0,0.009574069641530514
60.0,0.009199541993439198
64.0,0.008868112228810787
72.0,0.008254080079495907
80.0,0.007739595137536526
88.0,0.0072242021560668945
96.0,0.006706795189529657
104.0,0.006110257934778929
112.0,0.0054530189372599125
120.0,0.004949244670569897
128.0,0.004483422264456749
144.0,0.003861384466290474
160.0,0.0035153902135789394
176.0,0.0034364371094852686
192.0,0.003720654407516122
208.0,0.0035609568003565073
224.0,0.003042086958885193
240.0,0.002318562474101782
256.0,0.001841741381213069
288.0,0.0016321389703080058
320.0,0.0015809765318408608
352.0,0.001700707944110036
384.0,0.001951628946699202
416.0,0.0016634805360808969
448.0,0.0013616349315270782
480.0,0.0020875080954283476
512.0,0.0017687221989035606
576.0,0.0012474145041778684
640.0,0.0009586290689185262
704.0,0.0009146273951046169
768.0,0.0018430664204061031
832.0,0.0017074692295864224
896.0,0.0008704903302714229
960.0,0.0005806582630611956
1024.0,0.0007985600968822837
1152.0,0.0009204859379678965
1280.0,0.0012459589634090662
1408.0,0.0016623599221929908
1536.0,0.0008840428199619055
1664.0,0.0023324773646891117
1792.0,0.0015535290585830808
1920.0,-0.00029634981183335185
2048.0,-0.0019568989519029856
2304.0,-0.00027846574084833264
2560.0,-0.0001872344728326425
2816.0,0.00026178438565693796
3072.0,-0.001158502185717225
3328.0,0.0003952079568989575
3584.0,0.0005608854116871953
3840.0,0.00012157952733105049
4096.0,0.0021930134389549494
4608.0,0.0010057269828394055
5120.0,0.0008546755998395383
5632.0,0.0007364815683104098
6144.0,-0.0004921664367429912
6656.0,-0.0018173151183873415
7168.0,-0.002708869054913521
7680.0,-0.0011981880525127053
8192.0,-0.0019279990810900927
9216.0,-8.217379945563152e-05
10240.0,-0.0014341950882226229
11264.0,-0.0016027642413973808
12288.0,-0.0030952824745327234
13312.0,-0.002721027471125126
14336.0,-0.0018723593093454838
end
