version,3.0
numOfCh,1
type,point
parent_name,1-cuts
ch_type,1_1
kcount,1
numberNandB,1
brightnessNandB,1
carpet pos,0
pc,0
Time (ms),CH1 Auto-Correlation
1.0,0.07355618476867676
2.0,0.07231148332357407
3.0,0.07111237943172455
4.0,0.06996388733386993
5.0,0.06886402517557144
6.0,0.0677768811583519
7.0,0.06674786657094955
8.0,0.06578289717435837
9.0,0.06486375629901886
10.0,0.06397885084152222
11.0,0.06312768906354904
12.0,0.06226607412099838
13.0,0.06142022833228111
14.0,0.06056893989443779
15.0,0.05974028259515762
16.0,0.05889856070280075
18.0,0.05718855559825897
20.0,0.055571846663951874
22.0,0.054051466286182404
24.0,0.05261600390076637
26.0,0.05128670483827591
28.0,0.049965858459472656
30.0,0.04869522154331207
32.0,0.04747864603996277
36.0,0.045241549611091614
40.0,0.04315926134586334
44.0,0.04113389551639557
48.0,0.03933143988251686
52.0,0.03764403238892555
56.0,0.03600513935089111
60.0,0.03433988615870476
64.0,0.03271397203207016
72.0,0.029654208570718765
80.0,0.026789765805006027
88.0,0.024490168318152428
96.0,0.022741883993148804
104.0,0.021164873614907265
112.0,0.01989714428782463
120.0,0.019330335780978203
128.0,0.018712177872657776
144.0,0.017735576257109642
160.0,0.01837894693017006
176.0,0.018437853083014488
192.0,0.017358727753162384
208.0,0.0158825796097517
224.0,0.015502693131566048
240.0,0.015663865953683853
256.0,0.015130679123103619
288.0,0.013014774769544601
320.0,0.010120079852640629
352.0,0.007403960917145014
384.0,0.007114324253052473
416.0,0.007762099616229534
448.0,0.00576351722702384
480.0,0.004564963281154633
512.0,0.005126877687871456
576.0,0.007461572997272015
640.0,0.006134146358817816
704.0,0.007061941083520651
768.0,0.01081873569637537
832.0,0.013005999848246574
896.0,0.008614012971520424
960.0,0.007894754409790039
1024.0,0.010222130455076694
1152.0,0.011683609336614609
1280.0,0.010878069326281548
1408.0,0.00782614666968584
1536.0,-0.0005272818962112069
1664.0,-0.004376297350972891
1792.0,-0.0058884937316179276
1920.0,-0.006491661537438631
2048.0,-0.0033014470245689154
2304.0,0.005706179887056351
2560.0,-0.0063471016474068165
2816.0,-0.011200394481420517
3072.0,-0.00917027611285448
3328.0,-0.00430047232657671
3584.0,-0.0029324509669095278
3840.0,-0.01006238255649805
4096.0,-0.004933702293783426
4608.0,-0.001385694951750338
5120.0,-0.005218137986958027
5632.0,-0.0016516969772055745
6144.0,-0.007848936133086681
6656.0,-0.004961040336638689
7168.0,-0.004974866285920143
7680.0,-0.0022964482195675373
8192.0,0.0036251440178602934
9216.0,0.0048791589215397835
10240.0,0.0025630032178014517
11264.0,-0.010907030664384365
12288.0,-0.009642147459089756
13312.0,-0.0013194510247558355
14336.0,0.024652136489748955
end
