version,3.0
numOfCh,1
type,point
parent_name,1-cuts
ch_type,1_1
kcount,1
numberNandB,1
brightnessNandB,1
carpet pos,0
pc,0
Time (ms),CH1 Auto-Correlation
1.0,0.035357531160116196
2.0,0.03475520387291908
3.0,0.03419267758727074
4.0,0.033649273216724396
5.0,0.03311246633529663
6.0,0.03258694335818291
7.0,0.032080307602882385
8.0,0.03158968687057495
9.0,0.031098630279302597
10.0,0.030628584325313568
11.0,0.03017951175570488
12.0,0.029745450243353844
13.0,0.029330985620617867
14.0,0.02893383987247944
15.0,0.02853536047041416
16.0,0.028142813593149185
18.0,0.02739192731678486
20.0,0.026641668751835823
22.0,0.025933025404810905
24.0,0.025262074545025826
26.0,0.024600224569439888
28.0,0.02392299473285675
30.0,0.02324889600276947
32.0,0.02258232794702053
36.0,0.02140873111784458
40.0,0.020265502855181694
44.0,0.019189298152923584
48.0,0.01823723316192627
52.0,0.017326176166534424
56.0,0.016418898478150368
60.0,0.015562289394438267
64.0,0.014770891517400742
72.0,0.013198801316320896
80.0,0.011847158893942833
88.0,0.010737252421677113
96.0,0.009872951544821262
104.0,0.00913297664374113
112.0,0.00824232492595911
120.0,0.007531540468335152
128.0,0.007091822102665901
144.0,0.00592350959777832
160.0,0.004781000316143036
176.0,0.004011613316833973
192.0,0.0036923247389495373
208.0,0.0037984135560691357
224.0,0.0036326332483440638
240.0,0.003836605465039611
256.0,0.003747518640011549
288.0,0.0032504803966730833
320.0,0.002796076238155365
352.0,0.0022933315485715866
384.0,0.0018149681854993105
416.0,0.0016797956777736545
448.0,0.001232001231983304
480.0,-0.0004100140940863639
512.0,-0.0009690658189356327
576.0,-0.0001866424281615764
640.0,0.0009981782641261816
704.0,0.0007254976080730557
768.0,-0.00030538823921233416
832.0,-0.0011814592871814966
896.0,-0.0009540060418657959
960.0,-0.0007830543909221888
1024.0,0.00025607013958506286
1152.0,0.0029899689834564924
1280.0,0.0019457399612292647
1408.0,0.004552876111119986
1536.0,0.0010279114358127117
1664.0,0.003047024831175804
1792.0,0.00307423691265285
1920.0,0.002288481220602989
2048.0,-7.122028910089284e-05
2304.0,-0.0020952962804585695
2560.0,-0.000957965909037739
2816.0,-0.0017340900376439095
3072.0,-0.0013291076757013798
3328.0,-0.00010030838893726468
3584.0,0.002877084305509925
3840.0,0.0015801083063706756
4096.0,-0.0015165004879236221
4608.0,-0.0015369816683232784
5120.0,0.0022712997160851955
5632.0,-0.003000790486112237
6144.0,-0.0005778717459179461
6656.0,-0.0005587958730757236
7168.0,-6.582550122402608e-05
7680.0,0.00028982694493606687
8192.0,-0.0027692324947565794
9216.0,-0.004013067111372948
10240.0,-0.004569357726722956
11264.0,-0.0008353891898877919
12288.0,0.0032225651666522026
13312.0,0.003997924271970987
14336.0,0.0003706826828420162
end
