version,3.0
numOfCh,1
type,point
parent_name,1-cuts
ch_type,1_1
kcount,1
numberNandB,1
brightnessNandB,1
carpet pos,0
pc,0
Time (ms),CH1 Auto-Correlation
1.0,0.03304319083690643
2.0,0.03248453512787819
3.0,0.031947437673807144
4.0,0.031438060104846954
5.0,0.03095291182398796
6.0,0.030466563999652863
7.0,0.029992874711751938
8.0,0.029535258188843727
9.0,0.02909201569855213
10.0,0.028654882684350014
11.0,0.028236331418156624
12.0,0.02783888205885887
13.0,0.027463706210255623
14.0,0.027100427076220512
15.0,0.02675703912973404
16.0,0.026443328708410263
18.0,0.02585841715335846
20.0,0.025304866954684258
22.0,0.02476589009165764
24.0,0.024229329079389572
26.0,0.023677470162510872
28.0,0.02311161905527115
30.0,0.022566838189959526
32.0,0.022043244913220406
36.0,0.021060829982161522
40.0,0.02014424279332161
44.0,0.019310105592012405
48.0,0.01860436238348484
52.0,0.01794605515897274
56.0,0.017304066568613052
60.0,0.016646835952997208
64.0,0.01604035682976246
72.0,0.014784662052989006
80.0,0.013680358417332172
88.0,0.01267656497657299
96.0,0.01166059821844101
104.0,0.010585610754787922
112.0,0.009756159968674183
120.0,0.009199734777212143
128.0,0.0088803730905056
144.0,0.008516012690961361
160.0,0.008181958459317684
176.0,0.007794748526066542
192.0,0.007454793434590101
208.0,0.0068911355920135975
224.0,0.006162888370454311
240.0,0.005757324397563934
256.0,0.005743617191910744
288.0,0.005781383719295263
320.0,0.005653113592416048
352.0,0.005077776033431292
384.0,0.004713339265435934
416.0,0.00433130469173193
448.0,0.004422079771757126
480.0,0.004699125420302153
512.0,0.004630205221474171
576.0,0.002706466242671013
640.0,0.0007055792957544327
704.0,0.0018031245563179255
768.0,0.0028340064454823732
832.0,0.0039011966437101364
896.0,0.00313341012224555
960.0,0.0023178209085017443
1024.0,0.0020405612885951996
1152.0,-6.008938362356275e-05
1280.0,0.000669207947794348
1408.0,0.002769509796053171
1536.0,0.0020406211260706186
1664.0,0.0025988079141825438
1792.0,-0.00047762252506799996
1920.0,-0.0025254799984395504
2048.0,-0.0027953684329986572
2304.0,-0.001618155394680798
2560.0,-0.00019962669466622174
2816.0,-0.0010556223569437861
3072.0,-0.001585808931849897
3328.0,0.0008091847994364798
3584.0,-0.0017326175002381206
3840.0,-0.00358230690471828
4096.0,-0.0022345115430653095
4608.0,-0.004132743459194899
5120.0,-0.002648885827511549
5632.0,0.00047792564146220684
6144.0,0.00364564242772758
6656.0,0.0016845929203554988
7168.0,-0.002492859959602356
7680.0,-0.004748808220028877
8192.0,-0.004843575414270163
9216.0,-0.003191719064489007
10240.0,-0.0008175189141184092
11264.0,0.000881512591149658
12288.0,0.007250708527863026
13312.0,0.0035163210704922676
14336.0,-0.0008357026963494718
end
