version,3.0
numOfCh,1
type,point
parent_name,1-cuts
ch_type,1_1
kcount,1
numberNandB,1
brightnessNandB,1
carpet pos,0
pc,0
Time (ms),CH1 Auto-Correlation
1.0,0.021740268915891647
2.0,0.021330619230866432
3.0,0.02093266323208809
4.0,0.02055954746901989
5.0,0.02019595541059971
6.0,0.019834285601973534
7.0,0.01949779875576496
8.0,0.019176460802555084
9.0,0.018858935683965683
10.0,0.01855253241956234
11.0,0.018252022564411163
12.0,0.017965927720069885
13.0,0.01769409328699112
14.0,0.017427990213036537
15.0,0.017162641510367393
16.0,0.016908274963498116
18.0,0.016434770077466965
20.0,0.015979692339897156
22.0,0.015548354014754295
24.0,0.015139257535338402
26.0,0.014724867418408394
28.0,0.014347205869853497
30.0,0.013982374221086502
32.0,0.013628427870571613
36.0,0.012990753166377544
40.0,0.01240589004009962
44.0,0.011930464766919613
48.0,0.011481791734695435
52.0,0.011110164225101471
56.0,0.01082939188927412
60.0,0.010570916347205639
64.0,0.010311422869563103
72.0,0.009727513417601585
80.0,0.00926063023507595
88.0,0.00874912180006504
96.0,0.008257384411990643
104.0,0.007652560714632273
112.0,0.007075546775013208
120.0,0.0066262357868254185
128.0,0.006163293961435556
144.0,0.005300786346197128
160.0,0.004939689300954342
176.0,0.004616428166627884
192.0,0.004318404942750931
208.0,0.003893208922818303
224.0,0.003732410492375493
240.0,0.003476453712210059
256.0,0.003323362674564123
288.0,0.0035314506385475397
320.0,0.003611357184126973
352.0,0.002969178603962064
384.0,0.002420553471893072
416.0,0.002305482281371951
448.0,0.001826613675802946
480.0,0.0015394639922305942
512.0,0.0009475204278714955
576.0,0.00034546051756478846
640.0,-0.0009640342323109508
704.0,-0.001156064448878169
768.0,-0.0016675990773364902
832.0,-0.0011525602312758565
896.0,-0.0011447243159636855
960.0,-0.0023371672723442316
1024.0,-0.002298771869391203
1152.0,-0.0025657210499048233
1280.0,-0.0012059396831318736
1408.0,0.0002247741213068366
1536.0,0.0008347341208718717
1664.0,-0.00048167677596211433
1792.0,-0.0005122871370986104
1920.0,-0.0005626105703413486
2048.0,-0.0009181543719023466
2304.0,-0.0014229672960937023
2560.0,-0.0008755237213335931
2816.0,-0.00045382766984403133
3072.0,-0.00012564516509883106
3328.0,-0.000838514300994575
3584.0,-0.0010517123155295849
3840.0,-0.0010192645713686943
4096.0,-0.00013312949158716947
4608.0,0.0011357173789292574
5120.0,1.1165519026690163e-05
5632.0,0.000754392531234771
6144.0,-7.087278936523944e-05
6656.0,-0.0026016701012849808
7168.0,-0.002522008493542671
7680.0,-0.0011841619852930307
8192.0,0.002324972301721573
9216.0,0.0016669462202116847
10240.0,0.0010994961485266685
11264.0,-0.000622633146122098
12288.0,1.6865260477061383e-05
13312.0,0.0001891856372822076
14336.0,-0.0007279193960130215
end
