version,3.0
numOfCh,1
type,point
parent_name,1-cuts
ch_type,1_1
kcount,1
numberNandB,1
brightnessNandB,1
carpet pos,0
pc,0
Time (ms),CH1 Auto-Correlation
1.0,0.03125279024243355
2.0,0.030666589736938477
3.0,0.030112041160464287
4.0,0.029559265822172165
5.0,0.029016787186264992
6.0,0.028504857793450356
7.0,0.02800039015710354
8.0,0.027507124468684196
9.0,0.027041733264923096
10.0,0.0265938900411129
11.0,0.026181666180491447
12.0,0.025776034221053123
13.0,0.025393027812242508
14.0,0.02501070685684681
15.0,0.024646300822496414
16.0,0.024283086881041527
18.0,0.023572437465190887
20.0,0.022914398461580276
22.0,0.02230824902653694
24.0,0.02173837646842003
26.0,0.021203849464654922
28.0,0.020734921097755432
30.0,0.020281879231333733
32.0,0.019834665581583977
36.0,0.01899987831711769
40.0,0.01822870783507824
44.0,0.01748068816959858
48.0,0.01671145297586918
52.0,0.015969539061188698
56.0,0.015163244679570198
60.0,0.01433709729462862
64.0,0.013605911284685135
72.0,0.012441011145710945
80.0,0.01139337383210659
88.0,0.010411808267235756
96.0,0.009562836959958076
104.0,0.008927896618843079
112.0,0.008349803276360035
120.0,0.007736161816865206
128.0,0.007072464097291231
144.0,0.006218428257852793
160.0,0.005487354472279549
176.0,0.004779347684234381
192.0,0.0043521784245967865
208.0,0.0035138248931616545
224.0,0.002808128483593464
240.0,0.002567901276051998
256.0,0.0022422983311116695
288.0,0.001641632174141705
320.0,0.0011076402151957154
352.0,-0.0004240944981575012
384.0,-0.002317285630851984
416.0,-0.003845247207209468
448.0,-0.004340710584074259
480.0,-0.0038519862573593855
512.0,-0.002988042077049613
576.0,-0.0023057041689753532
640.0,-0.001059401547536254
704.0,-0.0005975233507342637
768.0,-0.0012781431432813406
832.0,-0.00040397647535428405
896.0,0.0015312089817598462
960.0,0.0016521131619811058
1024.0,0.001101189642213285
1152.0,0.0015166207449510694
1280.0,0.0016636349027976394
1408.0,0.0019395278068259358
1536.0,-7.674976950511336e-05
1664.0,-0.0006921029416844249
1792.0,-0.0011470039607957006
1920.0,-1.1418112990213558e-05
2048.0,-0.00023482475080527365
2304.0,-0.00048758540651760995
2560.0,-0.0045873611234128475
2816.0,-0.0006669121794402599
3072.0,0.0020490288734436035
3328.0,-0.00025281772832386196
3584.0,-0.0022468152455985546
3840.0,0.0001489986025262624
4096.0,-0.0032730374950915575
4608.0,-0.00044562964467331767
5120.0,0.0004109006258659065
5632.0,-0.0024507648777216673
6144.0,0.0017174140084534883
6656.0,0.0013946021208539605
7168.0,-0.0028457653243094683
7680.0,-0.0003686170093715191
8192.0,0.0004210752958897501
9216.0,-0.001011090585961938
10240.0,-0.0002946613822132349
11264.0,0.0019004259957000613
12288.0,0.002979291370138526
13312.0,0.0012890850193798542
14336.0,-0.0031161161605268717
end
