version,3.0
numOfCh,1
type,point
parent_name,1-cuts
ch_type,1_1
kcount,1
numberNandB,1
brightnessNandB,1
carpet pos,0
pc,0
Time (ms),CH1 Auto-Correlation
1.0,0.03346377983689308
2.0,0.03285781666636467
3.0,0.03226761892437935
4.0,0.03170005977153778
5.0,0.03116028383374214
6.0,0.030640333890914917
7.0,0.03015216812491417
8.0,0.029683275148272514
9.0,0.029235832393169403
10.0,0.02879597432911396
11.0,0.02836274914443493
12.0,0.027944907546043396
13.0,0.02753404714167118
14.0,0.027151213958859444
15.0,0.026788275688886642
16.0,0.02644108422100544
18.0,0.02580549567937851
20.0,0.025196315720677376
22.0,0.02457776851952076
24.0,0.023972302675247192
26.0,0.023412402719259262
28.0,0.022887729108333588
30.0,0.02237645722925663
32.0,0.021830903366208076
36.0,0.02076055482029915
40.0,0.019774489104747772
44.0,0.018885741010308266
48.0,0.018097566440701485
52.0,0.017317628487944603
56.0,0.016497904434800148
60.0,0.01567903347313404
64.0,0.014931214973330498
72.0,0.013634211383759975
80.0,0.012605602853000164
88.0,0.011894195340573788
96.0,0.011311793699860573
104.0,0.01101866364479065
112.0,0.010796021670103073
120.0,0.010471751913428307
128.0,0.010092208161950111
144.0,0.009239030070602894
160.0,0.008036157116293907
176.0,0.0071111987344920635
192.0,0.006295741070061922
208.0,0.005583692342042923
224.0,0.005461095366626978
240.0,0.005462710279971361
256.0,0.005452558398246765
288.0,0.004690174944698811
320.0,0.004281232133507729
352.0,0.004208339843899012
384.0,0.0043456838466227055
416.0,0.003818667959421873
448.0,0.0011920796241611242
480.0,-0.0014485832070931792
512.0,-0.0025329049676656723
576.0,-0.003721107728779316
640.0,-0.004563747439533472
704.0,-0.00403614854440093
768.0,-0.003564560553058982
832.0,-0.0019528083503246307
896.0,-0.002581045962870121
960.0,-0.0015186471864581108
1024.0,-0.0017563302535563707
1152.0,0.0006735225906595588
1280.0,0.0004544431285466999
1408.0,0.00021499203285202384
1536.0,-0.00037641971721313894
1664.0,-0.0032414428424090147
1792.0,-0.002198829548433423
1920.0,-0.0037089542020112276
2048.0,-0.0036335629411041737
2304.0,-0.0023697507567703724
2560.0,-0.0031321339774876833
2816.0,-0.0005171857192181051
3072.0,0.0015171827981248498
3328.0,0.0017538786632940173
3584.0,0.0020297816954553127
3840.0,-0.0006613486330024898
4096.0,4.851304038311355e-05
4608.0,0.0014974114019423723
5120.0,-8.05626914370805e-05
5632.0,0.00028304255101829767
6144.0,-0.0009835688397288322
6656.0,-0.002803264884278178
7168.0,-0.0018653058214113116
7680.0,0.0022195649798959494
8192.0,0.0006241339142434299
9216.0,0.003230780130252242
10240.0,-0.0041344319470226765
11264.0,-0.002722845645621419
12288.0,0.003725934075191617
13312.0,-0.003857760690152645
14336.0,0.003036708803847432
end
