version,3.0
numOfCh,1
type,point
parent_name,1-cuts
ch_type,1_1
kcount,1
numberNandB,1
brightnessNandB,1
carpet pos,0
pc,0
Time (ms),CH1 Auto-Correlation
1.0,0.07032962888479233
2.0,0.06905113160610199
3.0,0.06777282059192657
4.0,0.06654863804578781
5.0,0.06535441428422928
6.0,0.06420302391052246
7.0,0.06309983134269714
8.0,0.06203041970729828
9.0,0.060989223420619965
10.0,0.059962198138237
11.0,0.05896395072340965
12.0,0.05797571688890457
13.0,0.057002585381269455
14.0,0.05602061748504639
15.0,0.05505463108420372
16.0,0.05413028225302696
18.0,0.05235389992594719
20.0,0.050669971853494644
22.0,0.04911156743764877
24.0,0.047564055770635605
26.0,0.046024102717638016
28.0,0.04450231418013573
30.0,0.04309947416186333
32.0,0.041859183460474014
36.0,0.039550624787807465
40.0,0.03743570297956467
44.0,0.035551611334085464
48.0,0.03377052769064903
52.0,0.03213011100888252
56.0,0.030766500160098076
60.0,0.029621992260217667
64.0,0.028591638430953026
72.0,0.02686387300491333
80.0,0.02520178258419037
88.0,0.023752553388476372
96.0,0.0225372277200222
104.0,0.021422306075692177
112.0,0.020208895206451416
120.0,0.018715590238571167
128.0,0.017072664573788643
144.0,0.014512118883430958
160.0,0.012685704976320267
176.0,0.012187464162707329
192.0,0.011501327157020569
208.0,0.010799676179885864
224.0,0.010970455594360828
240.0,0.011251049116253853
256.0,0.011249703355133533
288.0,0.0106870261952281
320.0,0.007638629525899887
352.0,0.007742763496935368
384.0,0.009553594514727592
416.0,0.009247099980711937
448.0,0.006179940886795521
480.0,0.004746036604046822
512.0,0.004789481405168772
576.0,-0.0004123334074392915
640.0,-0.0017989700427278876
704.0,-0.002904736902564764
768.0,-0.0029147446621209383
832.0,0.0018656911561265588
896.0,0.005349786952137947
960.0,0.004433321300894022
1024.0,0.0009083645418286324
1152.0,-0.0003528840315993875
1280.0,0.00017706709331832826
1408.0,-0.004992745816707611
1536.0,-0.004676917102187872
1664.0,-0.007571826688945293
1792.0,-0.0032940078526735306
1920.0,-0.003306169295683503
2048.0,-0.0052102417685091496
2304.0,0.0019027888774871826
2560.0,-1.8446373360347934e-05
2816.0,-0.005292694084346294
3072.0,-0.00790855847299099
3328.0,-0.009696525521576405
3584.0,-0.006287380121648312
3840.0,-0.006644340697675943
4096.0,-0.0018516667187213898
4608.0,0.007838854566216469
5120.0,0.0038732760585844517
5632.0,0.0021940642036497593
6144.0,-0.003945884294807911
6656.0,-0.001846429193392396
7168.0,-0.00048076381790451705
7680.0,-0.004340451676398516
8192.0,-0.004072214011102915
9216.0,0.0014652974205091596
10240.0,0.009953550063073635
11264.0,0.0011418611975386739
12288.0,-0.008292252197861671
13312.0,-0.007454867474734783
14336.0,-0.0014772993745282292
end
