version,3.0
numOfCh,1
type,point
parent_name,1-cuts
ch_type,1_1
kcount,1
numberNandB,1
brightnessNandB,1
carpet pos,0
pc,0
Time (ms),CH1 Auto-Correlation
1.0,0.06771671772003174
2.0,0.06658818572759628
3.0,0.06547131389379501
4.0,0.06440567225217819
5.0,0.06336845457553864
6.0,0.06236598268151283
7.0,0.061402324587106705
8.0,0.06044799089431763
9.0,0.059540875256061554
10.0,0.05864417180418968
11.0,0.0578170008957386
12.0,0.057035718113183975
13.0,0.05630529671907425
14.0,0.05558081716299057
15.0,0.05486069247126579
16.0,0.05415530875325203
18.0,0.05283651500940323
20.0,0.05165847763419151
22.0,0.05053962767124176
24.0,0.04940761625766754
26.0,0.04830009490251541
28.0,0.04726613685488701
30.0,0.046287111937999725
32.0,0.04532857984304428
36.0,0.04363497719168663
40.0,0.04209645092487335
44.0,0.040728744119405746
48.0,0.039418283849954605
52.0,0.03799707069993019
56.0,0.03652194142341614
60.0,0.0351690910756588
64.0,0.03385714441537857
72.0,0.03147987648844719
80.0,0.029090067371726036
88.0,0.026486067101359367
96.0,0.02434156835079193
104.0,0.022817464545369148
112.0,0.021954229101538658
120.0,0.021113106980919838
128.0,0.020288538187742233
144.0,0.019242899492383003
160.0,0.017774177715182304
176.0,0.01617063209414482
192.0,0.014703097753226757
208.0,0.013824135065078735
224.0,0.013185707852244377
240.0,0.012985052540898323
256.0,0.01250537484884262
288.0,0.010243034921586514
320.0,0.009015015326440334
352.0,0.008206876926124096
384.0,0.008485736325383186
416.0,0.009103831835091114
448.0,0.010092257522046566
480.0,0.009668462909758091
512.0,0.007063102442771196
576.0,0.0036547475028783083
640.0,0.000813016202300787
704.0,-3.9501581341028214e-05
768.0,0.0011593550443649292
832.0,-0.0021297053899616003
896.0,-0.006215840112417936
960.0,-0.005744722671806812
1024.0,-0.004874371457844973
1152.0,-0.00570495892316103
1280.0,-0.00793831329792738
1408.0,-0.004119437653571367
1536.0,-0.0014544137520715594
1664.0,-0.002522451104596257
1792.0,-0.0009045597980730236
1920.0,0.0038439815398305655
2048.0,0.007905812934041023
2304.0,0.005081268958747387
2560.0,0.00697128102183342
2816.0,0.005688946694135666
3072.0,0.001816016505472362
3328.0,-0.006071195937693119
3584.0,-0.004993280861526728
3840.0,-0.007860959507524967
4096.0,-0.005838500335812569
4608.0,0.003846513805910945
5120.0,-0.0015907468041405082
5632.0,-0.011766888201236725
6144.0,-0.008105412125587463
6656.0,-0.004110228270292282
7168.0,-0.0004017001192551106
7680.0,-0.0027066527400165796
8192.0,-0.005671166814863682
9216.0,0.006278510205447674
10240.0,-0.006821038667112589
11264.0,0.0071816761046648026
12288.0,0.013492308557033539
13312.0,-0.018663492053747177
14336.0,0.020726649090647697
end
