version,3.0
numOfCh,1
type,point
parent_name,1-cuts
ch_type,1_1
kcount,1
numberNandB,1
brightnessNandB,1
carpet pos,0
pc,0
Time (ms),CH1 Auto-Correlation
1.0,0.021111147478222847
2.0,0.020736174657940865
3.0,0.020388031378388405
4.0,0.020035164430737495
5.0,0.019684961065649986
6.0,0.019335754215717316
7.0,0.01899249665439129
8.0,0.018650971353054047
9.0,0.018321391195058823
10.0,0.018004784360527992
11.0,0.017701422795653343
12.0,0.01740894466638565
13.0,0.017128076404333115
14.0,0.016856255009770393
15.0,0.016597343608736992
16.0,0.016349246725440025
18.0,0.015879711136221886
20.0,0.01543356105685234
22.0,0.015022770501673222
24.0,0.014637582004070282
26.0,0.014275745488703251
28.0,0.01394280232489109
30.0,0.013605562970042229
32.0,0.01327411737293005
36.0,0.01260873768478632
40.0,0.011963553726673126
44.0,0.011404749006032944
48.0,0.010891006328165531
52.0,0.010453885421156883
56.0,0.01010683923959732
60.0,0.009795599617064
64.0,0.00948935654014349
72.0,0.009009347297251225
80.0,0.008609839715063572
88.0,0.008181381039321423
96.0,0.007816441357135773
104.0,0.007474712561815977
112.0,0.007115987129509449
120.0,0.00679773511365056
128.0,0.006437105126678944
144.0,0.005676525644958019
160.0,0.005092303734272718
176.0,0.004826338030397892
192.0,0.004573074169456959
208.0,0.004318317398428917
224.0,0.0043466282077133656
240.0,0.00467202952131629
256.0,0.004937419667840004
288.0,0.004370487295091152
320.0,0.0034075176808983088
352.0,0.0032468659337610006
384.0,0.0030939634889364243
416.0,0.002918595215305686
448.0,0.002230098471045494
480.0,0.002371771028265357
512.0,0.0031445196364074945
576.0,0.002432553330436349
640.0,0.0018759857630357146
704.0,0.0006202406366355717
768.0,0.00027893378864973783
832.0,0.0008541629649698734
896.0,0.0010197588708251715
960.0,0.0017954135546460748
1024.0,0.00212065945379436
1152.0,0.0027258077170699835
1280.0,0.0014258609153330326
1408.0,0.002002245280891657
1536.0,0.001399734988808632
1664.0,0.0009801398264244199
1792.0,0.00039517239201813936
1920.0,0.001009719679132104
2048.0,0.0001885304955067113
2304.0,-0.0014893424231559038
2560.0,-0.0024195793084800243
2816.0,-0.0015802462585270405
3072.0,-0.0010088307317346334
3328.0,-0.0014403082896023989
3584.0,-0.002413727343082428
3840.0,-0.0019845375791192055
4096.0,-0.0009763989946804941
4608.0,-0.0018933266401290894
5120.0,-0.0011214477708563209
5632.0,-0.002189264167100191
6144.0,0.0024611956905573606
6656.0,0.002442538272589445
7168.0,0.001937594497576356
7680.0,-7.012187415966764e-05
8192.0,0.0013934317976236343
9216.0,-0.0037447356153279543
10240.0,-0.0033890805207192898
11264.0,-0.002914315788075328
12288.0,-0.00028093502623960376
13312.0,0.003708113916218281
14336.0,0.006038108374923468
end
