version,3.0
numOfCh,1
type,point
parent_name,1-cuts
ch_type,1_1
kcount,1
numberNandB,1
brightnessNandB,1
carpet pos,0
pc,0
Time (ms),CH1 Auto-Correlation
1.0,0.03288405388593674
2.0,0.03226840868592262
3.0,0.03166527301073074
4.0,0.031076887622475624
5.0,0.030519993975758553
6.0,0.02998245880007744
7.0,0.029464351013302803
8.0,0.028950046747922897
9.0,0.028445439413189888
10.0,0.027950089424848557
11.0,0.027475085109472275
12.0,0.0270336102694273
13.0,0.026625504717230797
14.0,0.02622574009001255
15.0,0.025841962546110153
16.0,0.02546199969947338
18.0,0.02473144233226776
20.0,0.024058518931269646
22.0,0.023422887548804283
24.0,0.02282591164112091
26.0,0.022255007177591324
28.0,0.021702056750655174
30.0,0.021162519231438637
32.0,0.020655803382396698
36.0,0.019726164638996124
40.0,0.018796788528561592
44.0,0.01793513633310795
48.0,0.017106082290410995
52.0,0.016293957829475403
56.0,0.015505223535001278
60.0,0.014721110463142395
64.0,0.013976280577480793
72.0,0.012574245221912861
80.0,0.011403131298720837
88.0,0.010619714856147766
96.0,0.01008622720837593
104.0,0.009719259105622768
112.0,0.009323897771537304
120.0,0.00879906490445137
128.0,0.008238381706178188
144.0,0.007220124825835228
160.0,0.0062161763198673725
176.0,0.0051208920776844025
192.0,0.004060997162014246
208.0,0.0033202243503183126
224.0,0.002341711660847068
240.0,0.001774648088030517
256.0,0.001346843084320426
288.0,0.000750313512980938
320.0,0.0005101558053866029
352.0,-0.0002704276121221483
384.0,-0.0014159573474898934
416.0,-0.0022864392958581448
448.0,-0.0035542657133191824
480.0,-0.005059318616986275
512.0,-0.005872814916074276
576.0,-0.00483184028416872
640.0,-0.003128564450889826
704.0,-0.0017374159069731832
768.0,-0.0028655051719397306
832.0,-0.0021494589745998383
896.0,-0.0006871019140817225
960.0,0.0017046740977093577
1024.0,0.0026564812287688255
1152.0,-0.0001469520211685449
1280.0,0.00019098295888397843
1408.0,-0.0009380322881042957
1536.0,-0.002102204132825136
1664.0,-0.0018166289664804935
1792.0,-0.0007115050684660673
1920.0,-0.0012734608026221395
2048.0,-0.00026938729570247233
2304.0,-0.0010595169151201844
2560.0,-0.0016914595616981387
2816.0,-0.0003668601275421679
3072.0,0.0001380796602461487
3328.0,-0.00013619150558952242
3584.0,0.0012999954633414745
3840.0,0.00010249384649796411
4096.0,-0.002523659495636821
4608.0,0.0026742652989923954
5120.0,0.0001730275253066793
5632.0,-0.0003136938903480768
6144.0,0.000833122874610126
6656.0,-0.00026554925716482103
7168.0,-0.0005084293661639094
7680.0,0.00014361493231263012
8192.0,0.0023563732393085957
9216.0,-0.001873026485554874
10240.0,-0.00221436214633286
11264.0,0.002256518928334117
12288.0,-0.0009695964981801808
13312.0,0.001384992734529078
14336.0,0.001074160449206829
end
