version,3.0
numOfCh,1
type,point
parent_name,1-cuts
ch_type,1_1
kcount,1
numberNandB,1
brightnessNandB,1
carpet pos,0
pc,0
Time (ms),CH1 Auto-Correlation
1.0,0.03329432010650635
2.0,0.03273645043373108
3.0,0.032210107892751694
4.0,0.031700532883405685
5.0,0.03121352382004261
6.0,0.03073296695947647
7.0,0.030273040756583214
8.0,0.02983889728784561
9.0,0.029401862993836403
10.0,0.0289741400629282
11.0,0.028542712330818176
12.0,0.028113940730690956
13.0,0.027689814567565918
14.0,0.027259239926934242
15.0,0.02683008275926113
16.0,0.026414254680275917
18.0,0.025594856590032578
20.0,0.024806983768939972
22.0,0.024043314158916473
24.0,0.023324087262153625
26.0,0.0226364117115736
28.0,0.02198258601129055
30.0,0.021376103162765503
32.0,0.020766878500580788
36.0,0.01963273622095585
40.0,0.018627937883138657
44.0,0.017730887979269028
48.0,0.016943437978625298
52.0,0.016294794157147408
56.0,0.015643764287233353
60.0,0.015109364874660969
64.0,0.014640220440924168
72.0,0.013787982985377312
80.0,0.012950411066412926
88.0,0.012183425016701221
96.0,0.011516579426825047
104.0,0.01095189992338419
112.0,0.010541289113461971
120.0,0.010225973092019558
128.0,0.010117038153111935
144.0,0.01020020805299282
160.0,0.010873853228986263
176.0,0.011244750581681728
192.0,0.010626869276165962
208.0,0.009652790613472462
224.0,0.008571229875087738
240.0,0.007775750942528248
256.0,0.007001651916652918
288.0,0.006183371879160404
320.0,0.0066259028390049934
352.0,0.006880243308842182
384.0,0.007276785559952259
416.0,0.007802413776516914
448.0,0.006817338988184929
480.0,0.006370312999933958
512.0,0.006333016324788332
576.0,0.002309008501470089
640.0,0.0006884390022605658
704.0,0.0007770058582536876
768.0,-0.0004473675799090415
832.0,-0.000833317288197577
896.0,0.0007646617013961077
960.0,0.0006831655045971274
1024.0,0.00018922761955764145
1152.0,0.0025475246366113424
1280.0,0.004121012985706329
1408.0,0.004825208336114883
1536.0,0.005413523875176907
1664.0,0.005211956333369017
1792.0,0.003832997288554907
1920.0,0.004519003909081221
2048.0,0.005356017500162125
2304.0,-0.0004270105273462832
2560.0,-0.00205534347333014
2816.0,-0.0017807212425395846
3072.0,-0.0007321087177842855
3328.0,-0.0008276920416392386
3584.0,-0.002081663114950061
3840.0,-0.0026693905238062143
4096.0,-0.0018548329826444387
4608.0,-0.0012624916853383183
5120.0,-0.0037142480723559856
5632.0,-0.004303840920329094
6144.0,-0.000577791768591851
6656.0,-0.003684635041281581
7168.0,-0.005390408914536238
7680.0,-0.002787824720144272
8192.0,-0.002679628785699606
9216.0,-0.0032341228798031807
10240.0,-0.0007729950011707842
11264.0,0.0012722715036943555
12288.0,0.008241238072514534
13312.0,0.003379291854798794
14336.0,-0.0011979028349742293
end
