version,3.0
numOfCh,1
type,point
parent_name,1-cuts
ch_type,1_1
kcount,1
numberNandB,1
brightnessNandB,1
carpet pos,0
pc,0
Time (ms),CH1 Auto-Correlation
1.0,0.07335209101438522
2.0,0.07210911810398102
3.0,0.07091677933931351
4.0,0.0697798803448677
5.0,0.06866072863340378
6.0,0.06759775429964066
7.0,0.06660111993551254
8.0,0.06564980745315552
9.0,0.06473993510007858
10.0,0.06385062634944916
11.0,0.06296047568321228
12.0,0.06212469935417175
13.0,0.06129582226276398
14.0,0.06051114946603775
15.0,0.059737905859947205
16.0,0.05897846072912216
18.0,0.057448066771030426
20.0,0.05600468069314957
22.0,0.05459537357091904
24.0,0.05327124521136284
26.0,0.05198463052511215
28.0,0.0507257878780365
30.0,0.04949989169836044
32.0,0.048326779156923294
36.0,0.04622019827365875
40.0,0.04426202550530434
44.0,0.04240281507372856
48.0,0.04061903432011604
52.0,0.038927238434553146
56.0,0.037341777235269547
60.0,0.035987451672554016
64.0,0.03462465852499008
72.0,0.03191796690225601
80.0,0.02928142435848713
88.0,0.027175407856702805
96.0,0.02525547333061695
104.0,0.02345113642513752
112.0,0.022171711549162865
120.0,0.021353114396333694
128.0,0.0207632165402174
144.0,0.018771551549434662
160.0,0.01673937402665615
176.0,0.015114158391952515
192.0,0.014279025606811047
208.0,0.013102764263749123
224.0,0.01202359702438116
240.0,0.010357335209846497
256.0,0.00905277207493782
288.0,0.007970103062689304
320.0,0.006927002687007189
352.0,0.005458345171064138
384.0,0.002474802313372493
416.0,0.0024146870709955692
448.0,0.003002232639119029
480.0,0.0006229138234630227
512.0,-0.001429158728569746
576.0,-0.0031198335345834494
640.0,-0.0042247590608894825
704.0,-0.006584922783076763
768.0,-0.007253045216202736
832.0,-0.002221963834017515
896.0,0.0006836609682068229
960.0,0.004713068250566721
1024.0,0.00498792203143239
1152.0,0.006570234429091215
1280.0,0.0030691917054355145
1408.0,0.008567215874791145
1536.0,0.006942603271454573
1664.0,0.004614280536770821
1792.0,0.0011333487927913666
1920.0,0.0015227778349071741
2048.0,0.002822898793965578
2304.0,0.0031695563811808825
2560.0,0.009001548402011395
2816.0,0.0036871659103780985
3072.0,0.0024721280205994844
3328.0,-0.008562794886529446
3584.0,-0.004485790152102709
3840.0,-0.007780028972774744
4096.0,0.00046985369408503175
4608.0,-0.0008986995671875775
5120.0,-0.002261929679661989
5632.0,-0.010921548120677471
6144.0,-0.006020635832101107
6656.0,0.00012085027992725372
7168.0,-0.010155496187508106
7680.0,-0.006021445617079735
8192.0,-0.008200240321457386
9216.0,-0.003029435873031616
10240.0,-0.0005517928511835635
11264.0,0.003758431179448962
12288.0,0.006127290427684784
13312.0,0.0033038705587387085
14336.0,-0.0018858762923628092
end
