version,3.0
numOfCh,1
type,point
parent_name,1-cuts
ch_type,1_1
kcount,1
numberNandB,1
brightnessNandB,1
carpet pos,0
pc,0
Time (ms),CH1 Auto-Correlation
1.0,0.030261576175689697
2.0,0.029686087742447853
3.0,0.029124872758984566
4.0,0.028584377840161324
5.0,0.0280692707747221
6.0,0.027580631896853447
7.0,0.02709769830107689
8.0,0.026646863669157028
9.0,0.02621271088719368
10.0,0.025794850662350655
11.0,0.02540460042655468
12.0,0.025032592937350273
13.0,0.024680497124791145
14.0,0.02434476464986801
15.0,0.024029139429330826
16.0,0.023710304871201515
18.0,0.02309001050889492
20.0,0.022531671449542046
22.0,0.022020433098077774
24.0,0.021531997248530388
26.0,0.021033309400081635
28.0,0.020546916872262955
30.0,0.020068589597940445
32.0,0.019578205421566963
36.0,0.018688268959522247
40.0,0.017892107367515564
44.0,0.017093539237976074
48.0,0.016369516029953957
52.0,0.01570279337465763
56.0,0.015106713399291039
60.0,0.014539053663611412
64.0,0.013962707482278347
72.0,0.012885400094091892
80.0,0.012000675313174725
88.0,0.011225201189517975
96.0,0.010499422438442707
104.0,0.009774367325007915
112.0,0.009043913334608078
120.0,0.008321314118802547
128.0,0.007503846660256386
144.0,0.006111710332334042
160.0,0.005018854048103094
176.0,0.004106954205781221
192.0,0.0033390363678336143
208.0,0.0028070001862943172
224.0,0.002557306317612529
240.0,0.0024080893490463495
256.0,0.0022153358440846205
288.0,0.002603799570351839
320.0,0.0024939223658293486
352.0,0.002233954844996333
384.0,0.0015723577234894037
416.0,0.0017749416874721646
448.0,0.00217716908082366
480.0,0.0022080952767282724
512.0,0.0025790794752538204
576.0,0.001939959591254592
640.0,0.0016751695657148957
704.0,0.0015688337152823806
768.0,0.0019908309914171696
832.0,0.0028202717658132315
896.0,0.003557545831426978
960.0,0.0038257285486906767
1024.0,0.0031788561027497053
1152.0,0.001674531027674675
1280.0,0.0023701924365013838
1408.0,0.0025054148864001036
1536.0,0.0007987670251168311
1664.0,-0.002954261377453804
1792.0,-0.001030807732604444
1920.0,0.000383278849767521
2048.0,-0.00043490444659255445
2304.0,-0.0013593481853604317
2560.0,-0.0021971012465655804
2816.0,-0.0006379100377671421
3072.0,0.00018308569269720465
3328.0,-0.0010809185914695263
3584.0,-0.0014695476274937391
3840.0,-0.0009479838190600276
4096.0,-0.0004902826622128487
4608.0,-0.0007229708135128021
5120.0,-0.0003892351523973048
5632.0,-0.0007336711278185248
6144.0,0.0014627340715378523
6656.0,-0.0010792218381538987
7168.0,0.0008529936894774437
7680.0,0.0015295152552425861
8192.0,0.0023719079326838255
9216.0,0.0016385106137022376
10240.0,-0.0034120685886591673
11264.0,-0.002955593867227435
12288.0,-0.004732647445052862
13312.0,-0.006610168609768152
14336.0,0.001257365569472313
end
