version,3.0
numOfCh,1
type,point
parent_name,1-cuts
ch_type,1_1
kcount,1
numberNandB,1
brightnessNandB,1
carpet pos,0
pc,0
Time (ms),CH1 Auto-Correlation
1.0,0.03043871559202671
2.0,0.02985316701233387
3.0,0.029282644391059875
4.0,0.02875685505568981
5.0,0.028245560824871063
6.0,0.027737192809581757
7.0,0.027224287390708923
8.0,0.026710279285907745
9.0,0.02621486224234104
10.0,0.025755515322089195
11.0,0.025304097682237625
12.0,0.024872517213225365
13.0,0.024463947862386703
14.0,0.024073658511042595
15.0,0.02367991767823696
16.0,0.0232832133769989
18.0,0.022529860958456993
20.0,0.021803848445415497
22.0,0.02109936624765396
24.0,0.020409932360053062
26.0,0.01975570060312748
28.0,0.019122587516903877
30.0,0.01850251853466034
32.0,0.01792149990797043
36.0,0.016885939985513687
40.0,0.015870176255702972
44.0,0.014901227317750454
48.0,0.014088578522205353
52.0,0.013325688429176807
56.0,0.012592300772666931
60.0,0.011883879080414772
64.0,0.011155013926327229
72.0,0.009691894985735416
80.0,0.008446980267763138
88.0,0.007554365787655115
96.0,0.006931056268513203
104.0,0.00637044757604599
112.0,0.005684038624167442
120.0,0.0050993249751627445
128.0,0.0045043169520795345
144.0,0.0033804557751864195
160.0,0.0028088006656616926
176.0,0.0021572341211140156
192.0,0.0008966403547674417
208.0,0.0001242646249011159
224.0,-0.0007999777444638312
240.0,-0.0012120050378143787
256.0,-0.0012325331335887313
288.0,-0.000973789778072387
320.0,-0.0006623607478104532
352.0,-0.0003900938027072698
384.0,-3.672422462841496e-05
416.0,0.00032814525184221566
448.0,0.001256156712770462
480.0,0.002644371008500457
512.0,0.0027303502429276705
576.0,0.002921896521002054
640.0,0.0001060079739545472
704.0,-0.0018881503492593765
768.0,-0.0017923041014000773
832.0,0.0016514415619894862
896.0,0.0028592476155608892
960.0,0.002429375657811761
1024.0,0.002070812741294503
1152.0,-0.0010118087520822883
1280.0,-0.002986173378303647
1408.0,-0.0006333454512059689
1536.0,-0.0004942404921166599
1664.0,-0.0015197409084066749
1792.0,0.0005731153069064021
1920.0,0.001726824208162725
2048.0,0.0010520104551687837
2304.0,0.0002953384246211499
2560.0,0.0011942577548325062
2816.0,-0.00031031647813506424
3072.0,-0.00035310781095176935
3328.0,-0.0016850563697516918
3584.0,-0.0003200894279871136
3840.0,-0.0010074264137074351
4096.0,0.0010091230506077409
4608.0,5.345369208953343e-05
5120.0,-0.00019401160534471273
5632.0,-0.0010685527231544256
6144.0,-0.0003866467159241438
6656.0,-0.0006824842421337962
7168.0,-0.0002988911001011729
7680.0,4.0029372030403465e-05
8192.0,-0.00040680161328054965
9216.0,-0.0022805265616625547
10240.0,-0.0015348944580182433
11264.0,0.0005483777495101094
12288.0,0.0016690031625330448
13312.0,0.001190632814541459
14336.0,-0.001527694403193891
end
