version,3.0
numOfCh,1
type,point
parent_name,1-cuts
ch_type,1_1
kcount,1
numberNandB,1
brightnessNandB,1
carpet pos,0
pc,0
Time (ms),CH1 Auto-Correlation
1.0,0.02101721242070198
2.0,0.020608119666576385
3.0,0.020216921344399452
4.0,0.019845876842737198
5.0,0.01947888731956482
6.0,0.019121786579489708
7.0,0.01877361722290516
8.0,0.01844727247953415
9.0,0.018139619380235672
10.0,0.017838124185800552
11.0,0.01755504123866558
12.0,0.01728162169456482
13.0,0.01701967604458332
14.0,0.016771849244832993
15.0,0.016525546088814735
16.0,0.016284886747598648
18.0,0.015810362994670868
20.0,0.015344147570431232
22.0,0.014906099997460842
24.0,0.014494233764708042
26.0,0.014091518707573414
28.0,0.013696694746613503
30.0,0.013296940363943577
32.0,0.012911641970276833
36.0,0.012243482284247875
40.0,0.01168071385473013
44.0,0.011209152638912201
48.0,0.010743335820734501
52.0,0.010305026546120644
56.0,0.0099060432985425
60.0,0.009534141048789024
64.0,0.009133092127740383
72.0,0.00840842816978693
80.0,0.007922722958028316
88.0,0.007563547231256962
96.0,0.007217033766210079
104.0,0.006880573462694883
112.0,0.006445053964853287
120.0,0.006092798430472612
128.0,0.005719327833503485
144.0,0.005233971867710352
160.0,0.00473403837531805
176.0,0.00434474553912878
192.0,0.004399555269628763
208.0,0.004258868284523487
224.0,0.003815633710473776
240.0,0.003549525747075677
256.0,0.0033130268566310406
288.0,0.0027952827513217926
320.0,0.0021523956675082445
352.0,0.0023480120580643415
384.0,0.0018830383196473122
416.0,0.0008699761820025742
448.0,-8.352576696779579e-05
480.0,-0.0006426767213270068
512.0,-0.0012510925298556685
576.0,-0.0032773050479590893
640.0,-0.0034884035121649504
704.0,-0.004437555093318224
768.0,-0.00473163602873683
832.0,-0.004194885492324829
896.0,-0.0032791257835924625
960.0,-0.0027189538814127445
1024.0,-0.0012904925970360637
1152.0,-0.0009593517752364278
1280.0,-0.00033357227221131325
1408.0,0.00033419058308936656
1536.0,0.0011016647331416607
1664.0,0.002653862349689007
1792.0,0.002339383587241173
1920.0,0.0026668920181691647
2048.0,0.002264735521748662
2304.0,-0.0013240328989923
2560.0,-0.0037492995616048574
2816.0,-0.0016212844057008624
3072.0,0.00037167660775594413
3328.0,0.0017320808256044984
3584.0,0.002365885768085718
3840.0,0.00018182871281169355
4096.0,-0.0010211808839812875
4608.0,-0.00055931496899575
5120.0,0.001487710396759212
5632.0,-0.0002161064330721274
6144.0,-0.00207334291189909
6656.0,-0.0006145921652205288
7168.0,0.004071383737027645
7680.0,-0.0027216379530727863
8192.0,-0.0013430308317765594
9216.0,-1.3551297342928592e-05
10240.0,0.000250336219323799
11264.0,-0.000999900628812611
12288.0,-0.0011465884745121002
13312.0,-0.003559007542207837
14336.0,0.002471986459568143
end
