version,3.0
numOfCh,1
type,point
parent_name,1-cuts
ch_type,1_1
kcount,1
numberNandB,1
brightnessNandB,1
carpet pos,0
pc,0
Time (ms),CH1 Auto-Correlation
1.0,0.02208624593913555
2.0,0.021705208346247673
3.0,0.02133520320057869
4.0,0.020980646833777428
5.0,0.02063479647040367
6.0,0.02029639668762684
7.0,0.01995837315917015
8.0,0.019642651081085205
9.0,0.019333168864250183
10.0,0.01902714930474758
11.0,0.01873471587896347
12.0,0.018459683284163475
13.0,0.018184643238782883
14.0,0.0179172120988369
15.0,0.01766190491616726
16.0,0.017412614077329636
18.0,0.01693635620176792
20.0,0.01649019494652748
22.0,0.01606084406375885
24.0,0.015662577003240585
26.0,0.015269770286977291
28.0,0.014892613515257835
30.0,0.014530829153954983
32.0,0.014186673797667027
36.0,0.013492717407643795
40.0,0.012864667922258377
44.0,0.0122913159430027
48.0,0.011725605465471745
52.0,0.011212827637791634
56.0,0.010708964429795742
60.0,0.010154013521969318
64.0,0.009635533206164837
72.0,0.008719784207642078
80.0,0.007962914183735847
88.0,0.007086992729455233
96.0,0.0062513770535588264
104.0,0.00552256777882576
112.0,0.004817513283342123
120.0,0.004222286865115166
128.0,0.0036653317511081696
144.0,0.002704739337787032
160.0,0.0018815872026607394
176.0,0.0011691802646964788
192.0,0.0008683215128257871
208.0,0.0008441717363893986
224.0,0.0009002037695609033
240.0,0.0009041234734468162
256.0,0.0010330912191420794
288.0,0.0008158668060787022
320.0,0.00016707892064005136
352.0,-0.000546442752238363
384.0,-0.0005715878214687109
416.0,-0.0007680894923396409
448.0,-0.0015661773504689336
480.0,-0.001728448667563498
512.0,-0.0011019994271919131
576.0,0.0005706214578822255
640.0,0.0016873119166120887
704.0,0.0011975383386015892
768.0,0.00039812398608773947
832.0,3.792531424551271e-05
896.0,-0.0013062313664704561
960.0,-0.001341070281341672
1024.0,-0.001090913894586265
1152.0,9.632026922190562e-05
1280.0,-5.9269892517477274e-05
1408.0,-0.00101918273139745
1536.0,-0.0025659685488790274
1664.0,-0.0006894927355460823
1792.0,-0.0013961568474769592
1920.0,-0.0018615068402141333
2048.0,-0.0015655432362109423
2304.0,-0.002595554804429412
2560.0,-0.000680995755828917
2816.0,0.0015213055303320289
3072.0,0.0006214994355104864
3328.0,-0.0001637059758650139
3584.0,0.0016577424248680472
3840.0,0.003310280852019787
4096.0,0.0019153732573613524
4608.0,0.0007361339521594346
5120.0,-0.0012835480738431215
5632.0,-0.002595714060589671
6144.0,-0.0019524977542459965
6656.0,0.0008503506542183459
7168.0,0.00162179593462497
7680.0,0.0017132487846538424
8192.0,0.0007004779763519764
9216.0,-0.000539530417881906
10240.0,-0.0009718944784253836
11264.0,0.0004291036748327315
12288.0,-0.0004551548627205193
13312.0,-0.0011805621907114983
14336.0,0.0007316342671401799
end
