version,3.0
numOfCh,1
type,point
parent_name,1-cuts
ch_type,1_1
kcount,1
numberNandB,1
brightnessNandB,1
carpet pos,0
pc,0
Time (ms),CH1 Auto-Correlation
1.0,0.08917820453643799
2.0,0.08794813603162766
3.0,0.08675046265125275
4.0,0.08563914149999619
5.0,0.08459785580635071
6.0,0.08359476923942566
7.0,0.08263446390628815
8.0,0.08168262988328934
9.0,0.0807572677731514
10.0,0.07984980940818787
11.0,0.0789804607629776
12.0,0.0781308189034462
13.0,0.07729878276586533
14.0,0.07648362219333649
15.0,0.07570599019527435
16.0,0.07499402016401291
18.0,0.07357032597064972
20.0,0.07222849875688553
22.0,0.07095744460821152
24.0,0.06976112723350525
26.0,0.06857633590698242
28.0,0.06743215769529343
30.0,0.06635597348213196
32.0,0.06524870544672012
36.0,0.06306423246860504
40.0,0.06109026446938515
44.0,0.05917086824774742
48.0,0.05738716199994087
52.0,0.05562587082386017
56.0,0.053921449929475784
60.0,0.052511878311634064
64.0,0.051268257200717926
72.0,0.0490700826048851
80.0,0.04723016172647476
88.0,0.04543043673038483
96.0,0.04342437908053398
104.0,0.04158490523695946
112.0,0.039934758096933365
120.0,0.03855176642537117
128.0,0.03707015514373779
144.0,0.03368537873029709
160.0,0.030688714236021042
176.0,0.02810775302350521
192.0,0.02493162453174591
208.0,0.022640246897935867
224.0,0.02011645957827568
240.0,0.018830403685569763
256.0,0.018475662916898727
288.0,0.01863817311823368
320.0,0.018869172781705856
352.0,0.01865883357822895
384.0,0.017032984644174576
416.0,0.015556110069155693
448.0,0.014793476089835167
480.0,0.014099095948040485
512.0,0.011168441735208035
576.0,0.007938128896057606
640.0,0.005814317613840103
704.0,0.004550955258309841
768.0,0.004538882523775101
832.0,0.00665688281878829
896.0,0.007990079000592232
960.0,0.00846781861037016
1024.0,0.00885288417339325
1152.0,0.0033611708786338568
1280.0,0.006802618503570557
1408.0,0.007095533423125744
1536.0,-0.0016243538120761514
1664.0,-0.009887702763080597
1792.0,-0.010755828581750393
1920.0,-0.011932670138776302
2048.0,-0.019968315958976746
2304.0,-0.025325175374746323
2560.0,-0.026170814409852028
2816.0,-0.018523678183555603
3072.0,-0.018879985436797142
3328.0,-0.01945924386382103
3584.0,-0.016962885856628418
3840.0,0.0008265217184089124
4096.0,0.004907360766083002
4608.0,0.011653458699584007
5120.0,0.019463375210762024
5632.0,0.025123469531536102
6144.0,0.013550453819334507
6656.0,0.006223141215741634
7168.0,-0.0054856520146131516
7680.0,-0.027238992974162102
8192.0,-0.014858937822282314
9216.0,-0.006834112107753754
10240.0,0.00938045047223568
11264.0,0.008327405899763107
12288.0,0.00558347487822175
13312.0,-0.014599570073187351
14336.0,-0.013387903571128845
end
