version,3.0
numOfCh,1
type,point
parent_name,1-cuts
ch_type,1_1
kcount,1
numberNandB,1
brightnessNandB,1
carpet pos,0
pc,0
Time (ms),CH1 Auto-Correlation
1.0,0.034081559628248215
2.0,0.033505868166685104
3.0,0.03296111151576042
4.0,0.03242555633187294
5.0,0.0319000780582428
6.0,0.031385425478219986
7.0,0.030885906890034676
8.0,0.03040085919201374
9.0,0.02992970310151577
10.0,0.02947191521525383
11.0,0.02902173437178135
12.0,0.02857762761414051
13.0,0.028141379356384277
14.0,0.02773691527545452
15.0,0.02734670229256153
16.0,0.026982741430401802
18.0,0.02629636600613594
20.0,0.025634363293647766
22.0,0.024986663833260536
24.0,0.02434978261590004
26.0,0.02370912954211235
28.0,0.02306695468723774
30.0,0.022413162514567375
32.0,0.0217832550406456
36.0,0.02062210626900196
40.0,0.01948864571750164
44.0,0.018456215038895607
48.0,0.017530785873532295
52.0,0.016701916232705116
56.0,0.015978405252099037
60.0,0.015280326828360558
64.0,0.01455243956297636
72.0,0.01311684399843216
80.0,0.011904588900506496
88.0,0.01104701030999422
96.0,0.010285814292728901
104.0,0.009685236029326916
112.0,0.00917041301727295
120.0,0.008784295059740543
128.0,0.008539260365068913
144.0,0.00834827870130539
160.0,0.007898551411926746
176.0,0.007560343481600285
192.0,0.0070860483683645725
208.0,0.00652496749535203
224.0,0.005640034563839436
240.0,0.005410115700215101
256.0,0.005362880881875753
288.0,0.005036357790231705
320.0,0.0041625541634857655
352.0,0.004021377768367529
384.0,0.004181908443570137
416.0,0.004172144457697868
448.0,0.0054153138771653175
480.0,0.006355587858706713
512.0,0.006531572435051203
576.0,0.0060126702301204205
640.0,0.005692730657756329
704.0,0.0024383103009313345
768.0,0.0011314613511785865
832.0,0.0010305849136784673
896.0,-0.0013850731775164604
960.0,-0.0019792579114437103
1024.0,-0.002959061646834016
1152.0,-0.0005107703036628664
1280.0,-0.0008057818631641567
1408.0,-0.003744835499674082
1536.0,-0.00219024159014225
1664.0,-0.002549407770857215
1792.0,0.0006160962511785328
1920.0,-0.0008659124141559005
2048.0,-0.0006947173387743533
2304.0,-0.00041209039045497775
2560.0,-0.0011261824984103441
2816.0,-0.0021389382891356945
3072.0,-0.0010434983996674418
3328.0,-0.0012437794357538223
3584.0,9.980386494135018e-06
3840.0,-0.001714154495857656
4096.0,-0.00029819802148267627
4608.0,-0.004869770258665085
5120.0,-0.005819017067551613
5632.0,-0.0017385693499818444
6144.0,0.004212736152112484
6656.0,0.0042049214243888855
7168.0,0.0014857968781143427
7680.0,-0.000323736370773986
8192.0,0.000601761625148356
9216.0,0.000907072564586997
10240.0,-4.8523328587180004e-05
11264.0,-0.0026941217947751284
12288.0,0.0009901497978717089
13312.0,0.0013687914470210671
14336.0,-0.0006612829747609794
end
