version,3.0
numOfCh,1
type,point
parent_name,1-cuts
ch_type,1_1
kcount,1
numberNandB,1
brightnessNandB,1
carpet pos,0
pc,0
Time (ms),CH1 Auto-Correlation
1.0,0.06496370583772659
2.0,0.06376706063747406
3.0,0.06258099526166916
4.0,0.06142052263021469
5.0,0.06032334268093109
6.0,0.05926593393087387
7.0,0.0582207515835762
8.0,0.05721506103873253
9.0,0.05622122436761856
10.0,0.055242814123630524
11.0,0.05429747700691223
12.0,0.053366005420684814
13.0,0.05247662961483002
14.0,0.05160835012793541
15.0,0.05075451731681824
16.0,0.04993591085076332
18.0,0.048331908881664276
20.0,0.04679806903004646
22.0,0.04539504274725914
24.0,0.04408486932516098
26.0,0.042911894619464874
28.0,0.041809871792793274
30.0,0.040788959711790085
32.0,0.03987325727939606
36.0,0.03816157579421997
40.0,0.03662693127989769
44.0,0.03525484353303909
48.0,0.033946339040994644
52.0,0.032639291137456894
56.0,0.031336892396211624
60.0,0.030224641785025597
64.0,0.029268337413668633
72.0,0.027724042534828186
80.0,0.026027020066976547
88.0,0.024257788434624672
96.0,0.022750774398446083
104.0,0.021426444873213768
112.0,0.02030542679131031
120.0,0.019137151539325714
128.0,0.018056180328130722
144.0,0.016447149217128754
160.0,0.015242795459926128
176.0,0.013485300354659557
192.0,0.012716880068182945
208.0,0.012034229002892971
224.0,0.010609921999275684
240.0,0.009014513343572617
256.0,0.008097341284155846
288.0,0.007654894609004259
320.0,0.007564922794699669
352.0,0.007891189306974411
384.0,0.007051241118460894
416.0,0.006462043151259422
448.0,0.006883394438773394
480.0,0.007516485173255205
512.0,0.007336614653468132
576.0,0.0029361508786678314
640.0,0.0011801718501374125
704.0,0.0016753653762862086
768.0,0.0016114579048007727
832.0,-0.0002474700449965894
896.0,-0.0011781556531786919
960.0,-0.0005193556426092982
1024.0,-2.9353688660194166e-05
1152.0,0.0029819009359925985
1280.0,0.0006201706710271537
1408.0,-0.003508097492158413
1536.0,-0.0062105716206133366
1664.0,-0.0011087394086644053
1792.0,0.002135099843144417
1920.0,-0.0010071450378745794
2048.0,-0.00666486332193017
2304.0,0.0006874473765492439
2560.0,0.0036200538743287325
2816.0,0.0027027202304452658
3072.0,0.0008107085595838726
3328.0,-0.0026444869581609964
3584.0,0.0068914820440113544
3840.0,-0.00404445081949234
4096.0,-0.008114688098430634
4608.0,-0.004568161442875862
5120.0,-0.005585036240518093
5632.0,-0.0004801674804184586
6144.0,0.00433682044968009
6656.0,0.0024119040463119745
7168.0,-0.00031258148374035954
7680.0,-0.0049517410807311535
8192.0,0.0029414305463433266
9216.0,0.0003560509067028761
10240.0,-0.008271333761513233
11264.0,-0.007865330204367638
12288.0,0.0009063335019163787
13312.0,-0.0087862778455019
14336.0,0.0008085219888016582
end
