version,3.0
numOfCh,1
type,point
parent_name,1-cuts
ch_type,1_1
kcount,1
numberNandB,1
brightnessNandB,1
carpet pos,0
pc,0
Time (ms),CH1 Auto-Correlation
1.0,0.06422947347164154
2.0,0.06307416409254074
3.0,0.06199169531464577
4.0,0.06094369664788246
5.0,0.05994435027241707
6.0,0.058950070291757584
7.0,0.05800360068678856
8.0,0.05708559602499008
9.0,0.056206122040748596
10.0,0.05533788725733757
11.0,0.05450483784079552
12.0,0.0536990687251091
13.0,0.052947886288166046
14.0,0.05219642072916031
15.0,0.051468100398778915
16.0,0.050794847309589386
18.0,0.04953115060925484
20.0,0.04831410199403763
22.0,0.047115880995988846
24.0,0.045966483652591705
26.0,0.044828373938798904
28.0,0.043727174401283264
30.0,0.042629390954971313
32.0,0.041570503264665604
36.0,0.03939608857035637
40.0,0.03743598982691765
44.0,0.03560417890548706
48.0,0.03386564925312996
52.0,0.032381825149059296
56.0,0.031140873208642006
60.0,0.03000873327255249
64.0,0.02884257398545742
72.0,0.02663516439497471
80.0,0.02475718781352043
88.0,0.023323165252804756
96.0,0.02200348861515522
104.0,0.021396003663539886
112.0,0.020919926464557648
120.0,0.020229598507285118
128.0,0.019436873495578766
144.0,0.018243568018078804
160.0,0.016364077106118202
176.0,0.014330673031508923
192.0,0.012338817119598389
208.0,0.010427826084196568
224.0,0.009157217107713223
240.0,0.00900078285485506
256.0,0.008770577609539032
288.0,0.007573110982775688
320.0,0.006161413621157408
352.0,0.0048997835256159306
384.0,0.002848247764632106
416.0,0.0008923358400352299
448.0,-0.0006702447426505387
480.0,-0.0018496176926419139
512.0,-0.0019860086031258106
576.0,-0.00017379893688485026
640.0,-0.0017610659124329686
704.0,-0.0035118665546178818
768.0,-0.005160582717508078
832.0,-0.005583047866821289
896.0,-0.004902229644358158
960.0,-0.00416705384850502
1024.0,-0.001963510876521468
1152.0,-0.0012044199975207448
1280.0,-0.003704189555719495
1408.0,-0.002491116989403963
1536.0,0.0008592252270318568
1664.0,0.0025592355523258448
1792.0,-0.0012430718634277582
1920.0,-0.008021301589906216
2048.0,-0.008645967580378056
2304.0,-0.005576333496719599
2560.0,-0.0028298802208155394
2816.0,-0.0026962938718497753
3072.0,0.0012821984710171819
3328.0,0.0034012929536402225
3584.0,-0.0011761157074943185
3840.0,-0.0033195759169757366
4096.0,-0.005416273605078459
4608.0,0.005398984998464584
5120.0,-0.0029517258517444134
5632.0,-0.006912855431437492
6144.0,-0.0005031778127886355
6656.0,0.00331829278729856
7168.0,0.006112352944910526
7680.0,0.006792915053665638
8192.0,0.0012522399192675948
9216.0,-0.0016292870277538896
10240.0,-0.004906537942588329
11264.0,-0.003472688142210245
12288.0,0.0015457140980288386
13312.0,-0.0007250135531648993
14336.0,0.015090649016201496
end
