version,3.0
numOfCh,1
type,point
parent_name,ff67b_0dot1-0dot01
ch_type,1_1
kcount,1
numberNandB,1
brightnessNandB,1
carpet pos,0
pc,0
Time (ms),CH1 Auto-Correlation
1.0,0.02934747189283371
2.0,0.029154988005757332
3.0,0.028972603380680084
4.0,0.028790663927793503
5.0,0.028608543798327446
6.0,0.028431236743927002
7.0,0.028258953243494034
8.0,0.028095843270421028
9.0,0.02793174237012863
10.0,0.027772853150963783
11.0,0.027610089629888535
12.0,0.027453269809484482
13.0,0.027294836938381195
14.0,0.02714448794722557
15.0,0.026995772495865822
16.0,0.026846906170248985
18.0,0.026574961841106415
20.0,0.026302112266421318
22.0,0.026047879830002785
24.0,0.025812778621912003
26.0,0.025580355897545815
28.0,0.02536321058869362
30.0,0.02514597959816456
32.0,0.024930883198976517
36.0,0.024477962404489517
40.0,0.024005424231290817
44.0,0.02354308031499386
48.0,0.02312171459197998
52.0,0.022710926830768585
56.0,0.02234804816544056
60.0,0.022055678069591522
64.0,0.021791499108076096
72.0,0.021238937973976135
80.0,0.02067418210208416
88.0,0.020040061324834824
96.0,0.019497083500027657
104.0,0.018984248861670494
112.0,0.01844037137925625
120.0,0.017905736342072487
128.0,0.017464397475123405
144.0,0.016692105680704117
160.0,0.015881376340985298
176.0,0.01520831510424614
192.0,0.01480030920356512
208.0,0.014507463201880455
224.0,0.01419853139668703
240.0,0.0140670295804739
256.0,0.013743545860052109
288.0,0.012987591326236725
320.0,0.01203151699155569
352.0,0.010852099396288395
384.0,0.009888574481010437
416.0,0.009844573214650154
448.0,0.009659971110522747
480.0,0.00906100682914257
512.0,0.00836457870900631
576.0,0.006311351433396339
640.0,0.004331132397055626
704.0,0.0031467177905142307
768.0,0.0029812203720211983
832.0,0.002424380974844098
896.0,0.0015152640407904983
960.0,0.00018988916417583823
1024.0,-0.0012485584011301398
1152.0,-0.0010610440513119102
1280.0,-0.0010797418653964996
1408.0,-0.001694019534625113
1536.0,-0.0004746779450215399
1664.0,0.0005951745552010834
1792.0,0.001278199371881783
1920.0,0.0028205302078276873
2048.0,0.003597131697461009
2304.0,0.0019975623581558466
2560.0,0.0030106629710644484
2816.0,0.0004531586600933224
3072.0,0.0012741043465211987
3328.0,-0.0013206563889980316
3584.0,-0.0010037851752713323
3840.0,-0.0013331231893971562
4096.0,-0.00015113415429368615
4608.0,-0.0025354307144880295
5120.0,-0.0063588968478143215
5632.0,-0.012646358460187912
6144.0,-0.01215380895882845
6656.0,-0.005712058395147324
7168.0,-0.0024743680842220783
7680.0,0.0026454993057996035
8192.0,-0.005363996606320143
end
