version,3.0
numOfCh,1
type,point
parent_name,ff67b_0dot1-0dot01
ch_type,1_1
kcount,1
numberNandB,1
brightnessNandB,1
carpet pos,0
pc,0
Time (ms),CH1 Auto-Correlation
1.0,0.017269782721996307
2.0,0.017077231779694557
3.0,0.016891665756702423
4.0,0.016711147502064705
5.0,0.01652807928621769
6.0,0.01634272187948227
7.0,0.01615934818983078
8.0,0.015978621318936348
9.0,0.015801383182406425
10.0,0.01562090590596199
11.0,0.015440687537193298
12.0,0.015264091081917286
13.0,0.015092662535607815
14.0,0.014917487278580666
15.0,0.014742245897650719
16.0,0.014569304883480072
18.0,0.014241017401218414
20.0,0.013932481408119202
22.0,0.013637924566864967
24.0,0.0133579196408391
26.0,0.013081680983304977
28.0,0.012815612368285656
30.0,0.012563220225274563
32.0,0.01233183778822422
36.0,0.011904044076800346
40.0,0.0114974994212389
44.0,0.011100681498646736
48.0,0.010740827769041061
52.0,0.01041345950216055
56.0,0.010111399926245213
60.0,0.009836585260927677
64.0,0.00956933293491602
72.0,0.00904910545796156
80.0,0.008583850227296352
88.0,0.00813846755772829
96.0,0.007684844080358744
104.0,0.007258936297148466
112.0,0.006906628143042326
120.0,0.006610539276152849
128.0,0.006393589079380035
144.0,0.006022484507411718
160.0,0.005688654724508524
176.0,0.005488972179591656
192.0,0.00538425100967288
208.0,0.005173050798475742
224.0,0.0048802802339196205
240.0,0.004435467999428511
256.0,0.003975345753133297
288.0,0.003305899677798152
320.0,0.0029068696312606335
352.0,0.002592668868601322
384.0,0.001945891068316996
416.0,0.0012702681124210358
448.0,0.0011572634102776647
480.0,0.0009873034432530403
512.0,0.0007932035368867218
576.0,0.0003687926509883255
640.0,-9.802313434192911e-05
704.0,-0.00063496851362288
768.0,-0.0006219217320904136
832.0,-0.00094930938212201
896.0,-0.0011753140715882182
960.0,-0.001171546638943255
1024.0,-0.0011284297797828913
1152.0,-0.0007785020279698074
1280.0,-0.0016857398441061378
1408.0,-0.0022849193774163723
1536.0,-0.001695481943897903
1664.0,-0.0005861668614670634
1792.0,0.00021059908613096923
1920.0,-0.0005250407266430557
2048.0,0.0003101329493802041
2304.0,-0.0007824419299140573
2560.0,-0.00030734529718756676
2816.0,0.00044810131657868624
3072.0,0.000848174502607435
3328.0,-0.0006440002471208572
3584.0,-0.0004993520560674369
3840.0,0.000963555765338242
4096.0,0.0006884873146191239
4608.0,-0.001093922182917595
5120.0,-0.0017054396448656917
5632.0,-0.002299398649483919
6144.0,0.0019637777004390955
6656.0,0.0014749214751645923
7168.0,-0.0019380412995815277
7680.0,-0.0022368852514773607
8192.0,0.0014729605754837394
end
