version,3.0
numOfCh,1
type,point
parent_name,ff67b_0dot1-0dot01
ch_type,1_1
kcount,1
numberNandB,1
brightnessNandB,1
carpet pos,0
pc,0
Time (ms),CH1 Auto-Correlation
1.0,0.02115544117987156
2.0,0.020967453718185425
3.0,0.020779088139533997
4.0,0.02059447020292282
5.0,0.020413415506482124
6.0,0.020239699631929398
7.0,0.0200674906373024
8.0,0.019895803183317184
9.0,0.01972212828695774
10.0,0.01955282688140869
11.0,0.01937980204820633
12.0,0.019211389124393463
13.0,0.019042862579226494
14.0,0.01887989416718483
15.0,0.018719784915447235
16.0,0.018563279882073402
18.0,0.01824745163321495
20.0,0.017935482785105705
22.0,0.017637144774198532
24.0,0.017355902120471
26.0,0.017086021602153778
28.0,0.016828497871756554
30.0,0.016578756272792816
32.0,0.016330188140273094
36.0,0.015846367925405502
40.0,0.01541352178901434
44.0,0.015028152614831924
48.0,0.014683893881738186
52.0,0.014349737204611301
56.0,0.014001553878188133
60.0,0.013661778531968594
64.0,0.013317800126969814
72.0,0.01265399158000946
80.0,0.011984841898083687
88.0,0.011343992315232754
96.0,0.010782631114125252
104.0,0.01024568174034357
112.0,0.009760274551808834
120.0,0.009274200536310673
128.0,0.00884262379258871
144.0,0.00809465255588293
160.0,0.007481440436094999
176.0,0.007026237901300192
192.0,0.0066148643381893635
208.0,0.0063635678961873055
224.0,0.006054055877029896
240.0,0.005816231016069651
256.0,0.005471498239785433
288.0,0.004740102682262659
320.0,0.004146800842136145
352.0,0.003885781392455101
384.0,0.0037080885376781225
416.0,0.0034301448613405228
448.0,0.002836296334862709
480.0,0.002646454144269228
512.0,0.0023832744918763638
576.0,0.001607388025149703
640.0,0.0015895216492936015
704.0,0.0024983466137200594
768.0,0.0015868577174842358
832.0,-0.00013128398859407753
896.0,0.0003259902005083859
960.0,0.0016239866381511092
1024.0,0.0015950408997014165
1152.0,-0.0001413861900800839
1280.0,-0.0016826040809974074
1408.0,-0.0023103575222194195
1536.0,-0.0017026093555614352
1664.0,-0.00045187631621956825
1792.0,0.0005455577629618347
1920.0,0.0003785869339480996
2048.0,0.0012522469041869044
2304.0,0.00014668410585727543
2560.0,0.00012107648944947869
2816.0,-0.001069151214323938
3072.0,-0.002262493595480919
3328.0,-0.00171131722163409
3584.0,-0.0019814064726233482
3840.0,-0.0031567157711833715
4096.0,-0.0017711948603391647
4608.0,-0.00030200841138139367
5120.0,0.0012061517918482423
5632.0,-0.00040990463458001614
6144.0,-0.0017215244006365538
6656.0,-0.0026070247404277325
7168.0,0.0003169773262925446
7680.0,-0.0002655532443895936
8192.0,0.0018409150652587414
9216.0,-0.0021941978484392166
10240.0,0.00044815914588980377
11264.0,-0.002217319793999195
12288.0,0.0018448017071932554
13312.0,0.002812842605635524
14336.0,-0.0016970786964520812
end
