version,3.0
numOfCh,1
type,point
parent_name,ff67b_0dot1-0dot01
ch_type,1_1
kcount,1
numberNandB,1
brightnessNandB,1
carpet pos,0
pc,0
Time (ms),CH1 Auto-Correlation
1.0,0.0339297316968441
2.0,0.03372117504477501
3.0,0.033517684787511826
4.0,0.0333210751414299
5.0,0.033127810806035995
6.0,0.032935116440057755
7.0,0.03274697810411453
8.0,0.0325612835586071
9.0,0.03237498179078102
10.0,0.03219427913427353
11.0,0.03201684355735779
12.0,0.03183920308947563
13.0,0.03166254609823227
14.0,0.03148971125483513
15.0,0.031316984444856644
16.0,0.031143231317400932
18.0,0.030801059678196907
20.0,0.030470669269561768
22.0,0.030154747888445854
24.0,0.02982211671769619
26.0,0.029495496302843094
28.0,0.029189005494117737
30.0,0.0288847628980875
32.0,0.028582120314240456
36.0,0.028040267527103424
40.0,0.027531243860721588
44.0,0.027030833065509796
48.0,0.0265414509922266
52.0,0.026089075952768326
56.0,0.025688501074910164
60.0,0.02534230798482895
64.0,0.025035453960299492
72.0,0.024474777281284332
80.0,0.02389679290354252
88.0,0.02326851524412632
96.0,0.022710051387548447
104.0,0.022199224680662155
112.0,0.021716125309467316
120.0,0.02117331698536873
128.0,0.02063727006316185
144.0,0.0194226186722517
160.0,0.018396994099020958
176.0,0.017725864425301552
192.0,0.017350777983665466
208.0,0.017016630619764328
224.0,0.016591861844062805
240.0,0.01619817316532135
256.0,0.01573825813829899
288.0,0.01543398667126894
320.0,0.015419606119394302
352.0,0.014489607885479927
384.0,0.013245780020952225
416.0,0.012032165192067623
448.0,0.01040749903768301
480.0,0.00963621772825718
512.0,0.009526469744741917
576.0,0.009074827656149864
640.0,0.008289252407848835
704.0,0.007506178691983223
768.0,0.006238427944481373
832.0,0.006251948419958353
896.0,0.006785165518522263
960.0,0.0063864439725875854
1024.0,0.005433486308902502
1152.0,0.0033156764693558216
1280.0,0.0032428884878754616
1408.0,-0.0005040408577769995
1536.0,-0.0028974793385714293
1664.0,-0.002103254897519946
1792.0,-0.0009201091015711427
1920.0,0.0012393577490001917
2048.0,0.002119953278452158
2304.0,0.004014924634248018
2560.0,0.005318102426826954
2816.0,0.002790980041027069
3072.0,0.0017112839268520474
3328.0,-0.0015747040743008256
3584.0,-0.0042554233223199844
3840.0,-0.005918140523135662
4096.0,-0.01025671511888504
4608.0,-0.009759321808815002
5120.0,-0.009098302572965622
5632.0,-0.0051942672580480576
6144.0,-0.00858653150498867
6656.0,-0.008555007167160511
7168.0,-0.013269172981381416
7680.0,-0.010709489695727825
8192.0,-0.004058437421917915
end
