version,3.0
numOfCh,1
type,point
parent_name,ff67b_0dot1-0dot01
ch_type,1_1
kcount,1
numberNandB,1
brightnessNandB,1
carpet pos,0
pc,0
Time (ms),CH1 Auto-Correlation
1.0,0.021018581464886665
2.0,0.020831743255257607
3.0,0.020652318373322487
4.0,0.020475853234529495
5.0,0.020300740376114845
6.0,0.020128171890974045
7.0,0.019954921677708626
8.0,0.01978650502860546
9.0,0.01961451955139637
10.0,0.019441459327936172
11.0,0.01927183009684086
12.0,0.01910463720560074
13.0,0.018936820328235626
14.0,0.018773728981614113
15.0,0.018613431602716446
16.0,0.018453864380717278
18.0,0.018142428249120712
20.0,0.01783633790910244
22.0,0.017550727352499962
24.0,0.017284506931900978
26.0,0.01703665964305401
28.0,0.016795018687844276
30.0,0.016568826511502266
32.0,0.01634959876537323
36.0,0.015913158655166626
40.0,0.015492640435695648
44.0,0.015097231604158878
48.0,0.014755516313016415
52.0,0.014444210566580296
56.0,0.014138678088784218
60.0,0.013851034455001354
64.0,0.013555346056818962
72.0,0.012916617095470428
80.0,0.012321880087256432
88.0,0.011758680455386639
96.0,0.01122004073113203
104.0,0.01073702797293663
112.0,0.010361471213400364
120.0,0.010047742165625095
128.0,0.009738551452755928
144.0,0.009181144647300243
160.0,0.008838910609483719
176.0,0.008399728685617447
192.0,0.007980553433299065
208.0,0.0075673870742321014
224.0,0.007130730897188187
240.0,0.006751921959221363
256.0,0.006373140029609203
288.0,0.005558413453400135
320.0,0.004476493690162897
352.0,0.003620481351390481
384.0,0.0031600731890648603
416.0,0.002931800903752446
448.0,0.002533071441575885
480.0,0.0020957288797944784
512.0,0.0017595633398741484
576.0,0.0015364367282018065
640.0,0.0018281384836882353
704.0,0.0018608564278110862
768.0,0.0018681695219129324
832.0,0.0021390358451753855
896.0,0.00240936316549778
960.0,0.0029310465324670076
1024.0,0.0031082092318683863
1152.0,0.0023952247574925423
1280.0,0.0015813960926607251
1408.0,0.0017300317995250225
1536.0,0.0015680688666179776
1664.0,0.002055234042927623
1792.0,0.001944023766554892
1920.0,0.0030876316595822573
2048.0,0.003935659769922495
2304.0,0.00508582778275013
2560.0,0.004313540179282427
2816.0,-0.00014979745901655406
3072.0,0.00020686352218035609
3328.0,0.00028134090825915337
3584.0,0.0016568428836762905
3840.0,-0.00047609704779461026
4096.0,-0.000849001167807728
4608.0,0.002147247549146414
5120.0,0.0011640747543424368
5632.0,-0.002336765406653285
6144.0,-0.0009515761048533022
6656.0,-0.0006432657246477902
7168.0,-0.0004047019756399095
7680.0,-0.006997514516115189
8192.0,-0.005643789190798998
end
