version,3.0
numOfCh,1
type,point
parent_name,ff67b_0dot1-0dot01
ch_type,1_1
kcount,1
numberNandB,1
brightnessNandB,1
carpet pos,0
pc,0
Time (ms),CH1 Auto-Correlation
1.0,0.020128492265939713
2.0,0.019951194524765015
3.0,0.01977827586233616
4.0,0.019610228016972542
5.0,0.019441157579421997
6.0,0.019276002421975136
7.0,0.019113484770059586
8.0,0.018958697095513344
9.0,0.018807923421263695
10.0,0.018658284097909927
11.0,0.01851021498441696
12.0,0.018364164978265762
13.0,0.018222982063889503
14.0,0.018084164708852768
15.0,0.01794411614537239
16.0,0.017809567973017693
18.0,0.017536254599690437
20.0,0.01727927476167679
22.0,0.0170410368591547
24.0,0.01680658757686615
26.0,0.016574598848819733
28.0,0.01634439080953598
30.0,0.01611156202852726
32.0,0.015878578647971153
36.0,0.015432124957442284
40.0,0.015021396800875664
44.0,0.014649450778961182
48.0,0.014287211000919342
52.0,0.013940596021711826
56.0,0.013613023795187473
60.0,0.013281621970236301
64.0,0.012951822020113468
72.0,0.01230469811707735
80.0,0.011625872924923897
88.0,0.011016453616321087
96.0,0.010459579527378082
104.0,0.009929259307682514
112.0,0.009425247088074684
120.0,0.008974599651992321
128.0,0.008597074076533318
144.0,0.007945528253912926
160.0,0.007281542290002108
176.0,0.006534929387271404
192.0,0.005809000693261623
208.0,0.005043541081249714
224.0,0.004312618635594845
240.0,0.0038265404291450977
256.0,0.0034451757092028856
288.0,0.0028360432479530573
320.0,0.002388770692050457
352.0,0.0020433433819562197
384.0,0.0020910310558974743
416.0,0.001926794764585793
448.0,0.0018590973922982812
480.0,0.0015052980743348598
512.0,0.001128139439970255
576.0,0.00023071344185154885
640.0,-0.0011890054447576404
704.0,-0.002787794452160597
768.0,-0.0037896838039159775
832.0,-0.004476215690374374
896.0,-0.004156690556555986
960.0,-0.0028505316004157066
1024.0,-0.00126054382417351
1152.0,-0.0004772186221089214
1280.0,-0.0002577292616479099
1408.0,0.0007475309539586306
1536.0,0.0030638377647846937
1664.0,0.0036961922887712717
1792.0,0.0017360708443447948
1920.0,-4.065857865498401e-05
2048.0,0.00022031343542039394
2304.0,-0.0005915126530453563
2560.0,-0.0013901141937822104
2816.0,-0.0010112670715898275
3072.0,-0.0015168755780905485
3328.0,0.003696093102917075
3584.0,0.0037694021593779325
3840.0,0.0009843658190220594
4096.0,-0.002505793236196041
4608.0,-0.00452928664162755
5120.0,0.0006283268448896706
5632.0,-0.0023748157545924187
6144.0,-0.0027787338476628065
6656.0,-0.0002252598205814138
7168.0,0.002508381148800254
7680.0,-0.0022772292140871286
8192.0,-0.005189920775592327
end
