version,3.0
numOfCh,1
type,point
parent_name,ff67b_0dot1-0dot01
ch_type,1_1
kcount,1
numberNandB,1
brightnessNandB,1
carpet pos,0
pc,0
Time (ms),CH1 Auto-Correlation
1.0,0.021037349477410316
2.0,0.020730556920170784
3.0,0.020438024774193764
4.0,0.020141448825597763
5.0,0.019848480820655823
6.0,0.01957913115620613
7.0,0.019293861463665962
8.0,0.018997175619006157
9.0,0.018701577559113503
10.0,0.01842229999601841
11.0,0.018160032108426094
12.0,0.017893297597765923
13.0,0.017613902688026428
14.0,0.017353413626551628
15.0,0.017079271376132965
16.0,0.016796592622995377
18.0,0.016490478068590164
20.0,0.01618831790983677
22.0,0.015897730365395546
24.0,0.015615024603903294
26.0,0.015350010246038437
28.0,0.015078136697411537
30.0,0.014803732745349407
32.0,0.014533426612615585
36.0,0.01397461723536253
40.0,0.013430208899080753
44.0,0.012931290082633495
48.0,0.012540845200419426
52.0,0.012165614403784275
56.0,0.011801911517977715
60.0,0.011424162425100803
64.0,0.011042842641472816
72.0,0.010274110361933708
80.0,0.009656927548348904
88.0,0.009105718694627285
96.0,0.00862264446914196
104.0,0.0081412885338068
112.0,0.007627448067069054
120.0,0.007084958255290985
128.0,0.0066433921456336975
144.0,0.005799718666821718
160.0,0.005367451813071966
176.0,0.005039169918745756
192.0,0.004900897387415171
208.0,0.004917641635984182
224.0,0.004875022917985916
240.0,0.004808622412383556
256.0,0.004798730835318565
288.0,0.004328839480876923
320.0,0.003910495433956385
352.0,0.0033332272432744503
384.0,0.003251938847824931
416.0,0.0029317790176719427
448.0,0.002908367430791259
480.0,0.0028914506547152996
512.0,0.0027345099952071905
576.0,0.0029504180420190096
640.0,0.0031153527088463306
704.0,0.0033505794126540422
768.0,0.004196209833025932
832.0,0.00450500100851059
896.0,0.003558550961315632
960.0,0.0033814571797847748
1024.0,0.002955798991024494
1152.0,0.0011892440961673856
1280.0,-0.0007372567197307944
1408.0,-0.0009529815288260579
1536.0,-0.001050206134095788
1664.0,-0.0006266133277677
1792.0,-0.000137284878292121
1920.0,-0.001025350415147841
2048.0,-0.0025812899693846703
2304.0,-0.0026811931747943163
2560.0,-0.002916464116424322
2816.0,-0.0025846981443464756
3072.0,-0.004055605735629797
3328.0,-0.004057584796100855
3584.0,-0.002916177501901984
3840.0,-0.001668727956712246
4096.0,-0.0006803835276514292
4608.0,0.001715386169962585
5120.0,0.0007092681480571628
5632.0,0.0016040325863286853
6144.0,0.0023360520135611296
6656.0,-3.7749807233922184e-05
7168.0,0.0012987469090148807
7680.0,0.001475350116379559
8192.0,0.0004917224869132042
end
