version,3.0
numOfCh,1
type,point
parent_name,ff67b_0dot1-0dot01
ch_type,1_1
kcount,1
numberNandB,1
brightnessNandB,1
carpet pos,0
pc,0
Time (ms),CH1 Auto-Correlation
1.0,0.021914634853601456
2.0,0.02172282710671425
3.0,0.02153320237994194
4.0,0.02134779281914234
5.0,0.021165218204259872
6.0,0.02098992094397545
7.0,0.020820435136556625
8.0,0.0206504724919796
9.0,0.020488889887928963
10.0,0.02032974362373352
11.0,0.020169513300061226
12.0,0.02002042904496193
13.0,0.019875681027770042
14.0,0.019733736291527748
15.0,0.019591158255934715
16.0,0.01944735087454319
18.0,0.019164815545082092
20.0,0.018885256722569466
22.0,0.018613306805491447
24.0,0.01835012435913086
26.0,0.01810220628976822
28.0,0.017859838902950287
30.0,0.017624089494347572
32.0,0.017393440008163452
36.0,0.01693614199757576
40.0,0.01651543565094471
44.0,0.01611286960542202
48.0,0.01575297862291336
52.0,0.015412891283631325
56.0,0.015077625401318073
60.0,0.014756513759493828
64.0,0.014435753226280212
72.0,0.013818454928696156
80.0,0.013278471305966377
88.0,0.012870226986706257
96.0,0.012494904920458794
104.0,0.012136952951550484
112.0,0.011815186589956284
120.0,0.011457671411335468
128.0,0.011067015118896961
144.0,0.010291080921888351
160.0,0.009542448446154594
176.0,0.008989682421088219
192.0,0.008475206792354584
208.0,0.008120793849229813
224.0,0.007930487394332886
240.0,0.007863031700253487
256.0,0.007749021984636784
288.0,0.007299439050257206
320.0,0.007087669800966978
352.0,0.006711896043270826
384.0,0.006665884982794523
416.0,0.006679667625576258
448.0,0.006959609687328339
480.0,0.007359483279287815
512.0,0.007771517615765333
576.0,0.00787933450192213
640.0,0.0062704808078706264
704.0,0.004894096404314041
768.0,0.004172694403678179
832.0,0.0038266542833298445
896.0,0.0034441989846527576
960.0,0.003396645886823535
1024.0,0.00312929623760283
1152.0,0.003351452760398388
1280.0,0.003939613699913025
1408.0,0.002929135924205184
1536.0,0.0011333995498716831
1664.0,-0.0005372866289690137
1792.0,-0.0006120269536040723
1920.0,0.0002495706139598042
2048.0,0.0003503391344565898
2304.0,-0.0004278611158952117
2560.0,0.0010695818345993757
2816.0,0.0023238155990839005
3072.0,0.0021741397213190794
3328.0,0.0033101732842624187
3584.0,0.0029977986123412848
3840.0,0.004250749479979277
4096.0,0.003963725175708532
4608.0,0.0005984692834317684
5120.0,-0.0020445326808840036
5632.0,-0.003498193807899952
6144.0,-0.002404962433502078
6656.0,-0.0008301641209982336
7168.0,0.0028904525097459555
7680.0,0.001926987199112773
8192.0,0.0020935044158250093
end
