version,3.0
numOfCh,1
type,point
parent_name,ff67b_0dot1-0dot01
ch_type,1_1
kcount,1
numberNandB,1
brightnessNandB,1
carpet pos,0
pc,0
Time (ms),CH1 Auto-Correlation
1.0,0.023706652224063873
2.0,0.02347724139690399
3.0,0.02325005829334259
4.0,0.023033786565065384
5.0,0.02282796986401081
6.0,0.022625548765063286
7.0,0.022432822734117508
8.0,0.022240981459617615
9.0,0.022055750712752342
10.0,0.02186858281493187
11.0,0.02168271690607071
12.0,0.021489717066287994
13.0,0.021298741921782494
14.0,0.02111532725393772
15.0,0.020944535732269287
16.0,0.02077449858188629
18.0,0.020447129383683205
20.0,0.020144792273640633
22.0,0.019850701093673706
24.0,0.019544027745723724
26.0,0.0192475114017725
28.0,0.01894223503768444
30.0,0.018649939447641373
32.0,0.01838236302137375
36.0,0.017869336530566216
40.0,0.0173261109739542
44.0,0.01678493805229664
48.0,0.016251174733042717
52.0,0.015788383781909943
56.0,0.015376502647995949
60.0,0.014999906532466412
64.0,0.014627254568040371
72.0,0.013949528336524963
80.0,0.013262378983199596
88.0,0.012566115707159042
96.0,0.012026120908558369
104.0,0.011502440087497234
112.0,0.010890446603298187
120.0,0.01031761895865202
128.0,0.009786180220544338
144.0,0.008969291113317013
160.0,0.008250423707067966
176.0,0.007662561722099781
192.0,0.007249210961163044
208.0,0.006861540023237467
224.0,0.006469670683145523
240.0,0.005881498567759991
256.0,0.005279663950204849
288.0,0.004276508931070566
320.0,0.0035044949036091566
352.0,0.002966593950986862
384.0,0.0024720008950680494
416.0,0.001739821513183415
448.0,0.0009212719742208719
480.0,0.00011901173274964094
512.0,-0.00016270377091132104
576.0,0.00012236599286552519
640.0,1.951662306964863e-05
704.0,-0.00022871130204293877
768.0,-0.0003387852921150625
832.0,0.00017691291577648371
896.0,0.0009163402719423175
960.0,0.002233759267255664
1024.0,0.0041825734078884125
1152.0,0.004463971592485905
1280.0,0.005626634228974581
1408.0,0.0029666756745427847
1536.0,0.0008659390150569379
1664.0,0.001530483365058899
1792.0,0.0021085217595100403
1920.0,0.0038526628632098436
2048.0,0.003509245114400983
2304.0,0.002318753395229578
2560.0,0.0010563656687736511
2816.0,-0.001221835846081376
3072.0,0.0004001565685030073
3328.0,0.0028435050044208765
3584.0,0.0024941186420619488
3840.0,0.0017165899043902755
4096.0,-0.0009702157112769783
4608.0,-0.0013322053709998727
5120.0,0.0013235502410680056
5632.0,-0.00012095565762137994
6144.0,-0.0021442247088998556
6656.0,0.0016980236396193504
7168.0,-0.0023246901109814644
7680.0,-0.002813159255310893
8192.0,-0.00027480674907565117
end
