version,3.0
numOfCh,1
type,point
parent_name,ff67b_0dot1-0dot01
ch_type,1_1
kcount,1
numberNandB,1
brightnessNandB,1
carpet pos,0
pc,0
Time (ms),CH1 Auto-Correlation
1.0,0.02182668261229992
2.0,0.021622778847813606
3.0,0.02142312191426754
4.0,0.021227911114692688
5.0,0.021038707345724106
6.0,0.02084655500948429
7.0,0.020659763365983963
8.0,0.020480511710047722
9.0,0.020307501778006554
10.0,0.020138559862971306
11.0,0.01996719278395176
12.0,0.019798338413238525
13.0,0.019639624282717705
14.0,0.019480140879750252
15.0,0.019319038838148117
16.0,0.019158901646733284
18.0,0.01885344833135605
20.0,0.018542669713497162
22.0,0.01822548359632492
24.0,0.017917172983288765
26.0,0.01761573739349842
28.0,0.01731325499713421
30.0,0.017034433782100677
32.0,0.016769438982009888
36.0,0.016241053119301796
40.0,0.015706177800893784
44.0,0.015214620158076286
48.0,0.014732416719198227
52.0,0.014218182303011417
56.0,0.013717634603381157
60.0,0.013272451236844063
64.0,0.012838800437748432
72.0,0.012062945403158665
80.0,0.011373041197657585
88.0,0.010733048431575298
96.0,0.010142425075173378
104.0,0.009640485979616642
112.0,0.009157638065516949
120.0,0.00871565006673336
128.0,0.008316470310091972
144.0,0.007579196244478226
160.0,0.006728305947035551
176.0,0.0059481896460056305
192.0,0.0051982044242322445
208.0,0.004435805603861809
224.0,0.0037388692144304514
240.0,0.0032789853867143393
256.0,0.002878687810152769
288.0,0.0025897063314914703
320.0,0.0024764128029346466
352.0,0.002117991680279374
384.0,0.0017719425959512591
416.0,0.002258002758026123
448.0,0.002936915261670947
480.0,0.0028709834441542625
512.0,0.0023087968584150076
576.0,0.0010798561852425337
640.0,0.001608893508091569
704.0,0.0013175165513530374
768.0,0.0009147667442448437
832.0,-0.0006087710498832166
896.0,-0.0009491267846897244
960.0,-0.0016158074140548706
1024.0,-0.0018358906963840127
1152.0,0.001136031118221581
1280.0,0.001756219076924026
1408.0,0.0013423648197203875
1536.0,0.001737346057780087
1664.0,-0.00032762085902504623
1792.0,0.0004134743649046868
1920.0,0.0017024840926751494
2048.0,-0.0005777867045253515
2304.0,-0.0022382023744285107
2560.0,-0.0022656843066215515
2816.0,0.0011683587217703462
3072.0,-0.0014060625107958913
3328.0,-0.001762912143021822
3584.0,-0.0032003337983042
3840.0,-0.004905288107693195
4096.0,-0.003220908809453249
4608.0,-0.0011962978169322014
5120.0,-0.00041978037916123867
5632.0,-0.0010844989446923137
6144.0,-0.0003802712308242917
6656.0,0.0028533763252198696
7168.0,0.0008795849280431867
7680.0,-0.000643752864561975
8192.0,0.0012497181305661798
end
