version,3.0
numOfCh,1
type,point
parent_name,ff67b_0dot1-0dot01
ch_type,1_1
kcount,1
numberNandB,1
brightnessNandB,1
carpet pos,0
pc,0
Time (ms),CH1 Auto-Correlation
1.0,0.02378607541322708
2.0,0.02358383499085903
3.0,0.02338402532041073
4.0,0.023183057084679604
5.0,0.022981910035014153
6.0,0.0227936003357172
7.0,0.02259998396039009
8.0,0.022416139021515846
9.0,0.022239485755562782
10.0,0.022068476304411888
11.0,0.02190086431801319
12.0,0.021738732233643532
13.0,0.02158620022237301
14.0,0.0214308463037014
15.0,0.02127639204263687
16.0,0.021127216517925262
18.0,0.0208456851541996
20.0,0.02057868428528309
22.0,0.02032153494656086
24.0,0.020068122074007988
26.0,0.019825942814350128
28.0,0.01958433911204338
30.0,0.019348489120602608
32.0,0.01911422610282898
36.0,0.018685491755604744
40.0,0.01831652969121933
44.0,0.017959194257855415
48.0,0.017672045156359673
52.0,0.017433971166610718
56.0,0.017235994338989258
60.0,0.017049873247742653
64.0,0.016871321946382523
72.0,0.016330542042851448
80.0,0.015714609995484352
88.0,0.015240703709423542
96.0,0.0148741090670228
104.0,0.014542858116328716
112.0,0.014230115339159966
120.0,0.014014611020684242
128.0,0.013773521408438683
144.0,0.01299869455397129
160.0,0.012012854218482971
176.0,0.01109678577631712
192.0,0.010275396518409252
208.0,0.00958530604839325
224.0,0.008854534476995468
240.0,0.00830117054283619
256.0,0.00783824548125267
288.0,0.007561503443866968
320.0,0.007169256918132305
352.0,0.006734311114996672
384.0,0.0062021529302001
416.0,0.005712465383112431
448.0,0.005224989261478186
480.0,0.004859227687120438
512.0,0.0045240106992423534
576.0,0.0034480474423617125
640.0,0.001905899727717042
704.0,0.0006469725631177425
768.0,-8.52405428304337e-05
832.0,0.0002338477788725868
896.0,0.0007552336319349706
960.0,0.0006860322901047766
1024.0,0.0015935803530737758
1152.0,0.003270391607657075
1280.0,0.004932910203933716
1408.0,0.00617643678560853
1536.0,0.004955387208610773
1664.0,0.00142178894020617
1792.0,0.0009864221792668104
1920.0,0.00037003090255893767
2048.0,-0.00394979864358902
2304.0,-0.007641082629561424
2560.0,-0.006221353076398373
2816.0,-0.004158266820013523
3072.0,-0.002706662518903613
3328.0,-0.0033800965175032616
3584.0,-0.0074409013614058495
3840.0,-0.008196132257580757
4096.0,-0.009051011875271797
end
