version,3.0
numOfCh,1
type,point
parent_name,ff67b_0dot1-0dot01
ch_type,1_1
kcount,1
numberNandB,1
brightnessNandB,1
carpet pos,0
pc,0
Time (ms),CH1 Auto-Correlation
1.0,0.020301230251789093
2.0,0.020101873204112053
3.0,0.019910035654902458
4.0,0.01972096785902977
5.0,0.019534766674041748
6.0,0.01935401000082493
7.0,0.01917855627834797
8.0,0.019004104658961296
9.0,0.018833212554454803
10.0,0.01865789294242859
11.0,0.018486985936760902
12.0,0.018319685012102127
13.0,0.018161972984671593
14.0,0.018004735931754112
15.0,0.017850840464234352
16.0,0.017699318006634712
18.0,0.017397047951817513
20.0,0.017099106684327126
22.0,0.016801517456769943
24.0,0.016511069610714912
26.0,0.016235094517469406
28.0,0.015963390469551086
30.0,0.01570662297308445
32.0,0.015459047630429268
36.0,0.014998993836343288
40.0,0.014614325948059559
44.0,0.01424211822450161
48.0,0.013875557109713554
52.0,0.0135247353464365
56.0,0.01317743118852377
60.0,0.01282583363354206
64.0,0.012448645196855068
72.0,0.011754265055060387
80.0,0.01114190835505724
88.0,0.010598234832286835
96.0,0.010105481371283531
104.0,0.00964437797665596
112.0,0.00922764278948307
120.0,0.008923894725739956
128.0,0.008638419210910797
144.0,0.008170030079782009
160.0,0.007651441264897585
176.0,0.007279862649738789
192.0,0.0069542317651212215
208.0,0.0067138345912098885
224.0,0.006536030676215887
240.0,0.0064450702629983425
256.0,0.006212036125361919
288.0,0.005440021865069866
320.0,0.004534849431365728
352.0,0.0036354593466967344
384.0,0.0029364062938839197
416.0,0.002568574156612158
448.0,0.0025655035860836506
480.0,0.0025078635662794113
512.0,0.002443003235384822
576.0,0.002054513432085514
640.0,0.0017766687087714672
704.0,0.001271374523639679
768.0,0.0007528853020630777
832.0,0.0005313152796588838
896.0,0.0008329831762239337
960.0,0.002314763143658638
1024.0,0.0031847446225583553
1152.0,0.0032898474019020796
1280.0,0.0034855022095143795
1408.0,0.0038560829125344753
1536.0,0.002808213233947754
1664.0,0.0022070168051868677
1792.0,0.001282618730328977
1920.0,0.0006450547371059656
2048.0,0.00029802965582348406
2304.0,0.0018857469549402595
2560.0,0.0013003327185288072
2816.0,0.00016622495604678988
3072.0,-0.0014870980521664023
3328.0,-0.0016566542908549309
3584.0,-0.0008790112333372235
3840.0,-0.0015068580396473408
4096.0,-0.0023506751749664545
4608.0,-0.0016451770206913352
5120.0,-0.0017766458913683891
5632.0,-0.0031646937131881714
6144.0,-0.00031583409872837365
6656.0,-3.687787102535367e-05
7168.0,0.0018903312738984823
7680.0,0.003143901936709881
8192.0,-0.0005213360418565571
end
