version,3.0
numOfCh,1
type,point
parent_name,ff67b_0dot1-0dot01
ch_type,1_1
kcount,1
numberNandB,1
brightnessNandB,1
carpet pos,0
pc,0
Time (ms),CH1 Auto-Correlation
1.0,0.031182654201984406
2.0,0.03026885911822319
3.0,0.029332799836993217
4.0,0.028420135378837585
5.0,0.027492867782711983
6.0,0.026579929515719414
7.0,0.02568558230996132
8.0,0.024797458201646805
9.0,0.023912228643894196
10.0,0.02302674949169159
11.0,0.022141845896840096
12.0,0.02122669853270054
13.0,0.020329492166638374
14.0,0.019426295533776283
15.0,0.018549825996160507
16.0,0.01766052097082138
18.0,0.01735837571322918
20.0,0.01708822138607502
22.0,0.016857998445630074
24.0,0.01666889153420925
26.0,0.016495689749717712
28.0,0.016346760094165802
30.0,0.016203222796320915
32.0,0.01605786196887493
36.0,0.01572326384484768
40.0,0.015388809144496918
44.0,0.015055450610816479
48.0,0.014732456766068935
52.0,0.014410881325602531
56.0,0.014041644521057606
60.0,0.013617577962577343
64.0,0.013239753432571888
72.0,0.012650277465581894
80.0,0.011982313357293606
88.0,0.01134309358894825
96.0,0.010830270126461983
104.0,0.010519198141992092
112.0,0.009991039521992207
120.0,0.009586709551513195
128.0,0.009272594936192036
144.0,0.008660390973091125
160.0,0.00814911350607872
176.0,0.007651620078831911
192.0,0.006912649609148502
208.0,0.006296640727669001
224.0,0.0060216630809009075
240.0,0.005747384857386351
256.0,0.005650334060192108
288.0,0.005545074585825205
320.0,0.005043655633926392
352.0,0.005046328064054251
384.0,0.004948456771671772
416.0,0.004892827942967415
448.0,0.004748390521854162
480.0,0.00462298234924674
512.0,0.004384718835353851
576.0,0.004021334461867809
640.0,0.0036861910484731197
704.0,0.0032173623330891132
768.0,0.0025324986781924963
832.0,0.001262239064089954
896.0,-0.00013467948883771896
960.0,-0.0008982060826383531
1024.0,-0.0015565813519060612
1152.0,-0.0015931226080283523
1280.0,-0.0014589853817597032
1408.0,-0.0027962459716945887
1536.0,-0.0028878313023597
1664.0,-0.003442983841523528
1792.0,-0.004805839620530605
1920.0,-0.004566335119307041
2048.0,-0.0045477342791855335
2304.0,-0.004448974970728159
2560.0,-0.0039663114584982395
2816.0,-0.0027349882293492556
3072.0,-0.0029829293489456177
3328.0,-0.0018402744317427278
3584.0,-0.0019239253597334027
3840.0,-0.0009407327161170542
4096.0,0.0008383502718061209
4608.0,0.0007309538777917624
5120.0,0.005022318568080664
5632.0,0.003404364688321948
6144.0,0.004712354391813278
6656.0,0.005564374849200249
7168.0,-0.002557717729359865
7680.0,-0.0067298212088644505
8192.0,-0.0063338251784443855
end
