version,3.0
numOfCh,1
type,point
parent_name,ff67b_0dot1-0dot01
ch_type,1_1
kcount,1
numberNandB,1
brightnessNandB,1
carpet pos,0
pc,0
Time (ms),CH1 Auto-Correlation
1.0,0.03084631823003292
2.0,0.03063095360994339
3.0,0.030421560630202293
4.0,0.030214324593544006
5.0,0.030015170574188232
6.0,0.02983051724731922
7.0,0.02965610660612583
8.0,0.02949542924761772
9.0,0.029332483187317848
10.0,0.029163843020796776
11.0,0.02900765649974346
12.0,0.02885100059211254
13.0,0.02869955264031887
14.0,0.028548749163746834
15.0,0.028387166559696198
16.0,0.028226636350154877
18.0,0.02793244831264019
20.0,0.027664655819535255
22.0,0.027418658137321472
24.0,0.027188589796423912
26.0,0.026962047442793846
28.0,0.026725230738520622
30.0,0.026484228670597076
32.0,0.026233786717057228
36.0,0.025707099586725235
40.0,0.025196274742484093
44.0,0.02470114454627037
48.0,0.02423490583896637
52.0,0.023811301216483116
56.0,0.023380668833851814
60.0,0.022922834381461143
64.0,0.022465195506811142
72.0,0.02172534540295601
80.0,0.021218307316303253
88.0,0.020652666687965393
96.0,0.02001865953207016
104.0,0.019385481253266335
112.0,0.01872127689421177
120.0,0.017957430332899094
128.0,0.01719704270362854
144.0,0.015827655792236328
160.0,0.0146910659968853
176.0,0.013709603808820248
192.0,0.012980455532670021
208.0,0.012377439998090267
224.0,0.011614148505032063
240.0,0.010498544201254845
256.0,0.009518176317214966
288.0,0.007441106718033552
320.0,0.006070644594728947
352.0,0.005185197573155165
384.0,0.003339691087603569
416.0,0.0011769126867875457
448.0,-0.00040717923548072577
480.0,-0.0023041265085339546
512.0,-0.003849693574011326
576.0,-0.004923915956169367
640.0,-0.005103335250169039
704.0,-0.004890440031886101
768.0,-0.004481921903789043
832.0,-0.003794328309595585
896.0,-0.0015054085524752736
960.0,0.001010531559586525
1024.0,0.0011145605240017176
1152.0,0.0002748924307525158
1280.0,0.0015538694569841027
1408.0,-0.0009764389833435416
1536.0,-0.0034800434950739145
1664.0,-0.004176108166575432
1792.0,-0.006951531860977411
1920.0,-0.00949130766093731
2048.0,-0.010692465119063854
2304.0,-0.006209188140928745
2560.0,0.006459427066147327
2816.0,0.003493949305266142
3072.0,-0.006282712798565626
3328.0,-0.0070912218652665615
3584.0,-0.0010314045939594507
3840.0,1.8626993551151827e-05
4096.0,-0.005633899476379156
end
