version,3.0
numOfCh,1
type,point
parent_name,ff67b_0dot1-0dot01
ch_type,1_1
kcount,1
numberNandB,1
brightnessNandB,1
carpet pos,0
pc,0
Time (ms),CH1 Auto-Correlation
1.0,0.016833392903208733
2.0,0.016663560643792152
3.0,0.016495119780302048
4.0,0.016328733414411545
5.0,0.016169164329767227
6.0,0.01601208932697773
7.0,0.015855275094509125
8.0,0.015701774507761
9.0,0.015551384538412094
10.0,0.015403440222144127
11.0,0.015259322710335255
12.0,0.015120589174330235
13.0,0.01498373132199049
14.0,0.014848900027573109
15.0,0.014717008918523788
16.0,0.014593374915421009
18.0,0.014346381649374962
20.0,0.014107399620115757
22.0,0.013875390402972698
24.0,0.013650105334818363
26.0,0.013432049192488194
28.0,0.01321606058627367
30.0,0.01300797425210476
32.0,0.012806512415409088
36.0,0.01241754274815321
40.0,0.012054726481437683
44.0,0.011714218184351921
48.0,0.011422405950725079
52.0,0.011166255921125412
56.0,0.010935718193650246
60.0,0.010719380341470242
64.0,0.01051546260714531
72.0,0.010179059579968452
80.0,0.009846421889960766
88.0,0.009475030936300755
96.0,0.009158323518931866
104.0,0.008858626708388329
112.0,0.008563569746911526
120.0,0.008278909139335155
128.0,0.007983477786183357
144.0,0.0071958149783313274
160.0,0.00647911848500371
176.0,0.005918868817389011
192.0,0.005549339111894369
208.0,0.005334182642400265
224.0,0.005005432292819023
240.0,0.00455940468236804
256.0,0.00417888630181551
288.0,0.0035549297463148832
320.0,0.0029667136259377003
352.0,0.0023528141900897026
384.0,0.0016809053486213088
416.0,0.0007787515642121434
448.0,0.00018012670625466853
480.0,-0.00012992331176064909
512.0,-0.00027101655723527074
576.0,0.0005299077020026743
640.0,0.0001607719314051792
704.0,-7.262938743224367e-05
768.0,-0.0006117675802670419
832.0,-0.0014275936409831047
896.0,-0.0016869241371750832
960.0,-0.0018684212118387222
1024.0,-0.0019932384602725506
1152.0,-0.0013950932770967484
1280.0,-0.0005485046422109008
1408.0,-0.0009245117544196546
1536.0,0.0006721731624566019
1664.0,0.0015976688591763377
1792.0,0.002488931640982628
1920.0,0.0026615923270583153
2048.0,0.0011730750557035208
2304.0,-0.001359973568469286
2560.0,5.4907162848394364e-05
2816.0,0.0005853065522387624
3072.0,-0.00011529398761922494
3328.0,-0.0009089110535569489
3584.0,-0.00016754707030486315
3840.0,0.0008302992791868746
4096.0,0.0009483243338763714
4608.0,0.0013349743094295263
5120.0,-0.0015125165227800608
5632.0,-0.0007209889008663595
6144.0,0.00013171778118703514
6656.0,-0.0015152252744883299
7168.0,-0.0018497455166652799
7680.0,0.0006110321264714003
8192.0,-0.0016487835673615336
end
