version,3.0
numOfCh,1
type,point
parent_name,34766_1dot0-1dot0
ch_type,1_1
kcount,1
numberNandB,1
brightnessNandB,1
carpet pos,0
pc,0
Time (ms),CH1 Auto-Correlation
1.0,0.026498643681406975
2.0,0.02431544102728367
3.0,0.022465769201517105
4.0,0.020933382213115692
5.0,0.019547902047634125
6.0,0.018308119848370552
7.0,0.017258701846003532
8.0,0.01632002927362919
9.0,0.015486272051930428
10.0,0.014777799136936665
11.0,0.014078622683882713
12.0,0.013454217463731766
13.0,0.012877427972853184
14.0,0.012401491403579712
15.0,0.011945296078920364
16.0,0.011489488184452057
18.0,0.010514015331864357
20.0,0.009677905589342117
22.0,0.00890924222767353
24.0,0.008245213888585567
26.0,0.007756595965474844
28.0,0.007300212979316711
30.0,0.007035822607576847
32.0,0.006825427990406752
36.0,0.006209208630025387
40.0,0.005559012293815613
44.0,0.00506772194057703
48.0,0.004578758496791124
52.0,0.004148988053202629
56.0,0.0035500682424753904
60.0,0.0030527387280017138
64.0,0.0031508656684309244
72.0,0.0029473009053617716
80.0,0.00249188719317317
88.0,0.0020315893925726414
96.0,0.0019190812017768621
104.0,0.0017301548505201936
112.0,0.0012838492402806878
120.0,0.0012000433634966612
128.0,0.000929877336602658
144.0,0.00029689649818465114
160.0,-0.0003337102825753391
176.0,0.00012834116932936013
192.0,0.0003023714816663414
208.0,0.0007372401305474341
224.0,0.0011588544584810734
240.0,0.0010295321699231863
256.0,0.0008139536948874593
288.0,-0.00034553150180727243
320.0,-0.0013228821335360408
352.0,-0.0011888702865689993
384.0,-0.0005581069854088128
416.0,0.0005142975132912397
448.0,0.0009189167758449912
480.0,0.001729089068248868
512.0,0.0014535707887262106
576.0,0.0022702254354953766
640.0,0.002497707959264517
704.0,0.002236076630651951
768.0,0.0007717100088484585
832.0,0.000831771467346698
896.0,0.0009105394128710032
960.0,-8.559342677472159e-05
1024.0,-0.0004916168982163072
1152.0,-0.0006917809369042516
1280.0,0.0008531260536983609
1408.0,0.0009308182634413242
1536.0,-0.0013333302922546864
1664.0,-0.0015403470024466515
1792.0,-0.0006403279257938266
1920.0,-0.0012306078569963574
2048.0,-0.0008147083572112024
2304.0,-0.001571798580698669
2560.0,-0.00043234022450633347
2816.0,-0.002064151456579566
3072.0,-0.0003427396877668798
3328.0,-0.0013166366843506694
3584.0,-0.0012274575419723988
3840.0,-1.835159423535515e-06
4096.0,-0.0006665834807790816
4608.0,0.0008589635253883898
5120.0,0.0011154410894960165
5632.0,0.0013705289456993341
6144.0,0.0002490297192707658
6656.0,-0.000619397615082562
7168.0,-0.0001598660892341286
7680.0,-0.000277413782896474
8192.0,-0.000116895986138843
end
