version,3.0
numOfCh,1
type,point
parent_name,34766_1dot0-1dot0
ch_type,1_1
kcount,1
numberNandB,1
brightnessNandB,1
carpet pos,0
pc,0
Time (ms),CH1 Auto-Correlation
1.0,0.030066028237342834
2.0,0.027727970853447914
3.0,0.025698833167552948
4.0,0.023976625874638557
5.0,0.022514989599585533
6.0,0.021266214549541473
7.0,0.02011309750378132
8.0,0.019032888114452362
9.0,0.01802114024758339
10.0,0.01711495779454708
11.0,0.016260355710983276
12.0,0.015438477508723736
13.0,0.01475096307694912
14.0,0.014084120281040668
15.0,0.013481314294040203
16.0,0.01292392984032631
18.0,0.012039542198181152
20.0,0.011268554255366325
22.0,0.010625449009239674
24.0,0.0101017439737916
26.0,0.009670759551227093
28.0,0.009280826896429062
30.0,0.0087819192558527
32.0,0.00837537832558155
36.0,0.008059917017817497
40.0,0.007802736945450306
44.0,0.007453578989952803
48.0,0.006698466371744871
52.0,0.00602121464908123
56.0,0.005390856880694628
60.0,0.004907072987407446
64.0,0.00444096140563488
72.0,0.003598844399675727
80.0,0.0027318433858454227
88.0,0.002385635394603014
96.0,0.0022845580242574215
104.0,0.002232345286756754
112.0,0.0021809039171785116
120.0,0.002219076966866851
128.0,0.002111085457727313
144.0,0.0018366428557783365
160.0,0.002103838138282299
176.0,0.0018911188235506415
192.0,0.002231766702607274
208.0,0.002149073639884591
224.0,0.0012703612446784973
240.0,0.0011613082606345415
256.0,0.0010231719352304935
288.0,0.0013854489661753178
320.0,0.0007786958012729883
352.0,-3.347452002344653e-05
384.0,-0.0007693443330936134
416.0,-0.0013398970477283
448.0,-0.0017031925963237882
480.0,-0.0007822022889740765
512.0,0.00023100113321561366
576.0,9.601201600162312e-05
640.0,0.0006590347038581967
704.0,-0.00079198187449947
768.0,-0.0019075011368840933
832.0,-7.58098904043436e-05
896.0,-0.0002706511877477169
960.0,0.00015337331569753587
1024.0,-7.559014920843765e-05
1152.0,-0.0011201025918126106
1280.0,-0.00023910544405225664
1408.0,-0.0005007811123505235
1536.0,-0.00031610819860361516
1664.0,-0.0011752421269193292
1792.0,-0.0011940099066123366
1920.0,-0.0015031370567157865
2048.0,0.0011224497575312853
2304.0,0.002077599987387657
2560.0,-0.000334230629960075
2816.0,-0.0019316354300826788
3072.0,-0.001956548308953643
3328.0,-0.0010545121040195227
3584.0,0.0002704111684579402
3840.0,-0.0005991758080199361
4096.0,-0.00019653423805721104
4608.0,0.0014518301468342543
5120.0,0.00015969076775945723
5632.0,-2.5930417905328795e-05
6144.0,0.0004274188249837607
6656.0,-2.2339047063724138e-05
7168.0,-0.0012485740007832646
7680.0,-0.0009977566078305244
8192.0,0.0006512089748866856
end
