version,3.0
numOfCh,1
type,point
parent_name,34766_1dot0-1dot0
ch_type,1_1
kcount,1
numberNandB,1
brightnessNandB,1
carpet pos,0
pc,0
Time (ms),CH1 Auto-Correlation
1.0,0.028153590857982635
2.0,0.02592957206070423
3.0,0.024059759452939034
4.0,0.0225217267870903
5.0,0.021175725385546684
6.0,0.019962599501013756
7.0,0.01888316497206688
8.0,0.01792215369641781
9.0,0.017096811905503273
10.0,0.01636578142642975
11.0,0.015726562589406967
12.0,0.015170767903327942
13.0,0.0146946394816041
14.0,0.01415314618498087
15.0,0.013680467382073402
16.0,0.013305053114891052
18.0,0.012638380751013756
20.0,0.011909949593245983
22.0,0.011136705987155437
24.0,0.010432964190840721
26.0,0.009721258655190468
28.0,0.00903269276022911
30.0,0.008549741469323635
32.0,0.008078857325017452
36.0,0.00717624556273222
40.0,0.0064221834763884544
44.0,0.005698599386960268
48.0,0.0049063037149608135
52.0,0.004033731762319803
56.0,0.003232889110222459
60.0,0.0025175963528454304
64.0,0.002001055283471942
72.0,0.0009710473823361099
80.0,0.00035300300805829465
88.0,7.180422107921913e-05
96.0,-0.00043350696796551347
104.0,-0.0007107867859303951
112.0,-0.000654214178211987
120.0,-0.0002579575520940125
128.0,-0.00024737557396292686
144.0,0.00020461672102101147
160.0,0.0011739912442862988
176.0,0.0014557852409780025
192.0,0.0012910956284031272
208.0,0.00036800012458115816
224.0,-5.141775181982666e-05
240.0,0.0002453554479870945
256.0,0.0005269033135846257
288.0,0.0007080384530127048
320.0,0.0017831999575719237
352.0,0.0026250998489558697
384.0,0.0018980620661750436
416.0,-9.008956840261817e-05
448.0,-0.001021694508381188
480.0,-0.0007819704478606582
512.0,-2.7367981601855718e-05
576.0,-0.0012261709198355675
640.0,-0.00043663172982633114
704.0,0.0005456744111143053
768.0,-0.0003285470884293318
832.0,-0.0008347158436663449
896.0,0.0003367897297721356
960.0,0.0014261174947023392
1024.0,0.0007416605367325246
1152.0,-0.00011388355051167309
1280.0,-0.0007251236238516867
1408.0,-0.00037680339301005006
1536.0,-0.0006960909813642502
1664.0,-0.0005938003305345774
1792.0,-3.232049266443937e-06
1920.0,-0.00020682570175267756
2048.0,-0.0002803876413963735
2304.0,-0.0008971454226411879
2560.0,0.000130067826830782
2816.0,0.00055747787700966
3072.0,-0.00010997382196364924
3328.0,9.967448568204418e-05
3584.0,0.0007987333810888231
3840.0,0.0001753109390847385
4096.0,-0.0010778033174574375
4608.0,0.0003451615630183369
5120.0,-0.000593364704400301
5632.0,0.0006439816788770258
6144.0,-0.0013009104877710342
6656.0,0.00021324586123228073
7168.0,0.00010229403414996341
7680.0,0.0006652414449490607
8192.0,0.0005670173559337854
end
