version,3.0
numOfCh,1
type,point
parent_name,34766_1dot0-1dot0
ch_type,1_1
kcount,1
numberNandB,1
brightnessNandB,1
carpet pos,0
pc,0
Time (ms),CH1 Auto-Correlation
1.0,0.02868506871163845
2.0,0.026451176032423973
3.0,0.024539366364479065
4.0,0.022844357416033745
5.0,0.021381506696343422
6.0,0.02005073055624962
7.0,0.0189010351896286
8.0,0.01783561334013939
9.0,0.016930418089032173
10.0,0.016108956187963486
11.0,0.015330353751778603
12.0,0.01457099337130785
13.0,0.013875117525458336
14.0,0.013263620436191559
15.0,0.012680558487772942
16.0,0.012094405479729176
18.0,0.011166451498866081
20.0,0.010298318229615688
22.0,0.009598364122211933
24.0,0.008975643664598465
26.0,0.008395274169743061
28.0,0.00789565034210682
30.0,0.007401118054986
32.0,0.006905012298375368
36.0,0.006226339843124151
40.0,0.005861497949808836
44.0,0.005524605046957731
48.0,0.005139610264450312
52.0,0.0048436373472213745
56.0,0.004409134387969971
60.0,0.00417076051235199
64.0,0.0036894907243549824
72.0,0.002618765691295266
80.0,0.002155658323317766
88.0,0.0014702408807352185
96.0,0.0006378171383403242
104.0,2.9508853913284838e-05
112.0,-0.0002813093888107687
120.0,-0.00038894725730642676
128.0,0.0006168637773953378
144.0,0.001036538858897984
160.0,0.0011335554299876094
176.0,0.0014610643265768886
192.0,0.0014047689037397504
208.0,0.0018381490372121334
224.0,0.002152716740965843
240.0,0.001901069306768477
256.0,0.0014092570636421442
288.0,0.0008386420668102801
320.0,0.001544391387142241
352.0,0.0015477018896490335
384.0,0.0007359820883721113
416.0,0.0005866654100827873
448.0,0.0005854419432580471
480.0,0.0008329609991051257
512.0,0.001302198856137693
576.0,0.0014777957694604993
640.0,0.0013548642164096236
704.0,0.00038016389589756727
768.0,0.0013094107853248715
832.0,0.00097932037897408
896.0,0.0009173979633487761
960.0,0.001742707914672792
1024.0,0.0019738657865673304
1152.0,0.00036894786171615124
1280.0,-0.000721917487680912
1408.0,0.0015997127629816532
1536.0,0.0010331451194360852
1664.0,0.00032519202795811
1792.0,-0.00020432923338375986
1920.0,2.796265107463114e-06
2048.0,-0.000531206198502332
2304.0,-0.0013398554874584079
2560.0,-0.0007082318770699203
2816.0,-0.0010459487093612552
3072.0,-0.0008706588996574283
3328.0,-0.0015404678415507078
3584.0,-0.0010717087425291538
3840.0,-0.0010930068092420697
4096.0,-0.0008139587589539587
4608.0,0.0002176395064452663
5120.0,0.00024434493388980627
5632.0,5.551649155677296e-05
6144.0,0.0002617230638861656
6656.0,-7.020866905804724e-05
7168.0,-0.0010392415570095181
7680.0,-0.0007318410789594054
8192.0,-0.0016687024617567658
end
