version,3.0
numOfCh,1
type,point
parent_name,34766_1dot0-1dot0
ch_type,1_1
kcount,1
numberNandB,1
brightnessNandB,1
carpet pos,0
pc,0
Time (ms),CH1 Auto-Correlation
1.0,0.025846704840660095
2.0,0.023652294650673866
3.0,0.02175031788647175
4.0,0.020071178674697876
5.0,0.01861700415611267
6.0,0.017331402748823166
7.0,0.0161938164383173
8.0,0.015241182409226894
9.0,0.01434213574975729
10.0,0.013569118455052376
11.0,0.012842369265854359
12.0,0.012256207875907421
13.0,0.011758605018258095
14.0,0.011299092322587967
15.0,0.010875463485717773
16.0,0.010471170768141747
18.0,0.00970624852925539
20.0,0.00906156376004219
22.0,0.008375308476388454
24.0,0.007745554205030203
26.0,0.007123909890651703
28.0,0.006722121965140104
30.0,0.006366364657878876
32.0,0.005975162610411644
36.0,0.0055202762596309185
40.0,0.005122116766870022
44.0,0.004671274218708277
48.0,0.004197915084660053
52.0,0.003701327135786414
56.0,0.003498256439343095
60.0,0.0034604454413056374
64.0,0.0031374564860016108
72.0,0.0024744663387537003
80.0,0.002227617194876075
88.0,0.0022726147435605526
96.0,0.0021966602653265
104.0,0.0022668952587991953
112.0,0.002342882798984647
120.0,0.0023474248591810465
128.0,0.0021029969211667776
144.0,0.0015956071438267827
160.0,0.001075357897207141
176.0,0.0007716408581472933
192.0,0.0010864537907764316
208.0,0.0010715355165302753
224.0,0.0012952492106705904
240.0,0.0009414029773324728
256.0,0.001129010459408164
288.0,0.002098692813888192
320.0,0.0026967565063387156
352.0,0.0018289911095052958
384.0,0.0010894524166360497
416.0,0.0014359417837113142
448.0,-7.76887172833085e-05
480.0,-0.00022703740978613496
512.0,0.00022513313160743564
576.0,-0.0004428242682479322
640.0,-0.0006331060430966318
704.0,-0.0006148279644548893
768.0,-0.00017753422434907407
832.0,-0.00028057690360583365
896.0,-0.0012347010197117925
960.0,-0.001251521985977888
1024.0,-0.0006147995009087026
1152.0,-1.9636501747299917e-05
1280.0,-0.0011310967383906245
1408.0,0.00042916336678899825
1536.0,-0.00031129238777793944
1664.0,0.0003166008391417563
1792.0,0.0013408950762823224
1920.0,0.0002602774475235492
2048.0,-0.0006837451946921647
2304.0,-0.0008149300119839609
2560.0,-0.0006391620845533907
2816.0,0.0003087504010181874
3072.0,-8.671521936776116e-05
3328.0,0.00040799708222039044
3584.0,-0.00015890154463704675
3840.0,0.00021019754058215767
4096.0,-0.0006453539244830608
4608.0,-0.0004900328349322081
5120.0,-0.0009152447455562651
5632.0,-0.0006185960955917835
6144.0,0.00014228661893866956
6656.0,0.0008240335737355053
7168.0,-0.00036679735057987273
7680.0,-0.0006952097173780203
8192.0,0.00035831148852594197
end
