version,3.0
numOfCh,1
type,point
parent_name,34766_1dot0-1dot0
ch_type,1_1
kcount,1
numberNandB,1
brightnessNandB,1
carpet pos,0
pc,0
Time (ms),CH1 Auto-Correlation
1.0,0.02499895915389061
2.0,0.022854754701256752
3.0,0.020938144996762276
4.0,0.019284432753920555
5.0,0.017818521708250046
6.0,0.01651766337454319
7.0,0.015337084420025349
8.0,0.014288690872490406
9.0,0.01335619855672121
10.0,0.012495049275457859
11.0,0.011771448887884617
12.0,0.011132658459246159
13.0,0.010579169727861881
14.0,0.010074250400066376
15.0,0.009578421711921692
16.0,0.009066405706107616
18.0,0.00833323784172535
20.0,0.007644787896424532
22.0,0.007035926915705204
24.0,0.006510820239782333
26.0,0.006068408489227295
28.0,0.005689351819455624
30.0,0.005514088086783886
32.0,0.005300536751747131
36.0,0.004621465224772692
40.0,0.004068506881594658
44.0,0.003714627353474498
48.0,0.003550824010744691
52.0,0.003416151273995638
56.0,0.0030416054651141167
60.0,0.0026814299635589123
64.0,0.002383831422775984
72.0,0.002383638173341751
80.0,0.0022519526537507772
88.0,0.0019754786044359207
96.0,0.001436710124835372
104.0,0.0012146581429988146
112.0,0.0009049280779436231
120.0,0.00021757806825917214
128.0,-0.0003263025137130171
144.0,-0.00039880405529402196
160.0,0.000414652400650084
176.0,0.0007566339336335659
192.0,0.0004386506916489452
208.0,5.660287934006192e-05
224.0,0.0001216049276990816
240.0,5.8383164287079126e-05
256.0,0.000352027389453724
288.0,8.962857100414112e-05
320.0,0.0007540885708294809
352.0,4.155218994128518e-05
384.0,-0.00011898241064045578
416.0,6.379598926287144e-05
448.0,-0.000546392286196351
480.0,0.00014860412920825183
512.0,-0.0005201319581829011
576.0,-0.0008743812213651836
640.0,-0.00025815857225097716
704.0,0.001257243799045682
768.0,-0.00012774669448845088
832.0,-0.0008832006715238094
896.0,-0.0005434019258245826
960.0,-0.00029049860313534737
1024.0,0.0007113848114386201
1152.0,-0.00023774585861247033
1280.0,-0.0002431002358207479
1408.0,-0.00019446914666332304
1536.0,-0.00011301956692477688
1664.0,-0.0006010987563058734
1792.0,-0.0001585186255397275
1920.0,0.00045599567238241434
2048.0,-0.00022938684560358524
2304.0,0.0007279247511178255
2560.0,0.00018700580403674394
2816.0,0.00011569685011636466
3072.0,0.0002338138729101047
3328.0,0.0002522536087781191
3584.0,-5.379490539780818e-05
3840.0,3.1314571970142424e-05
4096.0,0.0015740379458293319
4608.0,-7.157913933042437e-05
5120.0,0.0002118154225172475
5632.0,-0.0012839792761951685
6144.0,0.00035278734867461026
6656.0,-0.00024737633066251874
7168.0,-0.0007397538283839822
7680.0,0.0005957893445156515
8192.0,0.0003498005971778184
end
