version,3.0
numOfCh,1
type,point
parent_name,34766_1dot0-1dot0
ch_type,1_1
kcount,1
numberNandB,1
brightnessNandB,1
carpet pos,0
pc,0
Time (ms),CH1 Auto-Correlation
1.0,0.028108427301049232
2.0,0.025835741311311722
3.0,0.02397339791059494
4.0,0.022380394861102104
5.0,0.02103591524064541
6.0,0.019783474504947662
7.0,0.01873023994266987
8.0,0.017768053337931633
9.0,0.01687399111688137
10.0,0.016034649685025215
11.0,0.015303029678761959
12.0,0.014591663144528866
13.0,0.013975165784358978
14.0,0.013372036628425121
15.0,0.012803658843040466
16.0,0.012252133339643478
18.0,0.0112807247787714
20.0,0.010580405592918396
22.0,0.01003608014434576
24.0,0.009622452780604362
26.0,0.009102912619709969
28.0,0.00856533832848072
30.0,0.008131025359034538
32.0,0.007722083479166031
36.0,0.006864828523248434
40.0,0.006200506817549467
44.0,0.005600131116807461
48.0,0.004837308079004288
52.0,0.004038493148982525
56.0,0.003498748643323779
60.0,0.0033074612729251385
64.0,0.0032283838372677565
72.0,0.002962295664474368
80.0,0.0022460385225713253
88.0,0.0011799195781350136
96.0,0.0006452883244492114
104.0,0.0007208636379800737
112.0,0.0007543312385678291
120.0,0.0005873778136447072
128.0,0.0003024608886335045
144.0,0.000384381040930748
160.0,-0.0001888333063106984
176.0,-0.00016495166346430779
192.0,0.00013882797793485224
208.0,-3.372475111973472e-05
224.0,0.00040534857544116676
240.0,0.0007804781198501587
256.0,0.00033923686714842916
288.0,0.0009394329972565174
320.0,0.0009127406519837677
352.0,0.0007895708549767733
384.0,0.0006257338682189584
416.0,-0.0002888021699618548
448.0,-0.0006345589063130319
480.0,-0.00030806270660832524
512.0,-0.0003411556244827807
576.0,-0.0006427893531508744
640.0,-2.0633066014852375e-05
704.0,0.00038871204014867544
768.0,-0.001027058926410973
832.0,-0.001067108241841197
896.0,-7.060595089569688e-05
960.0,-3.6544086469803005e-05
1024.0,0.00046379785635508597
1152.0,0.00011401919618947431
1280.0,0.0006797761889174581
1408.0,-0.00011101375275757164
1536.0,-0.00049508863594383
1664.0,0.00042293054866604507
1792.0,0.0002479894901625812
1920.0,-0.00045475378283299506
2048.0,0.00012371472257655114
2304.0,-0.0003876458795275539
2560.0,-0.0007404531934298575
2816.0,5.862641774001531e-05
3072.0,-0.000666156702209264
3328.0,-0.0009323320118710399
3584.0,-0.0003973396378569305
3840.0,0.0010905100498348475
4096.0,0.0008436535717919469
4608.0,0.00042198607116006315
5120.0,0.00019927634275518358
5632.0,5.239308848103974e-06
6144.0,0.0002758876362349838
6656.0,-0.0005146324983797967
7168.0,-0.001031610299833119
7680.0,-0.00023653848620597273
8192.0,-0.00025085973902605474
end
