version,3.0
numOfCh,1
type,point
parent_name,34766_1dot0-1dot0
ch_type,1_1
kcount,1
numberNandB,1
brightnessNandB,1
carpet pos,0
pc,0
Time (ms),CH1 Auto-Correlation
1.0,0.02680967003107071
2.0,0.024633165448904037
3.0,0.022801389917731285
4.0,0.021229885518550873
5.0,0.019901717081665993
6.0,0.018696019425988197
7.0,0.01758790947496891
8.0,0.016582133248448372
9.0,0.015647441148757935
10.0,0.014866531826555729
11.0,0.014217061921954155
12.0,0.013642356730997562
13.0,0.01303402055054903
14.0,0.012522577308118343
15.0,0.012106571346521378
16.0,0.011704313568770885
18.0,0.010970573872327805
20.0,0.010358023457229137
22.0,0.009822607971727848
24.0,0.009321311488747597
26.0,0.008715854026377201
28.0,0.00820697657763958
30.0,0.00787908211350441
32.0,0.007442709989845753
36.0,0.0065593901090323925
40.0,0.005895795300602913
44.0,0.00569695420563221
48.0,0.0056699104607105255
52.0,0.005403473507612944
56.0,0.00505037559196353
60.0,0.004820054396986961
64.0,0.00480536837130785
72.0,0.004245093557983637
80.0,0.003091024700552225
88.0,0.0023318175226449966
96.0,0.0019098829943686724
104.0,0.0013938446063548326
112.0,0.0012976001016795635
120.0,0.0009141520713455975
128.0,0.0005601675948128104
144.0,0.0003961634647566825
160.0,9.063683683052659e-05
176.0,0.0002928291796706617
192.0,0.0001422365166945383
208.0,-0.0002779124479275197
224.0,-0.00038416057941503823
240.0,8.59718129504472e-05
256.0,-0.00032621412537992
288.0,-0.0012766955187544227
320.0,-0.0012429867638275027
352.0,-0.0002400497323833406
384.0,0.0006307142903096974
416.0,-4.557777356239967e-05
448.0,-0.00039094287785701454
480.0,0.0004413602582644671
512.0,0.0011855807388201356
576.0,0.0014392186421900988
640.0,0.0017502779373899102
704.0,0.0011854494223371148
768.0,0.0015429183840751648
832.0,0.0010592559119686484
896.0,-0.00016027102537918836
960.0,-0.00046877108979970217
1024.0,-0.0005277369054965675
1152.0,-0.00032038119388744235
1280.0,0.0005260540638118982
1408.0,4.5853754272684455e-05
1536.0,-0.0004828062083106488
1664.0,0.00021579404710792005
1792.0,-0.00023795798188075423
1920.0,-0.0005527509492821991
2048.0,-0.0006451478111557662
2304.0,0.0006321821128949523
2560.0,-0.00010714836389524862
2816.0,5.426980715128593e-05
3072.0,0.0010034803999587893
3328.0,-0.0005055294604972005
3584.0,0.0006210311548784375
3840.0,0.00052717758808285
4096.0,-0.0006662114756181836
4608.0,-3.5751854738919064e-05
5120.0,0.00027509668143466115
5632.0,-0.0004492016742005944
6144.0,-0.00025304395239800215
6656.0,-7.204911526059732e-05
7168.0,-0.00041352567495778203
7680.0,-0.0011705096112564206
8192.0,-0.0009789998875930905
end
