version,3.0
numOfCh,1
type,point
parent_name,34766_1dot0-1dot0
ch_type,1_1
kcount,1
numberNandB,1
brightnessNandB,1
carpet pos,0
pc,0
Time (ms),CH1 Auto-Correlation
1.0,0.027917226776480675
2.0,0.025631969794631004
3.0,0.023678679019212723
4.0,0.021972069516777992
5.0,0.020471302792429924
6.0,0.019115272909402847
7.0,0.01800127699971199
8.0,0.016949772834777832
9.0,0.015930648893117905
10.0,0.014949546195566654
11.0,0.014056936837732792
12.0,0.013235659338533878
13.0,0.012577163055539131
14.0,0.011956984177231789
15.0,0.011445527896285057
16.0,0.010940345004200935
18.0,0.010260754264891148
20.0,0.00962437316775322
22.0,0.00905805267393589
24.0,0.008405610918998718
26.0,0.00784168392419815
28.0,0.007365095429122448
30.0,0.006896514445543289
32.0,0.006335841026157141
36.0,0.00523255905136466
40.0,0.004494412802159786
44.0,0.0037697141524404287
48.0,0.003212259616702795
52.0,0.0028846682980656624
56.0,0.002484584227204323
60.0,0.002145176287740469
64.0,0.0016277279937639832
72.0,0.0010793284745886922
80.0,0.0008280553156509995
88.0,0.0008542246068827808
96.0,0.001265298342332244
104.0,0.0014584638411179185
112.0,0.0015333817573264241
120.0,0.0011729882098734379
128.0,0.0008247699006460607
144.0,0.001573825255036354
160.0,0.001910108607262373
176.0,0.0019131992012262344
192.0,0.001171137671917677
208.0,7.19162417226471e-05
224.0,0.0006207187543623149
240.0,0.0007924594101496041
256.0,0.0009196401806548238
288.0,0.0004396339354570955
320.0,-0.00012960263120476156
352.0,7.51080151530914e-05
384.0,0.0002063976280624047
416.0,0.0004830546968150884
448.0,-0.00038150724139995873
480.0,-0.00019119103671982884
512.0,0.0004176782094873488
576.0,0.000618274905718863
640.0,0.0009512051474303007
704.0,8.756673923926428e-05
768.0,0.0005017845542170107
832.0,0.00027644846704788506
896.0,-0.0007462003268301487
960.0,-0.001057828078046441
1024.0,-0.00015122420154511929
1152.0,-0.0007451497367583215
1280.0,0.0003367443277966231
1408.0,0.0014665843918919563
1536.0,0.00029312295373529196
1664.0,0.0015614342410117388
1792.0,0.0005251558031886816
1920.0,-0.00016673695063218474
2048.0,8.315352170029655e-05
2304.0,-0.00030663926736451685
2560.0,-0.0006974490243010223
2816.0,-0.00044442148646339774
3072.0,0.0006050920928828418
3328.0,0.00047312473179772496
3584.0,-0.0006831972859799862
3840.0,-0.001462379819713533
4096.0,-0.0008682223269715905
4608.0,0.00024565443163737655
5120.0,0.0005575954564847052
5632.0,4.387352419144008e-06
6144.0,0.0002427799190627411
6656.0,-6.375105294864625e-05
7168.0,-0.0003429274947848171
7680.0,0.0005784192471764982
8192.0,-0.00045143827446736395
end
