version,3.0
numOfCh,1
type,point
parent_name,34766_1dot0-1dot0
ch_type,1_1
kcount,1
numberNandB,1
brightnessNandB,1
carpet pos,0
pc,0
Time (ms),CH1 Auto-Correlation
1.0,0.029659297317266464
2.0,0.02751513570547104
3.0,0.02571878395974636
4.0,0.02414739690721035
5.0,0.022726234048604965
6.0,0.021465938538312912
7.0,0.020330525934696198
8.0,0.019237995147705078
9.0,0.018268533051013947
10.0,0.017386360093951225
11.0,0.016611989587545395
12.0,0.01595163717865944
13.0,0.015338544733822346
14.0,0.014798230491578579
15.0,0.014362252317368984
16.0,0.013972923159599304
18.0,0.013147460296750069
20.0,0.012313688173890114
22.0,0.011594622395932674
24.0,0.011026974767446518
26.0,0.010453454218804836
28.0,0.009935199283063412
30.0,0.009381299838423729
32.0,0.00892925076186657
36.0,0.008412787690758705
40.0,0.007821554318070412
44.0,0.0071850549429655075
48.0,0.006632775533944368
52.0,0.006026599556207657
56.0,0.005497351288795471
60.0,0.005170081742107868
64.0,0.005043415818363428
72.0,0.004533945582807064
80.0,0.003903047414496541
88.0,0.003630593651905656
96.0,0.0034794423263520002
104.0,0.003393423045054078
112.0,0.0026913881301879883
120.0,0.0023771647829562426
128.0,0.0018687231931835413
144.0,0.0018938895082101226
160.0,0.002095848321914673
176.0,0.0012290967861190438
192.0,0.00030112030799500644
208.0,0.00016269931802526116
224.0,-7.625257239851635e-06
240.0,-8.007438009371981e-05
256.0,0.00017493334598839283
288.0,0.00022432759578805417
320.0,0.0006976916920393705
352.0,0.0007073355955071747
384.0,-9.18198493309319e-05
416.0,-3.0385786885744892e-05
448.0,-0.0002814439358189702
480.0,0.0003911390667781234
512.0,4.332778917159885e-05
576.0,-0.0010917920153588057
640.0,9.140787005890161e-05
704.0,-0.0003477908903732896
768.0,-0.0009163713548332453
832.0,-7.23631601431407e-05
896.0,-0.0005107862525619566
960.0,0.0006330060423351824
1024.0,0.002253646031022072
1152.0,0.0008057698141783476
1280.0,0.0007805830100551248
1408.0,-0.0006182002834975719
1536.0,-0.0015666666440665722
1664.0,-0.0018633229192346334
1792.0,-0.0009469434735365212
1920.0,0.0006343838176690042
2048.0,-0.0006603130022995174
2304.0,0.00034374147071503103
2560.0,-0.00012885918840765953
2816.0,-0.0010846579680219293
3072.0,-0.0007079668575897813
3328.0,-0.00024720068904571235
3584.0,-0.0004658543912228197
3840.0,2.274638245580718e-05
4096.0,-0.0003993283025920391
4608.0,8.536337554687634e-05
5120.0,-0.0010586535790935159
5632.0,0.0005568271735683084
6144.0,5.910092295380309e-05
6656.0,0.00023526442237198353
7168.0,0.0005793803138658404
7680.0,-0.0012386370217427611
8192.0,-0.0007713399245403707
end
