version,3.0
numOfCh,1
type,point
parent_name,34766_1dot0-1dot0
ch_type,1_1
kcount,1
numberNandB,1
brightnessNandB,1
carpet pos,0
pc,0
Time (ms),CH1 Auto-Correlation
1.0,0.02676408179104328
2.0,0.024587513878941536
3.0,0.022766707465052605
4.0,0.021188974380493164
5.0,0.01978885754942894
6.0,0.018538273870944977
7.0,0.017401741817593575
8.0,0.016335122287273407
9.0,0.015379158779978752
10.0,0.014505591243505478
11.0,0.013706767000257969
12.0,0.012997469864785671
13.0,0.012378931045532227
14.0,0.011825145222246647
15.0,0.011263885535299778
16.0,0.010779350996017456
18.0,0.009795742109417915
20.0,0.0089095588773489
22.0,0.00812187884002924
24.0,0.00751666072756052
26.0,0.0070939017459750175
28.0,0.006620124448090792
30.0,0.006165357306599617
32.0,0.005742942914366722
36.0,0.004814061336219311
40.0,0.004110316280275583
44.0,0.0035529981832951307
48.0,0.003216801444068551
52.0,0.0028566059190779924
56.0,0.002438412280753255
60.0,0.002201956696808338
64.0,0.001905730809085071
72.0,0.0018411496421322227
80.0,0.002030750270932913
88.0,0.0022060154005885124
96.0,0.00230510369874537
104.0,0.0020873595494776964
112.0,0.001956359716132283
120.0,0.0018027490004897118
128.0,0.0018357614753767848
144.0,0.0016568171558901668
160.0,0.0016435557045042515
176.0,0.0013197892112657428
192.0,0.00038755059358663857
208.0,0.0004034721350762993
224.0,0.0003513487463351339
240.0,0.0010586243588477373
256.0,0.0016442101914435625
288.0,0.0003327455779071897
320.0,0.0005706546944566071
352.0,0.00034619844518601894
384.0,-0.0004924738314002752
416.0,-0.0004763264732901007
448.0,-0.00016278984548989683
480.0,-0.00037099907058291137
512.0,-0.0006884176400490105
576.0,-0.0005839815130457282
640.0,-0.0016485201194882393
704.0,-0.001066704629920423
768.0,-0.0008859877707436681
832.0,-0.0016566209960728884
896.0,-0.0003761921834666282
960.0,-0.0011556083336472511
1024.0,-0.0007301917066797614
1152.0,-0.000599972961936146
1280.0,-0.0008754820446483791
1408.0,0.00020461439271457493
1536.0,-0.00027404757565818727
1664.0,0.0003287022409494966
1792.0,-0.0004777027352247387
1920.0,0.0005462458939291537
2048.0,0.0005449878517538309
2304.0,0.0005353285232558846
2560.0,0.00028356630355119705
2816.0,-0.0005045444704592228
3072.0,-0.0008204543846659362
3328.0,-0.0015660022618249059
3584.0,-0.0006659412174485624
3840.0,0.0010969245340675116
4096.0,0.0006900447770021856
4608.0,-4.2431402107467875e-06
5120.0,-3.422289591981098e-05
5632.0,-0.0002361187362112105
6144.0,-8.99360966286622e-05
6656.0,0.00028578354977071285
7168.0,0.000231930025620386
7680.0,-3.0482806323561817e-05
8192.0,-0.00030392775079235435
end
