version,3.0
numOfCh,1
type,point
parent_name,34766_1dot0-1dot0
ch_type,1_1
kcount,1
numberNandB,1
brightnessNandB,1
carpet pos,0
pc,0
Time (ms),CH1 Auto-Correlation
1.0,0.028004150837659836
2.0,0.025898529216647148
3.0,0.024153806269168854
4.0,0.02264668233692646
5.0,0.021243920549750328
6.0,0.020008565858006477
7.0,0.018880309537053108
8.0,0.017878955230116844
9.0,0.017050201073288918
10.0,0.016256554052233696
11.0,0.015524743124842644
12.0,0.014862336218357086
13.0,0.01425408385694027
14.0,0.013743595220148563
15.0,0.01328962855041027
16.0,0.012809987179934978
18.0,0.011936763301491737
20.0,0.011178743094205856
22.0,0.010603784583508968
24.0,0.01014047022908926
26.0,0.009857733733952045
28.0,0.009489310905337334
30.0,0.009079881012439728
32.0,0.008647163398563862
36.0,0.00794820673763752
40.0,0.0076417806558310986
44.0,0.007319679018110037
48.0,0.006935741286724806
52.0,0.006502452772110701
56.0,0.006143536418676376
60.0,0.005951490253210068
64.0,0.005747376475483179
72.0,0.005167970899492502
80.0,0.0044886949472129345
88.0,0.004360608756542206
96.0,0.003786960616707802
104.0,0.0030066680628806353
112.0,0.002476514084264636
120.0,0.002002905821427703
128.0,0.0014296738663688302
144.0,0.0005599429132416844
160.0,0.0003986974770668894
176.0,-0.00018762151012197137
192.0,-0.0009372177883051336
208.0,-0.000319018610753119
224.0,-0.0006526513607241213
240.0,-0.0006199178751558065
256.0,-0.0009021679288707674
288.0,-0.001151604694314301
320.0,-0.0016102452063933015
352.0,-0.001398507971316576
384.0,-0.0023569471668452024
416.0,-0.002574583748355508
448.0,-0.0022224048152565956
480.0,-0.00111546297557652
512.0,-0.0009679318754933774
576.0,-0.00047881656792014837
640.0,-0.00043682020623236895
704.0,0.0009428819175809622
768.0,0.0010976928751915693
832.0,0.001658101100474596
896.0,0.0018283865647390485
960.0,0.0020920061506330967
1024.0,-0.00018245445971842855
1152.0,3.426690454944037e-05
1280.0,-0.00031158822821453214
1408.0,0.0008235189015977085
1536.0,0.0007025022059679031
1664.0,-0.0006097712321206927
1792.0,-0.000808115815743804
1920.0,-0.0004721750447060913
2048.0,0.0002864137932192534
2304.0,-0.000731743173673749
2560.0,0.001388040604069829
2816.0,-0.0007589364540763199
3072.0,0.00011545505549293011
3328.0,0.0007300909492187202
3584.0,0.0010816407157108188
3840.0,-0.002233643550425768
4096.0,0.001425662892870605
4608.0,-0.000318752892781049
5120.0,-0.00010805818601511419
5632.0,0.0002407114370726049
6144.0,-0.0001721156295388937
6656.0,-0.00089174386812374
7168.0,-0.00010492251021787524
7680.0,-0.0006784031866118312
8192.0,-9.356364898849279e-05
end
