version,3.0
numOfCh,1
type,point
parent_name,34766_1dot0-1dot0
ch_type,1_1
kcount,1
numberNandB,1
brightnessNandB,1
carpet pos,0
pc,0
Time (ms),CH1 Auto-Correlation
1.0,0.027901049703359604
2.0,0.0257217139005661
3.0,0.023821337148547173
4.0,0.022178607061505318
5.0,0.020794378593564034
6.0,0.019492654129862785
7.0,0.018376104533672333
8.0,0.017399577423930168
9.0,0.016585251316428185
10.0,0.015847671777009964
11.0,0.015143007040023804
12.0,0.014497064985334873
13.0,0.013950211927294731
14.0,0.013482138514518738
15.0,0.013079405762255192
16.0,0.012650435790419579
18.0,0.011873538605868816
20.0,0.011139407753944397
22.0,0.010475117713212967
24.0,0.009946414269506931
26.0,0.009430162608623505
28.0,0.008935813792049885
30.0,0.008475684560835361
32.0,0.008100923150777817
36.0,0.007371686398983002
40.0,0.006862100679427385
44.0,0.006513903383165598
48.0,0.005958627909421921
52.0,0.005315469112247229
56.0,0.005073008127510548
60.0,0.0048689772374928
64.0,0.004847969859838486
72.0,0.004772443789988756
80.0,0.004410410765558481
88.0,0.0039269085973501205
96.0,0.0038087402936071157
104.0,0.0035172635689377785
112.0,0.0026900526136159897
120.0,0.0021065189503133297
128.0,0.0014481055550277233
144.0,0.002055658493191004
160.0,0.0016934735467657447
176.0,0.001173169701360166
192.0,0.0014448098372668028
208.0,0.0009170030243694782
224.0,0.000998776056803763
240.0,0.0010404353961348534
256.0,0.0013479490298777819
288.0,0.0014044804265722632
320.0,0.0004468236002139747
352.0,-0.0009197912295348942
384.0,-0.000571521813981235
416.0,-0.00025431206449866295
448.0,-0.00078765390207991
480.0,-0.0007558618672192097
512.0,-0.0009505529305897653
576.0,0.00048744044033810496
640.0,-0.000676852825563401
704.0,-0.00105203315615654
768.0,-0.00015568009985145181
832.0,0.0003340438997838646
896.0,-0.0007164780399762094
960.0,-0.000974985130596906
1024.0,-0.0008045494905672967
1152.0,-0.0017581562278792262
1280.0,-0.00018833389913197607
1408.0,0.000623065629042685
1536.0,0.0007667380850762129
1664.0,-0.00020039109222125262
1792.0,0.00048539770068600774
1920.0,0.0004405950603540987
2048.0,1.5373127098428085e-05
2304.0,-0.00011735688167391345
2560.0,-0.0006833267980255187
2816.0,9.863286686595529e-05
3072.0,-0.0008407773566432297
3328.0,-0.00014295944129116833
3584.0,-1.3447922356135678e-05
3840.0,-0.00029882078524678946
4096.0,-0.0008470536558888853
4608.0,-9.697476343717426e-06
5120.0,0.0009328738087788224
5632.0,-0.00016295576642733067
6144.0,-0.0008580207941122353
6656.0,-0.0004326918569859117
7168.0,-0.00023268569202627987
7680.0,0.00033542796154506505
8192.0,0.0005364548414945602
end
