version,3.0
numOfCh,1
type,point
parent_name,34766_1dot0-1dot0
ch_type,1_1
kcount,1
numberNandB,1
brightnessNandB,1
carpet pos,0
pc,0
Time (ms),CH1 Auto-Correlation
1.0,0.02668795920908451
2.0,0.024400340393185616
3.0,0.022516505792737007
4.0,0.020816506817936897
5.0,0.019356612116098404
6.0,0.018105363473296165
7.0,0.01710532046854496
8.0,0.016176961362361908
9.0,0.015399778261780739
10.0,0.014730799943208694
11.0,0.014107958413660526
12.0,0.013505839742720127
13.0,0.012992985546588898
14.0,0.012514011934399605
15.0,0.012120295315980911
16.0,0.011690095067024231
18.0,0.010805594734847546
20.0,0.009989282116293907
22.0,0.009337631985545158
24.0,0.008720711804926395
26.0,0.00823698565363884
28.0,0.00770724518224597
30.0,0.007133332546800375
32.0,0.006573913153260946
36.0,0.005815273616462946
40.0,0.005115061067044735
44.0,0.004225768614560366
48.0,0.0037904977798461914
52.0,0.003524242201820016
56.0,0.0035080236848443747
60.0,0.0034408820793032646
64.0,0.003468999406322837
72.0,0.002721877535805106
80.0,0.002438749186694622
88.0,0.002415405586361885
96.0,0.0020666029304265976
104.0,0.0015073397662490606
112.0,0.0012373557547107339
120.0,0.0011141127906739712
128.0,0.0010269182967022061
144.0,0.0015549572417512536
160.0,0.001027671154588461
176.0,0.000692507135681808
192.0,0.0005418098298832774
208.0,0.0005151606746949255
224.0,0.0008046049624681473
240.0,0.0002797957859002054
256.0,0.00022597936913371086
288.0,0.0001317642309004441
320.0,-0.0006457538693211973
352.0,-0.0007329032523557544
384.0,-0.00022378168068826199
416.0,-0.0006803020951338112
448.0,-0.000682275858707726
480.0,-0.0014170364011079073
512.0,-0.0005513957003131509
576.0,-0.002074240241199732
640.0,-0.0014318365138024092
704.0,-0.00015304150292649865
768.0,0.0009606577805243433
832.0,-0.0003360029077157378
896.0,-0.0005192729877308011
960.0,-0.00030546847847290337
1024.0,8.218325092457235e-05
1152.0,0.0002022433909587562
1280.0,-0.001848364481702447
1408.0,-0.0008399710059165955
1536.0,-0.0002605260815471411
1664.0,-0.0009113569394685328
1792.0,0.00021586216462310404
1920.0,0.00015823553258087486
2048.0,-8.12861107988283e-05
2304.0,-0.0002267705276608467
2560.0,-4.370586793811526e-06
2816.0,-0.0007286265608854592
3072.0,-0.00022794233518652618
3328.0,0.0011145489988848567
3584.0,0.000492712773848325
3840.0,-0.00021619170729536563
4096.0,-0.00012448886991478503
4608.0,-0.0002526876050978899
5120.0,5.6685104937059805e-05
5632.0,0.0008367069531232119
6144.0,-0.0006841539870947599
6656.0,-0.00024728692369535565
7168.0,-0.0003595594607759267
7680.0,0.0004377779259812087
8192.0,-0.0004556450294330716
end
