version,3.0
numOfCh,1
type,point
parent_name,34766_1dot0-1dot0
ch_type,1_1
kcount,1
numberNandB,1
brightnessNandB,1
carpet pos,0
pc,0
Time (ms),CH1 Auto-Correlation
1.0,0.027904216200113297
2.0,0.02573786862194538
3.0,0.023903386667370796
4.0,0.02229955978691578
5.0,0.020896930247545242
6.0,0.01967296190559864
7.0,0.01858031190931797
8.0,0.017689775675535202
9.0,0.016846610233187675
10.0,0.016086386516690254
11.0,0.015363742597401142
12.0,0.014804051257669926
13.0,0.014247841201722622
14.0,0.013717993162572384
15.0,0.013269440270960331
16.0,0.012793890200555325
18.0,0.01199554093182087
20.0,0.01126269344240427
22.0,0.010607216507196426
24.0,0.01010681688785553
26.0,0.009700832888484001
28.0,0.009362347424030304
30.0,0.00893548782914877
32.0,0.008495871908962727
36.0,0.007884756661951542
40.0,0.0070006269961595535
44.0,0.00618225010111928
48.0,0.005718009080737829
52.0,0.005411734338849783
56.0,0.004881075117737055
60.0,0.004323272965848446
64.0,0.003790508257225156
72.0,0.0026334617286920547
80.0,0.002520684851333499
88.0,0.0026523021515458822
96.0,0.0019959923811256886
104.0,0.0013544992543756962
112.0,0.0008542941068299115
120.0,0.0009389977785758674
128.0,0.0013688320759683847
144.0,0.0012740283273160458
160.0,0.0009422739967703819
176.0,0.0008496512309648097
192.0,-0.00018858182011172175
208.0,-0.0008268420351669192
224.0,-0.0007303616730496287
240.0,0.0006526198703795671
256.0,0.0007609196472913027
288.0,2.3091412003850564e-05
320.0,0.00038707826752215624
352.0,0.0017335292650386691
384.0,0.0025808606296777725
416.0,0.0022718042600899935
448.0,0.0012539515737444162
480.0,0.0007161058019846678
512.0,0.0012556680012494326
576.0,0.0010567678837105632
640.0,0.0007175607024691999
704.0,-0.00038950686575844884
768.0,-0.0007899126503616571
832.0,-0.0003278916410636157
896.0,0.0008636268321424723
960.0,0.0017908361041918397
1024.0,0.0019781950395554304
1152.0,5.756360405939631e-05
1280.0,-0.00044943057582713664
1408.0,0.000856060825753957
1536.0,-0.0005873861955478787
1664.0,-2.3767937818774953e-05
1792.0,-7.732780068181455e-05
1920.0,0.0006866768817417324
2048.0,-8.887027070159093e-05
2304.0,0.0005686712102033198
2560.0,-0.0007454377482645214
2816.0,0.0006922489847056568
3072.0,-0.0012127376394346356
3328.0,3.4573351967992494e-06
3584.0,-0.001023421878926456
3840.0,0.00024381474941037595
4096.0,-0.0011238099541515112
4608.0,-0.0003789880429394543
5120.0,-0.0007462422363460064
5632.0,-0.00022125960094854236
6144.0,-0.000716869137249887
6656.0,-0.0012562409974634647
7168.0,0.00036938811535947025
7680.0,-8.18337794044055e-05
8192.0,-0.0010403310880064964
end
