version,3.0
numOfCh,1
type,point
parent_name,34766_1dot0-1dot0
ch_type,1_1
kcount,1
numberNandB,1
brightnessNandB,1
carpet pos,0
pc,0
Time (ms),CH1 Auto-Correlation
1.0,0.025660157203674316
2.0,0.023422664031386375
3.0,0.02151256799697876
4.0,0.01990630105137825
5.0,0.018520288169384003
6.0,0.017260316759347916
7.0,0.016127562150359154
8.0,0.015110600739717484
9.0,0.014212326146662235
10.0,0.013411077670753002
11.0,0.01267391536384821
12.0,0.011983639560639858
13.0,0.011349082924425602
14.0,0.010780897922813892
15.0,0.010293522849678993
16.0,0.009859193116426468
18.0,0.008989058434963226
20.0,0.008261178620159626
22.0,0.007595208007842302
24.0,0.007084200624376535
26.0,0.0066314819268882275
28.0,0.006079692393541336
30.0,0.0055910381488502026
32.0,0.0052560302428901196
36.0,0.004679362755268812
40.0,0.004202805459499359
44.0,0.003798401914536953
48.0,0.003566076047718525
52.0,0.0034529482945799828
56.0,0.003455209545791149
60.0,0.003167381975799799
64.0,0.002896271413192153
72.0,0.00261641014367342
80.0,0.0023880968801677227
88.0,0.0019623644184321165
96.0,0.0012512838002294302
104.0,0.0007430327241308987
112.0,-7.967920828377828e-05
120.0,-0.00018131363322027028
128.0,0.0005959693226031959
144.0,0.0006980522884987295
160.0,0.0003723077243193984
176.0,-0.00016834436974022537
192.0,-0.0009761097026057541
208.0,-0.0009217041661031544
224.0,-0.0002276582963531837
240.0,4.784492193721235e-05
256.0,-0.00033375690691173077
288.0,7.737879172964313e-07
320.0,0.0004051105643156916
352.0,0.0007412275881506503
384.0,0.0007199007086455822
416.0,0.0006454199319705367
448.0,-0.00038260582368820906
480.0,0.0002271642879350111
512.0,-0.0007652228232473135
576.0,-0.0004884199588559568
640.0,-0.001541774021461606
704.0,-0.00135463522747159
768.0,-0.0016295663081109524
832.0,-0.0008520632982254028
896.0,0.0004468702245503664
960.0,0.0002652432303875685
1024.0,-0.0006344224093481898
1152.0,-0.0003295519854873419
1280.0,0.0005300939665175974
1408.0,0.0008557605906389654
1536.0,0.00026822075597010553
1664.0,-0.0010000092443078756
1792.0,5.0946608098456636e-05
1920.0,-1.7284288333030418e-05
2048.0,-0.0017477277433499694
2304.0,6.240682705538347e-05
2560.0,0.0007860871264711022
2816.0,0.001293534180149436
3072.0,-0.0004069981223437935
3328.0,-0.0009188858093693852
3584.0,-0.00102878431789577
3840.0,0.0002018983504967764
4096.0,0.0008524312288500369
4608.0,0.00017416939954273403
5120.0,-7.788526272634044e-05
5632.0,-0.00021153361012693495
6144.0,-0.0007168151205405593
6656.0,0.00022812366660218686
7168.0,-0.00023790945124346763
7680.0,0.0001569906307850033
8192.0,-0.001135856844484806
end
