version,3.0
numOfCh,1
type,point
parent_name,34766_1dot0-1dot0
ch_type,1_1
kcount,1
numberNandB,1
brightnessNandB,1
carpet pos,0
pc,0
Time (ms),CH1 Auto-Correlation
1.0,0.027707409113645554
2.0,0.025549056008458138
3.0,0.023707255721092224
4.0,0.02211051434278488
5.0,0.02074279449880123
6.0,0.019569609314203262
7.0,0.018499771133065224
8.0,0.0175720676779747
9.0,0.016693690791726112
10.0,0.015834705904126167
11.0,0.015069877728819847
12.0,0.014324039220809937
13.0,0.01365183386951685
14.0,0.012982217594981194
15.0,0.012364043854176998
16.0,0.011760998517274857
18.0,0.010678156279027462
20.0,0.00980411283671856
22.0,0.008956843055784702
24.0,0.008296704851090908
26.0,0.007735731080174446
28.0,0.007097418420016766
30.0,0.006591463927179575
32.0,0.006137781776487827
36.0,0.005333203822374344
40.0,0.004690628033131361
44.0,0.004278883803635836
48.0,0.004069560207426548
52.0,0.0038806223310530186
56.0,0.0036252415738999844
60.0,0.0031915726140141487
64.0,0.002804903080686927
72.0,0.002419121330603957
80.0,0.0020399796776473522
88.0,0.0013012757990509272
96.0,0.00135318364482373
104.0,0.0017810403369367123
112.0,0.00176231749355793
120.0,0.0020753173157572746
128.0,0.0021332332398742437
144.0,0.0017111675115302205
160.0,0.0010736200492829084
176.0,0.0019904898945242167
192.0,0.002134880982339382
208.0,0.0027075724210590124
224.0,0.0014737340388819575
240.0,0.000414156646002084
256.0,0.0003791381313931197
288.0,0.0002548796182963997
320.0,3.598797047743574e-05
352.0,-0.0004140886594541371
384.0,-0.00011040198296541348
416.0,0.0002274152939207852
448.0,-0.0006819606060162187
480.0,-0.0007594278431497514
512.0,-0.0007758204592391849
576.0,-0.0014336324529722333
640.0,-0.0007172129116952419
704.0,-9.47082880884409e-05
768.0,-0.0008541744900867343
832.0,-0.0004797173896804452
896.0,0.00010061293869512156
960.0,-6.866105195513228e-07
1024.0,0.0018314127810299397
1152.0,0.00025639537489041686
1280.0,-0.0001336552231805399
1408.0,-0.0006489341030828655
1536.0,-0.0010446540545672178
1664.0,-0.0006242688978090882
1792.0,0.00025357885169796646
1920.0,0.0005100571434013546
2048.0,0.0005333361914381385
2304.0,-0.00038213314837776124
2560.0,-0.0017747458769008517
2816.0,0.0002457387454342097
3072.0,0.00046432411181740463
3328.0,-0.0007276893593370914
3584.0,-0.000912326795514673
3840.0,0.000506781623698771
4096.0,0.0008352625882253051
4608.0,0.00010829848179128021
5120.0,2.065306944132317e-05
5632.0,0.0004977958742529154
6144.0,-0.0010417726589366794
6656.0,0.0001603766722837463
7168.0,0.0002074616786558181
7680.0,-0.0001360182068310678
8192.0,-0.0009835029486566782
end
