version,3.0
numOfCh,1
type,point
parent_name,34766_1dot0-1dot0
ch_type,1_1
kcount,1
numberNandB,1
brightnessNandB,1
carpet pos,0
pc,0
Time (ms),CH1 Auto-Correlation
1.0,0.02644953317940235
2.0,0.024340759962797165
3.0,0.02249954268336296
4.0,0.02097407542169094
5.0,0.0196528397500515
6.0,0.018458373844623566
7.0,0.017403095960617065
8.0,0.01649584248661995
9.0,0.015669353306293488
10.0,0.014899804256856441
11.0,0.01417703740298748
12.0,0.013516850769519806
13.0,0.012958274222910404
14.0,0.01241193525493145
15.0,0.011884234845638275
16.0,0.0114295594394207
18.0,0.010602254420518875
20.0,0.009837396442890167
22.0,0.009065690450370312
24.0,0.008346550166606903
26.0,0.007662375923246145
28.0,0.007130630314350128
30.0,0.006670999340713024
32.0,0.006274576764553785
36.0,0.0057424320839345455
40.0,0.005298942793160677
44.0,0.0050058853812515736
48.0,0.0048205959610641
52.0,0.00438010273501277
56.0,0.0038678490091115236
60.0,0.0036612367257475853
64.0,0.0036395189817994833
72.0,0.0036700775381177664
80.0,0.0036588339135050774
88.0,0.003412179881706834
96.0,0.003038260852918029
104.0,0.002637090627104044
112.0,0.0024596608709543943
120.0,0.0020404416136443615
128.0,0.0016099000349640846
144.0,0.0011333428556099534
160.0,0.0011560159036889672
176.0,0.0012154403375461698
192.0,0.0015692712040618062
208.0,0.00043733950587920845
224.0,-0.00031726682209409773
240.0,-0.000968307547736913
256.0,-0.0013685367302969098
288.0,-0.0010554376058280468
320.0,-0.0005868529551662505
352.0,-0.0005275262519717216
384.0,-0.0008477733354084194
416.0,-0.0004504347743932158
448.0,-0.00021985221246723086
480.0,0.0002926412271335721
512.0,-0.00039325610850937665
576.0,0.0007512586889788508
640.0,0.001229085843078792
704.0,0.0005112001672387123
768.0,0.00017541467968840152
832.0,-0.0007866759551689029
896.0,-0.0014161249855533242
960.0,-0.0017212778329849243
1024.0,-0.0014059605309739709
1152.0,0.0005938567337580025
1280.0,-0.00038286190829239786
1408.0,-0.00040291756158694625
1536.0,-0.0002377079363213852
1664.0,-0.0004983810940757394
1792.0,-0.0006467309431172907
1920.0,-0.0023235713597387075
2048.0,-0.0018016098765656352
2304.0,0.0004516681656241417
2560.0,-0.00019682038691826165
2816.0,-0.00022174765763338655
3072.0,1.3836915968568064e-05
3328.0,0.001247695297934115
3584.0,0.00022968095436226577
3840.0,0.0003038211725652218
4096.0,0.0005342851509340107
4608.0,-0.0005955732194706798
5120.0,-0.0007878761389292777
5632.0,0.0004293844976928085
6144.0,-0.0002236570289824158
6656.0,0.0005846171407029033
7168.0,0.0009477288695052266
7680.0,-0.0008669940289109945
8192.0,0.00016044701624196023
end
