version,3.0
numOfCh,1
type,point
parent_name,34766_1dot0-1dot0
ch_type,1_1
kcount,1
numberNandB,1
brightnessNandB,1
carpet pos,0
pc,0
Time (ms),CH1 Auto-Correlation
1.0,0.027631206437945366
2.0,0.02531634457409382
3.0,0.023321036249399185
4.0,0.021681105718016624
5.0,0.02020500972867012
6.0,0.01890374906361103
7.0,0.017751047387719154
8.0,0.016690721735358238
9.0,0.015744270756840706
10.0,0.014853031374514103
11.0,0.01407289132475853
12.0,0.013355791568756104
13.0,0.012729057110846043
14.0,0.012225317768752575
15.0,0.0117046432569623
16.0,0.011214512400329113
18.0,0.010401591658592224
20.0,0.009752972982823849
22.0,0.00913245789706707
24.0,0.008508170023560524
26.0,0.008076799102127552
28.0,0.007777114864438772
30.0,0.0075167277827858925
32.0,0.007121474482119083
36.0,0.006292790174484253
40.0,0.005910809617489576
44.0,0.005623740144073963
48.0,0.005173140671104193
52.0,0.004553435370326042
56.0,0.00418362719938159
60.0,0.003949360456317663
64.0,0.0038293038960546255
72.0,0.004047717899084091
80.0,0.00392132718116045
88.0,0.003666588105261326
96.0,0.0032373983412981033
104.0,0.002749927341938019
112.0,0.002557536121457815
120.0,0.002427976578474045
128.0,0.0024047938641160727
144.0,0.002292100340127945
160.0,0.002684635343030095
176.0,0.003179267980158329
192.0,0.002887462032958865
208.0,0.0017399551579728723
224.0,0.0011319012846797705
240.0,0.0004053690645378083
256.0,0.0005476039368659258
288.0,0.001360649592243135
320.0,0.0025414256379008293
352.0,0.0024829211179167032
384.0,0.0009599175537005067
416.0,0.00015070539666339755
448.0,0.0005992215010337532
480.0,0.00016969536955002695
512.0,0.0012008033227175474
576.0,-0.0008527375757694244
640.0,-0.00029009184800088406
704.0,0.00014407929847948253
768.0,-0.001164448563940823
832.0,-0.0021637165918946266
896.0,-0.0008357519982382655
960.0,0.0002181682939408347
1024.0,0.0007766042253933847
1152.0,-0.00040203885873779655
1280.0,-0.0015591211849823594
1408.0,-0.0011394881876185536
1536.0,-0.00020566274179145694
1664.0,-0.000498055771458894
1792.0,-0.0014830089639872313
1920.0,-0.0013790912926197052
2048.0,-0.000911090464796871
2304.0,-0.0007875586161389947
2560.0,0.000872258679009974
2816.0,0.0005302109639160335
3072.0,1.5199572771962266e-05
3328.0,0.0003614263259805739
3584.0,0.0005487684393301606
3840.0,0.0012837315443903208
4096.0,0.0016170786693692207
4608.0,0.0006275923806242645
5120.0,-0.000703485100530088
5632.0,-0.002495465101674199
6144.0,-0.0011503968853503466
6656.0,0.0009021113510243595
7168.0,0.0008280323818325996
7680.0,0.00030147397774271667
8192.0,0.0005142447771504521
end
