version,3.0
numOfCh,1
type,point
parent_name,34766_1dot0-1dot0
ch_type,1_1
kcount,1
numberNandB,1
brightnessNandB,1
carpet pos,0
pc,0
Time (ms),CH1 Auto-Correlation
1.0,0.027406444773077965
2.0,0.025243300944566727
3.0,0.023402467370033264
4.0,0.021839313209056854
5.0,0.020449943840503693
6.0,0.0192373376339674
7.0,0.01819494366645813
8.0,0.017244350165128708
9.0,0.01642991416156292
10.0,0.015659840777516365
11.0,0.014932563528418541
12.0,0.014209005981683731
13.0,0.013539444655179977
14.0,0.012960901483893394
15.0,0.012403693981468678
16.0,0.011881462298333645
18.0,0.010946758091449738
20.0,0.010121503844857216
22.0,0.009530773386359215
24.0,0.008919332176446915
26.0,0.008383461274206638
28.0,0.007902258075773716
30.0,0.007360306102782488
32.0,0.006922322791069746
36.0,0.00624006986618042
40.0,0.005920132622122765
44.0,0.005674367304891348
48.0,0.005441138055175543
52.0,0.005253168288618326
56.0,0.004967798478901386
60.0,0.004714563023298979
64.0,0.004495698027312756
72.0,0.0040748086757957935
80.0,0.0038380559999495745
88.0,0.003243410727009177
96.0,0.002759375376626849
104.0,0.0019716115202754736
112.0,0.0010243593715131283
120.0,0.0010989034781232476
128.0,0.0016487111570313573
144.0,0.0009733732440508902
160.0,0.0008403999381698668
176.0,0.0004346872738096863
192.0,-0.0006188600091263652
208.0,-0.00021577486768364906
224.0,0.00012483494356274605
240.0,-0.00021524884505197406
256.0,-0.00015042565064504743
288.0,0.0002855872444342822
320.0,-0.0001082959643099457
352.0,-0.000556937709916383
384.0,-0.00033542653545737267
416.0,-0.0006100768223404884
448.0,-0.0005170102813281119
480.0,-0.0007189649040810764
512.0,-0.0012348010204732418
576.0,-0.0011185285402461886
640.0,-0.0008982867002487183
704.0,-0.0006735179340466857
768.0,0.00022698051179759204
832.0,-0.0003109718090854585
896.0,0.0006976503063924611
960.0,-0.0014935408253222704
1024.0,-0.0015830828342586756
1152.0,-0.0020002331584692
1280.0,-0.001707929652184248
1408.0,-0.0005855748895555735
1536.0,0.0016468762187287211
1664.0,0.0007055875612422824
1792.0,-3.527445005602203e-05
1920.0,5.634592525893822e-05
2048.0,0.0012053661048412323
2304.0,6.139044126030058e-05
2560.0,-0.0004203069256618619
2816.0,0.0002162340097129345
3072.0,0.0004686896863859147
3328.0,-0.000671042304020375
3584.0,-3.989769538748078e-05
3840.0,0.0005055823130533099
4096.0,-0.0005751983262598515
4608.0,0.00010305499017704278
5120.0,-0.0001193882490042597
5632.0,0.0005360635695978999
6144.0,-0.000445587036665529
6656.0,-0.00019801282905973494
7168.0,1.0172634574701078e-05
7680.0,0.0004193359927739948
8192.0,0.00027171781403012574
end
