version,3.0
numOfCh,1
type,point
parent_name,34766_1dot0-1dot0
ch_type,1_1
kcount,1
numberNandB,1
brightnessNandB,1
carpet pos,0
pc,0
Time (ms),CH1 Auto-Correlation
1.0,0.02584965154528618
2.0,0.023643363267183304
3.0,0.021807553246617317
4.0,0.020190700888633728
5.0,0.01874171756207943
6.0,0.017519671469926834
7.0,0.0164125207811594
8.0,0.015385768376290798
9.0,0.014475125819444656
10.0,0.013630813919007778
11.0,0.012873906642198563
12.0,0.012133078649640083
13.0,0.011402583681046963
14.0,0.01075840089470148
15.0,0.010201102122664452
16.0,0.009748264215886593
18.0,0.008906376548111439
20.0,0.008160971105098724
22.0,0.00751185417175293
24.0,0.006823769770562649
26.0,0.006242075935006142
28.0,0.005721655674278736
30.0,0.005336384288966656
32.0,0.005006866063922644
36.0,0.004404737614095211
40.0,0.0037444629706442356
44.0,0.0033384528942406178
48.0,0.003109642770141363
52.0,0.0030640496406704187
56.0,0.003006762359291315
60.0,0.002929038368165493
64.0,0.002784299897029996
72.0,0.0028372991364449263
80.0,0.0019446226069703698
88.0,0.00131220743060112
96.0,0.0012385883601382375
104.0,0.0009572583367116749
112.0,0.0008141404250636697
120.0,0.0008983856532722712
128.0,0.0013135126791894436
144.0,0.0014150184579193592
160.0,0.0012328801676630974
176.0,0.0010583944385871291
192.0,0.0008550204220227897
208.0,0.0004823981726076454
224.0,-0.0001399765897076577
240.0,-0.00012144637730671093
256.0,-0.0006025256589055061
288.0,-0.0007934803725220263
320.0,-0.0006348668248392642
352.0,0.00031946320086717606
384.0,-5.570390203502029e-05
416.0,-0.0006125107756815851
448.0,-0.00078350561670959
480.0,-0.00039600773015990853
512.0,2.4210254196077585e-05
576.0,-0.000676762661896646
640.0,-0.00034733375650830567
704.0,-0.0005285691004246473
768.0,5.828603025292978e-05
832.0,0.00046933782869018614
896.0,0.0010738043347373605
960.0,-0.0007198743987828493
1024.0,6.414784729713574e-05
1152.0,-0.0004169473540969193
1280.0,-0.0008547198958694935
1408.0,-0.00014182316954247653
1536.0,0.0003924836637452245
1664.0,4.419671313371509e-05
1792.0,0.00025958503829315305
1920.0,-0.0007909644627943635
2048.0,0.00027197605231776834
2304.0,0.00024422776186838746
2560.0,0.00021902409207541496
2816.0,-0.0006030621007084846
3072.0,-0.0007324388716369867
3328.0,-0.00013070028217043728
3584.0,0.00014284889039117843
3840.0,0.00041656714165583253
4096.0,-0.0011277126614004374
4608.0,-0.0005623108008876443
5120.0,-1.0428537279949524e-05
5632.0,-0.00013959433999843895
6144.0,-0.0004478521877899766
6656.0,-0.000543472298886627
7168.0,0.0002826054987963289
7680.0,0.0006477595306932926
8192.0,1.5053073184390087e-05
end
