version,3.0
numOfCh,1
type,point
parent_name,34766_1dot0-1dot0
ch_type,1_1
kcount,1
numberNandB,1
brightnessNandB,1
carpet pos,0
pc,0
Time (ms),CH1 Auto-Correlation
1.0,0.02739664539694786
2.0,0.025167470797896385
3.0,0.02325664460659027
4.0,0.021558916196227074
5.0,0.020065275952219963
6.0,0.01880054362118244
7.0,0.01773076504468918
8.0,0.016788223758339882
9.0,0.015969449654221535
10.0,0.015228189527988434
11.0,0.014541986398398876
12.0,0.013875128701329231
13.0,0.013225218281149864
14.0,0.012640093453228474
15.0,0.012129679322242737
16.0,0.011638835072517395
18.0,0.010624131187796593
20.0,0.00982366781681776
22.0,0.009199973195791245
24.0,0.00863844808191061
26.0,0.00837472453713417
28.0,0.008128826506435871
30.0,0.007961809635162354
32.0,0.007627465296536684
36.0,0.006998913362622261
40.0,0.006677305791527033
44.0,0.006447238847613335
48.0,0.005960721522569656
52.0,0.005589461885392666
56.0,0.005068811122328043
60.0,0.004621890839189291
64.0,0.004350902512669563
72.0,0.003570183180272579
80.0,0.002845937618985772
88.0,0.002411095192655921
96.0,0.002336838049814105
104.0,0.002364174462854862
112.0,0.002242285292595625
120.0,0.0017290046671405435
128.0,0.001537468982860446
144.0,0.0016156455967575312
160.0,0.001520817750133574
176.0,0.001833059242926538
192.0,0.001794671406969428
208.0,0.0015745700802654028
224.0,0.0017819720087572932
240.0,0.0019023710628971457
256.0,0.001566718565300107
288.0,0.0017959179822355509
320.0,0.002025763737037778
352.0,0.0005801810184493661
384.0,0.0005673150299116969
416.0,0.0008009555167518556
448.0,0.0005499787512235343
480.0,0.00015913356037344784
512.0,-0.0003661715018097311
576.0,-0.00038842030335217714
640.0,-0.0007896556635387242
704.0,-0.0014626218471676111
768.0,-0.0012352537596598268
832.0,-0.000993278343230486
896.0,-0.0008467466686852276
960.0,-0.000731803011149168
1024.0,-0.0010924136731773615
1152.0,-0.00013129370927345008
1280.0,-9.819140541367233e-05
1408.0,-0.00013203361595515162
1536.0,0.0004793177649844438
1664.0,-0.0008173426031135023
1792.0,0.00018019170965999365
1920.0,-0.001797927776351571
2048.0,-0.0004784350749105215
2304.0,-0.00044020963832736015
2560.0,0.0006375997909344733
2816.0,0.0010930605931207538
3072.0,0.0005336382891982794
3328.0,2.1998534066369757e-05
3584.0,0.0004413509741425514
3840.0,-0.0005578544805757701
4096.0,-0.0006413141381926835
4608.0,-0.000499543733894825
5120.0,0.0003681780945044011
5632.0,0.0006731617031618953
6144.0,0.0010954518802464008
6656.0,-0.00014176947297528386
7168.0,-0.0010274510132148862
7680.0,-8.354558667633682e-05
8192.0,-0.00018520750745665282
end
