version,3.0
numOfCh,1
type,point
parent_name,34766_1dot0-1dot0
ch_type,1_1
kcount,1
numberNandB,1
brightnessNandB,1
carpet pos,0
pc,0
Time (ms),CH1 Auto-Correlation
1.0,0.026768337935209274
2.0,0.024554314091801643
3.0,0.022802570834755898
4.0,0.02130330167710781
5.0,0.019958479329943657
6.0,0.018832659348845482
7.0,0.017802156507968903
8.0,0.01692141406238079
9.0,0.01612808182835579
10.0,0.01545928418636322
11.0,0.01476285606622696
12.0,0.014138263650238514
13.0,0.013541627675294876
14.0,0.013042055070400238
15.0,0.01262479368597269
16.0,0.012221764773130417
18.0,0.011533304117619991
20.0,0.010855930857360363
22.0,0.010130973532795906
24.0,0.009541049599647522
26.0,0.00902144331485033
28.0,0.008454197086393833
30.0,0.007928614504635334
32.0,0.007425906602293253
36.0,0.006614444311708212
40.0,0.006035115569829941
44.0,0.00549736525863409
48.0,0.004983322229236364
52.0,0.004671198781579733
56.0,0.004674644209444523
60.0,0.004742741584777832
64.0,0.0046125720255076885
72.0,0.004028598312288523
80.0,0.003687420394271612
88.0,0.0036893985234200954
96.0,0.003845349419862032
104.0,0.003874272108078003
112.0,0.0036804331466555595
120.0,0.003931792918592691
128.0,0.003948062192648649
144.0,0.003014884889125824
160.0,0.002465295372530818
176.0,0.0013818133156746626
192.0,0.0009285794803872705
208.0,0.00014171765360515565
224.0,3.528896559146233e-05
240.0,-0.0006332864286378026
256.0,-7.584911509184167e-05
288.0,-0.00021107007341925055
320.0,-0.0007917287875898182
352.0,0.00016569143917877227
384.0,0.0005671257385984063
416.0,0.0015551954274997115
448.0,0.00115107127930969
480.0,-7.985826960066333e-05
512.0,-0.00018651990103535354
576.0,-0.00016401289030909538
640.0,-0.002646810607984662
704.0,-0.0027529692742973566
768.0,-0.003514443524181843
832.0,-0.002713538473471999
896.0,-0.000978239462710917
960.0,-8.002119284356013e-05
1024.0,0.00017116697563324124
1152.0,-0.0016621251124888659
1280.0,-0.0006106894579716027
1408.0,-0.00044118144433014095
1536.0,0.00018904537137132138
1664.0,0.00036639184691011906
1792.0,0.0005049380706623197
1920.0,0.001426836010068655
2048.0,0.0017957614036276937
2304.0,-0.0003879078140016645
2560.0,0.00032074993941932917
2816.0,-0.0002098129625665024
3072.0,-5.379420144890901e-06
3328.0,-0.0007564469706267118
3584.0,-0.001368473400361836
3840.0,-0.0018998441519215703
4096.0,0.0002511109923943877
4608.0,0.0009751773905009031
5120.0,-0.0002107265463564545
5632.0,-0.0012435128446668386
6144.0,-0.000526458490639925
6656.0,0.0009066748316399753
7168.0,0.0012756776995956898
7680.0,-0.0009740076493471861
8192.0,-0.0008170683868229389
end
