version,3.0
numOfCh,1
type,point
parent_name,34766_1dot0-1dot0
ch_type,1_1
kcount,1
numberNandB,1
brightnessNandB,1
carpet pos,0
pc,0
Time (ms),CH1 Auto-Correlation
1.0,0.027790546417236328
2.0,0.025407699868083
3.0,0.023474087938666344
4.0,0.02173340693116188
5.0,0.020230580121278763
6.0,0.01885317452251911
7.0,0.01768939569592476
8.0,0.01665792427957058
9.0,0.01572180911898613
10.0,0.014948518946766853
11.0,0.014180026017129421
12.0,0.01350611075758934
13.0,0.0128783555701375
14.0,0.012301395647227764
15.0,0.011727658100426197
16.0,0.011178521439433098
18.0,0.01038854569196701
20.0,0.009748274460434914
22.0,0.009094388224184513
24.0,0.008619329892098904
26.0,0.008153622038662434
28.0,0.007675488013774157
30.0,0.0071943048387765884
32.0,0.006884319242089987
36.0,0.006256104446947575
40.0,0.00576513446867466
44.0,0.0053766281343996525
48.0,0.004927970934659243
52.0,0.0043638525530695915
56.0,0.003733135061338544
60.0,0.003269903128966689
64.0,0.0031469727400690317
72.0,0.0029349408578127623
80.0,0.0021147478837519884
88.0,0.0013420284958556294
96.0,0.0010042740032076836
104.0,0.0013973728055134416
112.0,0.0011507351882755756
120.0,0.000978418393060565
128.0,0.0015418826369568706
144.0,0.0018700306536629796
160.0,0.001506488537415862
176.0,0.0013175280764698982
192.0,0.001337043009698391
208.0,0.0012793614296242595
224.0,0.0006697414792142808
240.0,0.0010465147206559777
256.0,0.0014968706527724862
288.0,0.0013271960197016597
320.0,0.001090432982891798
352.0,0.000736288377083838
384.0,-0.0004114845651201904
416.0,-0.0002405831473879516
448.0,8.092910138657317e-05
480.0,-0.00013528043928090483
512.0,0.0005417437641881406
576.0,4.75491578981746e-05
640.0,-0.0004718621203210205
704.0,0.0003071059181820601
768.0,-0.0002715568698477
832.0,-0.0009474951075389981
896.0,-0.0024399706162512302
960.0,-0.0020995819941163063
1024.0,-0.0013231470948085189
1152.0,-0.0012772456975653768
1280.0,-0.001186624402180314
1408.0,0.000390171364415437
1536.0,-0.0005346827674657106
1664.0,0.0013038897886872292
1792.0,0.0011024511186406016
1920.0,-7.971013837959617e-05
2048.0,0.00042035887599922717
2304.0,0.00020817200129386038
2560.0,0.0003038264694623649
2816.0,-8.849162986734882e-05
3072.0,-2.0575134840328246e-05
3328.0,-0.00045026070438325405
3584.0,0.0003526996588334441
3840.0,-0.000535067985765636
4096.0,-0.00034948077518492937
4608.0,-0.0004945097025483847
5120.0,2.261992085550446e-05
5632.0,-0.00018470139184501022
6144.0,0.0005512945936061442
6656.0,-0.0008780360221862793
7168.0,-0.0002857729559764266
7680.0,0.0009502927423454821
8192.0,-0.000653315510135144
end
