version,3.0
numOfCh,1
type,point
parent_name,34766_1dot0-1dot0
ch_type,1_1
kcount,1
numberNandB,1
brightnessNandB,1
carpet pos,0
pc,0
Time (ms),CH1 Auto-Correlation
1.0,0.02630656398832798
2.0,0.024054277688264847
3.0,0.022133484482765198
4.0,0.02044290117919445
5.0,0.0190157201141119
6.0,0.01778155006468296
7.0,0.01669592782855034
8.0,0.01573539525270462
9.0,0.014873315580189228
10.0,0.014165578410029411
11.0,0.013448375277221203
12.0,0.012745257467031479
13.0,0.012133019976317883
14.0,0.011597435921430588
15.0,0.011119292117655277
16.0,0.010637993924319744
18.0,0.009823436848819256
20.0,0.009160378016531467
22.0,0.008498220704495907
24.0,0.007916370406746864
26.0,0.007566452492028475
28.0,0.007288352586328983
30.0,0.007002712693065405
32.0,0.006813967600464821
36.0,0.006506355479359627
40.0,0.006359514314681292
44.0,0.006210751365870237
48.0,0.00608796114102006
52.0,0.005663224030286074
56.0,0.005224849563091993
60.0,0.004800338763743639
64.0,0.0043236627243459225
72.0,0.003225219901651144
80.0,0.003167971270158887
88.0,0.0035969819873571396
96.0,0.003586176782846451
104.0,0.0034126637037843466
112.0,0.003295508911833167
120.0,0.003309774212539196
128.0,0.002877778373658657
144.0,0.002417183481156826
160.0,0.002004791283980012
176.0,0.001346947392448783
192.0,0.0022548057604581118
208.0,0.00217550084926188
224.0,0.001807602820917964
240.0,0.0022575475741177797
256.0,0.0023999332915991545
288.0,0.001597671420313418
320.0,0.0018882319563999772
352.0,0.0030509575735777617
384.0,0.0015013968804851174
416.0,0.0011387148406356573
448.0,0.001974916784092784
480.0,0.0013929303968325257
512.0,0.001397398766130209
576.0,0.0007888920954428613
640.0,0.0009368124301545322
704.0,-0.0006011604564264417
768.0,-0.0007787214126437902
832.0,-0.0005194480763748288
896.0,-0.0002768903796095401
960.0,-0.00067362398840487
1024.0,-0.0007848140085116029
1152.0,-0.0005642385804094374
1280.0,-0.00035245553590357304
1408.0,-0.0005677143926732242
1536.0,-0.0006381681305356324
1664.0,-0.000504692958202213
1792.0,-0.0002388386201346293
1920.0,0.0007201429107226431
2048.0,-0.00023192813387140632
2304.0,7.247020403156057e-05
2560.0,0.0005103726289235055
2816.0,-0.0003691718156915158
3072.0,-0.001107622985728085
3328.0,-0.0017044508131220937
3584.0,-0.0019618121441453695
3840.0,-0.0009261953528039157
4096.0,-0.0008145611500367522
4608.0,-0.0018087762873619795
5120.0,-0.0007866424857638776
5632.0,0.0002639806771185249
6144.0,0.0012477545533329248
6656.0,0.0011486397124826908
7168.0,0.001297788112424314
7680.0,0.00014774473675061017
8192.0,0.0011814519530162215
end
