version,3.0
numOfCh,1
type,point
parent_name,34766_1dot0-1dot0
ch_type,1_1
kcount,1
numberNandB,1
brightnessNandB,1
carpet pos,0
pc,0
Time (ms),CH1 Auto-Correlation
1.0,0.027489906176924706
2.0,0.025290902704000473
3.0,0.023356635123491287
4.0,0.02169753983616829
5.0,0.02025952748954296
6.0,0.019007990136742592
7.0,0.017848243936896324
8.0,0.01679491251707077
9.0,0.01587240770459175
10.0,0.01502991747111082
11.0,0.014384175650775433
12.0,0.013774888589978218
13.0,0.013186155818402767
14.0,0.012660808861255646
15.0,0.012116063386201859
16.0,0.011595808900892735
18.0,0.01076569128781557
20.0,0.010122423060238361
22.0,0.009626316837966442
24.0,0.00912994984537363
26.0,0.008614861406385899
28.0,0.00805591605603695
30.0,0.007632560562342405
32.0,0.0073013268411159515
36.0,0.0065468112006783485
40.0,0.005857330281287432
44.0,0.005255650728940964
48.0,0.004690392874181271
52.0,0.004319308325648308
56.0,0.0040770904161036015
60.0,0.003821059362962842
64.0,0.00353758642449975
72.0,0.002666248707100749
80.0,0.0018641313072293997
88.0,0.001604466582648456
96.0,0.0015635696472600102
104.0,0.001648704637773335
112.0,0.0015021262224763632
120.0,0.0015488927019760013
128.0,0.00150160095654428
144.0,0.00182691914960742
160.0,0.0010717124678194523
176.0,0.00035573617788031697
192.0,0.00025599999935366213
208.0,0.0002016803773585707
224.0,0.00039553819806315005
240.0,0.0012808331521227956
256.0,0.0009064244222827256
288.0,0.00045325871906243265
320.0,0.0004778090806212276
352.0,0.0020713459234684706
384.0,0.002967898268252611
416.0,0.0019982969388365746
448.0,0.001971313264220953
480.0,0.0017093648202717304
512.0,0.001203331514261663
576.0,-3.906058918801136e-05
640.0,0.000883738393895328
704.0,0.0011442048707976937
768.0,0.0005192794487811625
832.0,0.00187060353346169
896.0,0.0012617892352864146
960.0,0.0019210317404940724
1024.0,0.0013748060446232557
1152.0,0.00023746065562590957
1280.0,0.0002869617601390928
1408.0,-8.190047083189711e-05
1536.0,0.0005443190457299352
1664.0,-0.0009893383830785751
1792.0,-0.0005424850969575346
1920.0,1.43661864058231e-05
2048.0,-0.0017532494384795427
2304.0,-0.00070590665563941
2560.0,-0.0001925545948324725
2816.0,-0.0004817978187929839
3072.0,-0.001022827927954495
3328.0,-0.0002560393768362701
3584.0,0.00020254531409591436
3840.0,0.0007929957937449217
4096.0,0.00024276453768834472
4608.0,0.0009678694768808782
5120.0,0.0003176060854457319
5632.0,6.35879478068091e-05
6144.0,-0.0008821532246656716
6656.0,-0.0017281738109886646
7168.0,-0.0015778483357280493
7680.0,-0.0019855517894029617
8192.0,-0.0011291812406852841
end
