version,3.0
numOfCh,1
type,point
parent_name,34766_1dot0-1dot0
ch_type,1_1
kcount,1
numberNandB,1
brightnessNandB,1
carpet pos,0
pc,0
Time (ms),CH1 Auto-Correlation
1.0,0.026002958416938782
2.0,0.02379218302667141
3.0,0.021981829777359962
4.0,0.0204412080347538
5.0,0.019020909443497658
6.0,0.01776527613401413
7.0,0.016587328165769577
8.0,0.01550350897014141
9.0,0.0145882498472929
10.0,0.01376518327742815
11.0,0.013038023374974728
12.0,0.01234979834407568
13.0,0.011687560938298702
14.0,0.011176662519574165
15.0,0.010681592859327793
16.0,0.010273647494614124
18.0,0.009543260559439659
20.0,0.008920412510633469
22.0,0.008437291719019413
24.0,0.007991386577486992
26.0,0.00749529292806983
28.0,0.007066394668072462
30.0,0.006658468395471573
32.0,0.006283820141106844
36.0,0.0053384434431791306
40.0,0.004743383731693029
44.0,0.004259543027728796
48.0,0.003850494511425495
52.0,0.0036014853976666927
56.0,0.003475232282653451
60.0,0.0033691953867673874
64.0,0.0033744622487574816
72.0,0.0027766895946115255
80.0,0.0021318141371011734
88.0,0.0018356968648731709
96.0,0.001483111409470439
104.0,0.001510850852355361
112.0,0.001385574578307569
120.0,0.0011736752931028605
128.0,0.0009047070634551346
144.0,0.0002485177537892014
160.0,0.0006072065443731844
176.0,0.000488354591652751
192.0,-0.00028790958458557725
208.0,-0.0009110689861699939
224.0,-0.0007834332645870745
240.0,0.00019519308989401907
256.0,0.0009459461434744298
288.0,0.0005447524599730968
320.0,0.00015767797594889998
352.0,-0.0002558465057518333
384.0,-0.0009640613570809364
416.0,-0.0009252685704268515
448.0,-0.0012878759298473597
480.0,-0.001313012558966875
512.0,-0.0010620320681482553
576.0,-0.000746140256524086
640.0,-0.0002776970504783094
704.0,0.001168923918157816
768.0,-0.00029704050393775105
832.0,-3.7285284633981064e-05
896.0,0.0007442738278768957
960.0,0.0010577347129583359
1024.0,0.00081756612053141
1152.0,0.00036848531453870237
1280.0,-0.0008048388990573585
1408.0,-0.00042017389205284417
1536.0,-0.0009769845055416226
1664.0,0.00031472748378291726
1792.0,0.0003669357392936945
1920.0,0.0008841981762088835
2048.0,0.0003241501108277589
2304.0,-0.000341186037985608
2560.0,-0.0009477406274527311
2816.0,0.0006885103066451848
3072.0,0.0005662433104589581
3328.0,-0.0007924718083813787
3584.0,-0.00048348071868531406
3840.0,0.0008069456671364605
4096.0,-0.00047271695802919567
4608.0,4.621862535714172e-05
5120.0,-0.00047270464710891247
5632.0,-3.940885653719306e-05
6144.0,0.00010309929348295555
6656.0,-1.924482967297081e-05
7168.0,-0.0001493080926593393
7680.0,0.00016143437824212015
8192.0,-0.00043615116737782955
end
