version,3.0
numOfCh,1
type,point
parent_name,34766_1dot0-1dot0
ch_type,1_1
kcount,1
numberNandB,1
brightnessNandB,1
carpet pos,0
pc,0
Time (ms),CH1 Auto-Correlation
1.0,0.026347452774643898
2.0,0.024182772263884544
3.0,0.02229226753115654
4.0,0.020625945180654526
5.0,0.01917632482945919
6.0,0.017873991280794144
7.0,0.016667351126670837
8.0,0.0156736820936203
9.0,0.014821547083556652
10.0,0.014006761834025383
11.0,0.013288245536386967
12.0,0.012647884897887707
13.0,0.012055881321430206
14.0,0.01151581946760416
15.0,0.011034494265913963
16.0,0.010563820600509644
18.0,0.009723729453980923
20.0,0.008915424346923828
22.0,0.008238278329372406
24.0,0.007643422577530146
26.0,0.007074515335261822
28.0,0.0066606332547962666
30.0,0.006292564328759909
32.0,0.005965218413621187
36.0,0.0054319328628480434
40.0,0.004968823865056038
44.0,0.004278491251170635
48.0,0.0036712749861180782
52.0,0.003427920863032341
56.0,0.0029605787713080645
60.0,0.0026931134052574635
64.0,0.002513545099645853
72.0,0.002361793303862214
80.0,0.0023141452111303806
88.0,0.0016934701707214117
96.0,0.0017412620363757014
104.0,0.0019456676673144102
112.0,0.002326020272448659
120.0,0.0023844875395298004
128.0,0.0022771453950554132
144.0,0.0022996379993855953
160.0,0.0020306711085140705
176.0,0.0022798895370215178
192.0,0.00222997204400599
208.0,0.002508734818547964
224.0,0.0018194993026554585
240.0,0.001099298824556172
256.0,0.0005618847208097577
288.0,6.434285023715347e-05
320.0,0.0010577526409178972
352.0,0.0012473722454160452
384.0,-0.0006990739493630826
416.0,-0.00016006096848286688
448.0,0.0002960152633022517
480.0,0.0005360465147532523
512.0,-0.0005659668822772801
576.0,0.00037393203820101917
640.0,8.434348274022341e-05
704.0,-0.00038165852311067283
768.0,0.0006759780226275325
832.0,-0.00025110418209806085
896.0,0.001191418501548469
960.0,0.0007606939179822803
1024.0,-0.0012702480889856815
1152.0,0.00018310190353076905
1280.0,0.0009746900177560747
1408.0,-0.00023730714747216552
1536.0,-0.0009650359279476106
1664.0,-0.0005774337332695723
1792.0,-0.0004876163729932159
1920.0,-0.0011611974332481623
2048.0,-0.0014981729909777641
2304.0,-0.0017688805237412453
2560.0,-0.0016775022959336638
2816.0,-0.00048521196004003286
3072.0,-5.323223740560934e-05
3328.0,0.00029190044733695686
3584.0,0.001267654704861343
3840.0,-9.005214815260842e-05
4096.0,0.0007913599838502705
4608.0,0.001405254821293056
5120.0,0.0008917807135730982
5632.0,-0.0012941636377945542
6144.0,-0.0011334795271977782
6656.0,-0.0014711912954226136
7168.0,-0.0010850379476323724
7680.0,0.00011997677938779816
8192.0,0.0009943385375663638
end
