version,3.0
numOfCh,1
type,point
parent_name,19e3e_3dot0-0dot01
ch_type,1_1
kcount,1
numberNandB,1
brightnessNandB,1
carpet pos,0
pc,0
Time (ms),CH1 Auto-Correlation
1.0,0.02521878108382225
2.0,0.020612822845578194
3.0,0.017388779670000076
4.0,0.014848785474896431
5.0,0.012943193316459656
6.0,0.011472602374851704
7.0,0.010326113551855087
8.0,0.009221764281392097
9.0,0.008347899653017521
10.0,0.007557071279734373
11.0,0.006911920383572578
12.0,0.006376852747052908
13.0,0.0058398162946105
14.0,0.00542545598000288
15.0,0.00518484553322196
16.0,0.005026347003877163
18.0,0.00470831198617816
20.0,0.004329172894358635
22.0,0.004152452573180199
24.0,0.003801514860242605
26.0,0.0032697871793061495
28.0,0.002913657110184431
30.0,0.002420729724690318
32.0,0.001881742267869413
36.0,0.0014750767732039094
40.0,0.0010100147919729352
44.0,0.0006496397545561194
48.0,0.0006449915235862136
52.0,0.0004848855023737997
56.0,0.0006558097084052861
60.0,0.0005206857458688319
64.0,0.0005578913260251284
72.0,0.000784409639891237
80.0,0.0005254802526906133
88.0,0.0001741910818964243
96.0,-6.16903998889029e-05
104.0,0.00019783656171057373
112.0,-0.0007277106633409858
120.0,-0.0006958757876418531
128.0,-0.0001917728950502351
144.0,1.4167903827910777e-05
160.0,0.0003012861998286098
176.0,0.0007980572991073132
192.0,0.0012991572730243206
208.0,0.0008306718082167208
224.0,0.0011029236484318972
240.0,0.0014101212145760655
256.0,0.000701608310919255
288.0,0.00012689926370512694
320.0,0.0007725054165348411
352.0,0.0007462504436261952
384.0,-4.618112507159822e-05
416.0,-3.5027369449380785e-05
448.0,6.506275531137362e-05
480.0,-0.00017764639051165432
512.0,-0.0004924017703160644
576.0,-0.00023169453197624534
640.0,0.00037545067607425153
704.0,0.00020765377848874778
768.0,-0.000496120541356504
832.0,-0.00028430670499801636
896.0,0.00031669961754232645
960.0,-8.602302841609344e-05
1024.0,1.5002096915850416e-05
1152.0,-7.307567284442484e-05
1280.0,0.0004469184495974332
1408.0,0.0002493599313311279
1536.0,0.0002265660441480577
1664.0,0.0006656026816926897
1792.0,-0.0002661004546098411
1920.0,0.0004227828176226467
2048.0,-0.0004661069833673537
2304.0,-0.0003210855647921562
2560.0,-0.00034611517912708223
2816.0,4.609273673850112e-05
3072.0,-0.00010709585330914706
3328.0,-0.00012779806274920702
3584.0,4.742756937048398e-05
3840.0,9.697065979707986e-05
4096.0,-0.0005897362716495991
4608.0,-6.998850585659966e-05
5120.0,0.00038471061270684004
5632.0,2.6704195988713764e-05
6144.0,-0.00019832207181025296
6656.0,0.00033045397140085697
7168.0,3.2035718504630495e-06
7680.0,-0.0004696622199844569
8192.0,-3.190500501659699e-05
end
