version,3.0
numOfCh,1
type,point
parent_name,19e3e_3dot0-0dot01
ch_type,1_1
kcount,1
numberNandB,1
brightnessNandB,1
carpet pos,0
pc,0
Time (ms),CH1 Auto-Correlation
1.0,0.031064581125974655
2.0,0.026260534301400185
3.0,0.022720925509929657
4.0,0.020035702735185623
5.0,0.01798108033835888
6.0,0.016109459102153778
7.0,0.014717044308781624
8.0,0.013634552247822285
9.0,0.012782738544046879
10.0,0.01210560742765665
11.0,0.011590182781219482
12.0,0.010945447720587254
13.0,0.010457075200974941
14.0,0.009871664457023144
15.0,0.00949642714112997
16.0,0.009212409146130085
18.0,0.008604643866419792
20.0,0.00804286077618599
22.0,0.007546895649284124
24.0,0.0070878262631595135
26.0,0.006597815081477165
28.0,0.0060732560232281685
30.0,0.005990014411509037
32.0,0.005877972114831209
36.0,0.005872250534594059
40.0,0.005214881617575884
44.0,0.004677759949117899
48.0,0.004404551815241575
52.0,0.004471463151276112
56.0,0.004176863934844732
60.0,0.004321505781263113
64.0,0.003943982999771833
72.0,0.004071211442351341
80.0,0.003996601793915033
88.0,0.004069287795573473
96.0,0.004668222274631262
104.0,0.0037284460850059986
112.0,0.0026728149969130754
120.0,0.0024669338017702103
128.0,0.002590001793578267
144.0,0.0025387105997651815
160.0,0.0019518827321007848
176.0,0.001017377246171236
192.0,0.0009455923573113978
208.0,0.0009666969417594373
224.0,0.0013543970417231321
240.0,0.0013119842624291778
256.0,0.0012571801198646426
288.0,0.0014153459342196584
320.0,0.0014617035631090403
352.0,0.001633787527680397
384.0,0.0011247757356613874
416.0,0.0008897940861061215
448.0,0.00025046488735824823
480.0,0.00017493113409727812
512.0,0.0005419777007773519
576.0,0.0008468095329590142
640.0,0.0005294191068969667
704.0,0.0011672495165839791
768.0,0.0007748245843686163
832.0,0.0006103304331190884
896.0,0.0012127376394346356
960.0,0.00095643155509606
1024.0,-0.00014516052033286542
1152.0,0.00016371041419915855
1280.0,3.826040119747631e-05
1408.0,5.189224975765683e-05
1536.0,0.0011277728481218219
1664.0,0.0013443517964333296
1792.0,0.00025986452237702906
1920.0,0.0010986471315845847
2048.0,0.0010593747720122337
2304.0,0.0007964010583236814
2560.0,-0.000406584091251716
2816.0,-0.0010538678616285324
3072.0,-0.0009070085943676531
3328.0,-0.0007917470647953451
3584.0,-0.00023327171220444143
3840.0,0.000755065237171948
4096.0,-0.0004688749904744327
4608.0,-0.00036555202677845955
5120.0,-0.0008856775239109993
5632.0,-0.0008930171607062221
6144.0,-0.000786848075222224
6656.0,-0.001003284240141511
7168.0,-0.0009895636467263103
7680.0,-0.0010717997793108225
8192.0,0.0004256948013789952
end
