version,3.0
numOfCh,1
type,point
parent_name,19e3e_3dot0-0dot01
ch_type,1_1
kcount,1
numberNandB,1
brightnessNandB,1
carpet pos,0
pc,0
Time (ms),CH1 Auto-Correlation
1.0,0.02939881756901741
2.0,0.024549411609768867
3.0,0.021243173629045486
4.0,0.01883663982152939
5.0,0.016880154609680176
6.0,0.015526731498539448
7.0,0.014343373477458954
8.0,0.013200163841247559
9.0,0.01217541005462408
10.0,0.011311721056699753
11.0,0.010418624617159367
12.0,0.009809853509068489
13.0,0.009262867271900177
14.0,0.008757591247558594
15.0,0.008229036815464497
16.0,0.007945943623781204
18.0,0.007457629311829805
20.0,0.007134757936000824
22.0,0.006546863354742527
24.0,0.005948862060904503
26.0,0.0054421136155724525
28.0,0.005233256611973047
30.0,0.004989038221538067
32.0,0.00467626191675663
36.0,0.004188080318272114
40.0,0.0041063507087528706
44.0,0.0040396349504590034
48.0,0.00369222997687757
52.0,0.0036066067405045033
56.0,0.003109885146841407
60.0,0.003014188725501299
64.0,0.0025559901259839535
72.0,0.002178237773478031
80.0,0.00188252585940063
88.0,0.001734450226649642
96.0,0.0026958819944411516
104.0,0.003236012300476432
112.0,0.002553258091211319
120.0,0.0016462324419990182
128.0,0.0019423464545980096
144.0,0.0015333135379478335
160.0,0.0004888342809863389
176.0,-6.79837103234604e-05
192.0,0.00020805383974220604
208.0,0.0010076576145365834
224.0,0.0004737180715892464
240.0,0.0010576894273981452
256.0,0.0012467505875974894
288.0,0.0006667846464551985
320.0,-3.8284917536657304e-05
352.0,-0.0007915653986856341
384.0,0.0003028824576176703
416.0,0.0008611699449829757
448.0,-0.000658593897242099
480.0,-0.0012308894656598568
512.0,-0.0003813360526692122
576.0,-0.0011677974835038185
640.0,-0.0006352617056109011
704.0,-0.0009752294863574207
768.0,-0.0006544599309563637
832.0,0.0004175427893642336
896.0,-0.00019009232346434146
960.0,-0.00019422076002229005
1024.0,-0.0009231333970092237
1152.0,-0.00018920002912636846
1280.0,0.00046375705278478563
1408.0,-3.78024997189641e-05
1536.0,0.0005474500940181315
1664.0,0.0009076164569705725
1792.0,7.214905053842813e-05
1920.0,-0.000554690312128514
2048.0,0.0004345458000898361
2304.0,0.0003620793577283621
2560.0,0.00031395131372846663
2816.0,0.0014361725188791752
3072.0,0.00022565142717212439
3328.0,-0.0006278367945924401
3584.0,-0.0008428661385551095
3840.0,-0.0011305158259347081
4096.0,0.0001281506847590208
4608.0,-8.476460789097473e-05
5120.0,-0.00023614594829268754
5632.0,0.00012721715029329062
6144.0,-0.0013347991043701768
6656.0,-0.0005047030281275511
7168.0,0.0007316136034205556
7680.0,6.567023956449702e-05
8192.0,-0.0008777477778494358
end
