version,3.0
numOfCh,1
type,point
parent_name,19e3e_3dot0-0dot01
ch_type,1_1
kcount,1
numberNandB,1
brightnessNandB,1
carpet pos,0
pc,0
Time (ms),CH1 Auto-Correlation
1.0,0.027091216295957565
2.0,0.02209707535803318
3.0,0.018552618101239204
4.0,0.01587587781250477
5.0,0.013854839839041233
6.0,0.01225471030920744
7.0,0.011014699004590511
8.0,0.00993744283914566
9.0,0.009095355868339539
10.0,0.008372972719371319
11.0,0.0077291615307331085
12.0,0.007196982856839895
13.0,0.006557914428412914
14.0,0.006053183227777481
15.0,0.0057165352627635
16.0,0.005445743445307016
18.0,0.005210351664572954
20.0,0.005001516547054052
22.0,0.00493144104257226
24.0,0.00493284547701478
26.0,0.004754462279379368
28.0,0.004722199868410826
30.0,0.00438249297440052
32.0,0.0038809804245829582
36.0,0.002808088669553399
40.0,0.002105044899508357
44.0,0.001925283926539123
48.0,0.0016491069691255689
52.0,0.00183784996625036
56.0,0.0018304673722013831
60.0,0.0014811218716204166
64.0,0.0009501950116828084
72.0,0.0010564359836280346
80.0,0.001107519376091659
88.0,0.0010082634398713708
96.0,0.0006304170237854123
104.0,0.00033620238536968827
112.0,0.001166455796919763
120.0,0.0007259461563080549
128.0,2.386938467680011e-05
144.0,-4.896273458143696e-05
160.0,5.333389708539471e-05
176.0,-0.0007492679869756103
192.0,-0.0005683298222720623
208.0,-0.0003954195708502084
224.0,-0.0002955973905045539
240.0,-0.0006647148402407765
256.0,-0.0007608135929331183
288.0,-0.0005355885368771851
320.0,-0.0008695704746060073
352.0,-0.0001332262036157772
384.0,0.00017367990221828222
416.0,-0.0005740472697652876
448.0,-0.0008500720141455531
480.0,-0.0002524826268199831
512.0,0.0005907880258746445
576.0,-3.2842846849234775e-05
640.0,-0.0005684521747753024
704.0,0.0001954634062713012
768.0,0.0010769327636808157
832.0,0.001108219032175839
896.0,-0.00028493290301412344
960.0,-0.00028174842009320855
1024.0,-0.0008390111033804715
1152.0,-0.0007283500744961202
1280.0,-0.00025795167312026024
1408.0,0.0006143542705103755
1536.0,0.0005326081300154328
1664.0,5.537308970815502e-05
1792.0,-0.00012601009802892804
1920.0,-0.0004301478620618582
2048.0,-0.0004928652779199183
2304.0,0.00033139658626168966
2560.0,-0.0005323269288055599
2816.0,-0.000504949246533215
3072.0,0.0002009942108998075
3328.0,-0.000510167155880481
3584.0,9.82703932095319e-05
3840.0,8.23145001049852e-06
4096.0,-7.16948343324475e-05
4608.0,0.00038464315002784133
5120.0,0.00016323411546181887
5632.0,6.205090903677046e-05
6144.0,0.00031856048735789955
6656.0,-8.572459591960069e-06
7168.0,-0.00030297893681563437
7680.0,-0.00044003932271152735
8192.0,0.00017967057647183537
end
