version,3.0
numOfCh,1
type,point
parent_name,19e3e_3dot0-0dot01
ch_type,1_1
kcount,1
numberNandB,1
brightnessNandB,1
carpet pos,0
pc,0
Time (ms),CH1 Auto-Correlation
1.0,0.028875280171632767
2.0,0.023877907544374466
3.0,0.020278403535485268
4.0,0.01759069412946701
5.0,0.015702567994594574
6.0,0.014206754975020885
7.0,0.01302351150661707
8.0,0.012032724916934967
9.0,0.011012534610927105
10.0,0.009975203312933445
11.0,0.009103691205382347
12.0,0.008346080780029297
13.0,0.00783940777182579
14.0,0.00727685634046793
15.0,0.006868998985737562
16.0,0.006550073157995939
18.0,0.0059168837033212185
20.0,0.005456844344735146
22.0,0.005042233970016241
24.0,0.004573536571115255
26.0,0.003991793375462294
28.0,0.0035748633090406656
30.0,0.003421780886128545
32.0,0.0032514906488358974
36.0,0.003177511738613248
40.0,0.003186517860740423
44.0,0.003084182972088456
48.0,0.003324207616969943
52.0,0.002651521936058998
56.0,0.0021339966915547848
60.0,0.001375223626382649
64.0,0.0011633146787062287
72.0,0.0007738733547739685
80.0,0.00035663702874444425
88.0,0.0008399694925174117
96.0,0.0005545178428292274
104.0,0.00020508994930423796
112.0,5.152011726750061e-05
120.0,-0.0002023916458711028
128.0,-0.00027624116046354175
144.0,-0.0007081149378791451
160.0,-0.0008630533120594919
176.0,-0.00047501758672297
192.0,-0.00011734705185517669
208.0,-0.00013548709102906287
224.0,-0.0005489567993208766
240.0,-0.00044350899406708777
256.0,2.47491570917191e-05
288.0,-6.1934937548358e-05
320.0,-0.0004792481486219913
352.0,-0.0007295074756257236
384.0,-0.0007918421179056168
416.0,5.38287204108201e-05
448.0,0.000680610362906009
480.0,-7.125936099328101e-05
512.0,0.0001652721839491278
576.0,-0.0004586656577885151
640.0,5.3524901886703447e-05
704.0,-0.0006304702837951481
768.0,0.0006793948705308139
832.0,0.00041887719999067485
896.0,0.0007301922887563705
960.0,0.0003039412840735167
1024.0,-0.0006099299062043428
1152.0,-1.441676158719929e-05
1280.0,1.745047302392777e-05
1408.0,0.0008068238385021687
1536.0,-0.0006935258279554546
1664.0,-0.0005971154314465821
1792.0,0.00014513396308757365
1920.0,-1.03408556242357e-05
2048.0,0.00015668936248403043
2304.0,0.00015700577932875603
2560.0,0.00024340182426385581
2816.0,-0.00019416914437897503
3072.0,0.00013175836647860706
3328.0,0.00028723443392664194
3584.0,-0.00027072112425230443
3840.0,-0.0003609183186199516
4096.0,0.00016053335275501013
4608.0,-0.0007447925745509565
5120.0,0.0004246682801749557
5632.0,-0.0003807855537161231
6144.0,-0.0002524015144445002
6656.0,0.00023751441040076315
7168.0,-0.0005700490437448025
7680.0,0.00013155984925106168
8192.0,-0.00026624102611094713
end
