version,3.0
numOfCh,1
type,point
parent_name,19e3e_3dot0-0dot01
ch_type,1_1
kcount,1
numberNandB,1
brightnessNandB,1
carpet pos,0
pc,0
Time (ms),CH1 Auto-Correlation
1.0,0.07344093918800354
2.0,0.06903664022684097
3.0,0.06573839485645294
4.0,0.06336886435747147
5.0,0.06151266768574715
6.0,0.06011931970715523
7.0,0.058646004647016525
8.0,0.05743292719125748
9.0,0.05633905529975891
10.0,0.05559414625167847
11.0,0.05485153570771217
12.0,0.05420178920030594
13.0,0.05362199619412422
14.0,0.05294283851981163
15.0,0.052178457379341125
16.0,0.05152472108602524
18.0,0.05074923485517502
20.0,0.0498371459543705
22.0,0.048861946910619736
24.0,0.047980960458517075
26.0,0.04753600060939789
28.0,0.04687933623790741
30.0,0.046505313366651535
32.0,0.04611732065677643
36.0,0.045389749109745026
40.0,0.04451106861233711
44.0,0.04365312308073044
48.0,0.04232573136687279
52.0,0.04064541310071945
56.0,0.03957395255565643
60.0,0.0382172055542469
64.0,0.03687332943081856
72.0,0.03508387506008148
80.0,0.03406680375337601
88.0,0.03257609158754349
96.0,0.03122137486934662
104.0,0.029236402362585068
112.0,0.02814871072769165
120.0,0.027208546176552773
128.0,0.025964198634028435
144.0,0.02458098530769348
160.0,0.02417745627462864
176.0,0.023540832102298737
192.0,0.022263547405600548
208.0,0.021030951291322708
224.0,0.019966719672083855
240.0,0.018140316009521484
256.0,0.015713181346654892
288.0,0.012295093387365341
320.0,0.007222429849207401
352.0,0.0036408330779522657
384.0,0.0014174551470205188
416.0,0.0018738273065537214
448.0,0.003251506946980953
480.0,0.005010770168155432
512.0,0.0038197850808501244
576.0,-0.00014936653315089643
640.0,-0.002452168148010969
704.0,0.0011818003840744495
768.0,0.002086158376187086
832.0,-0.0005488398019224405
896.0,-0.002009785734117031
960.0,-0.002947526518255472
1024.0,-0.004976782016456127
1152.0,-0.0053377915173769
1280.0,-0.007029395550489426
1408.0,-0.007240187842398882
1536.0,-0.007307422813028097
1664.0,-0.005276946816593409
1792.0,-0.0023126956075429916
1920.0,-0.003660427639260888
2048.0,-0.0020799278281629086
2304.0,0.002868568291887641
2560.0,0.001615725690498948
2816.0,-0.0006340282270684838
3072.0,0.008257992565631866
3328.0,0.013637905940413475
3584.0,0.010829728096723557
3840.0,0.004994427319616079
4096.0,-0.002245033858343959
4608.0,-0.008772678673267365
5120.0,-0.010745509527623653
5632.0,0.0009485536720603704
6144.0,-0.0031698832754045725
6656.0,-0.0012722768587991595
7168.0,-0.004254570230841637
7680.0,-0.0027058422565460205
8192.0,-0.009572644717991352
end
