version,3.0
numOfCh,1
type,point
parent_name,19e3e_3dot0-0dot01
ch_type,1_1
kcount,1
numberNandB,1
brightnessNandB,1
carpet pos,0
pc,0
Time (ms),CH1 Auto-Correlation
1.0,0.07019264996051788
2.0,0.06545192003250122
3.0,0.06186864897608757
4.0,0.059248533099889755
5.0,0.057121288031339645
6.0,0.05552995204925537
7.0,0.054232995957136154
8.0,0.05305413156747818
9.0,0.05179305374622345
10.0,0.050604939460754395
11.0,0.049537502229213715
12.0,0.04858588054776192
13.0,0.04781632497906685
14.0,0.04719126969575882
15.0,0.046713270246982574
16.0,0.04641561582684517
18.0,0.04532715678215027
20.0,0.04399403929710388
22.0,0.04262116178870201
24.0,0.041629306972026825
26.0,0.040894705802202225
28.0,0.04007963836193085
30.0,0.039206989109516144
32.0,0.038137804716825485
36.0,0.036815304309129715
40.0,0.036014385521411896
44.0,0.03537445887923241
48.0,0.034607671201229095
52.0,0.0336727499961853
56.0,0.03245438262820244
60.0,0.031229333952069283
64.0,0.03014230728149414
72.0,0.02951861545443535
80.0,0.027465272694826126
88.0,0.02530629001557827
96.0,0.023404376581311226
104.0,0.02077578380703926
112.0,0.018534353002905846
120.0,0.01756582222878933
128.0,0.016553020104765892
144.0,0.014714226126670837
160.0,0.012303906492888927
176.0,0.011012445203959942
192.0,0.00889789778739214
208.0,0.00802640151232481
224.0,0.008140032179653645
240.0,0.007053494919091463
256.0,0.007384016178548336
288.0,0.004767029546201229
320.0,0.003098455024883151
352.0,0.0009703291580080986
384.0,-0.001936027081683278
416.0,-0.0022103632800281048
448.0,-0.0009262863313779235
480.0,-0.0012363521382212639
512.0,0.00019061988859903067
576.0,0.002306927228346467
640.0,0.002493645530194044
704.0,0.0010193908819928765
768.0,0.0004571101744659245
832.0,-0.0020462041720747948
896.0,-0.0034079132601618767
960.0,-0.003060991642996669
1024.0,-0.0033109725918620825
1152.0,-0.001191394287161529
1280.0,-0.0012509932275861502
1408.0,-0.0025251763872802258
1536.0,-0.001937940949574113
1664.0,0.0019178986549377441
1792.0,0.006277606822550297
1920.0,0.006472976878285408
2048.0,-0.00020922941621392965
2304.0,-0.003471953561529517
2560.0,-0.0005370233557187021
2816.0,-0.0024245684035122395
3072.0,-0.003317370545119047
3328.0,-0.0004913858720101416
3584.0,-0.0009408063488081098
3840.0,-0.009603101760149002
4096.0,-0.008868513628840446
4608.0,-0.003045405726879835
5120.0,-0.0030370266176760197
5632.0,0.0007733342354185879
6144.0,0.0008697826415300369
6656.0,0.0008665365166962147
7168.0,0.001719222404062748
7680.0,0.0023852058220654726
8192.0,0.0031661989632993937
end
