version,3.0
numOfCh,1
type,point
parent_name,19e3e_3dot0-0dot01
ch_type,1_1
kcount,1
numberNandB,1
brightnessNandB,1
carpet pos,0
pc,0
Time (ms),CH1 Auto-Correlation
1.0,0.03717834874987602
2.0,0.03255901858210564
3.0,0.029420891776680946
4.0,0.026965903118252754
5.0,0.02512017823755741
6.0,0.02374572865664959
7.0,0.022597121074795723
8.0,0.021614236757159233
9.0,0.02072131633758545
10.0,0.019872505217790604
11.0,0.019059989601373672
12.0,0.01837240532040596
13.0,0.017543701454997063
14.0,0.016914397478103638
15.0,0.016093794256448746
16.0,0.015463394112884998
18.0,0.014702153392136097
20.0,0.013999930582940578
22.0,0.013501030392944813
24.0,0.013350055553019047
26.0,0.013103065080940723
28.0,0.012867391109466553
30.0,0.012401792220771313
32.0,0.011918477714061737
36.0,0.01200834009796381
40.0,0.012000774964690208
44.0,0.012017868459224701
48.0,0.011757940985262394
52.0,0.011308040469884872
56.0,0.011015834286808968
60.0,0.010786342434585094
64.0,0.010510006919503212
72.0,0.00982853677123785
80.0,0.009157161228358746
88.0,0.008799238130450249
96.0,0.008537971414625645
104.0,0.008795876055955887
112.0,0.00888478197157383
120.0,0.008491070941090584
128.0,0.007981582544744015
144.0,0.006831752136349678
160.0,0.006760993041098118
176.0,0.006270323880016804
192.0,0.005678256042301655
208.0,0.005584161262959242
224.0,0.005542346276342869
240.0,0.004986163228750229
256.0,0.00405975291505456
288.0,0.004042568150907755
320.0,0.0028910995461046696
352.0,0.0013087592087686062
384.0,0.0018659241031855345
416.0,0.0005918308161199093
448.0,0.0006728236330673099
480.0,0.0013299888232722878
512.0,0.0004168733721598983
576.0,-0.0009853378869593143
640.0,-0.0016708130715414882
704.0,-0.0004507042176555842
768.0,-0.00036147108767181635
832.0,0.00031893758568912745
896.0,0.00016840992611832917
960.0,0.0004867707029916346
1024.0,-0.0002195765555370599
1152.0,0.0007279400015249848
1280.0,0.0007264771847985685
1408.0,-0.00012565300858113915
1536.0,-0.0004512082086876035
1664.0,0.00042714475421234965
1792.0,-0.00048042263370007277
1920.0,-0.0002770140999928117
2048.0,-0.00036147021455690265
2304.0,0.0005046075093559921
2560.0,0.0004578217049129307
2816.0,6.196966569405049e-05
3072.0,0.0007121649105101824
3328.0,0.00223781680688262
3584.0,0.0007517500780522823
3840.0,-0.0006285352283157408
4096.0,-0.0014122668653726578
4608.0,-1.5779318346176296e-05
5120.0,-0.0013049929402768612
5632.0,0.0025322604924440384
6144.0,0.001334613305516541
6656.0,-0.00040676258504390717
7168.0,-0.003203358268365264
7680.0,-0.0021834545768797398
8192.0,-0.0017031262395903468
end
