version,3.0
numOfCh,1
type,point
parent_name,19e3e_3dot0-0dot01
ch_type,1_1
kcount,1
numberNandB,1
brightnessNandB,1
carpet pos,0
pc,0
Time (ms),CH1 Auto-Correlation
1.0,0.12216602265834808
2.0,0.11712466180324554
3.0,0.11371727287769318
4.0,0.110941082239151
5.0,0.10883911699056625
6.0,0.10697967559099197
7.0,0.10533147305250168
8.0,0.10399771481752396
9.0,0.10283582657575607
10.0,0.10177453607320786
11.0,0.10085730999708176
12.0,0.09997524321079254
13.0,0.0990508496761322
14.0,0.09827844053506851
15.0,0.09756883233785629
16.0,0.09672077000141144
18.0,0.09517271816730499
20.0,0.09378775209188461
22.0,0.09219023585319519
24.0,0.09052841365337372
26.0,0.08890273422002792
28.0,0.08744506537914276
30.0,0.08618621528148651
32.0,0.08485598862171173
36.0,0.08097874373197556
40.0,0.07827743887901306
44.0,0.0749097391963005
48.0,0.0717688649892807
52.0,0.06867292523384094
56.0,0.06571656465530396
60.0,0.06324012577533722
64.0,0.06138104945421219
72.0,0.05461978539824486
80.0,0.049222636967897415
88.0,0.042691417038440704
96.0,0.03696565330028534
104.0,0.03080904297530651
112.0,0.02586420811712742
120.0,0.021470319479703903
128.0,0.017139649018645287
144.0,0.008398450911045074
160.0,0.005400180350989103
176.0,0.005342905875295401
192.0,0.005365621764212847
208.0,0.0033294891472905874
224.0,0.003130461322143674
240.0,0.003182008396834135
256.0,0.0017916049109771848
288.0,-0.001316732494160533
320.0,-0.002464649500325322
352.0,-0.002259935485199094
384.0,-0.0021174089051783085
416.0,-0.001680715591646731
448.0,-0.001122532645240426
480.0,-0.001071114675141871
512.0,0.00044576209620572627
576.0,0.002816850086674094
640.0,0.002665375592187047
704.0,0.0018716217018663883
768.0,0.0038347337394952774
832.0,0.005237189121544361
896.0,0.004192820284515619
960.0,4.253274528309703e-05
1024.0,-0.0014388611307367682
1152.0,0.0010200742399320006
1280.0,0.0010875998996198177
1408.0,0.002290284028276801
1536.0,0.001209063921123743
1664.0,0.0010515963658690453
1792.0,0.0005119565175846219
1920.0,0.00034373829839751124
2048.0,0.0006452348316088319
2304.0,0.0006597694009542465
2560.0,0.0013678157702088356
2816.0,0.0010630835313349962
3072.0,0.0003343432617839426
3328.0,0.0008904313435778022
3584.0,0.0005039993557147682
3840.0,0.000906159752048552
4096.0,0.0014132314827293158
4608.0,0.0009689226862974465
5120.0,0.0014621842419728637
5632.0,0.0018286765553057194
6144.0,0.0017633017851039767
6656.0,0.001210637972690165
7168.0,0.001468583126552403
7680.0,0.0007429000688716769
8192.0,0.0011607225751504302
end
