version,3.0
numOfCh,1
type,point
parent_name,19e3e_3dot0-0dot01
ch_type,1_1
kcount,1
numberNandB,1
brightnessNandB,1
carpet pos,0
pc,0
Time (ms),CH1 Auto-Correlation
1.0,0.06858418136835098
2.0,0.06442656368017197
3.0,0.06144838035106659
4.0,0.05919451639056206
5.0,0.057274170219898224
6.0,0.05572637543082237
7.0,0.05451401323080063
8.0,0.05342767760157585
9.0,0.0524897426366806
10.0,0.05148499831557274
11.0,0.05058004707098007
12.0,0.04983670264482498
13.0,0.049116723239421844
14.0,0.04828304052352905
15.0,0.04767860099673271
16.0,0.0471612773835659
18.0,0.04646901786327362
20.0,0.045722488313913345
22.0,0.045088768005371094
24.0,0.044541072100400925
26.0,0.04407782480120659
28.0,0.04337364435195923
30.0,0.042765334248542786
32.0,0.042002271860837936
36.0,0.04052050784230232
40.0,0.03877986595034599
44.0,0.03759423643350601
48.0,0.03639081120491028
52.0,0.03584182262420654
56.0,0.03505677357316017
60.0,0.033298540860414505
64.0,0.03189896047115326
72.0,0.03032386116683483
80.0,0.029360182583332062
88.0,0.0289610605686903
96.0,0.028216078877449036
104.0,0.027323484420776367
112.0,0.026750724762678146
120.0,0.025957712903618813
128.0,0.02459905855357647
144.0,0.023344222456216812
160.0,0.023190554231405258
176.0,0.020600231364369392
192.0,0.01760624162852764
208.0,0.0148512227460742
224.0,0.012782342731952667
240.0,0.013039447367191315
256.0,0.013321923092007637
288.0,0.011540309526026249
320.0,0.008933131583034992
352.0,0.0071410140953958035
384.0,0.006117549724876881
416.0,0.005362774711102247
448.0,0.002488139783963561
480.0,0.0003129710676148534
512.0,0.00018188220565207303
576.0,0.0027979000005871058
640.0,0.006162289530038834
704.0,0.012577787972986698
768.0,0.016487037762999535
832.0,0.017386650666594505
896.0,0.015877289697527885
960.0,0.013563853688538074
1024.0,0.013145430944859982
1152.0,0.0060148597694933414
1280.0,0.0035252352245151997
1408.0,0.0014147275360301137
1536.0,2.9077402359689586e-05
1664.0,0.0001259378477698192
1792.0,0.0008203362813219428
1920.0,-0.00034143219818361104
2048.0,0.0011389204300940037
2304.0,-0.0011304686777293682
2560.0,-0.003372028237208724
2816.0,-0.0035444211680442095
3072.0,-0.006780778057873249
3328.0,-0.009115628898143768
3584.0,-0.00816240906715393
3840.0,-0.005528073292225599
4096.0,-0.008608117699623108
4608.0,-0.011183993890881538
5120.0,-0.00833353865891695
5632.0,-0.012660251930356026
6144.0,-0.011773599311709404
6656.0,0.01005390752106905
7168.0,0.0003169998526573181
7680.0,0.01057904027402401
8192.0,-0.0018650839338079095
end
