version,3.0
numOfCh,1
type,point
parent_name,19e3e_3dot0-0dot01
ch_type,1_1
kcount,1
numberNandB,1
brightnessNandB,1
carpet pos,0
pc,0
Time (ms),CH1 Auto-Correlation
1.0,0.13223156332969666
2.0,0.12713299691677094
3.0,0.12300842255353928
4.0,0.11953476816415787
5.0,0.11672192066907883
6.0,0.11412013322114944
7.0,0.11167369037866592
8.0,0.1093624085187912
9.0,0.1072760820388794
10.0,0.10540199279785156
11.0,0.10357118397951126
12.0,0.1017807275056839
13.0,0.09997857362031937
14.0,0.09820935875177383
15.0,0.09641573578119278
16.0,0.09464729577302933
18.0,0.09156491607427597
20.0,0.08863919973373413
22.0,0.0866473838686943
24.0,0.08469763398170471
26.0,0.08228092640638351
28.0,0.08010095357894897
30.0,0.0778471976518631
32.0,0.07582778483629227
36.0,0.07233124226331711
40.0,0.0687272921204567
44.0,0.06473517417907715
48.0,0.06247696280479431
52.0,0.06109810248017311
56.0,0.05997379496693611
60.0,0.058678172528743744
64.0,0.05672674998641014
72.0,0.05092783272266388
80.0,0.044142402708530426
88.0,0.04082411527633667
96.0,0.04077944904565811
104.0,0.04124923795461655
112.0,0.041438549757003784
120.0,0.04086869955062866
128.0,0.04126548022031784
144.0,0.038555677980184555
160.0,0.035360801964998245
176.0,0.03432686626911163
192.0,0.03205142915248871
208.0,0.030709058046340942
224.0,0.026920843869447708
240.0,0.024789685383439064
256.0,0.023704377934336662
288.0,0.021903464570641518
320.0,0.01973961852490902
352.0,0.0160119216889143
384.0,0.012497441843152046
416.0,0.014409303665161133
448.0,0.010356399230659008
480.0,0.010588896460831165
512.0,0.009020713157951832
576.0,0.005282552447170019
640.0,0.002821796340867877
704.0,0.00455470010638237
768.0,0.009078585542738438
832.0,0.004699548240751028
896.0,0.005314619746059179
960.0,0.008775010704994202
1024.0,0.011403842829167843
1152.0,0.0046753184869885445
1280.0,-0.0029521360993385315
1408.0,-0.0036954034585505724
1536.0,-0.008878089487552643
1664.0,-0.013925994746387005
1792.0,-0.013978755101561546
1920.0,-0.00917015690356493
2048.0,-0.009568767622113228
2304.0,-0.018573107197880745
2560.0,-0.010228876955807209
2816.0,-0.009586678817868233
3072.0,-0.008775116875767708
3328.0,0.006811883766204119
3584.0,0.030284270644187927
3840.0,0.011030958034098148
4096.0,-0.0008961200364865363
4608.0,0.021628331393003464
5120.0,-0.0050995079800486565
5632.0,-0.007754805032163858
6144.0,-0.014606866054236889
6656.0,-0.01852051168680191
7168.0,-0.023718982934951782
7680.0,-0.03378058597445488
8192.0,-0.030661992728710175
end
