version,3.0
numOfCh,1
type,point
parent_name,19e3e_3dot0-0dot01
ch_type,1_1
kcount,1
numberNandB,1
brightnessNandB,1
carpet pos,0
pc,0
Time (ms),CH1 Auto-Correlation
1.0,0.22047878801822662
2.0,0.21624547243118286
3.0,0.2127818465232849
4.0,0.21013177931308746
5.0,0.20794837176799774
6.0,0.20603246986865997
7.0,0.20414282381534576
8.0,0.20257940888404846
9.0,0.20120316743850708
10.0,0.19988463819026947
11.0,0.1986580789089203
12.0,0.19734080135822296
13.0,0.1962100714445114
14.0,0.1949605494737625
15.0,0.19381025433540344
16.0,0.19265635311603546
18.0,0.19047853350639343
20.0,0.1880756914615631
22.0,0.18584154546260834
24.0,0.18344303965568542
26.0,0.1811910718679428
28.0,0.1790037900209427
30.0,0.17673034965991974
32.0,0.17475585639476776
36.0,0.17121398448944092
40.0,0.1669294536113739
44.0,0.16233836114406586
48.0,0.157649427652359
52.0,0.15316081047058105
56.0,0.14867906272411346
60.0,0.14461901783943176
64.0,0.1413261592388153
72.0,0.134774312376976
80.0,0.12622086703777313
88.0,0.1186465322971344
96.0,0.11316651105880737
104.0,0.10776588320732117
112.0,0.10274945944547653
120.0,0.09856995195150375
128.0,0.09594851732254028
144.0,0.09330626577138901
160.0,0.0929122194647789
176.0,0.09469198435544968
192.0,0.09613204747438431
208.0,0.09670661389827728
224.0,0.0950135886669159
240.0,0.09111852943897247
256.0,0.0855179950594902
288.0,0.07041047513484955
320.0,0.05776142328977585
352.0,0.04848623648285866
384.0,0.045271068811416626
416.0,0.044212862849235535
448.0,0.04189503565430641
480.0,0.03687429428100586
512.0,0.03191916644573212
576.0,0.017249565571546555
640.0,0.010852307081222534
704.0,0.009194419719278812
768.0,0.010618516243994236
832.0,0.012090682983398438
896.0,0.010537447407841682
960.0,0.00902495626360178
1024.0,0.011519099585711956
1152.0,0.027882376685738564
1280.0,0.035617854446172714
1408.0,0.05059478059411049
1536.0,0.030046580359339714
1664.0,0.007754671387374401
1792.0,-0.0074258535169065
1920.0,-0.009042846970260143
2048.0,-0.009804903529584408
2304.0,-0.007351749110966921
2560.0,0.00209901318885386
2816.0,0.010305892676115036
3072.0,-0.007092414889484644
3328.0,-0.015460282564163208
3584.0,-0.017800448462367058
3840.0,-0.01124376617372036
4096.0,-0.010231868363916874
4608.0,-0.014539413154125214
5120.0,-0.018866727128624916
5632.0,-0.01990172080695629
6144.0,-0.027605842798948288
6656.0,-0.03408058360219002
7168.0,-0.044160135090351105
7680.0,-0.04988844320178032
8192.0,-0.021420229226350784
end
