version,3.0
numOfCh,1
type,point
parent_name,19e3e_3dot0-0dot01
ch_type,1_1
kcount,1
numberNandB,1
brightnessNandB,1
carpet pos,0
pc,0
Time (ms),CH1 Auto-Correlation
1.0,0.1788519024848938
2.0,0.17445531487464905
3.0,0.17086701095104218
4.0,0.1679733544588089
5.0,0.1653883010149002
6.0,0.16306999325752258
7.0,0.1610230654478073
8.0,0.15914437174797058
9.0,0.15740668773651123
10.0,0.156000554561615
11.0,0.1547495275735855
12.0,0.1536320298910141
13.0,0.15246060490608215
14.0,0.1514446884393692
15.0,0.15043246746063232
16.0,0.14955070614814758
18.0,0.14740033447742462
20.0,0.14560939371585846
22.0,0.14398495852947235
24.0,0.14256279170513153
26.0,0.14119181036949158
28.0,0.1399514228105545
30.0,0.13871772587299347
32.0,0.1372600942850113
36.0,0.1347687989473343
40.0,0.13279473781585693
44.0,0.13125045597553253
48.0,0.129909947514534
52.0,0.12818197906017303
56.0,0.1263323724269867
60.0,0.12427572906017303
64.0,0.12314099073410034
72.0,0.12109480798244476
80.0,0.11925405263900757
88.0,0.1155509203672409
96.0,0.11052457988262177
104.0,0.10753904283046722
112.0,0.1044047623872757
120.0,0.10036922246217728
128.0,0.09659592807292938
144.0,0.09024746716022491
160.0,0.08595795929431915
176.0,0.08349999040365219
192.0,0.08296053856611252
208.0,0.08016954362392426
224.0,0.07781507819890976
240.0,0.07530207186937332
256.0,0.07452746480703354
288.0,0.07143944501876831
320.0,0.06990242749452591
352.0,0.06804951280355453
384.0,0.06877115368843079
416.0,0.07096349447965622
448.0,0.07274355739355087
480.0,0.07569284737110138
512.0,0.07921487092971802
576.0,0.07200643420219421
640.0,0.060225702822208405
704.0,0.05286169424653053
768.0,0.05336738005280495
832.0,0.05447179451584816
896.0,0.054182589054107666
960.0,0.057203494012355804
1024.0,0.0599103607237339
1152.0,0.06168128550052643
1280.0,0.06623191386461258
1408.0,0.06571630388498306
1536.0,0.05421726405620575
1664.0,0.04051947221159935
1792.0,0.03965729475021362
1920.0,0.034570880234241486
2048.0,0.019871747121214867
2304.0,0.011903843842446804
2560.0,0.015062987804412842
2816.0,0.00674626836553216
3072.0,0.0041992743499577045
3328.0,-0.00834228191524744
3584.0,-0.011465917341411114
3840.0,-0.0018183914944529533
4096.0,-0.0077654654160141945
4608.0,-0.01947547122836113
5120.0,-0.022598261013627052
5632.0,-0.02395104616880417
6144.0,-0.03239277005195618
6656.0,-0.03975555673241615
7168.0,-0.050928715616464615
7680.0,-0.05973873287439346
8192.0,-0.07089825719594955
end
