version,3.0
numOfCh,1
type,point
parent_name,19e3e_3dot0-0dot01
ch_type,1_1
kcount,1
numberNandB,1
brightnessNandB,1
carpet pos,0
pc,0
Time (ms),CH1 Auto-Correlation
1.0,0.050355102866888046
2.0,0.046304889023303986
3.0,0.04349001124501228
4.0,0.04130636900663376
5.0,0.039719995111227036
6.0,0.0383090004324913
7.0,0.03697849065065384
8.0,0.035863831639289856
9.0,0.034860119223594666
10.0,0.033997535705566406
11.0,0.033378828316926956
12.0,0.03280165418982506
13.0,0.03223597630858421
14.0,0.03178107738494873
15.0,0.03130263835191727
16.0,0.030667800456285477
18.0,0.02978428825736046
20.0,0.029176967218518257
22.0,0.02878376841545105
24.0,0.02790643833577633
26.0,0.02684498392045498
28.0,0.026075197383761406
30.0,0.025797709822654724
32.0,0.025660503655672073
36.0,0.02496662363409996
40.0,0.023978715762495995
44.0,0.023149292916059494
48.0,0.022205833345651627
52.0,0.021398333832621574
56.0,0.021063504740595818
60.0,0.02082589454948902
64.0,0.02054332010447979
72.0,0.01978451758623123
80.0,0.018932664766907692
88.0,0.018082959577441216
96.0,0.017281632870435715
104.0,0.017070414498448372
112.0,0.016850532963871956
120.0,0.015388557687401772
128.0,0.014812637120485306
144.0,0.013817748054862022
160.0,0.013464163057506084
176.0,0.012005530297756195
192.0,0.011241407133638859
208.0,0.010799412615597248
224.0,0.009527849033474922
240.0,0.008697722107172012
256.0,0.007700256071984768
288.0,0.006135854870080948
320.0,0.004842278081923723
352.0,0.00491174403578043
384.0,0.004579103551805019
416.0,0.004576789680868387
448.0,0.004428074229508638
480.0,0.00323090679012239
512.0,0.002153043868020177
576.0,0.002054889453575015
640.0,0.0018181729828938842
704.0,0.0013783947797492146
768.0,0.001083350507542491
832.0,0.0033587177749723196
896.0,0.0033385902643203735
960.0,0.003529431065544486
1024.0,0.00391488429158926
1152.0,0.0036586113274097443
1280.0,0.002194782020524144
1408.0,0.003109174547716975
1536.0,0.006400209851562977
1664.0,0.006601151078939438
1792.0,0.005005261395126581
1920.0,0.0015380673576146364
2048.0,-0.0016652592457830906
2304.0,-0.0015773591585457325
2560.0,0.0010155981872230768
2816.0,0.0036750349681824446
3072.0,0.0024827998131513596
3328.0,0.0021224243100732565
3584.0,0.0030114687979221344
3840.0,-0.0010280852438881993
4096.0,-0.0046641030348837376
4608.0,0.0005977355758659542
5120.0,-0.010036492720246315
5632.0,-0.006932917982339859
6144.0,-0.0053640068508684635
6656.0,-0.0051397234201431274
7168.0,-0.004131583031266928
7680.0,-0.0047284760512411594
8192.0,-0.004419476725161076
end
