version,3.0
numOfCh,1
type,point
parent_name,19e3e_3dot0-0dot01
ch_type,1_1
kcount,1
numberNandB,1
brightnessNandB,1
carpet pos,0
pc,0
Time (ms),CH1 Auto-Correlation
1.0,0.025471992790699005
2.0,0.020638002082705498
3.0,0.017320377752184868
4.0,0.01476332638412714
5.0,0.012837076559662819
6.0,0.011415079236030579
7.0,0.01041723694652319
8.0,0.009680335409939289
9.0,0.008781290613114834
10.0,0.007935374043881893
11.0,0.007181908469647169
12.0,0.0066260905005037785
13.0,0.006087884306907654
14.0,0.005674839019775391
15.0,0.005109782796353102
16.0,0.0047248234041035175
18.0,0.004074041731655598
20.0,0.0037379362620413303
22.0,0.003657781518995762
24.0,0.0037545044906437397
26.0,0.0033938747365027666
28.0,0.00288586737588048
30.0,0.0025623291730880737
32.0,0.002245324896648526
36.0,0.0016774664400145411
40.0,0.0011833867756649852
44.0,0.0013559858780354261
48.0,0.0011639349395409226
52.0,0.000862790911924094
56.0,0.0007974694017320871
60.0,0.00029224285390228033
64.0,-0.00041957758367061615
72.0,0.000338199723046273
80.0,0.00043839580030180514
88.0,3.5372082493267953e-05
96.0,-0.0003195784520357847
104.0,-0.0005964675219729543
112.0,-0.0007395315915346146
120.0,-0.00014902277325745672
128.0,0.00022182718385010958
144.0,0.0003463889006525278
160.0,-0.0003605159872677177
176.0,-0.0005994285456836224
192.0,-0.0007811666000634432
208.0,-0.0007327166968025267
224.0,-0.0005308239487931132
240.0,-3.7182584492256865e-05
256.0,0.0005746397655457258
288.0,0.0008620505104772747
320.0,0.0008866357966326177
352.0,0.0011342313373461366
384.0,0.0003146395902149379
416.0,-0.0003633787564467639
448.0,-0.00028556311735883355
480.0,-0.0006977022276259959
512.0,-0.00038387684617191553
576.0,0.00014660961460322142
640.0,0.0002445099235046655
704.0,-0.00046146620297804475
768.0,5.273763690638589e-06
832.0,-0.0004903106018900871
896.0,1.6353067621821538e-05
960.0,0.0002883713459596038
1024.0,7.412205377477221e-06
1152.0,-0.0003572384885046631
1280.0,0.00014345759700518101
1408.0,-0.0003302426775917411
1536.0,-0.00014677824219688773
1664.0,-9.171367855742574e-05
1792.0,-0.00038126620347611606
1920.0,-0.0005332233267836273
2048.0,0.0001023497898131609
2304.0,5.435402385955967e-07
2560.0,0.0001937967463163659
2816.0,3.937106521334499e-05
3072.0,8.765003440203145e-05
3328.0,0.00015564811474177986
3584.0,-0.000109401713416446
3840.0,2.878665691241622e-05
4096.0,9.161299385596067e-05
4608.0,-0.00011367206025170162
5120.0,-0.0001655223168199882
5632.0,-9.6934410976246e-05
6144.0,-0.00010683034633984789
6656.0,0.00024010325432755053
7168.0,-0.00024716422194615006
7680.0,-6.777166709071025e-05
8192.0,5.0523631216492504e-05
end
