version,3.0
numOfCh,1
type,point
parent_name,19e3e_3dot0-0dot01
ch_type,1_1
kcount,1
numberNandB,1
brightnessNandB,1
carpet pos,0
pc,0
Time (ms),CH1 Auto-Correlation
1.0,0.028362248092889786
2.0,0.02382323332130909
3.0,0.020485684275627136
4.0,0.0180894136428833
5.0,0.016115598380565643
6.0,0.014574899338185787
7.0,0.01327195018529892
8.0,0.012288900092244148
9.0,0.01127899345010519
10.0,0.010523149743676186
11.0,0.009944344870746136
12.0,0.009368008002638817
13.0,0.008755207061767578
14.0,0.008230118080973625
15.0,0.007819060236215591
16.0,0.007497488055378199
18.0,0.006685927044600248
20.0,0.0060266489163041115
22.0,0.005389204248785973
24.0,0.004679739009588957
26.0,0.004384098574519157
28.0,0.004008417017757893
30.0,0.003556719748303294
32.0,0.003504096996039152
36.0,0.0034385607577860355
40.0,0.003020351752638817
44.0,0.002845294773578644
48.0,0.0028259053360670805
52.0,0.002741373609751463
56.0,0.002558488864451647
60.0,0.002432124922052026
64.0,0.0019559988286346197
72.0,0.0018658086191862822
80.0,0.0016212206101045012
88.0,0.0018688427517190576
96.0,0.0017701339675113559
104.0,0.001264103688299656
112.0,0.0008973456569947302
120.0,0.0007179089006967843
128.0,0.0011416202178224921
144.0,0.0005131644429638982
160.0,0.0005632127868011594
176.0,0.001130159362219274
192.0,0.0017074310453608632
208.0,0.0014868587022647262
224.0,0.001403015572577715
240.0,0.0006785670411773026
256.0,0.001083710347302258
288.0,0.0012760546524077654
320.0,0.0010617561638355255
352.0,0.0011652683606371284
384.0,0.0002928183530457318
416.0,0.00024230183043982834
448.0,0.0009812033968046308
480.0,0.0007399493479169905
512.0,0.0004832333652302623
576.0,0.000964978476986289
640.0,0.0012941343011334538
704.0,-0.00024383117852266878
768.0,0.000241343499510549
832.0,0.0002441641117911786
896.0,0.00014129001647233963
960.0,-0.00011379117495380342
1024.0,0.00033380952663719654
1152.0,4.201886258670129e-05
1280.0,0.0005792283918708563
1408.0,0.000328848633216694
1536.0,0.00042993336683139205
1664.0,-0.0007090563303790987
1792.0,-0.0006602139910683036
1920.0,-0.001368788187392056
2048.0,2.405352279311046e-05
2304.0,-0.0009920615702867508
2560.0,-0.00019266779418103397
2816.0,-0.0004252275684848428
3072.0,-0.0003612333966884762
3328.0,-0.0005124293966218829
3584.0,-7.751425437163562e-05
3840.0,-0.000199918111320585
4096.0,-0.0003611996362451464
4608.0,-0.0006348085007630289
5120.0,-0.00017595684039406478
5632.0,0.0002075371303362772
6144.0,5.963347211945802e-05
6656.0,0.0006633590674027801
7168.0,3.501616447465494e-05
7680.0,-0.0006503143813461065
8192.0,-0.0005651989486068487
end
