version,3.0
numOfCh,1
type,point
parent_name,19e3e_3dot0-0dot01
ch_type,1_1
kcount,1
numberNandB,1
brightnessNandB,1
carpet pos,0
pc,0
Time (ms),CH1 Auto-Correlation
1.0,0.02700100652873516
2.0,0.02223806455731392
3.0,0.018887590616941452
4.0,0.01632559299468994
5.0,0.014378665946424007
6.0,0.012839140370488167
7.0,0.01153479516506195
8.0,0.010443218052387238
9.0,0.009591604582965374
10.0,0.00879689957946539
11.0,0.008157351985573769
12.0,0.007539525628089905
13.0,0.006889848969876766
14.0,0.006346408277750015
15.0,0.005891453940421343
16.0,0.005534950643777847
18.0,0.004882887937128544
20.0,0.004646643530577421
22.0,0.004560238681733608
24.0,0.0041336119174957275
26.0,0.003956083208322525
28.0,0.003574839560315013
30.0,0.0033283045049756765
32.0,0.0031680436804890633
36.0,0.0030917231924831867
40.0,0.002572398167103529
44.0,0.002225461881607771
48.0,0.0017859140643849969
52.0,0.0010743587044999003
56.0,0.0004168447048868984
60.0,0.0002771188737824559
64.0,0.00020004200632683933
72.0,4.753992106998339e-05
80.0,-0.00016719296399969608
88.0,-0.00022009084932506084
96.0,-0.0002990019565913826
104.0,-5.672027691616677e-05
112.0,-0.000134192276163958
120.0,3.313153501949273e-05
128.0,0.0009029953507706523
144.0,0.0007255885284394026
160.0,0.0003649287682492286
176.0,0.0006906380876898766
192.0,0.0004333077522460371
208.0,0.00020958972163498402
224.0,0.00018136610742658377
240.0,-0.0006036892882548273
256.0,-0.0005364668904803693
288.0,-0.0008541049901396036
320.0,-9.886160114547238e-05
352.0,-0.0003645255055744201
384.0,-0.00021710837609134614
416.0,-0.0002645336790010333
448.0,0.000572577933780849
480.0,0.0012256585760042071
512.0,0.0010746249463409185
576.0,-5.561108628171496e-05
640.0,0.001009560190141201
704.0,0.0005881758406758308
768.0,-0.0004942606901749969
832.0,0.0002767129917629063
896.0,-0.0002103586884913966
960.0,-0.0006029819487594068
1024.0,0.0004877644532825798
1152.0,0.00040142188663594425
1280.0,-0.0004284075985196978
1408.0,-0.0003551598929334432
1536.0,-0.0006620605709031224
1664.0,-0.0006449250504374504
1792.0,-0.0002189461956731975
1920.0,0.00022906150843482465
2048.0,-0.00033994679688476026
2304.0,-0.00031066927476786077
2560.0,0.00047983534750528634
2816.0,0.0005294483271427453
3072.0,0.0004844508948735893
3328.0,0.00033747198176570237
3584.0,0.00010946166730718687
3840.0,0.00017580221174284816
4096.0,-0.00013922648213338107
4608.0,-0.0003182590298820287
5120.0,-2.2334250388666987e-05
5632.0,-0.00026096406509168446
6144.0,-0.00018313403415959328
6656.0,-0.00027173972921445966
7168.0,3.863233814627165e-06
7680.0,-6.586391100427136e-05
8192.0,0.0007724911556579173
end
