version,3.0
numOfCh,1
type,point
parent_name,19e3e_3dot0-0dot01
ch_type,1_1
kcount,1
numberNandB,1
brightnessNandB,1
carpet pos,0
pc,0
Time (ms),CH1 Auto-Correlation
1.0,0.03288096562027931
2.0,0.028162306174635887
3.0,0.024780822917819023
4.0,0.022443395107984543
5.0,0.020752109587192535
6.0,0.019285742193460464
7.0,0.01803726702928543
8.0,0.017121093347668648
9.0,0.016456568613648415
10.0,0.015716081485152245
11.0,0.014884148724377155
12.0,0.014085211791098118
13.0,0.013274640776216984
14.0,0.012894518673419952
15.0,0.0124335503205657
16.0,0.012087094597518444
18.0,0.011477530933916569
20.0,0.011056204326450825
22.0,0.010668627917766571
24.0,0.010444790124893188
26.0,0.010172304697334766
28.0,0.009758174419403076
30.0,0.009404376149177551
32.0,0.009285395964980125
36.0,0.008873796090483665
40.0,0.008603745140135288
44.0,0.008114758878946304
48.0,0.007446336094290018
52.0,0.007456028368324041
56.0,0.007410635706037283
60.0,0.006694830022752285
64.0,0.00600822176784277
72.0,0.005497908219695091
80.0,0.0045931097120046616
88.0,0.004256302956491709
96.0,0.004504842683672905
104.0,0.0044073741883039474
112.0,0.004985972307622433
120.0,0.0053848945535719395
128.0,0.0045789144933223724
144.0,0.004382251296192408
160.0,0.0042540584690868855
176.0,0.004217103589326143
192.0,0.002880951389670372
208.0,0.001916013192385435
224.0,0.0015659936470910907
240.0,0.0015740332892164588
256.0,0.002062600338831544
288.0,0.0017984668957069516
320.0,0.0023720290046185255
352.0,0.0008749260450713336
384.0,0.0013657760573551059
416.0,0.0013528267154470086
448.0,0.0009991070255637169
480.0,-0.0005451227771118283
512.0,-0.0009309938759543002
576.0,5.18548913532868e-05
640.0,-0.00039428911986760795
704.0,0.0008701438782736659
768.0,0.0013544531539082527
832.0,0.00197177124209702
896.0,0.0021498743444681168
960.0,0.00019855225400533527
1024.0,0.0004049348062835634
1152.0,0.002577403327450156
1280.0,0.002559326123446226
1408.0,7.315295079024509e-05
1536.0,0.0011435329215601087
1664.0,0.0011614433024078608
1792.0,-0.000683831749483943
1920.0,-0.00013630541798193008
2048.0,-0.0001626781013328582
2304.0,-0.00010949149873340502
2560.0,-0.0005312941502779722
2816.0,0.00017144066805485636
3072.0,-0.0013581253588199615
3328.0,-0.0021468496415764093
3584.0,-0.0012456730473786592
3840.0,-0.00014048960292711854
4096.0,0.0006819534464739263
4608.0,-0.0009598538745194674
5120.0,0.0006399944541044533
5632.0,0.001328935381025076
6144.0,0.001473063719458878
6656.0,3.6738038033945486e-05
7168.0,-0.0007022477220743895
7680.0,-0.0030215049628168344
8192.0,-0.002041555242612958
end
