version,3.0
numOfCh,1
type,point
parent_name,19e3e_3dot0-0dot01
ch_type,1_1
kcount,1
numberNandB,1
brightnessNandB,1
carpet pos,0
pc,0
Time (ms),CH1 Auto-Correlation
1.0,0.26642733812332153
2.0,0.26210492849349976
3.0,0.2586303651332855
4.0,0.25558972358703613
5.0,0.25295698642730713
6.0,0.2505471706390381
7.0,0.2484603375196457
8.0,0.24657770991325378
9.0,0.244707852602005
10.0,0.24277903139591217
11.0,0.24102036654949188
12.0,0.2392425388097763
13.0,0.23750591278076172
14.0,0.23592042922973633
15.0,0.23441766202449799
16.0,0.23292501270771027
18.0,0.22986461222171783
20.0,0.2271261066198349
22.0,0.2241424024105072
24.0,0.22135864198207855
26.0,0.21895189583301544
28.0,0.21655209362506866
30.0,0.21335294842720032
32.0,0.21029721200466156
36.0,0.20426318049430847
40.0,0.19872841238975525
44.0,0.19403156638145447
48.0,0.18939198553562164
52.0,0.18519526720046997
56.0,0.18179476261138916
60.0,0.1785486340522766
64.0,0.17637455463409424
72.0,0.17151153087615967
80.0,0.16683508455753326
88.0,0.16195601224899292
96.0,0.15692153573036194
104.0,0.15120139718055725
112.0,0.14526605606079102
120.0,0.13973195850849152
128.0,0.13433071970939636
144.0,0.12522238492965698
160.0,0.1178058609366417
176.0,0.10776665061712265
192.0,0.09725494682788849
208.0,0.08585703372955322
224.0,0.07420062273740768
240.0,0.06143701821565628
256.0,0.0517767108976841
288.0,0.04945151507854462
320.0,0.045909855514764786
352.0,0.04190178960561752
384.0,0.038029931485652924
416.0,0.03353380784392357
448.0,0.032951731234788895
480.0,0.03561254218220711
512.0,0.03825566545128822
576.0,0.047396644949913025
640.0,0.06135078892111778
704.0,0.06250308454036713
768.0,0.051045939326286316
832.0,0.038733165711164474
896.0,0.0175941064953804
960.0,0.010105317458510399
1024.0,0.015472853556275368
1152.0,0.01932910643517971
1280.0,0.01632913388311863
1408.0,0.007429829798638821
1536.0,-0.0026418957859277725
1664.0,0.0018094521947205067
1792.0,0.02291780523955822
1920.0,0.018168829381465912
2048.0,-0.007343226112425327
2304.0,-0.016498835757374763
2560.0,-0.004152469802647829
2816.0,-0.025959717109799385
3072.0,-0.029871419072151184
3328.0,-0.03042876347899437
3584.0,-0.038908813148736954
3840.0,-0.02944708988070488
4096.0,-0.028490904718637466
4608.0,-0.025632720440626144
5120.0,-0.03197300806641579
5632.0,-0.03796936944127083
6144.0,0.011620469391345978
6656.0,0.06117148697376251
7168.0,-0.006181848235428333
7680.0,-0.10053715854883194
8192.0,-0.20739223062992096
end
