version,3.0
numOfCh,1
type,point
parent_name,19e3e_3dot0-0dot01
ch_type,1_1
kcount,1
numberNandB,1
brightnessNandB,1
carpet pos,0
pc,0
Time (ms),CH1 Auto-Correlation
1.0,0.03984726220369339
2.0,0.0353124774992466
3.0,0.03192576766014099
4.0,0.02936463989317417
5.0,0.027035130187869072
6.0,0.025322522968053818
7.0,0.024040285497903824
8.0,0.022832494229078293
9.0,0.022088753059506416
10.0,0.021348439157009125
11.0,0.020684780552983284
12.0,0.02005898207426071
13.0,0.01937800459563732
14.0,0.018798982724547386
15.0,0.018293600529432297
16.0,0.017822744324803352
18.0,0.017263632267713547
20.0,0.016989173367619514
22.0,0.01666511967778206
24.0,0.01657387800514698
26.0,0.016459045931696892
28.0,0.01623925194144249
30.0,0.015727821737527847
32.0,0.015468278899788857
36.0,0.014532671310007572
40.0,0.013774901628494263
44.0,0.012997339479625225
48.0,0.012759899720549583
52.0,0.012658978812396526
56.0,0.012256829999387264
60.0,0.011613046750426292
64.0,0.01127804908901453
72.0,0.010333284735679626
80.0,0.009558470919728279
88.0,0.009119710884988308
96.0,0.00927803386002779
104.0,0.009443486109375954
112.0,0.0083708381280303
120.0,0.007045242935419083
128.0,0.006374499760568142
144.0,0.0052237664349377155
160.0,0.004763336386531591
176.0,0.004196117166429758
192.0,0.0035748560912907124
208.0,0.003915382549166679
224.0,0.004630630370229483
240.0,0.0058430559001863
256.0,0.006541860289871693
288.0,0.007424320559948683
320.0,0.008745214901864529
352.0,0.010238905437290668
384.0,0.011404404416680336
416.0,0.010811734944581985
448.0,0.009118960238993168
480.0,0.007155998144298792
512.0,0.006677150260657072
576.0,0.004939966835081577
640.0,0.005204223562031984
704.0,0.005958405788987875
768.0,0.007459654938429594
832.0,0.004916066769510508
896.0,0.0030948719941079617
960.0,0.003560698125511408
1024.0,0.004360568709671497
1152.0,0.004864073824137449
1280.0,0.0028139117639511824
1408.0,0.002166522666811943
1536.0,0.0027281874790787697
1664.0,0.002195240231230855
1792.0,0.0028330956120043993
1920.0,0.00343099026940763
2048.0,0.0025817533023655415
2304.0,0.002167582744732499
2560.0,0.001101569039747119
2816.0,-0.00044287063064984977
3072.0,-0.0006989500252529979
3328.0,-0.0010708473855629563
3584.0,-0.0017625439213588834
3840.0,-0.0019399551674723625
4096.0,-0.0014816023176535964
4608.0,-0.0021461998112499714
5120.0,-0.003334752982482314
5632.0,-0.00487987557426095
6144.0,-0.006137216463685036
6656.0,-0.0056221517734229565
7168.0,-0.004934120923280716
7680.0,-0.005023022647947073
8192.0,-0.005697017069905996
end
