version,3.0
numOfCh,1
type,point
parent_name,19e3e_3dot0-0dot01
ch_type,1_1
kcount,1
numberNandB,1
brightnessNandB,1
carpet pos,0
pc,0
Time (ms),CH1 Auto-Correlation
1.0,0.05940674990415573
2.0,0.055145733058452606
3.0,0.052146393805742264
4.0,0.049795739352703094
5.0,0.048013169318437576
6.0,0.04666455090045929
7.0,0.04549134895205498
8.0,0.04445163160562515
9.0,0.04331110417842865
10.0,0.04225030541419983
11.0,0.04130173102021217
12.0,0.04048743098974228
13.0,0.03990824893116951
14.0,0.039314720779657364
15.0,0.038653187453746796
16.0,0.03805209696292877
18.0,0.03731337934732437
20.0,0.036850012838840485
22.0,0.036278966814279556
24.0,0.035541635006666183
26.0,0.034962549805641174
28.0,0.03411628305912018
30.0,0.03347093239426613
32.0,0.032857250422239304
36.0,0.031917180866003036
40.0,0.03104643151164055
44.0,0.030029768124222755
48.0,0.029008977115154266
52.0,0.028190622106194496
56.0,0.02721382863819599
60.0,0.026003243401646614
64.0,0.02527591772377491
72.0,0.024467643350362778
80.0,0.023647204041481018
88.0,0.02352912351489067
96.0,0.02235758677124977
104.0,0.021875593811273575
112.0,0.02120879292488098
120.0,0.0211934931576252
128.0,0.021016258746385574
144.0,0.02029787190258503
160.0,0.0190769974142313
176.0,0.016605522483587265
192.0,0.01589171588420868
208.0,0.013152612373232841
224.0,0.010122336447238922
240.0,0.008519751019775867
256.0,0.007233934942632914
288.0,0.00798784103244543
320.0,0.009745539166033268
352.0,0.009084043093025684
384.0,0.006814572960138321
416.0,0.006208537146449089
448.0,0.005055306013673544
480.0,0.004980400670319796
512.0,0.005085840355604887
576.0,0.003046915400773287
640.0,0.0039048229809850454
704.0,0.00548715703189373
768.0,0.0049663265235722065
832.0,0.005418842658400536
896.0,0.004963862244039774
960.0,0.003602765966206789
1024.0,0.002686241175979376
1152.0,-0.0008352173026651144
1280.0,-0.002730519510805607
1408.0,-0.0026420080102980137
1536.0,-0.0026343893259763718
1664.0,-0.005177775863558054
1792.0,-0.006861902307718992
1920.0,-0.005752271506935358
2048.0,-0.005074372049421072
2304.0,-0.000502714654430747
2560.0,0.001714426907710731
2816.0,0.002722611650824547
3072.0,0.003959495108574629
3328.0,0.007025002967566252
3584.0,0.010874561965465546
3840.0,0.01047447882592678
4096.0,0.00339574390091002
4608.0,-0.006411450449377298
5120.0,-0.011626805178821087
5632.0,-0.009727168828248978
6144.0,-0.007007946260273457
6656.0,-0.002137873787432909
7168.0,0.0024840172845870256
7680.0,0.00013187387958168983
8192.0,-0.0058272890746593475
end
