version,3.0
numOfCh,1
type,point
parent_name,19e3e_3dot0-0dot01
ch_type,1_1
kcount,1
numberNandB,1
brightnessNandB,1
carpet pos,0
pc,0
Time (ms),CH1 Auto-Correlation
1.0,0.059935763478279114
2.0,0.05543609708547592
3.0,0.05228131264448166
4.0,0.05000503361225128
5.0,0.048233792185783386
6.0,0.04668515920639038
7.0,0.045134786516427994
8.0,0.04390499368309975
9.0,0.04268091171979904
10.0,0.04166317358613014
11.0,0.040914230048656464
12.0,0.04042202979326248
13.0,0.04000144079327583
14.0,0.0393691249191761
15.0,0.03873308748006821
16.0,0.03792704641819
18.0,0.03657437115907669
20.0,0.03541762754321098
22.0,0.03464159741997719
24.0,0.033760104328393936
26.0,0.033105384558439255
28.0,0.032482415437698364
30.0,0.032018523663282394
32.0,0.03138738498091698
36.0,0.030779439955949783
40.0,0.030722253024578094
44.0,0.03038339503109455
48.0,0.029454592615365982
52.0,0.02784004434943199
56.0,0.02628551982343197
60.0,0.02468772418797016
64.0,0.022692006081342697
72.0,0.0214513149112463
80.0,0.020099768415093422
88.0,0.019078291952610016
96.0,0.01814672164618969
104.0,0.0175025574862957
112.0,0.016894973814487457
120.0,0.015904290601611137
128.0,0.014989903196692467
144.0,0.014719809405505657
160.0,0.013728979043662548
176.0,0.013577906414866447
192.0,0.01306825689971447
208.0,0.01141949463635683
224.0,0.010742973536252975
240.0,0.009784240275621414
256.0,0.008112345822155476
288.0,0.006835390813648701
320.0,0.005790873896330595
352.0,0.004817379172891378
384.0,0.004043384920805693
416.0,0.005491148214787245
448.0,0.005070227198302746
480.0,0.006406745407730341
512.0,0.0074126883409917355
576.0,0.002103519393131137
640.0,0.0024251884315162897
704.0,0.0009058424038812518
768.0,0.001171276206150651
832.0,0.0018593687564134598
896.0,0.001427777111530304
960.0,0.0012821685522794724
1024.0,0.004005607217550278
1152.0,0.0011516332160681486
1280.0,0.002084197709336877
1408.0,0.002131440443918109
1536.0,0.0023214900866150856
1664.0,0.002721449825912714
1792.0,0.00010061902139568701
1920.0,-0.002916778903454542
2048.0,-0.0016579562798142433
2304.0,-0.002370639704167843
2560.0,-0.0038332275580614805
2816.0,-0.009289884008467197
3072.0,-0.005447824485599995
3328.0,-0.000879173050634563
3584.0,-0.006097822915762663
3840.0,-0.007186735514551401
4096.0,-0.008105902001261711
4608.0,-0.0024929149076342583
5120.0,-0.000841543369460851
5632.0,0.007665322627872229
6144.0,-0.003598660696297884
6656.0,-0.0029843170195817947
7168.0,0.0025937072932720184
7680.0,0.00032169290352612734
8192.0,-0.0015491909580305219
end
