version,3.0
numOfCh,1
type,point
parent_name,0cd20_0dot08-0dot1
ch_type,1_1
kcount,1
numberNandB,1
brightnessNandB,1
carpet pos,0
pc,0
Time (ms),CH1 Auto-Correlation
1.0,0.06028980016708374
2.0,0.05949670448899269
3.0,0.058759674429893494
4.0,0.05805595591664314
5.0,0.05739547312259674
6.0,0.0567641481757164
7.0,0.05614534392952919
8.0,0.055490970611572266
9.0,0.054868679493665695
10.0,0.054293230175971985
11.0,0.0537218414247036
12.0,0.05318167805671692
13.0,0.05265629664063454
14.0,0.05212615430355072
15.0,0.051605913788080215
16.0,0.0510844811797142
18.0,0.050049446523189545
20.0,0.04907763749361038
22.0,0.04814786836504936
24.0,0.047250814735889435
26.0,0.04636253044009209
28.0,0.04546073079109192
30.0,0.04458724334836006
32.0,0.043779321014881134
36.0,0.04224250093102455
40.0,0.04092060774564743
44.0,0.0397043377161026
48.0,0.03857509791851044
52.0,0.03745952248573303
56.0,0.0363926962018013
60.0,0.035475946962833405
64.0,0.03438982367515564
72.0,0.03202999010682106
80.0,0.0300422515720129
88.0,0.02833794429898262
96.0,0.026794113218784332
104.0,0.025376882404088974
112.0,0.02428044192492962
120.0,0.023021351546049118
128.0,0.02188703790307045
144.0,0.019754964858293533
160.0,0.017952075228095055
176.0,0.016795564442873
192.0,0.015593986958265305
208.0,0.01490887999534607
224.0,0.014523984864354134
240.0,0.013395926915109158
256.0,0.011295388452708721
288.0,0.007337125949561596
320.0,0.005065858829766512
352.0,0.004447689279913902
384.0,0.004261376336216927
416.0,0.003643396543338895
448.0,0.0038471759762614965
480.0,0.003927084617316723
512.0,0.003075683256611228
576.0,0.0015568964881822467
640.0,-0.0019836388528347015
704.0,-0.0034641146194189787
768.0,-0.0003108367382083088
832.0,0.0013996200868859887
896.0,0.0038297728169709444
960.0,0.006638880353420973
1024.0,0.008410925045609474
1152.0,0.008021336048841476
1280.0,0.0006403475999832153
1408.0,-0.0067135607823729515
1536.0,-0.012898959219455719
1664.0,-0.008393501862883568
1792.0,-0.00824867282062769
1920.0,-0.011919468641281128
2048.0,-0.012959636747837067
2304.0,-0.010058139450848103
2560.0,-0.011841603554785252
2816.0,-0.007207576651126146
3072.0,-0.006598504260182381
3328.0,-0.009035442024469376
3584.0,-0.0010659226682037115
3840.0,0.0006706886924803257
4096.0,0.006179209798574448
4608.0,0.01086081936955452
5120.0,0.016801776364445686
5632.0,0.009536566212773323
6144.0,-0.00019546246039681137
6656.0,-0.008408576250076294
7168.0,-0.019583450630307198
7680.0,-0.0072607602924108505
8192.0,-0.005793505813926458
end
