version,3.0
numOfCh,1
type,point
parent_name,0cd20_0dot08-0dot1
ch_type,1_1
kcount,1
numberNandB,1
brightnessNandB,1
carpet pos,0
pc,0
Time (ms),CH1 Auto-Correlation
1.0,0.07792223989963531
2.0,0.07708078622817993
3.0,0.07627230137586594
4.0,0.07550954073667526
5.0,0.07477429509162903
6.0,0.07408323138952255
7.0,0.07339997589588165
8.0,0.07268688827753067
9.0,0.07203811407089233
10.0,0.07141833007335663
11.0,0.07081812620162964
12.0,0.07024601101875305
13.0,0.06967493891716003
14.0,0.06909561157226562
15.0,0.06853405386209488
16.0,0.0680064931511879
18.0,0.0669262483716011
20.0,0.06588348001241684
22.0,0.06479935348033905
24.0,0.06375416368246078
26.0,0.06270816922187805
28.0,0.06168277934193611
30.0,0.06060366332530975
32.0,0.05961716175079346
36.0,0.05770178511738777
40.0,0.055869221687316895
44.0,0.05402947962284088
48.0,0.05217323824763298
52.0,0.05046439170837402
56.0,0.048858702182769775
60.0,0.04736510291695595
64.0,0.04593794792890549
72.0,0.04308594763278961
80.0,0.040547747164964676
88.0,0.03843556344509125
96.0,0.03660135343670845
104.0,0.03497469052672386
112.0,0.03370480239391327
120.0,0.0326668955385685
128.0,0.031237110495567322
144.0,0.02770240791141987
160.0,0.024448787793517113
176.0,0.021324824541807175
192.0,0.019446734338998795
208.0,0.018430408090353012
224.0,0.017989827319979668
240.0,0.017871251329779625
256.0,0.01767577975988388
288.0,0.01623922400176525
320.0,0.01445801742374897
352.0,0.012457999400794506
384.0,0.01072592381387949
416.0,0.009081857278943062
448.0,0.007196316961199045
480.0,0.006577436812222004
512.0,0.004837873391807079
576.0,0.003369112964719534
640.0,0.0017554104560986161
704.0,0.00027548553771339357
768.0,-0.0017243457259610295
832.0,-0.0013132099993526936
896.0,-0.0019051091512665153
960.0,-0.0018333711195737123
1024.0,-0.004048350267112255
1152.0,-0.004816641099750996
1280.0,-0.002534240949898958
1408.0,-0.0008494383073411882
1536.0,-0.007457605563104153
1664.0,-0.007882876321673393
1792.0,-0.003926163539290428
1920.0,0.0021662062499672174
2048.0,-0.0030375621281564236
2304.0,-0.01050748210400343
2560.0,-0.0035834726877510548
2816.0,0.00431471224874258
3072.0,0.008043208159506321
3328.0,0.006613211240619421
3584.0,0.0035744505003094673
3840.0,-0.0021953198593109846
4096.0,6.277648935792968e-05
4608.0,0.003603218123316765
5120.0,-0.007427794858813286
5632.0,-0.010054698213934898
6144.0,0.00014363192894961685
6656.0,-0.008341491222381592
7168.0,-0.004624523222446442
7680.0,0.0005570800858549774
8192.0,-0.0015693174209445715
end
