version,3.0
numOfCh,1
type,point
parent_name,0cd20_0dot08-0dot1
ch_type,1_1
kcount,1
numberNandB,1
brightnessNandB,1
carpet pos,0
pc,0
Time (ms),CH1 Auto-Correlation
1.0,0.07228434830904007
2.0,0.07164731621742249
3.0,0.07104241102933884
4.0,0.07045358419418335
5.0,0.06987616419792175
6.0,0.06931481510400772
7.0,0.06876432150602341
8.0,0.06822679191827774
9.0,0.06768722832202911
10.0,0.06715992093086243
11.0,0.06663790345191956
12.0,0.06610685586929321
13.0,0.06561318039894104
14.0,0.06512502580881119
15.0,0.0646318718791008
16.0,0.06414636224508286
18.0,0.06325852870941162
20.0,0.062407396733760834
22.0,0.06151973083615303
24.0,0.060615699738264084
26.0,0.05974555388092995
28.0,0.05886043235659599
30.0,0.05797890946269035
32.0,0.057113729417324066
36.0,0.055501654744148254
40.0,0.053963273763656616
44.0,0.05247432738542557
48.0,0.05109222233295441
52.0,0.04977727308869362
56.0,0.048603594303131104
60.0,0.04755561798810959
64.0,0.04656996950507164
72.0,0.04448791965842247
80.0,0.04255126044154167
88.0,0.04102817550301552
96.0,0.03947319835424423
104.0,0.037840068340301514
112.0,0.03663204610347748
120.0,0.035562146455049515
128.0,0.03437551483511925
144.0,0.03159758448600769
160.0,0.028658738359808922
176.0,0.025849228724837303
192.0,0.023743128404021263
208.0,0.022268984466791153
224.0,0.021068351343274117
240.0,0.019391322508454323
256.0,0.017487715929746628
288.0,0.01665983907878399
320.0,0.015914345160126686
352.0,0.013955006375908852
384.0,0.010738280601799488
416.0,0.007185253314673901
448.0,0.003090150421485305
480.0,-0.0006622573127970099
512.0,-0.004921892192214727
576.0,-0.01135711558163166
640.0,-0.01591866835951805
704.0,-0.01654270477592945
768.0,-0.016612043604254723
832.0,-0.013867241330444813
896.0,-0.010058099403977394
960.0,-0.00734481168910861
1024.0,-0.008304099552333355
1152.0,-0.0030712231528013945
1280.0,0.002036100020632148
1408.0,0.0019309606868773699
1536.0,-0.002778342692181468
1664.0,-0.0037588486447930336
1792.0,-0.0019950035493820906
1920.0,-0.001134440186433494
2048.0,0.0025440771132707596
2304.0,0.004422201309353113
2560.0,-0.0037339807022362947
2816.0,-0.009682456031441689
3072.0,-0.009476378560066223
3328.0,-0.003382880939170718
3584.0,0.0012645748211070895
3840.0,-0.0005961685092188418
4096.0,0.0004891701391898096
4608.0,0.00390940997749567
5120.0,-0.0002453629276715219
5632.0,-0.008509938605129719
6144.0,0.0013015419244766235
6656.0,-0.0007229578332044184
7168.0,0.007744920440018177
7680.0,-0.012200585566461086
8192.0,-0.01953897625207901
end
