version,3.0
numOfCh,1
type,point
parent_name,0cd20_0dot08-0dot1
ch_type,1_1
kcount,1
numberNandB,1
brightnessNandB,1
carpet pos,0
pc,0
Time (ms),CH1 Auto-Correlation
1.0,0.077078677713871
2.0,0.07648559659719467
3.0,0.07593130320310593
4.0,0.07540518045425415
5.0,0.07491989433765411
6.0,0.07445677369832993
7.0,0.07400158792734146
8.0,0.07357069849967957
9.0,0.07313572615385056
10.0,0.07271531969308853
11.0,0.07230456918478012
12.0,0.07188978046178818
13.0,0.07146952301263809
14.0,0.07107513397932053
15.0,0.07067137211561203
16.0,0.07030239701271057
18.0,0.06957253068685532
20.0,0.06881774216890335
22.0,0.06805948913097382
24.0,0.06735814362764359
26.0,0.06666771322488785
28.0,0.06591802835464478
30.0,0.06518014520406723
32.0,0.06447923928499222
36.0,0.06310905516147614
40.0,0.06160973012447357
44.0,0.06016629934310913
48.0,0.058850716799497604
52.0,0.05756305158138275
56.0,0.05634293332695961
60.0,0.05520235374569893
64.0,0.054095230996608734
72.0,0.05207430198788643
80.0,0.050349120050668716
88.0,0.048869311809539795
96.0,0.04760168492794037
104.0,0.046281035989522934
112.0,0.04508063569664955
120.0,0.04375021904706955
128.0,0.04232333227992058
144.0,0.03977620229125023
160.0,0.03713509440422058
176.0,0.03466152027249336
192.0,0.031964484602212906
208.0,0.029494253918528557
224.0,0.02754608541727066
240.0,0.025844786316156387
256.0,0.0243514496833086
288.0,0.021704573184251785
320.0,0.017664743587374687
352.0,0.01338693406432867
384.0,0.010913294740021229
416.0,0.01023983582854271
448.0,0.009923339821398258
480.0,0.008785461075603962
512.0,0.007760022766888142
576.0,0.006951238960027695
640.0,0.005682476796209812
704.0,0.004110369365662336
768.0,0.0008254787535406649
832.0,-0.002931357594206929
896.0,-0.005710108205676079
960.0,-0.008264432661235332
1024.0,-0.008508389815688133
1152.0,-0.005597415380179882
1280.0,0.000810359138995409
1408.0,0.00225832243449986
1536.0,-0.0009380673873238266
1664.0,-0.0002291605487698689
1792.0,0.004885174799710512
1920.0,0.008391153998672962
2048.0,0.006144611164927483
2304.0,0.0008408189751207829
2560.0,0.0003355012449901551
2816.0,0.004417382180690765
3072.0,-0.0011661836178973317
3328.0,-0.0009900693548843265
3584.0,0.0050778682343661785
3840.0,0.015332333743572235
4096.0,0.010604076087474823
4608.0,-0.014797602780163288
5120.0,-0.021784666925668716
5632.0,-0.008779788389801979
6144.0,-0.0012370977783575654
6656.0,-0.008517945185303688
7168.0,-0.013314147479832172
7680.0,-0.0009109205566346645
8192.0,-0.005288335960358381
end
