version,3.0
numOfCh,1
type,point
parent_name,0cd20_0dot08-0dot1
ch_type,1_1
kcount,1
numberNandB,1
brightnessNandB,1
carpet pos,0
pc,0
Time (ms),CH1 Auto-Correlation
1.0,0.07799080014228821
2.0,0.07732361555099487
3.0,0.0766841322183609
4.0,0.07607443630695343
5.0,0.07545073330402374
6.0,0.07484257221221924
7.0,0.07420837879180908
8.0,0.07361889630556107
9.0,0.07298697531223297
10.0,0.07242890447378159
11.0,0.07179229706525803
12.0,0.0712086632847786
13.0,0.07060454040765762
14.0,0.07006094604730606
15.0,0.06949004530906677
16.0,0.06896347552537918
18.0,0.06787427514791489
20.0,0.06681279838085175
22.0,0.06580889970064163
24.0,0.06480090320110321
26.0,0.06387988477945328
28.0,0.06297559291124344
30.0,0.062153160572052
32.0,0.061364904046058655
36.0,0.05971710756421089
40.0,0.058147888630628586
44.0,0.056681614369153976
48.0,0.05533678084611893
52.0,0.05396160110831261
56.0,0.052620504051446915
60.0,0.05128980427980423
64.0,0.049998801201581955
72.0,0.04780550301074982
80.0,0.045777205377817154
88.0,0.04400574043393135
96.0,0.042464446276426315
104.0,0.04101325944066048
112.0,0.03972133249044418
120.0,0.03868739679455757
128.0,0.03771396353840828
144.0,0.03547393158078194
160.0,0.03296197950839996
176.0,0.03038341924548149
192.0,0.028380153700709343
208.0,0.02693992853164673
224.0,0.025532316416502
240.0,0.024193642660975456
256.0,0.023180730640888214
288.0,0.021323643624782562
320.0,0.017881790176033974
352.0,0.01479205023497343
384.0,0.013273835182189941
416.0,0.01276014931499958
448.0,0.012332439422607422
480.0,0.0118964072316885
512.0,0.011966666206717491
576.0,0.010345572605729103
640.0,0.009085703641176224
704.0,0.011548571288585663
768.0,0.012666559778153896
832.0,0.01506371796131134
896.0,0.013683473691344261
960.0,0.01225184090435505
1024.0,0.013498899526894093
1152.0,0.011712510138750076
1280.0,0.006767005193978548
1408.0,0.002210949780419469
1536.0,0.0060955192893743515
1664.0,0.00795604195445776
1792.0,0.00813860073685646
1920.0,0.0049798875115811825
2048.0,0.007628407329320908
2304.0,0.004821664188057184
2560.0,7.514739991165698e-05
2816.0,6.716956704622135e-05
3072.0,0.003776107681915164
3328.0,-0.0023077032528817654
3584.0,-0.0018205480882897973
3840.0,0.007049822248518467
4096.0,0.008013606071472168
4608.0,0.0007490795687772334
5120.0,4.99691896038712e-06
5632.0,0.0009697021450847387
6144.0,-0.00817193929105997
6656.0,-0.0054792677983641624
7168.0,0.0022719651460647583
7680.0,-0.0059883794747292995
8192.0,0.004818918649107218
end
