version,3.0
numOfCh,1
type,point
parent_name,0cd20_0dot08-0dot1
ch_type,1_1
kcount,1
numberNandB,1
brightnessNandB,1
carpet pos,0
pc,0
Time (ms),CH1 Auto-Correlation
1.0,0.0760568231344223
2.0,0.07521932572126389
3.0,0.07454606145620346
4.0,0.07393784821033478
5.0,0.07335327565670013
6.0,0.07280848175287247
7.0,0.07227849215269089
8.0,0.0717330276966095
9.0,0.07120700180530548
10.0,0.07072924077510834
11.0,0.07021930813789368
12.0,0.06972355395555496
13.0,0.06924358010292053
14.0,0.06870681792497635
15.0,0.06808501482009888
16.0,0.0675235465168953
18.0,0.06657839566469193
20.0,0.0654497817158699
22.0,0.06427229940891266
24.0,0.06328892707824707
26.0,0.062169548124074936
28.0,0.06118692457675934
30.0,0.060187097638845444
32.0,0.05916178598999977
36.0,0.05726102739572525
40.0,0.05576508864760399
44.0,0.054230835288763046
48.0,0.05268627032637596
52.0,0.0513196624815464
56.0,0.05017615482211113
60.0,0.04909816384315491
64.0,0.04808199778199196
72.0,0.04614507034420967
80.0,0.044342394918203354
88.0,0.04270007088780403
96.0,0.04119211807847023
104.0,0.03978888690471649
112.0,0.038398560136556625
120.0,0.03710188344120979
128.0,0.035863928496837616
144.0,0.03346310555934906
160.0,0.031245827674865723
176.0,0.02989319898188114
192.0,0.029456771910190582
208.0,0.028773564845323563
224.0,0.027425803244113922
240.0,0.025596100836992264
256.0,0.023819170892238617
288.0,0.019808297976851463
320.0,0.01728767156600952
352.0,0.01547717209905386
384.0,0.012260111048817635
416.0,0.008743860758841038
448.0,0.005998917855322361
480.0,0.005080723203718662
512.0,0.006008228287100792
576.0,0.007034344598650932
640.0,0.007847554050385952
704.0,0.009085172787308693
768.0,0.007692320272326469
832.0,0.007423243019729853
896.0,0.013424962759017944
960.0,0.019250985234975815
1024.0,0.019929667934775352
1152.0,0.018848268315196037
1280.0,0.011988619342446327
1408.0,0.006946895737200975
1536.0,0.008323872461915016
1664.0,0.005990836303681135
1792.0,0.0005406623240560293
1920.0,-0.0029169938061386347
2048.0,0.0015537708532065153
2304.0,0.00440211733803153
2560.0,-1.8999742678715847e-05
2816.0,-0.007468858268111944
3072.0,-0.010145656764507294
3328.0,-0.005704051349312067
3584.0,-0.002223905408754945
3840.0,0.002111655892804265
4096.0,-0.0015417960239574313
4608.0,-0.0032419213093817234
5120.0,-0.004280284512788057
5632.0,-0.0016905480297282338
6144.0,-0.010189591906964779
6656.0,-0.011735513806343079
7168.0,-0.010747182182967663
7680.0,-0.01585744321346283
8192.0,-0.01439231913536787
end
