version,3.0
numOfCh,1
type,point
parent_name,0cd20_0dot08-0dot1
ch_type,1_1
kcount,1
numberNandB,1
brightnessNandB,1
carpet pos,0
pc,0
Time (ms),CH1 Auto-Correlation
1.0,0.08555935323238373
2.0,0.08466670662164688
3.0,0.08376824110746384
4.0,0.08302289247512817
5.0,0.08227765560150146
6.0,0.08151360601186752
7.0,0.08083855360746384
8.0,0.08018955588340759
9.0,0.07943128794431686
10.0,0.07864142954349518
11.0,0.07791512459516525
12.0,0.07718824595212936
13.0,0.07654453068971634
14.0,0.07582274824380875
15.0,0.07517436146736145
16.0,0.07448370009660721
18.0,0.0731404721736908
20.0,0.07184963673353195
22.0,0.07062326371669769
24.0,0.06937943398952484
26.0,0.06815352290868759
28.0,0.06695403158664703
30.0,0.06584212183952332
32.0,0.06478007137775421
36.0,0.06290050595998764
40.0,0.06124703213572502
44.0,0.05968496575951576
48.0,0.058013103902339935
52.0,0.05611586198210716
56.0,0.05423485487699509
60.0,0.05243175849318504
64.0,0.050759457051754
72.0,0.04759792983531952
80.0,0.0444793701171875
88.0,0.04180779308080673
96.0,0.039760835468769073
104.0,0.03787166625261307
112.0,0.0360577367246151
120.0,0.03422016277909279
128.0,0.032169826328754425
144.0,0.02905462309718132
160.0,0.025976158678531647
176.0,0.023367032408714294
192.0,0.02177930437028408
208.0,0.02077700011432171
224.0,0.020025311037898064
240.0,0.01913687214255333
256.0,0.01897125504910946
288.0,0.017753755673766136
320.0,0.016750691458582878
352.0,0.01573038473725319
384.0,0.013636135496199131
416.0,0.012553652748465538
448.0,0.010012268088757992
480.0,0.007909214124083519
512.0,0.008058222942054272
576.0,0.0069715483114123344
640.0,0.007566045504063368
704.0,0.007616599090397358
768.0,0.008485596626996994
832.0,0.009345759637653828
896.0,0.006927788257598877
960.0,0.0003889187064487487
1024.0,-0.0026301362086087465
1152.0,-0.0006453103269450366
1280.0,0.0010239820694550872
1408.0,-0.0015804445138201118
1536.0,0.0035727957729250193
1664.0,0.004208994563668966
1792.0,-0.0013808842049911618
1920.0,-0.002715982962399721
2048.0,-0.0011552030919119716
2304.0,-0.004899965599179268
2560.0,0.0014111072523519397
2816.0,0.0005145930335856974
3072.0,-0.0014155225362628698
3328.0,0.009724695235490799
3584.0,0.010474974289536476
3840.0,0.013499921187758446
4096.0,0.00900933425873518
4608.0,0.012184283696115017
5120.0,-0.0044607846066355705
5632.0,-0.011001650243997574
6144.0,-0.011031725443899632
6656.0,-0.005360656883567572
7168.0,0.008625270798802376
7680.0,-0.006351301446557045
8192.0,-0.010590425692498684
end
