version,3.0
numOfCh,1
type,point
parent_name,0cd20_0dot08-0dot1
ch_type,1_1
kcount,1
numberNandB,1
brightnessNandB,1
carpet pos,0
pc,0
Time (ms),CH1 Auto-Correlation
1.0,0.0636763870716095
2.0,0.06309330463409424
3.0,0.06253965198993683
4.0,0.062009479850530624
5.0,0.06151678413152695
6.0,0.061024706810712814
7.0,0.060539837926626205
8.0,0.060054127126932144
9.0,0.05960606783628464
10.0,0.05916620045900345
11.0,0.05876842513680458
12.0,0.058362867683172226
13.0,0.05795444920659065
14.0,0.057542506605386734
15.0,0.057123661041259766
16.0,0.05670278146862984
18.0,0.055914875119924545
20.0,0.05517725646495819
22.0,0.05446454510092735
24.0,0.05383268743753433
26.0,0.05319090932607651
28.0,0.052520785480737686
30.0,0.05184261500835419
32.0,0.051146842539310455
36.0,0.049821510910987854
40.0,0.04843487590551376
44.0,0.04708801954984665
48.0,0.04582242667675018
52.0,0.04461962357163429
56.0,0.04345123842358589
60.0,0.04232119768857956
64.0,0.04126249626278877
72.0,0.039092905819416046
80.0,0.036973737180233
88.0,0.03484224155545235
96.0,0.03278287872672081
104.0,0.030721833929419518
112.0,0.02852593921124935
120.0,0.026289964094758034
128.0,0.0245121568441391
144.0,0.02220294438302517
160.0,0.019955100491642952
176.0,0.01810651458799839
192.0,0.01623833179473877
208.0,0.014442902989685535
224.0,0.013458531349897385
240.0,0.012298435904085636
256.0,0.011131647042930126
288.0,0.008958804421126842
320.0,0.007307837251573801
352.0,0.006392982322722673
384.0,0.005376380402594805
416.0,0.005224989261478186
448.0,0.005929859355092049
480.0,0.007013371679931879
512.0,0.008449145592749119
576.0,0.010339146479964256
640.0,0.01031463872641325
704.0,0.00978081300854683
768.0,0.010688460431993008
832.0,0.012313918210566044
896.0,0.012692660093307495
960.0,0.011392396874725819
1024.0,0.010573707520961761
1152.0,0.0082777738571167
1280.0,0.0029932246543467045
1408.0,-0.00047714862739667296
1536.0,-0.0029519558884203434
1664.0,-0.004213648848235607
1792.0,-0.002260965993627906
1920.0,0.0006175696034915745
2048.0,-0.00015069084474816918
2304.0,-0.009353144094347954
2560.0,-0.0024574596900492907
2816.0,-0.008404625579714775
3072.0,-0.014698105864226818
3328.0,-0.004409364890307188
3584.0,-0.00887419655919075
3840.0,-0.00014691968681290746
4096.0,0.002951746340841055
4608.0,0.003401429858058691
5120.0,0.005794755183160305
5632.0,0.0049323090352118015
6144.0,-0.003215038450434804
6656.0,0.001433703349903226
7168.0,-0.012141391634941101
7680.0,-0.005635840352624655
8192.0,-0.013461113907396793
end
