version,3.0
numOfCh,1
type,point
parent_name,0cd20_0dot08-0dot1
ch_type,1_1
kcount,1
numberNandB,1
brightnessNandB,1
carpet pos,0
pc,0
Time (ms),CH1 Auto-Correlation
1.0,0.06356699764728546
2.0,0.06293903291225433
3.0,0.062329068779945374
4.0,0.0617232471704483
5.0,0.06115397438406944
6.0,0.060595545917749405
7.0,0.060064151883125305
8.0,0.059555262327194214
9.0,0.059059370309114456
10.0,0.058601539582014084
11.0,0.058145903050899506
12.0,0.05768999457359314
13.0,0.05724852904677391
14.0,0.0568026565015316
15.0,0.05638286843895912
16.0,0.05593941733241081
18.0,0.05505077540874481
20.0,0.05410072207450867
22.0,0.05317745357751846
24.0,0.05230595916509628
26.0,0.05145764350891113
28.0,0.050662778317928314
30.0,0.04987632483243942
32.0,0.04914233461022377
36.0,0.04779709130525589
40.0,0.046471524983644485
44.0,0.04505428671836853
48.0,0.0436660572886467
52.0,0.04239455983042717
56.0,0.04123597592115402
60.0,0.04017547145485878
64.0,0.039130259305238724
72.0,0.03717828169465065
80.0,0.03530129790306091
88.0,0.033440086990594864
96.0,0.03180650994181633
104.0,0.030342336744070053
112.0,0.0289260596036911
120.0,0.027497004717588425
128.0,0.026315664872527122
144.0,0.024645144119858742
160.0,0.02315196394920349
176.0,0.02190595120191574
192.0,0.021380819380283356
208.0,0.020858794450759888
224.0,0.020736990496516228
240.0,0.020783431828022003
256.0,0.02060217596590519
288.0,0.019136812537908554
320.0,0.01662345789372921
352.0,0.013684415258467197
384.0,0.01086354348808527
416.0,0.008649708703160286
448.0,0.006682280916720629
480.0,0.005373354535549879
512.0,0.00432408694177866
576.0,0.0029389699921011925
640.0,-0.0006059675943106413
704.0,-0.003221931867301464
768.0,-0.002796530956402421
832.0,-0.0018941169837489724
896.0,-0.003723123110830784
960.0,-0.005066075827926397
1024.0,-0.007166682742536068
1152.0,-0.006595173850655556
1280.0,-0.0015984844649210572
1408.0,-0.0032803555950522423
1536.0,-0.0008176274714060128
1664.0,0.002330570016056299
1792.0,0.00040491324034519494
1920.0,-0.0015847402391955256
2048.0,0.00021582313638646156
2304.0,0.002168365754187107
2560.0,-0.002496850211173296
2816.0,-0.00829854141920805
3072.0,-0.0120740020647645
3328.0,-0.005085233133286238
3584.0,0.0026919820811599493
3840.0,0.006488111335784197
4096.0,0.0019961369689553976
4608.0,-0.009952322579920292
5120.0,0.0044100345112383366
5632.0,0.010588441044092178
6144.0,0.004881180357187986
6656.0,-0.00030627864180132747
7168.0,-0.0031284496653825045
7680.0,0.0016046080272644758
8192.0,-0.01531783677637577
end
