version,3.0
numOfCh,1
type,point
parent_name,0cd20_0dot08-0dot1
ch_type,1_1
kcount,1
numberNandB,1
brightnessNandB,1
carpet pos,0
pc,0
Time (ms),CH1 Auto-Correlation
1.0,0.04520846903324127
2.0,0.04471435770392418
3.0,0.04423324391245842
4.0,0.043758414685726166
5.0,0.04329174757003784
6.0,0.04282180219888687
7.0,0.042361851781606674
8.0,0.041909828782081604
9.0,0.04147066920995712
10.0,0.04103448614478111
11.0,0.04059950262308121
12.0,0.04016873612999916
13.0,0.03974536806344986
14.0,0.03932974487543106
15.0,0.0389140285551548
16.0,0.03851751983165741
18.0,0.037741970270872116
20.0,0.03695937991142273
22.0,0.036160390824079514
24.0,0.03537171706557274
26.0,0.03462248295545578
28.0,0.03388547524809837
30.0,0.03318842127919197
32.0,0.032545916736125946
36.0,0.03136079013347626
40.0,0.030302129685878754
44.0,0.029272666200995445
48.0,0.028263747692108154
52.0,0.027328791096806526
56.0,0.026423310860991478
60.0,0.025534210726618767
64.0,0.024678293615579605
72.0,0.022986076772212982
80.0,0.021495068445801735
88.0,0.02023295685648918
96.0,0.019087502732872963
104.0,0.018008533865213394
112.0,0.01690257154405117
120.0,0.015740418806672096
128.0,0.014643289148807526
144.0,0.01319913286715746
160.0,0.011963623575866222
176.0,0.010225645266473293
192.0,0.008992784656584263
208.0,0.008211721666157246
224.0,0.007333049550652504
240.0,0.00622702669352293
256.0,0.00558746512979269
288.0,0.00450654374435544
320.0,0.004857034422457218
352.0,0.004415011033415794
384.0,0.004735067021101713
416.0,0.005064660683274269
448.0,0.004122381564229727
480.0,0.0037370917852967978
512.0,0.003769402392208576
576.0,0.0024186496157199144
640.0,0.0006258448702283204
704.0,-0.0004831845290027559
768.0,-0.0003588774998206645
832.0,0.0005684769130311906
896.0,0.0014504127902910113
960.0,0.00306473346427083
1024.0,0.0025688346941024065
1152.0,0.0012205500388517976
1280.0,-4.711123256129213e-05
1408.0,-0.002162824384868145
1536.0,-0.0025389965157955885
1664.0,-0.00152579287532717
1792.0,-0.001711321179755032
1920.0,-0.000457114219898358
2048.0,1.0098781785927713e-05
2304.0,-0.0005790102295577526
2560.0,-0.006328349933028221
2816.0,-0.005356383044272661
3072.0,-0.003978898748755455
3328.0,0.004129413515329361
3584.0,0.002218828769400716
3840.0,0.006979566533118486
4096.0,0.0033927708864212036
4608.0,-0.0011652791872620583
5120.0,-0.00014524803555104882
5632.0,-0.0010414642747491598
6144.0,-0.0015890103532001376
6656.0,-0.002743359887972474
7168.0,0.0004258266417309642
7680.0,0.002078660996630788
8192.0,0.00014294042193796486
end
