version,3.0
numOfCh,1
type,point
parent_name,0cd20_0dot08-0dot1
ch_type,1_1
kcount,1
numberNandB,1
brightnessNandB,1
carpet pos,0
pc,0
Time (ms),CH1 Auto-Correlation
1.0,0.058459945023059845
2.0,0.05779752880334854
3.0,0.057216156274080276
4.0,0.05657467991113663
5.0,0.05593874678015709
6.0,0.055347561836242676
7.0,0.05477960780262947
8.0,0.05423124507069588
9.0,0.05369510501623154
10.0,0.053173281252384186
11.0,0.052656061947345734
12.0,0.052136000245809555
13.0,0.05162199214100838
14.0,0.0511246882379055
15.0,0.05063964053988457
16.0,0.05013258382678032
18.0,0.04912278428673744
20.0,0.04814090579748154
22.0,0.047186609357595444
24.0,0.04621221125125885
26.0,0.04523362219333649
28.0,0.04429622367024422
30.0,0.04345573112368584
32.0,0.04265826195478439
36.0,0.04120136424899101
40.0,0.03980473428964615
44.0,0.03847448527812958
48.0,0.037236861884593964
52.0,0.035867806524038315
56.0,0.03449166566133499
60.0,0.0330817736685276
64.0,0.03161796182394028
72.0,0.028571277856826782
80.0,0.02560395374894142
88.0,0.023166561499238014
96.0,0.021251820027828217
104.0,0.019834531471133232
112.0,0.018564214929938316
120.0,0.0175290759652853
128.0,0.016538236290216446
144.0,0.014472994953393936
160.0,0.011672519147396088
176.0,0.008779891766607761
192.0,0.006481325253844261
208.0,0.004573768004775047
224.0,0.003296690061688423
240.0,0.002841695211827755
256.0,0.0025269542820751667
288.0,0.0027651044074445963
320.0,0.0013108064886182547
352.0,-0.0006120411562733352
384.0,-0.001733186305500567
416.0,-0.0034847408533096313
448.0,-0.004675460513681173
480.0,-0.006098032463341951
512.0,-0.0075800735503435135
576.0,-0.0036697876639664173
640.0,-0.001618552370928228
704.0,-0.003474863711744547
768.0,-0.004904889967292547
832.0,-0.003221473889425397
896.0,-0.0005119097768329084
960.0,6.6048478402080946e-06
1024.0,0.001916742417961359
1152.0,-0.0014418073697015643
1280.0,-0.005288800224661827
1408.0,-0.002648938912898302
1536.0,0.0013883198844268918
1664.0,-0.004524447489529848
1792.0,-0.010107874870300293
1920.0,-0.009067289531230927
2048.0,-0.0005638812435790896
2304.0,0.005383050534874201
2560.0,0.002536084735766053
2816.0,0.0008998204139061272
3072.0,-0.0027145706117153168
3328.0,0.0008101524435915053
3584.0,0.0009477672283537686
3840.0,-0.0013924094382673502
4096.0,-0.005741126369684935
4608.0,-0.0007390968385152519
5120.0,-0.0030848446767777205
5632.0,0.001449639443308115
6144.0,0.0032692844979465008
6656.0,-0.0016313022933900356
7168.0,0.002888205461204052
7680.0,-0.0028922567144036293
8192.0,0.0003531018446665257
end
