version,3.0
numOfCh,1
type,point
parent_name,0cd20_0dot08-0dot1
ch_type,1_1
kcount,1
numberNandB,1
brightnessNandB,1
carpet pos,0
pc,0
Time (ms),CH1 Auto-Correlation
1.0,0.08343654125928879
2.0,0.08270006626844406
3.0,0.08201238512992859
4.0,0.08132492750883102
5.0,0.08069232851266861
6.0,0.08014196902513504
7.0,0.07957840710878372
8.0,0.07901164144277573
9.0,0.0784326121211052
10.0,0.07785217463970184
11.0,0.0772956907749176
12.0,0.0767458900809288
13.0,0.07620551437139511
14.0,0.07568957656621933
15.0,0.07519099861383438
16.0,0.07468882948160172
18.0,0.07375320792198181
20.0,0.07286997884511948
22.0,0.0720181092619896
24.0,0.07116170972585678
26.0,0.07031077891588211
28.0,0.06948033720254898
30.0,0.06868115812540054
32.0,0.0678996816277504
36.0,0.06647223234176636
40.0,0.06513816118240356
44.0,0.06390203535556793
48.0,0.0627092719078064
52.0,0.0617598332464695
56.0,0.06093863397836685
60.0,0.06010446697473526
64.0,0.059304557740688324
72.0,0.057337164878845215
80.0,0.05511452257633209
88.0,0.053128816187381744
96.0,0.051549144089221954
104.0,0.050047002732753754
112.0,0.04873190447688103
120.0,0.04754384234547615
128.0,0.04650004580616951
144.0,0.04431977495551109
160.0,0.041930004954338074
176.0,0.03974354267120361
192.0,0.037618476897478104
208.0,0.03514120355248451
224.0,0.033172961324453354
240.0,0.03141032159328461
256.0,0.029880447313189507
288.0,0.02724619396030903
320.0,0.0246611088514328
352.0,0.023559466004371643
384.0,0.02373358979821205
416.0,0.024108147248625755
448.0,0.024099502712488174
480.0,0.023773876950144768
512.0,0.023043813183903694
576.0,0.020827537402510643
640.0,0.019877109676599503
704.0,0.022049739956855774
768.0,0.023176800459623337
832.0,0.02291148528456688
896.0,0.02491271123290062
960.0,0.023896556347608566
1024.0,0.021345408633351326
1152.0,0.020577093586325645
1280.0,0.02432016097009182
1408.0,0.027991577982902527
1536.0,0.022786322981119156
1664.0,0.012109101749956608
1792.0,0.006752670276910067
1920.0,0.010750966146588326
2048.0,0.01390216313302517
2304.0,0.021102378144860268
2560.0,0.0200076624751091
2816.0,0.011423753574490547
3072.0,0.003043566131964326
3328.0,0.005932135041803122
3584.0,0.012488948181271553
3840.0,0.010104062967002392
4096.0,0.001557559589855373
4608.0,-0.00024857232347130775
5120.0,-0.007848248817026615
5632.0,-0.028275780379772186
6144.0,-0.026669222861528397
6656.0,-0.03183617442846298
7168.0,-0.028333041816949844
7680.0,-0.021862363442778587
8192.0,-0.030732398852705956
end
