version,3.0
numOfCh,1
type,point
parent_name,0cd20_0dot08-0dot1
ch_type,1_1
kcount,1
numberNandB,1
brightnessNandB,1
carpet pos,0
pc,0
Time (ms),CH1 Auto-Correlation
1.0,0.06582123786211014
2.0,0.06513837724924088
3.0,0.06451128423213959
4.0,0.06388672441244125
5.0,0.06328727304935455
6.0,0.06273749470710754
7.0,0.062208566814661026
8.0,0.06166587397456169
9.0,0.06112096458673477
10.0,0.0605909638106823
11.0,0.06005600094795227
12.0,0.05953001603484154
13.0,0.05901613086462021
14.0,0.05849113315343857
15.0,0.058005884289741516
16.0,0.05753208324313164
18.0,0.056564971804618835
20.0,0.05561164766550064
22.0,0.05464823544025421
24.0,0.05368975177407265
26.0,0.052732083946466446
28.0,0.051834821701049805
30.0,0.05100160092115402
32.0,0.05027029663324356
36.0,0.04889577254652977
40.0,0.04756879061460495
44.0,0.04644564539194107
48.0,0.04547088220715523
52.0,0.044483330100774765
56.0,0.04365260526537895
60.0,0.04295342415571213
64.0,0.042305268347263336
72.0,0.041454583406448364
80.0,0.04063838720321655
88.0,0.03936542943120003
96.0,0.0380498506128788
104.0,0.036637790501117706
112.0,0.035357341170310974
120.0,0.03420548513531685
128.0,0.0331280343234539
144.0,0.03161657229065895
160.0,0.030428385362029076
176.0,0.029056457802653313
192.0,0.027346430346369743
208.0,0.025816189125180244
224.0,0.025050226598978043
240.0,0.024761147797107697
256.0,0.023824064061045647
288.0,0.0221780426800251
320.0,0.020905667915940285
352.0,0.018490619957447052
384.0,0.016810504719614983
416.0,0.016948863863945007
448.0,0.016292614862322807
480.0,0.01423022523522377
512.0,0.012278026901185513
576.0,0.00666993111371994
640.0,0.001581242773681879
704.0,-0.0009258497739210725
768.0,-9.402371506439522e-05
832.0,-0.00156851252540946
896.0,-0.003210649359971285
960.0,-0.005242773797363043
1024.0,-0.0055513205006718636
1152.0,-0.0075814141891896725
1280.0,-0.004963568411767483
1408.0,-0.005060057155787945
1536.0,-0.00911190826445818
1664.0,-0.009433280676603317
1792.0,-0.006156609859317541
1920.0,-0.004917235113680363
2048.0,-0.0037162592634558678
2304.0,0.0011277642333880067
2560.0,0.0012780060060322285
2816.0,-0.003719862550497055
3072.0,-0.007365036755800247
3328.0,-0.012353239580988884
3584.0,-0.01665809005498886
3840.0,-0.014166024513542652
4096.0,-0.011036661453545094
4608.0,-0.0015873233787715435
5120.0,0.008553881198167801
5632.0,0.01832764409482479
6144.0,0.001589160063304007
6656.0,-0.00625623157247901
7168.0,-0.006695506162941456
7680.0,0.006627114024013281
8192.0,0.0055192820727825165
end
