version,3.0
numOfCh,1
type,point
parent_name,0cd20_0dot08-0dot1
ch_type,1_1
kcount,1
numberNandB,1
brightnessNandB,1
carpet pos,0
pc,0
Time (ms),CH1 Auto-Correlation
1.0,0.07218484580516815
2.0,0.07160753756761551
3.0,0.07104400545358658
4.0,0.07048097997903824
5.0,0.06993164867162704
6.0,0.06936825811862946
7.0,0.06881047040224075
8.0,0.06826835125684738
9.0,0.06772775202989578
10.0,0.06717974692583084
11.0,0.06663943082094193
12.0,0.06609918922185898
13.0,0.06557647138834
14.0,0.06505310535430908
15.0,0.06454818695783615
16.0,0.06405223160982132
18.0,0.06311124563217163
20.0,0.06216896325349808
22.0,0.06125468388199806
24.0,0.060361772775650024
26.0,0.05948607623577118
28.0,0.05863489210605621
30.0,0.057791925966739655
32.0,0.05694477632641792
36.0,0.055286407470703125
40.0,0.053742773830890656
44.0,0.05230698734521866
48.0,0.051000580191612244
52.0,0.04980900511145592
56.0,0.04869386926293373
60.0,0.047607094049453735
64.0,0.04650789871811867
72.0,0.04431789740920067
80.0,0.04261767864227295
88.0,0.041370805352926254
96.0,0.03992254287004471
104.0,0.03821493685245514
112.0,0.03672967106103897
120.0,0.03559859097003937
128.0,0.03461851924657822
144.0,0.03261571004986763
160.0,0.031039102002978325
176.0,0.02957923337817192
192.0,0.028540272265672684
208.0,0.02821534499526024
224.0,0.027989322319626808
240.0,0.027812818065285683
256.0,0.02748716250061989
288.0,0.026323070749640465
320.0,0.023844387382268906
352.0,0.021479981020092964
384.0,0.018640682101249695
416.0,0.01554882526397705
448.0,0.013107058592140675
480.0,0.011241830885410309
512.0,0.0105088846758008
576.0,0.009993276558816433
640.0,0.007751381024718285
704.0,0.004406195133924484
768.0,0.0030522197484970093
832.0,0.0008372513693757355
896.0,-0.0008433913462795317
960.0,-0.0025639920495450497
1024.0,-0.00542598869651556
1152.0,-0.014669457450509071
1280.0,-0.01361740380525589
1408.0,-0.01423705741763115
1536.0,-0.010895664803683758
1664.0,-0.00927984993904829
1792.0,-0.003698299638926983
1920.0,-0.003878040937706828
2048.0,-0.00019662457634694874
2304.0,-0.0001989063894143328
2560.0,0.0012393753277137876
2816.0,0.005400129593908787
3072.0,0.007568378932774067
3328.0,0.0055172317661345005
3584.0,0.004810950718820095
3840.0,0.003556154202669859
4096.0,-0.005695260129868984
4608.0,-0.0126735158264637
5120.0,-0.010554071515798569
5632.0,-0.005988761782646179
6144.0,0.004551507532596588
6656.0,0.014217025600373745
7168.0,0.009586818516254425
7680.0,-0.002429977059364319
8192.0,-0.014416628517210484
end
