version,3.0
numOfCh,1
type,point
parent_name,0cd20_0dot08-0dot1
ch_type,1_1
kcount,1
numberNandB,1
brightnessNandB,1
carpet pos,0
pc,0
Time (ms),CH1 Auto-Correlation
1.0,0.05864042788743973
2.0,0.0579502172768116
3.0,0.0572655126452446
4.0,0.05660153180360794
5.0,0.055938221514225006
6.0,0.0552857369184494
7.0,0.05466032028198242
8.0,0.054029952734708786
9.0,0.053398922085762024
10.0,0.052775416523218155
11.0,0.0521765761077404
12.0,0.05160064995288849
13.0,0.05104333162307739
14.0,0.05050739645957947
15.0,0.04997226968407631
16.0,0.049432478845119476
18.0,0.048439860343933105
20.0,0.04744335636496544
22.0,0.04648659750819206
24.0,0.045576900243759155
26.0,0.04468927159905434
28.0,0.04379040747880936
30.0,0.0429428331553936
32.0,0.04209325462579727
36.0,0.040428727865219116
40.0,0.038807421922683716
44.0,0.0371713861823082
48.0,0.03578191623091698
52.0,0.03454546257853508
56.0,0.03340985253453255
60.0,0.03234599903225899
64.0,0.031292736530303955
72.0,0.029172437265515327
80.0,0.0272113885730505
88.0,0.025835208594799042
96.0,0.024504030123353004
104.0,0.02309158816933632
112.0,0.021619888022542
120.0,0.02045249007642269
128.0,0.019552795216441154
144.0,0.018159549683332443
160.0,0.017739279195666313
176.0,0.017825257033109665
192.0,0.017810983583331108
208.0,0.017550230026245117
224.0,0.01626434177160263
240.0,0.014460143633186817
256.0,0.012639816850423813
288.0,0.009770072065293789
320.0,0.008070957846939564
352.0,0.006497785449028015
384.0,0.005494578275829554
416.0,0.0056683761067688465
448.0,0.006057234946638346
480.0,0.004900011699646711
512.0,0.003970388323068619
576.0,0.0006856725667603314
640.0,-0.00032081856625154614
704.0,-0.0010124819818884134
768.0,-0.0025490124244242907
832.0,-0.0038784213829785585
896.0,-0.003973408602178097
960.0,-0.005520337726920843
1024.0,-0.0071502323262393475
1152.0,-0.006148806773126125
1280.0,-0.00620233453810215
1408.0,-0.001944681745953858
1536.0,0.0007408546516671777
1664.0,-0.0006474080146290362
1792.0,-0.0009131258702836931
1920.0,-0.0019128697458654642
2048.0,-0.0022285571321845055
2304.0,-0.002834497019648552
2560.0,-0.004020261578261852
2816.0,-0.006147307343780994
3072.0,-0.000851101940497756
3328.0,0.006784781347960234
3584.0,0.008152887225151062
3840.0,0.006492161191999912
4096.0,0.003700823523104191
4608.0,-0.002791348844766617
5120.0,0.0008395751938223839
5632.0,-0.0057550412602722645
6144.0,-0.014014748856425285
6656.0,-0.006076873280107975
7168.0,0.000533597485627979
7680.0,0.001445920905098319
8192.0,0.009164600633084774
end
