version,3.0
numOfCh,1
type,point
parent_name,0cd20_0dot08-0dot1
ch_type,1_1
kcount,1
numberNandB,1
brightnessNandB,1
carpet pos,0
pc,0
Time (ms),CH1 Auto-Correlation
1.0,0.08204629272222519
2.0,0.08075856417417526
3.0,0.07946658134460449
4.0,0.07836592942476273
5.0,0.07719743996858597
6.0,0.07623086124658585
7.0,0.0752674862742424
8.0,0.07437973469495773
9.0,0.0735347792506218
10.0,0.07284919917583466
11.0,0.07228550314903259
12.0,0.07168599963188171
13.0,0.07096296548843384
14.0,0.07022196054458618
15.0,0.06947275996208191
16.0,0.0688498243689537
18.0,0.06733432412147522
20.0,0.0658079981803894
22.0,0.06432734429836273
24.0,0.06302133947610855
26.0,0.06171540915966034
28.0,0.06047390401363373
30.0,0.0591658279299736
32.0,0.05771258473396301
36.0,0.0548749677836895
40.0,0.05291992425918579
44.0,0.051132071763277054
48.0,0.048961132764816284
52.0,0.0464995838701725
56.0,0.04435944929718971
60.0,0.042258184403181076
64.0,0.04001562297344208
72.0,0.0360487662255764
80.0,0.032519854605197906
88.0,0.029716726392507553
96.0,0.027776069939136505
104.0,0.026132836937904358
112.0,0.024453066289424896
120.0,0.0226073507219553
128.0,0.02060556225478649
144.0,0.016964832320809364
160.0,0.014216442592442036
176.0,0.0111612007021904
192.0,0.00786749366670847
208.0,0.005173549056053162
224.0,0.003813899355009198
240.0,0.0025119769852608442
256.0,0.0019899364560842514
288.0,0.0022035816218703985
320.0,0.0030936256516724825
352.0,0.002965991385281086
384.0,0.0021640858612954617
416.0,0.00025553329032845795
448.0,-0.0007449784898199141
480.0,-0.0005911220796406269
512.0,0.0012215538881719112
576.0,0.003140016458928585
640.0,0.00979890488088131
704.0,0.010428418405354023
768.0,0.007358233910053968
832.0,0.004556254018098116
896.0,-0.002337411744520068
960.0,-0.00913534127175808
1024.0,-0.010067679919302464
1152.0,-0.008278002962470055
1280.0,-0.007742483634501696
1408.0,-0.008627704344689846
1536.0,-0.01430322416126728
1664.0,-0.013721900060772896
1792.0,-0.010615178383886814
1920.0,-0.003597974544391036
2048.0,0.002023610519245267
2304.0,0.006744955666363239
2560.0,0.012200714088976383
2816.0,0.0034572018776088953
3072.0,4.421768244355917e-05
3328.0,0.011780109256505966
3584.0,-0.008634800091385841
3840.0,-0.015343050472438335
4096.0,-0.006952319759875536
4608.0,-0.0002192340325564146
5120.0,0.0063845254480838776
5632.0,0.01098704244941473
6144.0,-0.0016909245168790221
6656.0,-0.00904807262122631
7168.0,-0.005373312160372734
7680.0,-0.00532325217500329
8192.0,0.0040368447080254555
end
