version,3.0
numOfCh,1
type,point
parent_name,0cd20_0dot08-0dot1
ch_type,1_1
kcount,1
numberNandB,1
brightnessNandB,1
carpet pos,0
pc,0
Time (ms),CH1 Auto-Correlation
1.0,0.055258553475141525
2.0,0.054619040340185165
3.0,0.05406637117266655
4.0,0.05353434011340141
5.0,0.05304741486907005
6.0,0.05253153666853905
7.0,0.05205411836504936
8.0,0.05157970264554024
9.0,0.05117858201265335
10.0,0.05076998472213745
11.0,0.05031465366482735
12.0,0.04982238635420799
13.0,0.04931231215596199
14.0,0.04882107675075531
15.0,0.04835537075996399
16.0,0.047905296087265015
18.0,0.047064829617738724
20.0,0.04625518620014191
22.0,0.045386627316474915
24.0,0.04451270401477814
26.0,0.04370424523949623
28.0,0.04298744723200798
30.0,0.04230375960469246
32.0,0.041598737239837646
36.0,0.04011917486786842
40.0,0.03882397338747978
44.0,0.037594880908727646
48.0,0.036404822021722794
52.0,0.03541674464941025
56.0,0.03439870849251747
60.0,0.033351946622133255
64.0,0.03241530433297157
72.0,0.030692629516124725
80.0,0.028882302343845367
88.0,0.027155404910445213
96.0,0.02568240463733673
104.0,0.024488205090165138
112.0,0.0235044676810503
120.0,0.022515656426548958
128.0,0.021634671837091446
144.0,0.01993345469236374
160.0,0.018794886767864227
176.0,0.017196569591760635
192.0,0.015499727800488472
208.0,0.01447646226733923
224.0,0.013721782714128494
240.0,0.012779421173036098
256.0,0.012266608886420727
288.0,0.0122463284060359
320.0,0.011996056884527206
352.0,0.011839166283607483
384.0,0.01267914567142725
416.0,0.013089962303638458
448.0,0.012355963699519634
480.0,0.010405458509922028
512.0,0.007656790316104889
576.0,0.005429138895124197
640.0,0.0058346102014184
704.0,0.007908161729574203
768.0,0.009945990517735481
832.0,0.011635621078312397
896.0,0.009128287434577942
960.0,0.004891363438218832
1024.0,0.0033288507256656885
1152.0,0.0008921661647036672
1280.0,-0.004049783106893301
1408.0,-0.008201605640351772
1536.0,-0.006757795345038176
1664.0,-0.005813925992697477
1792.0,-0.004734243266284466
1920.0,-0.005044986493885517
2048.0,-0.005486280657351017
2304.0,-0.010015134699642658
2560.0,-0.0136323357000947
2816.0,-0.00794081762433052
3072.0,-0.004259296227246523
3328.0,-0.004362768959254026
3584.0,0.0017583515727892518
3840.0,0.010577606037259102
4096.0,0.010801692493259907
4608.0,0.007452661637216806
5120.0,0.0019069931004196405
5632.0,-0.007493013050407171
6144.0,-0.007940283976495266
6656.0,-0.005836741533130407
7168.0,0.0017516141524538398
7680.0,0.005523920990526676
8192.0,0.010575002059340477
end
