version,3.0
numOfCh,1
type,point
parent_name,dirty_10dot0-0dot1
ch_type,1_1
kcount,1
numberNandB,1
brightnessNandB,1
carpet pos,0
pc,0
Time (ms),CH1 Auto-Correlation
1.0,1.3515875339508057
2.0,1.3419352769851685
3.0,1.3335304260253906
4.0,1.3253928422927856
5.0,1.3178573846817017
6.0,1.3099361658096313
7.0,1.3025177717208862
8.0,1.2947499752044678
9.0,1.2873247861862183
10.0,1.2806493043899536
11.0,1.2732057571411133
12.0,1.2660826444625854
13.0,1.2591893672943115
14.0,1.2525041103363037
15.0,1.246305227279663
16.0,1.2397964000701904
18.0,1.2274826765060425
20.0,1.2147296667099
22.0,1.2029905319213867
24.0,1.1900634765625
26.0,1.176619291305542
28.0,1.1653258800506592
30.0,1.1554640531539917
32.0,1.1460341215133667
36.0,1.1279345750808716
40.0,1.1136075258255005
44.0,1.0985865592956543
48.0,1.0827908515930176
52.0,1.06767737865448
56.0,1.054366111755371
60.0,1.0415955781936646
64.0,1.028738021850586
72.0,1.000341773033142
80.0,0.9720301628112793
88.0,0.945763349533081
96.0,0.9180066585540771
104.0,0.8937221169471741
112.0,0.8690893650054932
120.0,0.8460800051689148
128.0,0.8302505016326904
144.0,0.8147658109664917
160.0,0.787067174911499
176.0,0.7519093751907349
192.0,0.7229319214820862
208.0,0.7127131819725037
224.0,0.7014778852462769
240.0,0.6871606111526489
256.0,0.6654699444770813
288.0,0.6134841442108154
320.0,0.5527573227882385
352.0,0.47743508219718933
384.0,0.4446980953216553
416.0,0.43918272852897644
448.0,0.44700348377227783
480.0,0.4696631133556366
512.0,0.4586148262023926
576.0,0.37852293252944946
640.0,0.3172665536403656
704.0,0.267349511384964
768.0,0.22285176813602448
832.0,0.13200879096984863
896.0,0.0299170333892107
960.0,0.006353246048092842
1024.0,-0.022821353748440742
1152.0,-0.012090842239558697
1280.0,0.06276121735572815
1408.0,0.15496189892292023
1536.0,0.1732300966978073
1664.0,0.10487697273492813
1792.0,0.08979909867048264
1920.0,0.10304137319326401
2048.0,0.11271841078996658
2304.0,-0.002175941364839673
2560.0,-0.04164081811904907
2816.0,-0.052799101918935776
3072.0,-0.05169757455587387
3328.0,-0.009862726554274559
3584.0,0.02814571000635624
3840.0,0.05735062435269356
4096.0,0.14345848560333252
4608.0,0.09543896466493607
5120.0,-0.025815175846219063
5632.0,-0.09496093541383743
6144.0,-0.11383567750453949
6656.0,-0.13416749238967896
7168.0,-0.12862296402454376
7680.0,-0.11114875972270966
8192.0,-0.13835014402866364
9216.0,-0.204396054148674
10240.0,-0.21832217276096344
11264.0,-0.29515236616134644
12288.0,0.27649757266044617
13312.0,0.11075510829687119
14336.0,-0.6392378211021423
end
