version,3.0
numOfCh,1
type,point
parent_name,dirty_10dot0-0dot1
ch_type,1_1
kcount,1
numberNandB,1
brightnessNandB,1
carpet pos,0
pc,0
Time (ms),CH1 Auto-Correlation
1.0,0.7668008804321289
2.0,0.7562102675437927
3.0,0.7475340366363525
4.0,0.740390419960022
5.0,0.7341188192367554
6.0,0.728026270866394
7.0,0.7220647931098938
8.0,0.7159379720687866
9.0,0.7103739976882935
10.0,0.7048940658569336
11.0,0.6997751593589783
12.0,0.6945823431015015
13.0,0.689246654510498
14.0,0.683747410774231
15.0,0.6785826086997986
16.0,0.6734328269958496
18.0,0.6629364490509033
20.0,0.6526945233345032
22.0,0.6428230404853821
24.0,0.6316051483154297
26.0,0.6203340888023376
28.0,0.6104760766029358
30.0,0.6003389954566956
32.0,0.5901331901550293
36.0,0.5722971558570862
40.0,0.5566255450248718
44.0,0.542979896068573
48.0,0.5315269827842712
52.0,0.5214475989341736
56.0,0.5117461681365967
60.0,0.5012350678443909
64.0,0.49185460805892944
72.0,0.4793676435947418
80.0,0.46595439314842224
88.0,0.4524751901626587
96.0,0.4407846927642822
104.0,0.43119633197784424
112.0,0.42269691824913025
120.0,0.4145386517047882
128.0,0.4091889262199402
144.0,0.39802098274230957
160.0,0.38429948687553406
176.0,0.3656444251537323
192.0,0.3521576225757599
208.0,0.3460135757923126
224.0,0.34504127502441406
240.0,0.3399982154369354
256.0,0.3256237506866455
288.0,0.28641369938850403
320.0,0.22244681417942047
352.0,0.17469659447669983
384.0,0.15554338693618774
416.0,0.13567960262298584
448.0,0.10447290539741516
480.0,0.07018768042325974
512.0,0.05501677468419075
576.0,0.025016656145453453
640.0,0.009513854049146175
704.0,-0.012139758095145226
768.0,-0.03006996028125286
832.0,-0.04338719695806503
896.0,-0.048754025250673294
960.0,-0.04912179335951805
1024.0,-0.05293727293610573
1152.0,-0.040062543004751205
1280.0,-0.01554547157138586
1408.0,0.04251697286963463
1536.0,0.0724332258105278
1664.0,0.07033057510852814
1792.0,0.011895478703081608
1920.0,-0.021147336810827255
2048.0,-0.05165694281458855
2304.0,-0.06009718030691147
2560.0,-0.05938483774662018
2816.0,-0.05912981927394867
3072.0,-0.05950867757201195
3328.0,-0.06760041415691376
3584.0,-0.0697290226817131
3840.0,-0.05298886448144913
4096.0,-0.02907324954867363
4608.0,0.004334746859967709
5120.0,-0.06094739958643913
5632.0,-0.010103240609169006
6144.0,0.07331358641386032
6656.0,-0.02602417767047882
7168.0,-0.00502117769792676
7680.0,0.07726350426673889
8192.0,-0.04994650185108185
9216.0,-0.09587840735912323
10240.0,-0.11793465167284012
11264.0,-0.13566641509532928
12288.0,0.2780943512916565
13312.0,0.38800179958343506
14336.0,-0.10330138355493546
end
