version,3.0
numOfCh,1
type,point
parent_name,dirty_10dot0-0dot1
ch_type,1_1
kcount,1
numberNandB,1
brightnessNandB,1
carpet pos,0
pc,0
Time (ms),CH1 Auto-Correlation
1.0,1.1944615840911865
2.0,1.1851623058319092
3.0,1.1773796081542969
4.0,1.1703428030014038
5.0,1.1633939743041992
6.0,1.1563851833343506
7.0,1.1496387720108032
8.0,1.1434801816940308
9.0,1.1379445791244507
10.0,1.132132887840271
11.0,1.1263978481292725
12.0,1.1210707426071167
13.0,1.1163079738616943
14.0,1.111322045326233
15.0,1.106741189956665
16.0,1.1015266180038452
18.0,1.0913782119750977
20.0,1.0809773206710815
22.0,1.0698298215866089
24.0,1.0584484338760376
26.0,1.047628402709961
28.0,1.0374972820281982
30.0,1.0271809101104736
32.0,1.0170097351074219
36.0,0.9980530738830566
40.0,0.9809425473213196
44.0,0.9635564684867859
48.0,0.9467070698738098
52.0,0.9312488436698914
56.0,0.9177500605583191
60.0,0.905633270740509
64.0,0.8966731429100037
72.0,0.8715787529945374
80.0,0.8495686650276184
88.0,0.8363410830497742
96.0,0.8276775479316711
104.0,0.8250932693481445
112.0,0.8242527842521667
120.0,0.820479691028595
128.0,0.8212653398513794
144.0,0.819838285446167
160.0,0.8120254874229431
176.0,0.7789437770843506
192.0,0.7434343695640564
208.0,0.7087089419364929
224.0,0.6865743398666382
240.0,0.6687453389167786
256.0,0.6634492874145508
288.0,0.6498402953147888
320.0,0.6296231746673584
352.0,0.5986553430557251
384.0,0.5770167708396912
416.0,0.5764235258102417
448.0,0.5799430012702942
480.0,0.5681442618370056
512.0,0.5389655232429504
576.0,0.5596197843551636
640.0,0.6001858711242676
704.0,0.6185429096221924
768.0,0.6007205247879028
832.0,0.5990635752677917
896.0,0.5158399343490601
960.0,0.49897822737693787
1024.0,0.5134269595146179
1152.0,0.4212733805179596
1280.0,0.3462432026863098
1408.0,0.27644920349121094
1536.0,0.2670808434486389
1664.0,0.19899021089076996
1792.0,0.11409160494804382
1920.0,0.029374483972787857
2048.0,-0.02940516732633114
2304.0,-0.03322621062397957
2560.0,-0.15110914409160614
2816.0,-0.19441083073616028
3072.0,-0.21644596755504608
3328.0,-0.2348763346672058
3584.0,-0.23788535594940186
3840.0,-0.26728758215904236
4096.0,-0.2826709449291229
4608.0,-0.2706723213195801
5120.0,-0.2665252387523651
5632.0,-0.21372811496257782
6144.0,-0.1904848963022232
6656.0,-0.16180281341075897
7168.0,-0.14991340041160583
7680.0,-0.16852469742298126
8192.0,-0.17898736894130707
9216.0,-0.1409996896982193
10240.0,-0.0012014375533908606
11264.0,0.11994723230600357
12288.0,0.1417257934808731
13312.0,0.13184671103954315
14336.0,0.10733998566865921
end
