version,3.0
numOfCh,1
type,point
parent_name,dirty_10dot0-0dot1
ch_type,1_1
kcount,1
numberNandB,1
brightnessNandB,1
carpet pos,0
pc,0
Time (ms),CH1 Auto-Correlation
1.0,0.9830285310745239
2.0,0.9722073674201965
3.0,0.9621750712394714
4.0,0.9520895481109619
5.0,0.9420063495635986
6.0,0.932138979434967
7.0,0.9218527674674988
8.0,0.911820113658905
9.0,0.9021868109703064
10.0,0.8928388953208923
11.0,0.8837786316871643
12.0,0.8748444318771362
13.0,0.8661956191062927
14.0,0.8579731583595276
15.0,0.8502194285392761
16.0,0.8425810933113098
18.0,0.8280616402626038
20.0,0.8131412863731384
22.0,0.7985163331031799
24.0,0.7839674353599548
26.0,0.7688560485839844
28.0,0.7542620897293091
30.0,0.739918053150177
32.0,0.7258009314537048
36.0,0.699773371219635
40.0,0.6771286725997925
44.0,0.6577106714248657
48.0,0.6389686465263367
52.0,0.6217197179794312
56.0,0.6054626107215881
60.0,0.5890525579452515
64.0,0.5741180181503296
72.0,0.5532904267311096
80.0,0.5349308252334595
88.0,0.5186764001846313
96.0,0.5007311701774597
104.0,0.4777340292930603
112.0,0.4539939761161804
120.0,0.4360548257827759
128.0,0.425573468208313
144.0,0.4062660336494446
160.0,0.3817702829837799
176.0,0.3418847620487213
192.0,0.2946169972419739
208.0,0.2626143991947174
224.0,0.25278136134147644
240.0,0.252496600151062
256.0,0.25073790550231934
288.0,0.24096916615962982
320.0,0.23582306504249573
352.0,0.21419483423233032
384.0,0.2235664427280426
416.0,0.2239757776260376
448.0,0.18294736742973328
480.0,0.1451551765203476
512.0,0.12924633920192719
576.0,0.07762453705072403
640.0,0.08236142992973328
704.0,0.07962305098772049
768.0,0.06828278303146362
832.0,0.09715422242879868
896.0,0.17668867111206055
960.0,0.19514530897140503
1024.0,0.198892742395401
1152.0,0.14092415571212769
1280.0,0.14683248102664948
1408.0,0.21605336666107178
1536.0,0.1741476058959961
1664.0,0.11109213531017303
1792.0,0.13493546843528748
1920.0,0.12995007634162903
2048.0,0.08067918568849564
2304.0,0.13546107709407806
2560.0,0.020679516717791557
2816.0,-0.007155946921557188
3072.0,-0.007191365119069815
3328.0,-0.0006497823051176965
3584.0,-0.005303237587213516
3840.0,-0.059814054518938065
4096.0,-0.0756501853466034
4608.0,-0.03837382793426514
5120.0,-0.07908851653337479
5632.0,-0.16467629373073578
6144.0,-0.20574574172496796
6656.0,-0.19559551775455475
7168.0,-0.2591788172721863
7680.0,-0.26424872875213623
8192.0,-0.21493792533874512
9216.0,-0.10932564735412598
10240.0,-0.050540171563625336
11264.0,0.0703929141163826
12288.0,0.13802476227283478
13312.0,0.22416818141937256
14336.0,0.21725986897945404
end
