version,3.0
numOfCh,1
type,point
parent_name,dirty_10dot0-0dot1
ch_type,1_1
kcount,1
numberNandB,1
brightnessNandB,1
carpet pos,0
pc,0
Time (ms),CH1 Auto-Correlation
1.0,0.6201013922691345
2.0,0.6100773215293884
3.0,0.6017746329307556
4.0,0.5939467549324036
5.0,0.5867089629173279
6.0,0.5796772837638855
7.0,0.5730687379837036
8.0,0.5667048096656799
9.0,0.5600985288619995
10.0,0.553377628326416
11.0,0.5470340847969055
12.0,0.5409436225891113
13.0,0.5347849130630493
14.0,0.5289161801338196
15.0,0.523114800453186
16.0,0.5171896815299988
18.0,0.506727933883667
20.0,0.496596097946167
22.0,0.4879602789878845
24.0,0.48029208183288574
26.0,0.4724794030189514
28.0,0.46463486552238464
30.0,0.45755505561828613
32.0,0.45121854543685913
36.0,0.43983545899391174
40.0,0.42976948618888855
44.0,0.41932716965675354
48.0,0.4069572687149048
52.0,0.3952772915363312
56.0,0.38687437772750854
60.0,0.3811759352684021
64.0,0.3752959370613098
72.0,0.35784411430358887
80.0,0.33787843585014343
88.0,0.3159777820110321
96.0,0.29762348532676697
104.0,0.27793800830841064
112.0,0.2618049085140228
120.0,0.24858447909355164
128.0,0.23934544622898102
144.0,0.21863895654678345
160.0,0.19277115166187286
176.0,0.16193263232707977
192.0,0.13046008348464966
208.0,0.10609949380159378
224.0,0.08573657274246216
240.0,0.06987383216619492
256.0,0.06439308822154999
288.0,0.04760026931762695
320.0,0.0255744531750679
352.0,0.01886439509689808
384.0,0.014064978808164597
416.0,0.002545695286244154
448.0,-0.0032145874574780464
480.0,-0.01573558896780014
512.0,-0.018439089879393578
576.0,-0.013422629795968533
640.0,-0.015148111619055271
704.0,-0.015485567040741444
768.0,-0.01381346769630909
832.0,-0.0162037406116724
896.0,0.0031780460849404335
960.0,0.014651039615273476
1024.0,0.008152061142027378
1152.0,-0.001795455813407898
1280.0,0.020679747685790062
1408.0,0.01307167299091816
1536.0,-0.014249298721551895
1664.0,-0.03214903920888901
1792.0,-0.010893890634179115
1920.0,0.08159761875867844
2048.0,0.07138865441083908
2304.0,-0.040910594165325165
2560.0,0.006977283861488104
2816.0,0.07972289621829987
3072.0,0.01806575246155262
3328.0,-0.023239441215991974
3584.0,-0.011065118946135044
3840.0,0.044732436537742615
4096.0,0.14332999289035797
4608.0,-0.09549486637115479
5120.0,-0.11509566009044647
5632.0,0.030787620693445206
6144.0,-0.0013080522185191512
6656.0,-0.021065006032586098
7168.0,0.0015648412518203259
7680.0,-0.04863758012652397
8192.0,-0.002004225505515933
9216.0,-0.01915668323636055
10240.0,0.019751621410250664
11264.0,-0.022248174995183945
12288.0,-0.01592271961271763
13312.0,-0.05202681943774223
14336.0,-0.10473590344190598
end
