version,3.0
numOfCh,1
type,point
parent_name,dirty_10dot0-0dot1
ch_type,1_1
kcount,1
numberNandB,1
brightnessNandB,1
carpet pos,0
pc,0
Time (ms),CH1 Auto-Correlation
1.0,0.575291633605957
2.0,0.5672938227653503
3.0,0.5606548190116882
4.0,0.5549848675727844
5.0,0.5498024821281433
6.0,0.5446100234985352
7.0,0.539799153804779
8.0,0.5345104932785034
9.0,0.5292568206787109
10.0,0.523918628692627
11.0,0.5188433527946472
12.0,0.5142174363136292
13.0,0.5099578499794006
14.0,0.5051412582397461
15.0,0.5000389814376831
16.0,0.49500298500061035
18.0,0.48516324162483215
20.0,0.47690555453300476
22.0,0.46908339858055115
24.0,0.46076175570487976
26.0,0.4523395001888275
28.0,0.44459232687950134
30.0,0.43681561946868896
32.0,0.42898836731910706
36.0,0.4146731495857239
40.0,0.40122583508491516
44.0,0.3887450098991394
48.0,0.3765397071838379
52.0,0.3661820888519287
56.0,0.35690322518348694
60.0,0.34941884875297546
64.0,0.34217381477355957
72.0,0.3281283378601074
80.0,0.31425294280052185
88.0,0.30052581429481506
96.0,0.288358211517334
104.0,0.2807598412036896
112.0,0.2742367684841156
120.0,0.2659789025783539
128.0,0.2562251091003418
144.0,0.2330317348241806
160.0,0.2170141637325287
176.0,0.20504388213157654
192.0,0.18864327669143677
208.0,0.1750166416168213
224.0,0.1764267385005951
240.0,0.18998278677463531
256.0,0.20139114558696747
288.0,0.20522849261760712
320.0,0.19697126746177673
352.0,0.16450276970863342
384.0,0.13317319750785828
416.0,0.11710494756698608
448.0,0.10028599202632904
480.0,0.08901945501565933
512.0,0.06650075316429138
576.0,0.028047021478414536
640.0,0.03330724686384201
704.0,0.03325583040714264
768.0,0.03970250114798546
832.0,0.012115220539271832
896.0,0.012170972302556038
960.0,0.008757732808589935
1024.0,0.007401762530207634
1152.0,0.032580483704805374
1280.0,0.044272590428590775
1408.0,0.05318884178996086
1536.0,-0.011180656030774117
1664.0,-0.024000098928809166
1792.0,-0.07067517191171646
1920.0,-0.09608050435781479
2048.0,-0.09170737117528915
2304.0,-0.04668712615966797
2560.0,-0.028429359197616577
2816.0,-0.05053304135799408
3072.0,-0.05758815258741379
3328.0,-0.06584996730089188
3584.0,-0.05224863439798355
3840.0,-0.062362201511859894
4096.0,-0.08030926436185837
4608.0,-0.061003364622592926
5120.0,-0.03351599723100662
5632.0,-0.039923783391714096
6144.0,-0.03700623661279678
6656.0,-0.01944221556186676
7168.0,0.08155462145805359
7680.0,0.06471052765846252
8192.0,0.1083567664027214
9216.0,-0.06371799111366272
10240.0,-0.0373467318713665
11264.0,-0.006021736655384302
12288.0,0.014386759139597416
13312.0,0.01153367105871439
14336.0,-0.039863597601652145
end
