version,3.0
numOfCh,1
type,point
parent_name,dirty_10dot0-0dot1
ch_type,1_1
kcount,1
numberNandB,1
brightnessNandB,1
carpet pos,0
pc,0
Time (ms),CH1 Auto-Correlation
1.0,0.5096442103385925
2.0,0.5013980269432068
3.0,0.495810329914093
4.0,0.49132663011550903
5.0,0.4873139560222626
6.0,0.4836772382259369
7.0,0.4795852601528168
8.0,0.4756830334663391
9.0,0.4720907509326935
10.0,0.4686310887336731
11.0,0.4653407037258148
12.0,0.4617891311645508
13.0,0.45811566710472107
14.0,0.45445573329925537
15.0,0.4506847560405731
16.0,0.44659799337387085
18.0,0.43927523493766785
20.0,0.4318382143974304
22.0,0.42488422989845276
24.0,0.4183765649795532
26.0,0.411294549703598
28.0,0.40430203080177307
30.0,0.398160845041275
32.0,0.39186927676200867
36.0,0.3800082206726074
40.0,0.3685535192489624
44.0,0.35881879925727844
48.0,0.35030877590179443
52.0,0.34281638264656067
56.0,0.3357502520084381
60.0,0.32904642820358276
64.0,0.3217772841453552
72.0,0.3119170367717743
80.0,0.304021418094635
88.0,0.3007641136646271
96.0,0.29544806480407715
104.0,0.28948840498924255
112.0,0.2826749086380005
120.0,0.2760283946990967
128.0,0.268002450466156
144.0,0.2517760097980499
160.0,0.23873111605644226
176.0,0.22750937938690186
192.0,0.2253667563199997
208.0,0.2309880405664444
224.0,0.23352733254432678
240.0,0.2290201187133789
256.0,0.21944959461688995
288.0,0.22161047160625458
320.0,0.22283604741096497
352.0,0.2065718173980713
384.0,0.18721139430999756
416.0,0.18156698346138
448.0,0.18604134023189545
480.0,0.18146933615207672
512.0,0.17773881554603577
576.0,0.18791618943214417
640.0,0.1627838909626007
704.0,0.12369906902313232
768.0,0.1195271760225296
832.0,0.12120518833398819
896.0,0.10327547043561935
960.0,0.08805446326732635
1024.0,0.08357501775026321
1152.0,0.0872730016708374
1280.0,0.08356524258852005
1408.0,0.059023596346378326
1536.0,0.0020267630461603403
1664.0,-0.02873116172850132
1792.0,-0.011464476585388184
1920.0,-0.008233852684497833
2048.0,0.026942871510982513
2304.0,0.043812721967697144
2560.0,0.03703891858458519
2816.0,0.06894131749868393
3072.0,0.07197351008653641
3328.0,0.12622031569480896
3584.0,0.08634939789772034
3840.0,0.03797395899891853
4096.0,0.022092271596193314
4608.0,-0.00044478170457296073
5120.0,-0.03198511153459549
5632.0,-0.03965015709400177
6144.0,-0.04548487067222595
6656.0,-0.04984607920050621
7168.0,-0.05575012415647507
7680.0,-0.0615890771150589
8192.0,-0.07654149830341339
9216.0,-0.09415767341852188
10240.0,-0.11392512917518616
11264.0,-0.16384446620941162
12288.0,-0.1178702786564827
13312.0,-0.05220193788409233
14336.0,-0.1271378993988037
end
