version,3.0
numOfCh,1
type,point
parent_name,dirty_10dot0-0dot1
ch_type,1_1
kcount,1
numberNandB,1
brightnessNandB,1
carpet pos,0
pc,0
Time (ms),CH1 Auto-Correlation
1.0,0.3631669282913208
2.0,0.35478511452674866
3.0,0.3489271402359009
4.0,0.34374260902404785
5.0,0.33926159143447876
6.0,0.33473432064056396
7.0,0.3306910991668701
8.0,0.326674222946167
9.0,0.32250267267227173
10.0,0.3185426890850067
11.0,0.31493669748306274
12.0,0.3114296495914459
13.0,0.3085212707519531
14.0,0.30572307109832764
15.0,0.3032882511615753
16.0,0.30097922682762146
18.0,0.29594743251800537
20.0,0.2914547622203827
22.0,0.28765958547592163
24.0,0.2838544249534607
26.0,0.2799510061740875
28.0,0.27629533410072327
30.0,0.27213019132614136
32.0,0.26863065361976624
36.0,0.26186996698379517
40.0,0.2558651864528656
44.0,0.24994684755802155
48.0,0.2447393238544464
52.0,0.24071957170963287
56.0,0.23736287653446198
60.0,0.23460792005062103
64.0,0.23243854939937592
72.0,0.22469228506088257
80.0,0.21178869903087616
88.0,0.1979164332151413
96.0,0.18676748871803284
104.0,0.17895610630512238
112.0,0.17480605840682983
120.0,0.16741393506526947
128.0,0.1577301323413849
144.0,0.13871103525161743
160.0,0.11693917959928513
176.0,0.10651224851608276
192.0,0.09892122447490692
208.0,0.09374085813760757
224.0,0.0877075344324112
240.0,0.08504603803157806
256.0,0.0822325125336647
288.0,0.0722181648015976
320.0,0.06774132698774338
352.0,0.05932816490530968
384.0,0.050021860748529434
416.0,0.04604455828666687
448.0,0.048543814569711685
480.0,0.04968810826539993
512.0,0.05267529934644699
576.0,0.06350185722112656
640.0,0.05428725853562355
704.0,0.037348274141550064
768.0,0.024975070729851723
832.0,0.0193443913012743
896.0,0.003548418404534459
960.0,-0.010536999441683292
1024.0,-0.015894200652837753
1152.0,-0.00860858429223299
1280.0,-0.00499158538877964
1408.0,-0.005778594873845577
1536.0,-0.0164148211479187
1664.0,-0.0038289534859359264
1792.0,0.027247052639722824
1920.0,0.02806333638727665
2048.0,0.006937270052731037
2304.0,0.015777431428432465
2560.0,0.03380541130900383
2816.0,-0.006314449477940798
3072.0,-0.02145611122250557
3328.0,-0.024752149358391762
3584.0,0.014822536148130894
3840.0,-0.014765281230211258
4096.0,-0.030164286494255066
4608.0,-0.021956991404294968
5120.0,-0.0006059342413209379
5632.0,0.000896148441825062
6144.0,0.011885139159858227
6656.0,-0.016661958768963814
7168.0,-0.018767472356557846
7680.0,-0.005673704668879509
8192.0,-0.0208265483379364
9216.0,-0.055040691047906876
10240.0,-0.06353916227817535
11264.0,-0.04965632036328316
12288.0,-0.000514912186190486
13312.0,0.080257348716259
14336.0,0.10566330701112747
end
