version,3.0
numOfCh,1
type,point
parent_name,dirty_10dot0-0dot1
ch_type,1_1
kcount,1
numberNandB,1
brightnessNandB,1
carpet pos,0
pc,0
Time (ms),CH1 Auto-Correlation
1.0,0.9163045883178711
2.0,0.9050917625427246
3.0,0.896806538105011
4.0,0.8890101909637451
5.0,0.8813031911849976
6.0,0.874642550945282
7.0,0.8684585094451904
8.0,0.8614625930786133
9.0,0.8542450666427612
10.0,0.8461800813674927
11.0,0.8383111357688904
12.0,0.8315245509147644
13.0,0.8253337144851685
14.0,0.818812370300293
15.0,0.8128980398178101
16.0,0.8080498576164246
18.0,0.7977806925773621
20.0,0.7874214053153992
22.0,0.7755991816520691
24.0,0.7631181478500366
26.0,0.7506679892539978
28.0,0.7394500374794006
30.0,0.727918803691864
32.0,0.7164824604988098
36.0,0.6961801052093506
40.0,0.6792988777160645
44.0,0.6656045913696289
48.0,0.6528739333152771
52.0,0.6382901668548584
56.0,0.6232507228851318
60.0,0.6107102036476135
64.0,0.5978889465332031
72.0,0.569010317325592
80.0,0.5378530025482178
88.0,0.5100418925285339
96.0,0.48472511768341064
104.0,0.46076276898384094
112.0,0.4367111921310425
120.0,0.4082256853580475
128.0,0.38093313574790955
144.0,0.3247942328453064
160.0,0.2819215655326843
176.0,0.2327764332294464
192.0,0.1914902627468109
208.0,0.16273750364780426
224.0,0.15096625685691833
240.0,0.13433146476745605
256.0,0.11118048429489136
288.0,0.0776573196053505
320.0,0.052171044051647186
352.0,0.027730833739042282
384.0,0.01112973690032959
416.0,0.014457759447395802
448.0,0.0137813501060009
480.0,0.021509863436222076
512.0,0.03127199783921242
576.0,0.04041775315999985
640.0,0.04038887843489647
704.0,0.029945336282253265
768.0,0.03779630735516548
832.0,0.07096410542726517
896.0,0.08439872413873672
960.0,0.07847774773836136
1024.0,0.0943947434425354
1152.0,0.012225056067109108
1280.0,-0.051083315163850784
1408.0,-0.06258439272642136
1536.0,-0.009614000096917152
1664.0,-0.0491989329457283
1792.0,-0.07549242675304413
1920.0,-0.06536251306533813
2048.0,-0.06485962867736816
2304.0,-0.026243939995765686
2560.0,0.022836552932858467
2816.0,-0.033394038677215576
3072.0,-0.03777685761451721
3328.0,-0.03621269762516022
3584.0,-0.034946754574775696
3840.0,-0.025449620559811592
4096.0,-0.03409016132354736
4608.0,-0.03738293796777725
5120.0,-0.04728192090988159
5632.0,-0.04481961578130722
6144.0,-0.03718907758593559
6656.0,-0.04895145073533058
7168.0,-0.03961125761270523
7680.0,-0.020197231322526932
8192.0,0.03043111227452755
9216.0,-0.045735422521829605
10240.0,0.10535085201263428
11264.0,0.2053983062505722
12288.0,-0.16603711247444153
13312.0,-0.14267534017562866
14336.0,0.05999007448554039
end
