version,3.0
numOfCh,1
type,point
parent_name,dirty_10dot0-0dot1
ch_type,1_1
kcount,1
numberNandB,1
brightnessNandB,1
carpet pos,0
pc,0
Time (ms),CH1 Auto-Correlation
1.0,0.2837541103363037
2.0,0.27531981468200684
3.0,0.27012038230895996
4.0,0.2662939727306366
5.0,0.26272234320640564
6.0,0.2592799663543701
7.0,0.2560328245162964
8.0,0.253244549036026
9.0,0.25143367052078247
10.0,0.2492692470550537
11.0,0.2473791390657425
12.0,0.24532930552959442
13.0,0.24313870072364807
14.0,0.24080930650234222
15.0,0.23880058526992798
16.0,0.23683953285217285
18.0,0.2323877513408661
20.0,0.22776122391223907
22.0,0.22268463671207428
24.0,0.21732240915298462
26.0,0.21266303956508636
28.0,0.20897214114665985
30.0,0.20496749877929688
32.0,0.20053985714912415
36.0,0.1931404173374176
40.0,0.18587975203990936
44.0,0.1800704002380371
48.0,0.17486988008022308
52.0,0.16965997219085693
56.0,0.16484515368938446
60.0,0.1609678715467453
64.0,0.1572776734828949
72.0,0.15037432312965393
80.0,0.14096586406230927
88.0,0.13242554664611816
96.0,0.12620759010314941
104.0,0.12159198522567749
112.0,0.11605281382799149
120.0,0.11043679714202881
128.0,0.1032799705862999
144.0,0.0866105929017067
160.0,0.06974731385707855
176.0,0.054498378187417984
192.0,0.04017090052366257
208.0,0.03151300549507141
224.0,0.029277868568897247
240.0,0.028206542134284973
256.0,0.032746512442827225
288.0,0.03742004930973053
320.0,0.03343260660767555
352.0,0.033463869243860245
384.0,0.03066406585276127
416.0,0.025930453091859818
448.0,0.010499953292310238
480.0,-0.00038102417602203786
512.0,0.0011216055136173964
576.0,0.002709828084334731
640.0,0.015032626688480377
704.0,0.033433664590120316
768.0,0.04121953994035721
832.0,0.04167628660798073
896.0,0.0282981488853693
960.0,0.014863958582282066
1024.0,0.0016954985912889242
1152.0,0.008490696549415588
1280.0,0.017223604023456573
1408.0,0.03539886698126793
1536.0,0.026593683287501335
1664.0,0.0021330215968191624
1792.0,-0.008592426776885986
1920.0,-0.005078466143459082
2048.0,-0.005734857637435198
2304.0,-0.002327423309907317
2560.0,-0.003957481123507023
2816.0,-0.0064427838660776615
3072.0,-0.006440110970288515
3328.0,-0.0016508729895576835
3584.0,-0.007758080493658781
3840.0,-0.007937357760965824
4096.0,-0.004686911124736071
4608.0,0.0007380351307801902
5120.0,-0.009123599156737328
5632.0,-0.007547716144472361
6144.0,-0.006947393529117107
6656.0,-0.00654600840061903
7168.0,-0.009061428718268871
7680.0,0.009090100415050983
8192.0,-0.006564123556017876
9216.0,-0.01681755669414997
10240.0,-0.012060275301337242
11264.0,-0.020727356895804405
12288.0,-0.001739024417474866
13312.0,-0.044351156800985336
14336.0,-0.038262542337179184
end
