version,3.0
numOfCh,1
type,point
parent_name,dirty_10dot0-0dot1
ch_type,1_1
kcount,1
numberNandB,1
brightnessNandB,1
carpet pos,0
pc,0
Time (ms),CH1 Auto-Correlation
1.0,0.6144270300865173
2.0,0.6032625436782837
3.0,0.5944462418556213
4.0,0.586570680141449
5.0,0.5791596174240112
6.0,0.5720450282096863
7.0,0.5657535791397095
8.0,0.560271680355072
9.0,0.5546911954879761
10.0,0.5493307709693909
11.0,0.5438742637634277
12.0,0.5388779044151306
13.0,0.5335869193077087
14.0,0.5281309485435486
15.0,0.5229771137237549
16.0,0.5183858275413513
18.0,0.5091301798820496
20.0,0.5008522868156433
22.0,0.49263888597488403
24.0,0.48441511392593384
26.0,0.4766003489494324
28.0,0.46885937452316284
30.0,0.46153613924980164
32.0,0.4547691345214844
36.0,0.4426405727863312
40.0,0.43260902166366577
44.0,0.42529287934303284
48.0,0.4164082109928131
52.0,0.4063626229763031
56.0,0.3976597487926483
60.0,0.38696369528770447
64.0,0.3748622536659241
72.0,0.35343968868255615
80.0,0.33480939269065857
88.0,0.3203873634338379
96.0,0.3095436096191406
104.0,0.3041394054889679
112.0,0.2962956130504608
120.0,0.2863730490207672
128.0,0.27618375420570374
144.0,0.26018795371055603
160.0,0.23804040253162384
176.0,0.20387107133865356
192.0,0.17764538526535034
208.0,0.1568998396396637
224.0,0.13216809928417206
240.0,0.11513504385948181
256.0,0.10671789944171906
288.0,0.07885050773620605
320.0,0.07053381204605103
352.0,0.06016227975487709
384.0,0.07896247506141663
416.0,0.09909369796514511
448.0,0.10644979029893875
480.0,0.12766873836517334
512.0,0.12518934905529022
576.0,0.07706888765096664
640.0,0.07995937764644623
704.0,0.061808764934539795
768.0,0.0522882305085659
832.0,0.05832254886627197
896.0,0.07723433524370193
960.0,0.09234930574893951
1024.0,0.07127892971038818
1152.0,0.007500499486923218
1280.0,-0.031673286110162735
1408.0,-0.030942941084504128
1536.0,-0.02360871061682701
1664.0,-0.03299909830093384
1792.0,-0.03767876327037811
1920.0,-0.042155250906944275
2048.0,-0.0351133793592453
2304.0,-0.03549177199602127
2560.0,-0.014216659590601921
2816.0,-0.004218896385282278
3072.0,0.004109157249331474
3328.0,0.01609555073082447
3584.0,-0.001992571633309126
3840.0,-0.015860848128795624
4096.0,-0.02982824295759201
4608.0,-0.052951473742723465
5120.0,-0.06693684309720993
5632.0,-0.047952499240636826
6144.0,0.011858525685966015
6656.0,0.13113954663276672
7168.0,0.07644239813089371
7680.0,-0.020472344011068344
8192.0,-0.029830332845449448
9216.0,-0.018478332087397575
10240.0,-0.011250133626163006
11264.0,-0.02662406489253044
12288.0,-0.033681418746709824
13312.0,-0.04801289364695549
14336.0,-0.08399080485105515
end
