version,3.0
numOfCh,1
type,point
parent_name,dirty_10dot0-0dot1
ch_type,1_1
kcount,1
numberNandB,1
brightnessNandB,1
carpet pos,0
pc,0
Time (ms),CH1 Auto-Correlation
1.0,0.23272284865379333
2.0,0.22386358678340912
3.0,0.21770726144313812
4.0,0.21327927708625793
5.0,0.20969484746456146
6.0,0.20656046271324158
7.0,0.20301489531993866
8.0,0.20028458535671234
9.0,0.1972450464963913
10.0,0.19499999284744263
11.0,0.19230234622955322
12.0,0.19015203416347504
13.0,0.18744570016860962
14.0,0.18489646911621094
15.0,0.18190893530845642
16.0,0.17947545647621155
18.0,0.17443205416202545
20.0,0.17047685384750366
22.0,0.16742776334285736
24.0,0.164057195186615
26.0,0.16073782742023468
28.0,0.15734368562698364
30.0,0.15427817404270172
32.0,0.15138554573059082
36.0,0.14630939066410065
40.0,0.14209836721420288
44.0,0.13760493695735931
48.0,0.1311396360397339
52.0,0.12522552907466888
56.0,0.1205478385090828
60.0,0.11534552276134491
64.0,0.11035837233066559
72.0,0.1010831817984581
80.0,0.08896967768669128
88.0,0.07798382639884949
96.0,0.06943009048700333
104.0,0.06244323402643204
112.0,0.059563301503658295
120.0,0.058143697679042816
128.0,0.05712738633155823
144.0,0.054502300918102264
160.0,0.05227942764759064
176.0,0.05029727518558502
192.0,0.045536622405052185
208.0,0.04125673696398735
224.0,0.03370406851172447
240.0,0.034605417400598526
256.0,0.037857696413993835
288.0,0.04019445925951004
320.0,0.05239303410053253
352.0,0.05172448977828026
384.0,0.04141771048307419
416.0,0.02653289958834648
448.0,0.011674225330352783
480.0,0.014941133558750153
512.0,0.020891891792416573
576.0,0.014223451726138592
640.0,0.005408494733273983
704.0,0.009966755285859108
768.0,0.0070195747539401054
832.0,-0.0008030933677218854
896.0,-0.009477081708610058
960.0,-0.011479854583740234
1024.0,-0.002476073568686843
1152.0,0.004867381416261196
1280.0,0.008218154311180115
1408.0,0.010296066291630268
1536.0,0.021039282903075218
1664.0,0.02028633840382099
1792.0,0.032675907015800476
1920.0,0.02634912170469761
2048.0,0.002917130012065172
2304.0,-0.006910500582307577
2560.0,-0.004156952723860741
2816.0,-0.010140139609575272
3072.0,-0.013461252674460411
3328.0,-0.0061333151534199715
3584.0,-0.0006539043970406055
3840.0,-0.012272666208446026
4096.0,-0.015491259284317493
4608.0,-0.012819266878068447
5120.0,-0.01354420930147171
5632.0,-0.014853636734187603
6144.0,-0.011613291688263416
6656.0,-0.013051673769950867
7168.0,-0.011349248699843884
7680.0,-0.010881218127906322
8192.0,-0.01150989718735218
9216.0,0.0038920475635677576
10240.0,0.012074016034603119
11264.0,-0.01116739958524704
12288.0,-0.0030916777905076742
13312.0,0.0056670852936804295
14336.0,-0.002836154541000724
end
