version,3.0
numOfCh,1
type,point
parent_name,dirty_10dot0-0dot1
ch_type,1_1
kcount,1
numberNandB,1
brightnessNandB,1
carpet pos,0
pc,0
Time (ms),CH1 Auto-Correlation
1.0,0.517478883266449
2.0,0.5086194276809692
3.0,0.5014081597328186
4.0,0.495122492313385
5.0,0.48955491185188293
6.0,0.48380887508392334
7.0,0.4785929322242737
8.0,0.47340157628059387
9.0,0.46807414293289185
10.0,0.4630771279335022
11.0,0.45865729451179504
12.0,0.4540499448776245
13.0,0.44950687885284424
14.0,0.44497984647750854
15.0,0.44028669595718384
16.0,0.4357644021511078
18.0,0.4260203540325165
20.0,0.41687819361686707
22.0,0.408676415681839
24.0,0.4002145230770111
26.0,0.3918508291244507
28.0,0.38365140557289124
30.0,0.37595486640930176
32.0,0.3674221336841583
36.0,0.3488259017467499
40.0,0.3299564719200134
44.0,0.31242337822914124
48.0,0.29530417919158936
52.0,0.2794134318828583
56.0,0.26701095700263977
60.0,0.2568497061729431
64.0,0.24772843718528748
72.0,0.23273983597755432
80.0,0.21857866644859314
88.0,0.20438073575496674
96.0,0.18802040815353394
104.0,0.1721961349248886
112.0,0.15491437911987305
120.0,0.1366323083639145
128.0,0.11810555309057236
144.0,0.09993471205234528
160.0,0.09293212741613388
176.0,0.08894560486078262
192.0,0.08039135485887527
208.0,0.06443314254283905
224.0,0.047655608505010605
240.0,0.03599238768219948
256.0,0.034295957535505295
288.0,0.039049435406923294
320.0,0.036544281989336014
352.0,0.040529873222112656
384.0,0.04089173302054405
416.0,0.02411128394305706
448.0,0.02042098343372345
480.0,0.030684994533658028
512.0,0.02401706576347351
576.0,0.023693731054663658
640.0,0.03086329996585846
704.0,-0.006037868559360504
768.0,-0.017616158351302147
832.0,-0.007447504438459873
896.0,-0.0215818602591753
960.0,-0.02060122974216938
1024.0,0.0010028217220678926
1152.0,-0.011974090710282326
1280.0,0.0034733982756733894
1408.0,0.03622482717037201
1536.0,-0.03068826161324978
1664.0,-0.031041886657476425
1792.0,-0.020591571927070618
1920.0,-0.02797786332666874
2048.0,-0.031145963817834854
2304.0,-0.08021866530179977
2560.0,-0.068332739174366
2816.0,-0.0401979461312294
3072.0,-0.05494830384850502
3328.0,-0.03174394369125366
3584.0,0.012726586312055588
3840.0,-0.010002953000366688
4096.0,-0.008634727448225021
4608.0,0.0003818331751972437
5120.0,-0.0064684138633310795
5632.0,0.06329606473445892
6144.0,0.027192838490009308
6656.0,-0.009649191983044147
7168.0,0.04792899265885353
7680.0,0.011312922462821007
8192.0,-0.06512852013111115
9216.0,-0.07772838324308395
10240.0,0.029091499745845795
11264.0,0.0800732746720314
12288.0,0.02619386464357376
13312.0,-0.017511509358882904
14336.0,-0.0407615527510643
end
