version,3.0
numOfCh,1
type,point
parent_name,dirty_10dot0-0dot1
ch_type,1_1
kcount,1
numberNandB,1
brightnessNandB,1
carpet pos,0
pc,0
Time (ms),CH1 Auto-Correlation
1.0,0.9586851596832275
2.0,0.9499977827072144
3.0,0.9430454969406128
4.0,0.9360489845275879
5.0,0.9295817017555237
6.0,0.9236555695533752
7.0,0.9175279140472412
8.0,0.9116559624671936
9.0,0.9062000513076782
10.0,0.9001301527023315
11.0,0.8937184810638428
12.0,0.887974202632904
13.0,0.8825615048408508
14.0,0.877180814743042
15.0,0.8722459077835083
16.0,0.8674625158309937
18.0,0.8585184216499329
20.0,0.8486830592155457
22.0,0.8383073210716248
24.0,0.8288896083831787
26.0,0.8197208046913147
28.0,0.8108881115913391
30.0,0.8022161722183228
32.0,0.7944031357765198
36.0,0.7799858450889587
40.0,0.7658911943435669
44.0,0.7522487640380859
48.0,0.7368069887161255
52.0,0.7221128344535828
56.0,0.7082782983779907
60.0,0.693399965763092
64.0,0.6796091794967651
72.0,0.6538279056549072
80.0,0.6298704147338867
88.0,0.6079055070877075
96.0,0.5876777768135071
104.0,0.5700332522392273
112.0,0.5571383833885193
120.0,0.5458561778068542
128.0,0.5360099673271179
144.0,0.5156155824661255
160.0,0.4912894070148468
176.0,0.4752783477306366
192.0,0.45297864079475403
208.0,0.4251575767993927
224.0,0.4032798707485199
240.0,0.38739240169525146
256.0,0.36759626865386963
288.0,0.33472302556037903
320.0,0.308625191450119
352.0,0.2908516526222229
384.0,0.2663852870464325
416.0,0.2514403462409973
448.0,0.23793023824691772
480.0,0.25054648518562317
512.0,0.2670975923538208
576.0,0.2416100651025772
640.0,0.20628513395786285
704.0,0.1439897119998932
768.0,0.08031176775693893
832.0,0.0869804099202156
896.0,0.0944850817322731
960.0,0.11671222001314163
1024.0,0.12923771142959595
1152.0,0.10929131507873535
1280.0,0.008718716911971569
1408.0,-0.07457945495843887
1536.0,-0.08389431238174438
1664.0,-0.07701815664768219
1792.0,-0.07207544893026352
1920.0,-0.07750629633665085
2048.0,-0.08666694909334183
2304.0,-0.09020377695560455
2560.0,-0.11160993576049805
2816.0,-0.1144469603896141
3072.0,-0.12775421142578125
3328.0,-0.13375170528888702
3584.0,-0.13523322343826294
3840.0,-0.1351197212934494
4096.0,-0.14262540638446808
4608.0,-0.1418161690235138
5120.0,-0.1606987863779068
5632.0,-0.1518242061138153
6144.0,0.033789049834012985
6656.0,0.12239588052034378
7168.0,0.02484724298119545
7680.0,-0.0009679770446382463
8192.0,0.05389324575662613
9216.0,0.18530990183353424
10240.0,0.013958082534372807
11264.0,-0.005559768993407488
12288.0,-0.02947763167321682
13312.0,-0.06544360518455505
14336.0,-0.11051617562770844
end
