version,3.0
numOfCh,1
type,point
parent_name,dirty_10dot0-0dot1
ch_type,1_1
kcount,1
numberNandB,1
brightnessNandB,1
carpet pos,0
pc,0
Time (ms),CH1 Auto-Correlation
1.0,0.4014414846897125
2.0,0.39234063029289246
3.0,0.3857894837856293
4.0,0.3800008296966553
5.0,0.37471264600753784
6.0,0.369745671749115
7.0,0.3653130531311035
8.0,0.36150482296943665
9.0,0.3579613268375397
10.0,0.35398152470588684
11.0,0.34976816177368164
12.0,0.34539517760276794
13.0,0.34144070744514465
14.0,0.33765876293182373
15.0,0.3338134288787842
16.0,0.32976505160331726
18.0,0.3216570317745209
20.0,0.31406140327453613
22.0,0.3068666458129883
24.0,0.29988986253738403
26.0,0.2925374209880829
28.0,0.2857134938240051
30.0,0.279753178358078
32.0,0.27358177304267883
36.0,0.2624652683734894
40.0,0.2549198269844055
44.0,0.24659091234207153
48.0,0.23839525878429413
52.0,0.22914622724056244
56.0,0.2203487902879715
60.0,0.21095983684062958
64.0,0.20271271467208862
72.0,0.18649256229400635
80.0,0.16988006234169006
88.0,0.15449588000774384
96.0,0.14153577387332916
104.0,0.12965722382068634
112.0,0.12014728039503098
120.0,0.10909858345985413
128.0,0.09897886216640472
144.0,0.08474189788103104
160.0,0.07866720110177994
176.0,0.07326898723840714
192.0,0.069208063185215
208.0,0.06678791344165802
224.0,0.06232703477144241
240.0,0.0551186129450798
256.0,0.04538872465491295
288.0,0.04786858707666397
320.0,0.04345603659749031
352.0,0.045815423130989075
384.0,0.053926292806863785
416.0,0.06274070590734482
448.0,0.05625109747052193
480.0,0.0365942046046257
512.0,0.009965121746063232
576.0,-0.022624367848038673
640.0,-0.02587652951478958
704.0,-0.024138323962688446
768.0,-0.01756216771900654
832.0,-0.01676809787750244
896.0,-0.023244712501764297
960.0,-0.030510658398270607
1024.0,-0.03430905193090439
1152.0,-0.01501854881644249
1280.0,0.012769732624292374
1408.0,0.021230144426226616
1536.0,0.018995819613337517
1664.0,0.017531879246234894
1792.0,0.014766447246074677
1920.0,-0.01705191843211651
2048.0,-0.03015085868537426
2304.0,-0.033223118633031845
2560.0,-0.03745605796575546
2816.0,-0.016152575612068176
3072.0,0.034331243485212326
3328.0,0.018389973789453506
3584.0,-0.01088293083012104
3840.0,-0.02868051640689373
4096.0,-0.03432841971516609
4608.0,0.012543790973722935
5120.0,0.0300007164478302
5632.0,-0.028344638645648956
6144.0,-0.023633213713765144
6656.0,0.022356277331709862
7168.0,-0.0354609452188015
7680.0,-0.004989998880773783
8192.0,0.04891810938715935
9216.0,-0.018593085929751396
10240.0,-0.06109021604061127
11264.0,0.03317391872406006
12288.0,-0.02911072038114071
13312.0,0.06491310894489288
14336.0,0.14712539315223694
end
