version,3.0
numOfCh,1
type,point
parent_name,dirty_10dot0-0dot1
ch_type,1_1
kcount,1
numberNandB,1
brightnessNandB,1
carpet pos,0
pc,0
Time (ms),CH1 Auto-Correlation
1.0,0.5481423735618591
2.0,0.5379919409751892
3.0,0.5306122303009033
4.0,0.5243266820907593
5.0,0.5188443064689636
6.0,0.5137655735015869
7.0,0.5087376832962036
8.0,0.5041238069534302
9.0,0.4996166527271271
10.0,0.4947276711463928
11.0,0.49067047238349915
12.0,0.48615705966949463
13.0,0.4819704294204712
14.0,0.47818225622177124
15.0,0.4741096496582031
16.0,0.4697396755218506
18.0,0.460547536611557
20.0,0.4519753158092499
22.0,0.4441947937011719
24.0,0.4363114833831787
26.0,0.4296916723251343
28.0,0.4237093925476074
30.0,0.41730764508247375
32.0,0.41176748275756836
36.0,0.40111449360847473
40.0,0.3895421624183655
44.0,0.3789479434490204
48.0,0.3682023882865906
52.0,0.3597341775894165
56.0,0.35260009765625
60.0,0.3459359407424927
64.0,0.33813199400901794
72.0,0.3237437307834625
80.0,0.3098640441894531
88.0,0.29867541790008545
96.0,0.28644290566444397
104.0,0.2689858376979828
112.0,0.2551518678665161
120.0,0.24432063102722168
128.0,0.23562517762184143
144.0,0.2184315323829651
160.0,0.20590315759181976
176.0,0.20687130093574524
192.0,0.20592433214187622
208.0,0.19565507769584656
224.0,0.18804650008678436
240.0,0.18082159757614136
256.0,0.17681200802326202
288.0,0.15251928567886353
320.0,0.09247606992721558
352.0,0.04750977084040642
384.0,0.03448636829853058
416.0,0.01637970469892025
448.0,0.010383067652583122
480.0,0.01380464993417263
512.0,0.01456692349165678
576.0,0.0122506283223629
640.0,-0.008191749453544617
704.0,-0.025485407561063766
768.0,-0.018687007948756218
832.0,-0.005683401599526405
896.0,0.0024718502536416054
960.0,0.002765963552519679
1024.0,0.0025687171146273613
1152.0,-0.004076139070093632
1280.0,-0.018993493169546127
1408.0,-0.011435718275606632
1536.0,0.039799172431230545
1664.0,0.04931646212935448
1792.0,0.04583410546183586
1920.0,-0.006016287487000227
2048.0,-0.0271066315472126
2304.0,-0.03575834631919861
2560.0,-0.025428960099816322
2816.0,-0.032695282250642776
3072.0,-0.03727670758962631
3328.0,-0.041547924280166626
3584.0,-0.04373526945710182
3840.0,-0.04873482510447502
4096.0,-0.04784781113266945
4608.0,-0.025121185928583145
5120.0,-0.01815386675298214
5632.0,-0.0401158332824707
6144.0,0.05689282342791557
6656.0,0.11256182193756104
7168.0,-0.04512542858719826
7680.0,-0.055263325572013855
8192.0,-0.0027183208148926497
9216.0,0.0002430741733405739
10240.0,-0.0014094439102336764
11264.0,-0.005941859912127256
12288.0,-0.016898324713110924
13312.0,-0.03678426891565323
14336.0,-0.01985062099993229
end
