version,3.0
numOfCh,1
type,point
parent_name,dirty_10dot0-0dot1
ch_type,1_1
kcount,1
numberNandB,1
brightnessNandB,1
carpet pos,0
pc,0
Time (ms),CH1 Auto-Correlation
1.0,0.5140620470046997
2.0,0.5045796036720276
3.0,0.49777868390083313
4.0,0.49205297231674194
5.0,0.48743340373039246
6.0,0.4827357530593872
7.0,0.4779171049594879
8.0,0.4735669791698456
9.0,0.46986132860183716
10.0,0.46582913398742676
11.0,0.46194928884506226
12.0,0.4579765796661377
13.0,0.45416024327278137
14.0,0.4502331018447876
15.0,0.4465334415435791
16.0,0.44295525550842285
18.0,0.4363572299480438
20.0,0.43054232001304626
22.0,0.42520883679389954
24.0,0.4198092818260193
26.0,0.4142913520336151
28.0,0.408199280500412
30.0,0.40241900086402893
32.0,0.3956567645072937
36.0,0.38246580958366394
40.0,0.3698727488517761
44.0,0.357774943113327
48.0,0.3459044098854065
52.0,0.3357139527797699
56.0,0.32595860958099365
60.0,0.31596511602401733
64.0,0.306847482919693
72.0,0.2889537215232849
80.0,0.2732088267803192
88.0,0.26118239760398865
96.0,0.2491428703069687
104.0,0.23295411467552185
112.0,0.21897442638874054
120.0,0.20766228437423706
128.0,0.19677838683128357
144.0,0.17820313572883606
160.0,0.1612526923418045
176.0,0.14381328225135803
192.0,0.13103459775447845
208.0,0.11899745464324951
224.0,0.10716196149587631
240.0,0.0912625715136528
256.0,0.08278778195381165
288.0,0.07798474282026291
320.0,0.05551742762327194
352.0,0.04324895888566971
384.0,0.04168257862329483
416.0,0.02724584750831127
448.0,0.009538671001791954
480.0,0.003851567627862096
512.0,0.0039018867537379265
576.0,0.024031519889831543
640.0,0.03745357692241669
704.0,0.013454186730086803
768.0,-0.014288240112364292
832.0,-0.03088081069290638
896.0,-0.029825927689671516
960.0,-0.02993248961865902
1024.0,-0.02718559466302395
1152.0,-0.03909609839320183
1280.0,-0.04629029333591461
1408.0,-0.04196159169077873
1536.0,-0.04123244062066078
1664.0,-0.04643414914608002
1792.0,-0.046581730246543884
1920.0,-0.04635290428996086
2048.0,-0.04810860753059387
2304.0,-0.05734545737504959
2560.0,-0.04695285111665726
2816.0,-0.03140314295887947
3072.0,-0.017181159928441048
3328.0,0.03423645347356796
3584.0,0.011025231331586838
3840.0,0.016167597845196724
4096.0,0.05057167261838913
4608.0,0.006251521874219179
5120.0,-0.0242009200155735
5632.0,-0.03513986989855766
6144.0,-0.01636773906648159
6656.0,0.01855211704969406
7168.0,0.03940608724951744
7680.0,0.017358146607875824
8192.0,-0.004213037434965372
9216.0,-0.049213916063308716
10240.0,-0.027208460494875908
11264.0,0.17618274688720703
12288.0,-0.0721607357263565
13312.0,-0.10300061106681824
14336.0,0.04199190065264702
end
