version,3.0
numOfCh,1
type,point
parent_name,dirty_10dot0-0dot1
ch_type,1_1
kcount,1
numberNandB,1
brightnessNandB,1
carpet pos,0
pc,0
Time (ms),CH1 Auto-Correlation
1.0,0.5690180063247681
2.0,0.562121570110321
3.0,0.5565863251686096
4.0,0.5518087148666382
5.0,0.547220766544342
6.0,0.5425795316696167
7.0,0.5378742814064026
8.0,0.5335046052932739
9.0,0.5289429426193237
10.0,0.5245234966278076
11.0,0.520296037197113
12.0,0.5161060690879822
13.0,0.5123571157455444
14.0,0.5087847709655762
15.0,0.5053147673606873
16.0,0.5020437240600586
18.0,0.49557361006736755
20.0,0.4895693361759186
22.0,0.4836615025997162
24.0,0.47753262519836426
26.0,0.47140565514564514
28.0,0.46542438864707947
30.0,0.46003708243370056
32.0,0.4547804892063141
36.0,0.44410526752471924
40.0,0.43387994170188904
44.0,0.42371833324432373
48.0,0.4132697284221649
52.0,0.402072012424469
56.0,0.39177224040031433
60.0,0.38331958651542664
64.0,0.37599262595176697
72.0,0.36168456077575684
80.0,0.3495010435581207
88.0,0.3392167389392853
96.0,0.3272259831428528
104.0,0.31704065203666687
112.0,0.30816033482551575
120.0,0.2990356683731079
128.0,0.2901139259338379
144.0,0.27489036321640015
160.0,0.260272353887558
176.0,0.24769054353237152
192.0,0.23556318879127502
208.0,0.22851575911045074
224.0,0.22692379355430603
240.0,0.22207395732402802
256.0,0.21810393035411835
288.0,0.2040550261735916
320.0,0.17732658982276917
352.0,0.1487921178340912
384.0,0.13627742230892181
416.0,0.13243980705738068
448.0,0.1412697583436966
480.0,0.1405048668384552
512.0,0.13583262264728546
576.0,0.10770267248153687
640.0,0.0686655342578888
704.0,0.05626554787158966
768.0,0.04030340537428856
832.0,0.01032469142228365
896.0,-0.013778725638985634
960.0,-0.010977779515087605
1024.0,0.0020067014265805483
1152.0,-0.0008404460968449712
1280.0,-0.01832367666065693
1408.0,-0.045750945806503296
1536.0,-0.035868801176548004
1664.0,-0.056906022131443024
1792.0,-0.10788896679878235
1920.0,-0.1353810876607895
2048.0,-0.14446882903575897
2304.0,-0.1529093235731125
2560.0,-0.15210482478141785
2816.0,-0.14077454805374146
3072.0,-0.07319177687168121
3328.0,-0.06197424978017807
3584.0,0.025655772536993027
3840.0,0.04490673542022705
4096.0,0.053692031651735306
4608.0,0.03779026120901108
5120.0,0.11062540113925934
5632.0,0.11866525560617447
6144.0,0.006847568787634373
6656.0,-0.06545862555503845
7168.0,-0.08995550125837326
7680.0,-0.10699163377285004
8192.0,-0.12619614601135254
9216.0,0.05638878792524338
10240.0,0.10622649639844894
11264.0,0.022501930594444275
12288.0,-0.13378319144248962
13312.0,-0.04426327347755432
14336.0,0.07172379642724991
end
