version,3.0
numOfCh,1
type,point
parent_name,dirty_10dot0-0dot1
ch_type,1_1
kcount,1
numberNandB,1
brightnessNandB,1
carpet pos,0
pc,0
Time (ms),CH1 Auto-Correlation
1.0,0.35072624683380127
2.0,0.3422408998012543
3.0,0.3362690806388855
4.0,0.3306562304496765
5.0,0.325809508562088
6.0,0.3210718631744385
7.0,0.3165147006511688
8.0,0.31184715032577515
9.0,0.30781611800193787
10.0,0.3037472665309906
11.0,0.30026209354400635
12.0,0.2966020405292511
13.0,0.2931787967681885
14.0,0.2899891138076782
15.0,0.2873726189136505
16.0,0.2844061255455017
18.0,0.28004223108291626
20.0,0.27582496404647827
22.0,0.2710641920566559
24.0,0.26552456617355347
26.0,0.26036548614501953
28.0,0.25534218549728394
30.0,0.2509629428386688
32.0,0.24648350477218628
36.0,0.23961129784584045
40.0,0.2350679188966751
44.0,0.2303304672241211
48.0,0.22418563067913055
52.0,0.21612811088562012
56.0,0.20820572972297668
60.0,0.20085717737674713
64.0,0.19435271620750427
72.0,0.17749696969985962
80.0,0.1616544872522354
88.0,0.14965949952602386
96.0,0.1407572478055954
104.0,0.13564884662628174
112.0,0.1303592324256897
120.0,0.12117314338684082
128.0,0.11256011575460434
144.0,0.09373356401920319
160.0,0.07614776492118835
176.0,0.06252047419548035
192.0,0.05261335149407387
208.0,0.04394746199250221
224.0,0.03414686769247055
240.0,0.029249826446175575
256.0,0.030974026769399643
288.0,0.03705544397234917
320.0,0.03362235426902771
352.0,0.018237199634313583
384.0,0.0076558771543204784
416.0,0.008513867855072021
448.0,0.016361959278583527
480.0,0.0219725389033556
512.0,0.02582896687090397
576.0,0.027363313362002373
640.0,0.0070747192949056625
704.0,-0.011071177199482918
768.0,-0.012409991584718227
832.0,-0.011170939542353153
896.0,-0.011008964851498604
960.0,-0.012865276075899601
1024.0,-0.011618110351264477
1152.0,-0.015577677637338638
1280.0,-0.005045562516897917
1408.0,0.01838615909218788
1536.0,0.02502228133380413
1664.0,0.010472757741808891
1792.0,-0.007068390492349863
1920.0,-0.005975793581455946
2048.0,-0.00746885035187006
2304.0,0.011778664775192738
2560.0,0.015826500952243805
2816.0,0.0993749275803566
3072.0,0.07109444588422775
3328.0,0.004472612868994474
3584.0,-0.0037232404574751854
3840.0,-0.0028116912581026554
4096.0,-0.007178131490945816
4608.0,-0.006189229432493448
5120.0,0.0003763086278922856
5632.0,0.039032965898513794
6144.0,0.005062192212790251
6656.0,-0.020759975537657738
7168.0,-0.020243722945451736
7680.0,-0.018418636173009872
8192.0,-0.007461718283593655
9216.0,-0.027778606861829758
10240.0,-0.03365937992930412
11264.0,-0.03486648201942444
12288.0,-0.0405423529446125
13312.0,-0.05628799647092819
14336.0,-0.04721563681960106
end
