version,3.0
numOfCh,1
type,point
parent_name,dirty_10dot0-0dot1
ch_type,1_1
kcount,1
numberNandB,1
brightnessNandB,1
carpet pos,0
pc,0
Time (ms),CH1 Auto-Correlation
1.0,0.8439211249351501
2.0,0.8333166837692261
3.0,0.8243408203125
4.0,0.8158736824989319
5.0,0.8083574175834656
6.0,0.8006526827812195
7.0,0.7931784987449646
8.0,0.7856817245483398
9.0,0.7782233953475952
10.0,0.7704033255577087
11.0,0.7629225850105286
12.0,0.7554503083229065
13.0,0.7478504776954651
14.0,0.7406964898109436
15.0,0.733622670173645
16.0,0.7263378500938416
18.0,0.7125421762466431
20.0,0.7003832459449768
22.0,0.6884706020355225
24.0,0.6772667169570923
26.0,0.6669439673423767
28.0,0.6578516960144043
30.0,0.6490063667297363
32.0,0.6407293677330017
36.0,0.626222550868988
40.0,0.6123620271682739
44.0,0.5959377288818359
48.0,0.578357994556427
52.0,0.5597442984580994
56.0,0.5408245921134949
60.0,0.5206615328788757
64.0,0.5019086003303528
72.0,0.46996212005615234
80.0,0.44291481375694275
88.0,0.4202125668525696
96.0,0.39977124333381653
104.0,0.37646886706352234
112.0,0.35562512278556824
120.0,0.3380374610424042
128.0,0.322707861661911
144.0,0.2841605842113495
160.0,0.25164034962654114
176.0,0.23225875198841095
192.0,0.2016471028327942
208.0,0.1732809841632843
224.0,0.1591866910457611
240.0,0.14158904552459717
256.0,0.12712788581848145
288.0,0.11352638155221939
320.0,0.09959276765584946
352.0,0.08156166225671768
384.0,0.04947179928421974
416.0,0.014539043419063091
448.0,-0.008895449340343475
480.0,-0.02162783592939377
512.0,-0.026985622942447662
576.0,-0.04426697641611099
640.0,-0.0530678853392601
704.0,-0.04498802870512009
768.0,-0.047933727502822876
832.0,-0.06143854930996895
896.0,-0.052223872393369675
960.0,-0.010456441901624203
1024.0,0.05721752718091011
1152.0,0.09837517142295837
1280.0,0.03843466565012932
1408.0,0.06277497857809067
1536.0,0.0596243180334568
1664.0,-0.044332195073366165
1792.0,-0.08014556020498276
1920.0,-0.03706667572259903
2048.0,0.057751160115003586
2304.0,0.02138456515967846
2560.0,-0.015793349593877792
2816.0,-0.09237069636583328
3072.0,0.003672994440421462
3328.0,0.12057093530893326
3584.0,0.16460686922073364
3840.0,-0.022745290771126747
4096.0,-0.10192834585905075
4608.0,-0.06154967099428177
5120.0,-0.056236620992422104
5632.0,0.01089845784008503
6144.0,-0.0849267989397049
6656.0,0.005665384232997894
7168.0,-0.04281187057495117
7680.0,-0.07782042771577835
8192.0,-0.004959732294082642
9216.0,-0.060286108404397964
10240.0,-0.043903324753046036
11264.0,0.017397137358784676
12288.0,0.04244082793593407
13312.0,0.05579651892185211
14336.0,0.0357927531003952
end
