version,3.0
numOfCh,1
type,point
parent_name,dirty_10dot0-0dot1
ch_type,1_1
kcount,1
numberNandB,1
brightnessNandB,1
carpet pos,0
pc,0
Time (ms),CH1 Auto-Correlation
1.0,0.248295858502388
2.0,0.23809576034545898
3.0,0.23169972002506256
4.0,0.22616520524024963
5.0,0.22124364972114563
6.0,0.21653646230697632
7.0,0.21241115033626556
8.0,0.20810945332050323
9.0,0.20417138934135437
10.0,0.2001837193965912
11.0,0.19645513594150543
12.0,0.1937028169631958
13.0,0.19073863327503204
14.0,0.18791159987449646
15.0,0.18548151850700378
16.0,0.1830855756998062
18.0,0.17841796576976776
20.0,0.17380478978157043
22.0,0.16974720358848572
24.0,0.16552595794200897
26.0,0.16172415018081665
28.0,0.15874195098876953
30.0,0.15563204884529114
32.0,0.15191085636615753
36.0,0.14322109520435333
40.0,0.13532188534736633
44.0,0.12850236892700195
48.0,0.12174875289201736
52.0,0.11451895534992218
56.0,0.10472362488508224
60.0,0.095221608877182
64.0,0.08828955888748169
72.0,0.0798046663403511
80.0,0.07243552058935165
88.0,0.06786995381116867
96.0,0.06398065388202667
104.0,0.06019126623868942
112.0,0.05462642386555672
120.0,0.04923716560006142
128.0,0.046151597052812576
144.0,0.04310796409845352
160.0,0.040201134979724884
176.0,0.033679042011499405
192.0,0.028629234060645103
208.0,0.021977325901389122
224.0,0.017186200246214867
240.0,0.014227109029889107
256.0,0.016877952963113785
288.0,0.019990889355540276
320.0,0.023207472637295723
352.0,0.018503684550523758
384.0,0.011588433757424355
416.0,0.003086686134338379
448.0,-0.0012022308073937893
480.0,-0.0017876644851639867
512.0,-0.006657828576862812
576.0,0.0017287643859162927
640.0,0.023719118908047676
704.0,0.03787629306316376
768.0,0.058058008551597595
832.0,0.028270119801163673
896.0,0.018237119540572166
960.0,0.01988695003092289
1024.0,0.020820412784814835
1152.0,-0.0037501866463571787
1280.0,-0.01603633724153042
1408.0,-0.01107992883771658
1536.0,-0.010378587990999222
1664.0,-0.010224786587059498
1792.0,-0.009710927493870258
1920.0,-0.013451301492750645
2048.0,-0.012246808968484402
2304.0,-0.000500669062603265
2560.0,-0.0016053196741268039
2816.0,-0.0017807598924264312
3072.0,0.006723996251821518
3328.0,0.005271402653306723
3584.0,-0.006458590738475323
3840.0,-0.010850884020328522
4096.0,-0.00765320984646678
4608.0,-0.0151309659704566
5120.0,-0.014211742207407951
5632.0,-0.016706719994544983
6144.0,-0.013799374923110008
6656.0,-0.014681248925626278
7168.0,-0.010133879259228706
7680.0,0.002926214598119259
8192.0,6.912214303156361e-05
9216.0,-0.011902478523552418
10240.0,0.02670663595199585
11264.0,0.031123286113142967
12288.0,-0.02342483028769493
13312.0,-0.021832268685102463
14336.0,0.0024089093785732985
end
