version,3.0
numOfCh,1
type,point
parent_name,dirty_10dot0-0dot1
ch_type,1_1
kcount,1
numberNandB,1
brightnessNandB,1
carpet pos,0
pc,0
Time (ms),CH1 Auto-Correlation
1.0,0.3138851821422577
2.0,0.3045922815799713
3.0,0.2979390323162079
4.0,0.2922939956188202
5.0,0.28780272603034973
6.0,0.2834966778755188
7.0,0.2794705629348755
8.0,0.2757641673088074
9.0,0.27233371138572693
10.0,0.26932960748672485
11.0,0.26640784740448
12.0,0.26359984278678894
13.0,0.2605113685131073
14.0,0.2578498125076294
15.0,0.25534787774086
16.0,0.2529587149620056
18.0,0.2477675974369049
20.0,0.24246664345264435
22.0,0.23726512491703033
24.0,0.23261652886867523
26.0,0.2280089110136032
28.0,0.22360865771770477
30.0,0.21981880068778992
32.0,0.21527279913425446
36.0,0.20564128458499908
40.0,0.19572532176971436
44.0,0.18651685118675232
48.0,0.17885221540927887
52.0,0.17337457835674286
56.0,0.1692003458738327
60.0,0.1659783124923706
64.0,0.1640201359987259
72.0,0.16447193920612335
80.0,0.16239826381206512
88.0,0.15839411318302155
96.0,0.1565377116203308
104.0,0.15442150831222534
112.0,0.1509564220905304
120.0,0.1429736614227295
128.0,0.13284914195537567
144.0,0.11673066765069962
160.0,0.10559684783220291
176.0,0.09696193039417267
192.0,0.09367897361516953
208.0,0.08700354397296906
224.0,0.08108791708946228
240.0,0.07314589619636536
256.0,0.06472758948802948
288.0,0.05316736176609993
320.0,0.04302740842103958
352.0,0.03930298238992691
384.0,0.037598829716444016
416.0,0.03461766615509987
448.0,0.030196888372302055
480.0,0.02675752528011799
512.0,0.02078479714691639
576.0,0.007256071548908949
640.0,0.00750516913831234
704.0,0.007688953075557947
768.0,0.023434041067957878
832.0,0.016400542110204697
896.0,0.01876368559896946
960.0,0.014046941883862019
1024.0,0.017717711627483368
1152.0,-0.008067263290286064
1280.0,-0.02560165338218212
1408.0,-0.023390691727399826
1536.0,-0.015294797718524933
1664.0,-0.012537404894828796
1792.0,-6.505272904178128e-05
1920.0,0.0007637382368557155
2048.0,-0.005902859847992659
2304.0,-0.020031331107020378
2560.0,-0.014328589662909508
2816.0,-0.004706955049186945
3072.0,-0.0016314554959535599
3328.0,-0.005692186299711466
3584.0,-0.014852026477456093
3840.0,-0.02864869125187397
4096.0,-0.03181430324912071
4608.0,-0.019651325419545174
5120.0,-0.015324254520237446
5632.0,-0.019674992188811302
6144.0,-0.019021250307559967
6656.0,-0.006846639793366194
7168.0,0.022092554718255997
7680.0,-0.01791837252676487
8192.0,8.279328903881833e-05
9216.0,0.0644838884472847
10240.0,-0.041355449706315994
11264.0,-0.04298284649848938
12288.0,0.006499059498310089
13312.0,-0.02494867518544197
14336.0,0.007046254817396402
end
