version,3.0
numOfCh,1
type,point
parent_name,fe81d_0dot6-0dot1
ch_type,1_1
kcount,1
numberNandB,1
brightnessNandB,1
carpet pos,0
pc,0
Time (ms),CH1 Auto-Correlation
1.0,0.02291729487478733
2.0,0.02182762511074543
3.0,0.02082229219377041
4.0,0.01988387107849121
5.0,0.01904953271150589
6.0,0.018293404951691628
7.0,0.01758464239537716
8.0,0.016942834481596947
9.0,0.016326017677783966
10.0,0.015753045678138733
11.0,0.015230732038617134
12.0,0.014748153276741505
13.0,0.014316849410533905
14.0,0.013873551040887833
15.0,0.013436569832265377
16.0,0.012988383881747723
18.0,0.012181436643004417
20.0,0.011468914337456226
22.0,0.01082690991461277
24.0,0.010240213014185429
26.0,0.009707668796181679
28.0,0.009270395152270794
30.0,0.008887206204235554
32.0,0.008584655821323395
36.0,0.008198842406272888
40.0,0.007738769520074129
44.0,0.007269004825502634
48.0,0.006901026703417301
52.0,0.006498877890408039
56.0,0.006079075857996941
60.0,0.005848836153745651
64.0,0.005620565265417099
72.0,0.005043056793510914
80.0,0.004412119742482901
88.0,0.003790953429415822
96.0,0.0037586416583508253
104.0,0.0035775366704910994
112.0,0.00323316128924489
120.0,0.0031903651542961597
128.0,0.0031472351402044296
144.0,0.0028092514257878065
160.0,0.0024661938659846783
176.0,0.0023402695078402758
192.0,0.002348619746044278
208.0,0.0020615796092897654
224.0,0.0014252103865146637
240.0,0.0012034706305712461
256.0,0.001714334823191166
288.0,0.0013947427505627275
320.0,0.00041766383219510317
352.0,0.00036285663372837007
384.0,0.0006447049090638757
416.0,0.0002977897529490292
448.0,-0.0006148875108920038
480.0,-0.000988387386314571
512.0,-0.0006199896452017128
576.0,0.001214955816976726
640.0,0.001176023157313466
704.0,0.0013381876051425934
768.0,0.0012649655109271407
832.0,0.0012127240188419819
896.0,0.000657225085888058
960.0,0.0006226227269507945
1024.0,-0.001291640684939921
1152.0,3.939748421544209e-05
1280.0,0.0008105069282464683
1408.0,-0.0001652919891057536
1536.0,-7.230110350064933e-05
1664.0,0.00019616559438873082
1792.0,-0.001191717921756208
1920.0,-1.9202119801775552e-05
2048.0,0.0004629225004464388
2304.0,-0.0006748201558366418
2560.0,-0.00010987148561980575
2816.0,-7.949680730234832e-05
3072.0,-0.0019238641252741218
3328.0,-0.001392460078932345
3584.0,-0.00035500581725500524
3840.0,-0.0008651983225718141
4096.0,-0.0009647522820159793
4608.0,-6.55104813631624e-05
5120.0,0.0006289351731538773
5632.0,0.0013843529159203172
6144.0,-0.0002504104340914637
6656.0,0.0013021258637309074
7168.0,0.0009191585704684258
7680.0,0.00011771293065976351
8192.0,-0.0016151421004906297
end
