version,3.0
numOfCh,1
type,point
parent_name,fe81d_0dot6-0dot1
ch_type,1_1
kcount,1
numberNandB,1
brightnessNandB,1
carpet pos,0
pc,0
Time (ms),CH1 Auto-Correlation
1.0,0.02398327738046646
2.0,0.02284449152648449
3.0,0.021806830540299416
4.0,0.020856577903032303
5.0,0.019976947456598282
6.0,0.019151918590068817
7.0,0.01838047429919243
8.0,0.017658663913607597
9.0,0.017016440629959106
10.0,0.016436293721199036
11.0,0.01590290106832981
12.0,0.015403376892209053
13.0,0.014933793805539608
14.0,0.014489298686385155
15.0,0.014046411029994488
16.0,0.013646661303937435
18.0,0.01295082550495863
20.0,0.012282590381801128
22.0,0.011657156981527805
24.0,0.01109454594552517
26.0,0.010631055571138859
28.0,0.010237875394523144
30.0,0.00988837331533432
32.0,0.009575599804520607
36.0,0.00904844980686903
40.0,0.008554358966648579
44.0,0.00815620832145214
48.0,0.00774382334202528
52.0,0.007289340253919363
56.0,0.006868019234389067
60.0,0.006523447576910257
64.0,0.006123101804405451
72.0,0.005688427481800318
80.0,0.005262827500700951
88.0,0.004920001607388258
96.0,0.0045757233165204525
104.0,0.004198666196316481
112.0,0.003910798579454422
120.0,0.0033899962436407804
128.0,0.0029651073273271322
144.0,0.002536787185817957
160.0,0.002918522572144866
176.0,0.0029354034923017025
192.0,0.002846191404387355
208.0,0.0027619663160294294
224.0,0.0026937073562294245
240.0,0.002515634521842003
256.0,0.002341961022466421
288.0,0.0023658880963921547
320.0,0.0012213136069476604
352.0,-0.000172990738064982
384.0,-0.0003049150400329381
416.0,-0.0009659957722760737
448.0,-0.0007188402814790606
480.0,-0.00030798837542533875
512.0,0.00020748480164911598
576.0,0.0016776688862591982
640.0,0.0014466163702309132
704.0,8.380089275306091e-05
768.0,0.00031737747485749424
832.0,0.00021414885122794658
896.0,-0.0004529886646196246
960.0,-0.0010429221438243985
1024.0,-0.0007996676722541451
1152.0,6.62061502225697e-05
1280.0,-0.00012343218259047717
1408.0,-0.0003755208454094827
1536.0,-0.0012511529494076967
1664.0,-0.0009292509057559073
1792.0,-0.00015362871636170894
1920.0,0.0005023506819270551
2048.0,0.00022920084302313626
2304.0,-0.0001335460547124967
2560.0,0.0003089875099249184
2816.0,0.0005707782693207264
3072.0,0.0013670786283910275
3328.0,0.0017066345317289233
3584.0,0.0018810367910191417
3840.0,0.001219867030158639
4096.0,-0.0006795100052841008
4608.0,-0.0005093569052405655
5120.0,0.0004247874312568456
5632.0,0.0007034058799035847
6144.0,0.0004016533785033971
6656.0,-0.0006625988171435893
7168.0,-0.0009941040771082044
7680.0,-0.0017469334416091442
8192.0,-0.0007277570548467338
end
