version,3.0
numOfCh,1
type,point
parent_name,fe81d_0dot6-0dot1
ch_type,1_1
kcount,1
numberNandB,1
brightnessNandB,1
carpet pos,0
pc,0
Time (ms),CH1 Auto-Correlation
1.0,0.02419818937778473
2.0,0.023003244772553444
3.0,0.021948065608739853
4.0,0.02098332718014717
5.0,0.020085927098989487
6.0,0.019281452521681786
7.0,0.01855435036122799
8.0,0.017864162102341652
9.0,0.01721213385462761
10.0,0.016579220071434975
11.0,0.01596347615122795
12.0,0.01536091510206461
13.0,0.014791944064199924
14.0,0.014276559464633465
15.0,0.013850808143615723
16.0,0.01344643160700798
18.0,0.012644548900425434
20.0,0.011894174851477146
22.0,0.011279817670583725
24.0,0.01081035379320383
26.0,0.0103189367800951
28.0,0.009886330924928188
30.0,0.009429874829947948
32.0,0.008980360813438892
36.0,0.0082443468272686
40.0,0.0075505576096475124
44.0,0.006946065463125706
48.0,0.006360645405948162
52.0,0.005856378469616175
56.0,0.00558036845177412
60.0,0.005187916569411755
64.0,0.004701646510511637
72.0,0.004108953755348921
80.0,0.003622947260737419
88.0,0.0034193997271358967
96.0,0.0032931037712842226
104.0,0.002737546805292368
112.0,0.0020422860980033875
120.0,0.0019032486015930772
128.0,0.002082313410937786
144.0,0.001378363580442965
160.0,0.00062035076553002
176.0,0.00013940868666395545
192.0,0.000380479556042701
208.0,0.0005273390561342239
224.0,0.00029881682712584734
240.0,9.904579201247543e-05
256.0,0.0005268211825750768
288.0,0.0006094845593906939
320.0,-0.00014768481196369976
352.0,-4.994315895601176e-05
384.0,0.0008711149566806853
416.0,0.0015711982268840075
448.0,0.0026262192986905575
480.0,0.002482576994225383
512.0,0.0014039436355233192
576.0,0.00047358436859212816
640.0,-0.0012185084633529186
704.0,0.00011361090582795441
768.0,0.00023848041018936783
832.0,-0.0003519293968565762
896.0,0.0003142140049021691
960.0,0.0001794803247321397
1024.0,-0.0004565684648696333
1152.0,-0.002282428555190563
1280.0,-0.0023379921913146973
1408.0,-8.442342368653044e-05
1536.0,0.0007318154093809426
1664.0,-0.0006533683626912534
1792.0,-0.00041033647721633315
1920.0,0.00015003306907601655
2048.0,0.0005103790899738669
2304.0,0.0009415565873496234
2560.0,0.00039733736775815487
2816.0,-0.0011368758277967572
3072.0,5.132982914801687e-05
3328.0,-0.0008044395945034921
3584.0,0.00010452171409269795
3840.0,0.00012012925435556099
4096.0,0.001483146334066987
4608.0,0.0008457625517621636
5120.0,-7.164412090787664e-05
5632.0,-0.0018753149779513478
6144.0,-0.0004243237490300089
6656.0,0.0006435647956095636
7168.0,-0.0006081725005060434
7680.0,-0.00019282405264675617
8192.0,0.00023392251750919968
end
