version,3.0
numOfCh,1
type,point
parent_name,fe81d_0dot6-0dot1
ch_type,1_1
kcount,1
numberNandB,1
brightnessNandB,1
carpet pos,0
pc,0
Time (ms),CH1 Auto-Correlation
1.0,0.023557163774967194
2.0,0.0223888847976923
3.0,0.02130620926618576
4.0,0.020340045914053917
5.0,0.01949189230799675
6.0,0.018717871978878975
7.0,0.017998600378632545
8.0,0.017347153276205063
9.0,0.016772624105215073
10.0,0.016267437487840652
11.0,0.015772726386785507
12.0,0.015319198369979858
13.0,0.01489435974508524
14.0,0.014529652893543243
15.0,0.014123954810202122
16.0,0.013726906850934029
18.0,0.01298948097974062
20.0,0.012274598702788353
22.0,0.011663086712360382
24.0,0.011043720878660679
26.0,0.010521268472075462
28.0,0.010082599706947803
30.0,0.00969589501619339
32.0,0.009393694810569286
36.0,0.008949179202318192
40.0,0.008398175239562988
44.0,0.0077999974600970745
48.0,0.007234407588839531
52.0,0.006724285893142223
56.0,0.006347298622131348
60.0,0.00618971511721611
64.0,0.006080887746065855
72.0,0.005858348682522774
80.0,0.005727148614823818
88.0,0.005365163087844849
96.0,0.004726508632302284
104.0,0.004289538599550724
112.0,0.004189828410744667
120.0,0.004109952133148909
128.0,0.003769919043406844
144.0,0.0030036303214728832
160.0,0.002525732619687915
176.0,0.0016765960026532412
192.0,0.0011066063307225704
208.0,0.0009130914695560932
224.0,0.0006496006972156465
240.0,0.0009950230596587062
256.0,0.0011698189191520214
288.0,0.0009687450947239995
320.0,0.0008660120656713843
352.0,0.0005747920949943364
384.0,0.0006141500780358911
416.0,0.0012087728828191757
448.0,0.0019158486975356936
480.0,0.001729198032990098
512.0,0.0013749023200944066
576.0,0.0011568398913368583
640.0,-2.0012090317322873e-05
704.0,0.0002965922758448869
768.0,0.0006312982877716422
832.0,0.0011771817225962877
896.0,0.0006843794835731387
960.0,-0.00010932880832115188
1024.0,-0.001239374978467822
1152.0,-0.00149490125477314
1280.0,-0.002479181159287691
1408.0,-0.002198430709540844
1536.0,-0.0016656153602525592
1664.0,-0.00045898646931163967
1792.0,-0.0011717149754986167
1920.0,-0.0007889260887168348
2048.0,-0.00018811925838235766
2304.0,9.864610183285549e-05
2560.0,0.0008942256681621075
2816.0,0.003359971335157752
3072.0,0.0016987287672236562
3328.0,0.001905621960759163
3584.0,0.0010497787734493613
3840.0,-0.0006473695975728333
4096.0,-0.001276990631595254
4608.0,-0.0020099030807614326
5120.0,-0.0002573814708739519
5632.0,0.0020427939016371965
6144.0,0.0010927566327154636
6656.0,-0.0014491017209365964
7168.0,-0.0023306042421609163
7680.0,-0.0017047682777047157
8192.0,-0.0004408269887790084
end
