version,3.0
numOfCh,1
type,point
parent_name,fe81d_0dot6-0dot1
ch_type,1_1
kcount,1
numberNandB,1
brightnessNandB,1
carpet pos,0
pc,0
Time (ms),CH1 Auto-Correlation
1.0,0.02327420748770237
2.0,0.02207242138683796
3.0,0.021035922691226006
4.0,0.020128991454839706
5.0,0.019303474575281143
6.0,0.01855083368718624
7.0,0.017841165885329247
8.0,0.017225753515958786
9.0,0.016616102308034897
10.0,0.01602158509194851
11.0,0.01546471007168293
12.0,0.014918139204382896
13.0,0.014390860684216022
14.0,0.01390331331640482
15.0,0.013451635837554932
16.0,0.013034544885158539
18.0,0.01229980681091547
20.0,0.01159494649618864
22.0,0.01094099972397089
24.0,0.010445869527757168
26.0,0.009998614899814129
28.0,0.009556230157613754
30.0,0.009172038175165653
32.0,0.008883710950613022
36.0,0.008472287096083164
40.0,0.008018510416150093
44.0,0.007598342373967171
48.0,0.007284836377948523
52.0,0.00675106281414628
56.0,0.006249529775232077
60.0,0.00581411924213171
64.0,0.005568722262978554
72.0,0.0051301345229148865
80.0,0.0045536961406469345
88.0,0.004271732177585363
96.0,0.003895703237503767
104.0,0.003275467548519373
112.0,0.002625909633934498
120.0,0.0017987212631851435
128.0,0.0010722692823037505
144.0,0.0007100726361386478
160.0,0.000802059774287045
176.0,0.0006148791871964931
192.0,3.7657726352335885e-05
208.0,-0.0008980758138932288
224.0,-0.0011221517343074083
240.0,-0.0010437143500894308
256.0,-0.0008259750320576131
288.0,-0.00030830854666419327
320.0,0.001192360883578658
352.0,0.0015076257986947894
384.0,0.0004912047879770398
416.0,0.0003404378949198872
448.0,-1.8121991161024198e-05
480.0,-0.0006451776716858149
512.0,-0.0014879440423101187
576.0,-0.000624445267021656
640.0,-0.0009868443012237549
704.0,-0.000928224588278681
768.0,-0.0001935018226504326
832.0,-0.0005546461325138807
896.0,-0.00036865135189145803
960.0,0.0001701784203760326
1024.0,-0.0006703029503114522
1152.0,-0.00035902715171687305
1280.0,0.001526700216345489
1408.0,0.0003551742702256888
1536.0,0.00019573971803765744
1664.0,0.0010584262199699879
1792.0,-0.0003138332685921341
1920.0,-0.0008159959688782692
2048.0,0.001033887849189341
2304.0,0.0020699352025985718
2560.0,0.0002801699156407267
2816.0,-0.0018331357277929783
3072.0,-0.000588328402955085
3328.0,-0.0004693415539804846
3584.0,0.0006692164461128414
3840.0,0.000274207181064412
4096.0,-0.000556234153918922
4608.0,-0.0003060814633499831
5120.0,-0.0011086505837738514
5632.0,0.0008306936942972243
6144.0,-0.0008415220654569566
6656.0,0.00011983520380454138
7168.0,-0.0012987233931198716
7680.0,0.0009878018172457814
8192.0,-0.0003262060636188835
end
