version,3.0
numOfCh,1
type,point
parent_name,fe81d_0dot6-0dot1
ch_type,1_1
kcount,1
numberNandB,1
brightnessNandB,1
carpet pos,0
pc,0
Time (ms),CH1 Auto-Correlation
1.0,0.024974916130304337
2.0,0.023839617148041725
3.0,0.022824103012681007
4.0,0.0219047162681818
5.0,0.02105969749391079
6.0,0.020257342606782913
7.0,0.019518624991178513
8.0,0.018891960382461548
9.0,0.018309740349650383
10.0,0.01775631681084633
11.0,0.017207125201821327
12.0,0.016681641340255737
13.0,0.016203809529542923
14.0,0.015750443562865257
15.0,0.015310755930840969
16.0,0.014917207881808281
18.0,0.014152612537145615
20.0,0.013432478532195091
22.0,0.012751828879117966
24.0,0.012145488522946835
26.0,0.01157547440379858
28.0,0.011039032600820065
30.0,0.010621639899909496
32.0,0.010209277272224426
36.0,0.009545867331326008
40.0,0.008882367983460426
44.0,0.008309348486363888
48.0,0.007761921267956495
52.0,0.00720086507499218
56.0,0.006717414129525423
60.0,0.0062900749035179615
64.0,0.005937075242400169
72.0,0.00526706175878644
80.0,0.004774862434715033
88.0,0.004295044578611851
96.0,0.00396605022251606
104.0,0.0037658330984413624
112.0,0.0033517859410494566
120.0,0.002835033228620887
128.0,0.00212714821100235
144.0,0.0014493039343506098
160.0,0.000980860204435885
176.0,0.0003861142904497683
192.0,-1.516215706942603e-05
208.0,-0.0005207200301811099
224.0,-0.000976547715254128
240.0,-0.0013183921109884977
256.0,-0.001272707711905241
288.0,-0.0007423668284900486
320.0,-0.0006569141405634582
352.0,-0.0008445012499578297
384.0,-0.00011884704872500151
416.0,-0.0002520328271202743
448.0,4.176312722847797e-05
480.0,0.0008056614897213876
512.0,-0.00019613320182543248
576.0,-0.000981739955022931
640.0,-0.0022898418828845024
704.0,-0.0017209510551765561
768.0,-0.000994961243122816
832.0,-0.0003801256534643471
896.0,-0.0003176005557179451
960.0,0.0003095479914918542
1024.0,-0.0008815907640382648
1152.0,-0.0020528289023786783
1280.0,0.00011147126497235149
1408.0,0.0011118334950879216
1536.0,-0.0017854608595371246
1664.0,-0.0015641959616914392
1792.0,0.0012798841344192624
1920.0,0.001349442871287465
2048.0,0.00028074064175598323
2304.0,0.00011576306860661134
2560.0,-0.0009136509033851326
2816.0,0.00037537829484790564
3072.0,0.0008296495652757585
3328.0,-0.0001618880487512797
3584.0,-0.001061843940988183
3840.0,-0.0005947480094619095
4096.0,0.0012698716018348932
4608.0,-0.00033919644192792475
5120.0,0.0006027785711921751
5632.0,-0.0007596826180815697
6144.0,-6.793203647248447e-05
6656.0,0.00029625551542267203
7168.0,2.051631236099638e-05
7680.0,0.0006031430093571544
8192.0,0.0011461795074865222
end
