version,3.0
numOfCh,1
type,point
parent_name,fe81d_0dot6-0dot1
ch_type,1_1
kcount,1
numberNandB,1
brightnessNandB,1
carpet pos,0
pc,0
Time (ms),CH1 Auto-Correlation
1.0,0.02393500879406929
2.0,0.022763032466173172
3.0,0.02170586585998535
4.0,0.02070399560034275
5.0,0.019783927127718925
6.0,0.018981853500008583
7.0,0.018239011988043785
8.0,0.017533017322421074
9.0,0.016903460025787354
10.0,0.016330378130078316
11.0,0.015823256224393845
12.0,0.015321611426770687
13.0,0.014841836877167225
14.0,0.014384708367288113
15.0,0.01395487505942583
16.0,0.013538086786866188
18.0,0.012721104547381401
20.0,0.011951480992138386
22.0,0.011190982535481453
24.0,0.01051319483667612
26.0,0.009968714788556099
28.0,0.009503508917987347
30.0,0.009105334058403969
32.0,0.008768787607550621
36.0,0.008253990672528744
40.0,0.007786191999912262
44.0,0.00733567588031292
48.0,0.006958570796996355
52.0,0.00672328332439065
56.0,0.006578890606760979
60.0,0.0063756112940609455
64.0,0.006212038919329643
72.0,0.00580431567505002
80.0,0.005188970826566219
88.0,0.004668085835874081
96.0,0.004208673723042011
104.0,0.003596934024244547
112.0,0.0030184858478605747
120.0,0.002632443094626069
128.0,0.0028074639849364758
144.0,0.0027285011019557714
160.0,0.0024690981954336166
176.0,0.0020027384161949158
192.0,0.00186154677066952
208.0,0.0016827973304316401
224.0,0.0013994199689477682
240.0,0.0015112970722839236
256.0,0.0017325547523796558
288.0,0.0014528182800859213
320.0,0.0006742916302755475
352.0,0.0006097038276493549
384.0,-0.0002047509333351627
416.0,-1.821506339183543e-05
448.0,-0.0008315805462189019
480.0,0.00025702716084197164
512.0,0.0007332088425755501
576.0,0.001045215642079711
640.0,-6.828870391473174e-05
704.0,-5.535455056815408e-05
768.0,-0.0015838139224797487
832.0,-0.0015844153240323067
896.0,-0.001694483682513237
960.0,-0.0014998730039224029
1024.0,-0.0021526976488530636
1152.0,-0.002186752390116453
1280.0,-0.002527260687202215
1408.0,-0.004534569103270769
1536.0,-0.00248157000169158
1664.0,-0.00034337519900873303
1792.0,0.0005641839816235006
1920.0,3.8216418033698574e-05
2048.0,0.0009350215550512075
2304.0,0.002765996614471078
2560.0,0.0022205975838005543
2816.0,0.001844710437580943
3072.0,-0.0008053065976127982
3328.0,-0.0017971458146348596
3584.0,-0.0018915495602414012
3840.0,-0.0013557987986132503
4096.0,-0.001665565650910139
4608.0,0.0015034208772704005
5120.0,0.0017447657883167267
5632.0,-0.0013069730484858155
6144.0,-0.0016225253930315375
6656.0,-0.00016292055079247802
7168.0,0.0011613147798925638
7680.0,0.0005097015528008342
8192.0,-0.0014095711521804333
end
