version,3.0
numOfCh,1
type,point
parent_name,fe81d_0dot6-0dot1
ch_type,1_1
kcount,1
numberNandB,1
brightnessNandB,1
carpet pos,0
pc,0
Time (ms),CH1 Auto-Correlation
1.0,0.0213802270591259
2.0,0.02023095265030861
3.0,0.019205421209335327
4.0,0.018251990899443626
5.0,0.017368396744132042
6.0,0.016538890078663826
7.0,0.01579008810222149
8.0,0.015090279281139374
9.0,0.014433672651648521
10.0,0.013802631758153439
11.0,0.013214676640927792
12.0,0.012694714590907097
13.0,0.012247797101736069
14.0,0.011773340404033661
15.0,0.01132623478770256
16.0,0.010925150476396084
18.0,0.010154263116419315
20.0,0.009456957690417767
22.0,0.008864897303283215
24.0,0.008365857414901257
26.0,0.007838098332285881
28.0,0.00731965946033597
30.0,0.00685247965157032
32.0,0.006370853632688522
36.0,0.005679445806890726
40.0,0.005159543827176094
44.0,0.004483932629227638
48.0,0.0036561177112162113
52.0,0.002915480872616172
56.0,0.0023920827079564333
60.0,0.0019428865052759647
64.0,0.0014349226839840412
72.0,0.0008522115531377494
80.0,0.0005669217789545655
88.0,0.0006621332722716033
96.0,0.0007948839920572937
104.0,0.0007854683208279312
112.0,0.0005027532461099327
120.0,0.000312731193844229
128.0,0.0001291208027396351
144.0,0.00030078995041549206
160.0,0.0006870566867291927
176.0,0.001119338907301426
192.0,0.0016281341668218374
208.0,0.001555226743221283
224.0,0.002270907163619995
240.0,0.0022337462287396193
256.0,0.0014729817630723119
288.0,0.001147942035458982
320.0,0.0013492549769580364
352.0,0.0009258268401026726
384.0,0.0006664405227638781
416.0,-0.00014115525118540972
448.0,-6.580330227734521e-05
480.0,0.0005233577685430646
512.0,0.0011745381634682417
576.0,0.0005043360288254917
640.0,0.0006101815961301327
704.0,0.00014682899927720428
768.0,0.00021276772895362228
832.0,0.0006970537360757589
896.0,0.00033124996116384864
960.0,0.00014690084208268672
1024.0,-0.0009615580784156919
1152.0,-1.9883915229002014e-05
1280.0,-0.0006425986066460609
1408.0,-0.0004264957970008254
1536.0,-0.0002365552936680615
1664.0,-0.0012677162885665894
1792.0,0.0010928567498922348
1920.0,-0.001019227085635066
2048.0,0.0001209422989632003
2304.0,-0.0009701154194772243
2560.0,-4.481426367419772e-05
2816.0,-0.00013448568643070757
3072.0,-0.0010452010901644826
3328.0,-0.0005043420242145658
3584.0,0.0002901401894632727
3840.0,-0.0009711500606499612
4096.0,-0.0004454652371350676
4608.0,5.3464133088709787e-05
5120.0,0.0003376212844159454
5632.0,-0.00022007904772181064
6144.0,-0.00012639042688533664
6656.0,0.001019586343318224
7168.0,0.0007875706069171429
7680.0,-0.0005236712167970836
8192.0,4.443518992047757e-05
end
