version,3.0
numOfCh,1
type,point
parent_name,fe81d_0dot6-0dot1
ch_type,1_1
kcount,1
numberNandB,1
brightnessNandB,1
carpet pos,0
pc,0
Time (ms),CH1 Auto-Correlation
1.0,0.024445336312055588
2.0,0.023257995024323463
3.0,0.02217327058315277
4.0,0.021163135766983032
5.0,0.02024165913462639
6.0,0.019420195370912552
7.0,0.018672151491045952
8.0,0.017955651506781578
9.0,0.017329083755612373
10.0,0.01676804944872856
11.0,0.016214236617088318
12.0,0.01571085676550865
13.0,0.01524806022644043
14.0,0.014843138866126537
15.0,0.014467618428170681
16.0,0.014140186831355095
18.0,0.013554975390434265
20.0,0.013057614676654339
22.0,0.012609893456101418
24.0,0.012098255567252636
26.0,0.011509886011481285
28.0,0.010925646871328354
30.0,0.010435842908918858
32.0,0.009996197186410427
36.0,0.009076454676687717
40.0,0.008342865854501724
44.0,0.007833221927285194
48.0,0.007216268219053745
52.0,0.006581912748515606
56.0,0.006078940816223621
60.0,0.005714433267712593
64.0,0.005387080367654562
72.0,0.004891563672572374
80.0,0.004684737417846918
88.0,0.00458899699151516
96.0,0.004306405782699585
104.0,0.004090759437531233
112.0,0.0038142225239425898
120.0,0.003553981427103281
128.0,0.003371387952938676
144.0,0.002121384721249342
160.0,0.0008946642628870904
176.0,0.000330428738379851
192.0,9.868074266705662e-05
208.0,0.0005510600167326629
224.0,0.0011093980865553021
240.0,0.0012602126225829124
256.0,0.001250484841875732
288.0,-0.0003169917908962816
320.0,-0.0009255515760742128
352.0,-0.0007535057375207543
384.0,-0.00011097581591457129
416.0,4.700277713709511e-05
448.0,-0.0006322097615338862
480.0,-0.0008073108620010316
512.0,-0.0008243693737313151
576.0,-0.0002527521864976734
640.0,0.00030079620773904026
704.0,0.0010113155003637075
768.0,0.0015518595464527607
832.0,0.0013914176961407065
896.0,0.0018683201633393764
960.0,0.002192763378843665
1024.0,0.0017474492779001594
1152.0,0.0013868401292711496
1280.0,0.0004974797484464943
1408.0,0.0003284680424258113
1536.0,0.00047876028111204505
1664.0,0.00027728290297091007
1792.0,0.00031382686574943364
1920.0,0.0004633416829165071
2048.0,-0.0012421805877238512
2304.0,-3.9090569771360606e-05
2560.0,-0.001780848833732307
2816.0,-5.183255052543245e-05
3072.0,-0.0011976126115769148
3328.0,-0.0022433381527662277
3584.0,-0.00033407239243388176
3840.0,-0.00267305551096797
4096.0,-0.0023604468442499638
4608.0,-0.0015095570124685764
5120.0,-0.00023353437427431345
5632.0,-0.0002590567746665329
6144.0,0.0006768046878278255
6656.0,0.0011413464089855552
7168.0,0.0009212502627633512
7680.0,0.001798465964384377
8192.0,0.0009384616860188544
end
