version,3.0
numOfCh,1
type,point
parent_name,fe81d_0dot6-0dot1
ch_type,1_1
kcount,1
numberNandB,1
brightnessNandB,1
carpet pos,0
pc,0
Time (ms),CH1 Auto-Correlation
1.0,0.02107478678226471
2.0,0.019937770441174507
3.0,0.01893756166100502
4.0,0.017987731844186783
5.0,0.01712779514491558
6.0,0.016376258805394173
7.0,0.015645571053028107
8.0,0.014987942762672901
9.0,0.014369112439453602
10.0,0.013778281398117542
11.0,0.013237152248620987
12.0,0.01272464171051979
13.0,0.012249571271240711
14.0,0.011809456162154675
15.0,0.01136351190507412
16.0,0.01092394720762968
18.0,0.010188504122197628
20.0,0.009517920203506947
22.0,0.008894607424736023
24.0,0.00832358468323946
26.0,0.007827465422451496
28.0,0.007464076858013868
30.0,0.007098538801074028
32.0,0.006730544380843639
36.0,0.005914077162742615
40.0,0.0051409779116511345
44.0,0.004579855129122734
48.0,0.00408750819042325
52.0,0.003601998556405306
56.0,0.003366178134456277
60.0,0.0032141231931746006
64.0,0.003069135593250394
72.0,0.00276794726960361
80.0,0.0022592730820178986
88.0,0.001927924808114767
96.0,0.00178427470382303
104.0,0.0016098645282909274
112.0,0.0014036200009286404
120.0,0.0013442500494420528
128.0,0.0008291898411698639
144.0,0.0003023509925696999
160.0,0.0004758689319714904
176.0,0.001274081994779408
192.0,0.0009639590862207115
208.0,0.0008481254917569458
224.0,0.0004331649688538164
240.0,0.0006673805764876306
256.0,0.0013571303570643067
288.0,0.0013171598548069596
320.0,0.0010243201395496726
352.0,0.001703276066109538
384.0,0.0018236124888062477
416.0,0.0011782404035329819
448.0,-0.0005359197384677827
480.0,0.00024092358944471925
512.0,0.00014842150267213583
576.0,0.0008769176201894879
640.0,0.0003845994360744953
704.0,-0.0015616640448570251
768.0,-0.0016656819498166442
832.0,-0.0011834506876766682
896.0,0.00011523532157298177
960.0,0.0009355941438116133
1024.0,0.0007837601006031036
1152.0,0.0005430530873127282
1280.0,-0.0007556207128800452
1408.0,-0.0002084326697513461
1536.0,-0.00019359128782525659
1664.0,-7.43625860195607e-05
1792.0,-0.0007662303396500647
1920.0,0.00018402632849756628
2048.0,-0.0003311864857096225
2304.0,-0.0009091843967325985
2560.0,0.00037632143357768655
2816.0,0.00029229794745333493
3072.0,0.001721104490570724
3328.0,-0.0006550513789989054
3584.0,1.410850654792739e-05
3840.0,-0.0017579089617356658
4096.0,-0.0006665716646239161
4608.0,-0.0017402252415195107
5120.0,-0.0002580038271844387
5632.0,8.322339999722317e-05
6144.0,0.0005558295524679124
6656.0,0.0001739260769682005
7168.0,-0.001392764039337635
7680.0,8.809607606963255e-06
8192.0,0.001625321339815855
end
