version,3.0
numOfCh,1
type,point
parent_name,fe81d_0dot6-0dot1
ch_type,1_1
kcount,1
numberNandB,1
brightnessNandB,1
carpet pos,0
pc,0
Time (ms),CH1 Auto-Correlation
1.0,0.019811024889349937
2.0,0.018695034086704254
3.0,0.017708510160446167
4.0,0.016837352886795998
5.0,0.016046054661273956
6.0,0.015351722948253155
7.0,0.014713923446834087
8.0,0.014093487523496151
9.0,0.013506145216524601
10.0,0.012977690435945988
11.0,0.01246536523103714
12.0,0.012016797438263893
13.0,0.011599143035709858
14.0,0.011198596097528934
15.0,0.010805918835103512
16.0,0.010435258969664574
18.0,0.009806265123188496
20.0,0.009296393021941185
22.0,0.008856254629790783
24.0,0.008502061478793621
26.0,0.008182808756828308
28.0,0.007835103198885918
30.0,0.007496420759707689
32.0,0.007190099451690912
36.0,0.0064838360995054245
40.0,0.005714176222681999
44.0,0.005146873649209738
48.0,0.004722661804407835
52.0,0.004404636565595865
56.0,0.004118943586945534
60.0,0.00374049530364573
64.0,0.0033690512645989656
72.0,0.002443801611661911
80.0,0.002115597715601325
88.0,0.001988421892747283
96.0,0.001680948305875063
104.0,0.0016218164237216115
112.0,0.0014831575099378824
120.0,0.0011518747778609395
128.0,0.0008469396852888167
144.0,0.00032923551043495536
160.0,-0.00022775614343117923
176.0,-0.0004482681106310338
192.0,5.85900415899232e-05
208.0,-0.00024148324155248702
224.0,-0.00039936319808475673
240.0,-0.0006095782737247646
256.0,-0.0006525898352265358
288.0,-0.0008674152777530253
320.0,-0.000620979000814259
352.0,0.0001484428212279454
384.0,0.0006198017508722842
416.0,-5.523733489098959e-05
448.0,-0.0005583447637036443
480.0,-0.0007370772073045373
512.0,-0.00033397178049199283
576.0,0.0004350636445451528
640.0,-0.0001433152792742476
704.0,-0.0011713779531419277
768.0,-0.001278928481042385
832.0,-0.0009987574303522706
896.0,-0.001079016481526196
960.0,-0.00018610987171996385
1024.0,0.0007380093447864056
1152.0,0.0010661319829523563
1280.0,0.00033738790079951286
1408.0,0.0005688917590305209
1536.0,0.0016659062821418047
1664.0,0.0004940756480209529
1792.0,0.0010792004177346826
1920.0,-5.211782263359055e-05
2048.0,-0.0014948126627132297
2304.0,0.0004380054888315499
2560.0,0.0011387955164536834
2816.0,2.8910659239045344e-05
3072.0,-9.60366814979352e-05
3328.0,-0.0011507205199450254
3584.0,0.0008669348899275064
3840.0,0.0001896871835924685
4096.0,0.0005462017143145204
4608.0,0.00013600403326563537
5120.0,-0.0005552740185521543
5632.0,-0.00047672426444478333
6144.0,-0.000305002584354952
6656.0,-0.0005966291064396501
7168.0,-0.00011608303611865267
7680.0,-0.00038981757825240493
8192.0,-0.0012810167390853167
end
