version,3.0
numOfCh,1
type,point
parent_name,fe81d_0dot6-0dot1
ch_type,1_1
kcount,1
numberNandB,1
brightnessNandB,1
carpet pos,0
pc,0
Time (ms),CH1 Auto-Correlation
1.0,0.025073597207665443
2.0,0.02382821775972843
3.0,0.02269277162849903
4.0,0.02168707549571991
5.0,0.020737141370773315
6.0,0.019819136708974838
7.0,0.01898779161274433
8.0,0.018259471282362938
9.0,0.017601395025849342
10.0,0.016977814957499504
11.0,0.016384141519665718
12.0,0.015833914279937744
13.0,0.015344916842877865
14.0,0.014887478202581406
15.0,0.014477700926363468
16.0,0.014099741354584694
18.0,0.013390381820499897
20.0,0.012729499489068985
22.0,0.012138523161411285
24.0,0.011535918340086937
26.0,0.010963452979922295
28.0,0.010441873222589493
30.0,0.010009070858359337
32.0,0.009577379561960697
36.0,0.00873407069593668
40.0,0.007946394383907318
44.0,0.0073239062912762165
48.0,0.006820618640631437
52.0,0.00652268435806036
56.0,0.0062570408917963505
60.0,0.005993308965116739
64.0,0.005781662184745073
72.0,0.005087799392640591
80.0,0.004439263604581356
88.0,0.004436219576746225
96.0,0.004396660253405571
104.0,0.004164522513747215
112.0,0.0037854076363146305
120.0,0.003392562037333846
128.0,0.0031359894201159477
144.0,0.0032859020866453648
160.0,0.0030410555191338062
176.0,0.0020365461241453886
192.0,0.00138968660030514
208.0,0.0019848376978188753
224.0,0.0018799005774781108
240.0,0.0017993147484958172
256.0,0.001502798404544592
288.0,0.0010121830273419619
320.0,0.0006093461415730417
352.0,0.00011121079296572134
384.0,-0.00039684740477241576
416.0,-0.0001832350535551086
448.0,-0.00041855487506836653
480.0,4.342293686931953e-05
512.0,0.0004700130666606128
576.0,0.000744798278901726
640.0,0.000657602387946099
704.0,-0.0008975228411145508
768.0,-0.0009092040709219873
832.0,0.0005653208354488015
896.0,0.0018498225836083293
960.0,0.0006621778011322021
1024.0,-0.0001507632405264303
1152.0,0.0002391417947364971
1280.0,0.00026294076815247536
1408.0,0.0010788050713017583
1536.0,0.0005139494896866381
1664.0,-0.0009270482114516199
1792.0,-0.00140951678622514
1920.0,-0.0017298524035140872
2048.0,-0.0007110547157935798
2304.0,-0.0003106779477093369
2560.0,-0.0012502692406997085
2816.0,-0.002427748404443264
3072.0,4.503419404500164e-05
3328.0,0.0010436988668516278
3584.0,0.0009750557946972549
3840.0,0.0004132877220399678
4096.0,-0.0008292482816614211
4608.0,8.280916517833248e-05
5120.0,0.0020255374256521463
5632.0,7.694071246078238e-05
6144.0,-0.0014935336075723171
6656.0,0.000688705185893923
7168.0,-0.0013399546733126044
7680.0,-0.0020361978095024824
8192.0,0.00012575139407999814
end
