version,3.0
numOfCh,1
type,point
parent_name,fe81d_0dot6-0dot1
ch_type,1_1
kcount,1
numberNandB,1
brightnessNandB,1
carpet pos,0
pc,0
Time (ms),CH1 Auto-Correlation
1.0,0.02530469372868538
2.0,0.02410311996936798
3.0,0.023038452491164207
4.0,0.02204197645187378
5.0,0.021163051947951317
6.0,0.0203703660517931
7.0,0.019643401727080345
8.0,0.018943503499031067
9.0,0.01826477237045765
10.0,0.017680736258625984
11.0,0.017168520018458366
12.0,0.016666090115904808
13.0,0.01620437391102314
14.0,0.015757247805595398
15.0,0.015339918434619904
16.0,0.014933640137314796
18.0,0.01419156789779663
20.0,0.013485969044268131
22.0,0.01285015419125557
24.0,0.012241107411682606
26.0,0.011717827059328556
28.0,0.011289365589618683
30.0,0.010919561609625816
32.0,0.010633920319378376
36.0,0.010134677402675152
40.0,0.009542134590446949
44.0,0.00893635954707861
48.0,0.008391029201447964
52.0,0.00784722063690424
56.0,0.007545048370957375
60.0,0.007198219187557697
64.0,0.0069898986257612705
72.0,0.006310984492301941
80.0,0.005918861832469702
88.0,0.005279668606817722
96.0,0.0049136788584291935
104.0,0.004885910544544458
112.0,0.005074203480035067
120.0,0.005105204880237579
128.0,0.0050384365022182465
144.0,0.0046920739114284515
160.0,0.0038961574900895357
176.0,0.0029769279062747955
192.0,0.0025195861235260963
208.0,0.00255612563341856
224.0,0.0022721041459590197
240.0,0.002523095114156604
256.0,0.0027294051833450794
288.0,0.002759929047897458
320.0,0.0020749466493725777
352.0,0.001963011221960187
384.0,0.0020358464680612087
416.0,0.001564679085277021
448.0,0.0016282927244901657
480.0,0.001779918558895588
512.0,0.001939528388902545
576.0,0.001191766932606697
640.0,0.0005516197998076677
704.0,0.0014964522561058402
768.0,-2.753630542429164e-05
832.0,-0.0013672553468495607
896.0,-0.0015035801334306598
960.0,-0.0010699662379920483
1024.0,-0.00204089586623013
1152.0,-0.0008981854189187288
1280.0,0.0007324100588448346
1408.0,0.0006575599545612931
1536.0,-0.00032519688829779625
1664.0,0.0017649162327870727
1792.0,0.0009274721378460526
1920.0,0.0021772757172584534
2048.0,0.0007125530391931534
2304.0,-0.0020286531653255224
2560.0,-0.0017858666833490133
2816.0,-0.0019360975129529834
3072.0,-0.002421878045424819
3328.0,0.0007110089645721018
3584.0,0.0013586351415142417
3840.0,-4.649247421184555e-05
4096.0,0.00020810961723327637
4608.0,-0.0007954713073559105
5120.0,-0.001897419337183237
5632.0,0.0012344145216047764
6144.0,0.0022115635219961405
6656.0,0.0009944898774847388
7168.0,-0.0007029975531622767
7680.0,-0.002328794449567795
8192.0,-0.0018670845311135054
end
