version,3.0
numOfCh,1
type,point
parent_name,fe81d_0dot6-0dot1
ch_type,1_1
kcount,1
numberNandB,1
brightnessNandB,1
carpet pos,0
pc,0
Time (ms),CH1 Auto-Correlation
1.0,0.02300567366182804
2.0,0.02182498574256897
3.0,0.02075624093413353
4.0,0.019769204780459404
5.0,0.018896842375397682
6.0,0.01814156398177147
7.0,0.01744513399899006
8.0,0.016786111518740654
9.0,0.01620585285127163
10.0,0.015692437067627907
11.0,0.01517928671091795
12.0,0.014685300178825855
13.0,0.014271446503698826
14.0,0.013871154747903347
15.0,0.0134774474427104
16.0,0.013128725811839104
18.0,0.012501733377575874
20.0,0.011944156140089035
22.0,0.011343151330947876
24.0,0.010771906934678555
26.0,0.010281620547175407
28.0,0.00985619705170393
30.0,0.009431245736777782
32.0,0.009090346284210682
36.0,0.008466674014925957
40.0,0.008139477111399174
44.0,0.007777834311127663
48.0,0.007586651016026735
52.0,0.007402020040899515
56.0,0.007120923139154911
60.0,0.006723472848534584
64.0,0.006471265107393265
72.0,0.005811191629618406
80.0,0.005194700788706541
88.0,0.004503851290792227
96.0,0.00392870930954814
104.0,0.0035206833854317665
112.0,0.0032217716798186302
120.0,0.0029741956386715174
128.0,0.0027614065911620855
144.0,0.00181845563929528
160.0,0.0015320120146498084
176.0,0.0019211632898077369
192.0,0.0019716338720172644
208.0,0.0016418261220678687
224.0,0.001874424866400659
240.0,0.0019396545831114054
256.0,0.002147837309166789
288.0,0.0013570251176133752
320.0,0.0007491865544579923
352.0,-7.963549433043227e-05
384.0,-9.596407471690327e-05
416.0,0.0005242076003924012
448.0,0.0006731752655468881
480.0,0.0002680727338884026
512.0,-0.0009592832066118717
576.0,-0.0005800108192488551
640.0,0.0005437072832137346
704.0,0.0017988343024626374
768.0,0.0020809152629226446
832.0,0.0014118991093710065
896.0,0.0013987964484840631
960.0,-4.956674274581019e-06
1024.0,0.00035001113428734243
1152.0,-0.0008049052557907999
1280.0,-0.00016262302233371884
1408.0,0.00020025995036121458
1536.0,0.0002759017806965858
1664.0,-0.0006278327200561762
1792.0,-0.0002804104005917907
1920.0,-0.0031500025652348995
2048.0,-0.0037517501041293144
2304.0,-0.0005743080982938409
2560.0,-0.002525507938116789
2816.0,-0.003047984093427658
3072.0,-0.0011578808771446347
3328.0,-0.0010487283580005169
3584.0,0.0004164442070759833
3840.0,-0.00022170371084939688
4096.0,0.000873055134434253
4608.0,0.001033112988807261
5120.0,0.002107086358591914
5632.0,0.002392713911831379
6144.0,-0.0014685876667499542
6656.0,-6.933623808436096e-05
7168.0,-0.0010677688987925649
7680.0,-0.002681092591956258
8192.0,-0.00034478699672035873
end
