version,3.0
numOfCh,1
type,point
parent_name,fe81d_0dot6-0dot1
ch_type,1_1
kcount,1
numberNandB,1
brightnessNandB,1
carpet pos,0
pc,0
Time (ms),CH1 Auto-Correlation
1.0,0.02170291729271412
2.0,0.02055620215833187
3.0,0.01949157938361168
4.0,0.018502600491046906
5.0,0.01760246977210045
6.0,0.01677314192056656
7.0,0.016023224219679832
8.0,0.015288721770048141
9.0,0.014626200310885906
10.0,0.014005642384290695
11.0,0.013402615673840046
12.0,0.012839239090681076
13.0,0.012340476736426353
14.0,0.011871196329593658
15.0,0.011458229273557663
16.0,0.011046087369322777
18.0,0.010244232602417469
20.0,0.009420579299330711
22.0,0.008659827522933483
24.0,0.008026841096580029
26.0,0.007452708203345537
28.0,0.006967930588871241
30.0,0.006507103331387043
32.0,0.00612102122977376
36.0,0.005442474968731403
40.0,0.004919901490211487
44.0,0.004548077005892992
48.0,0.004177946597337723
52.0,0.003934158477932215
56.0,0.003689669771119952
60.0,0.003576455172151327
64.0,0.003523357445374131
72.0,0.00309939868748188
80.0,0.0026411686558276415
88.0,0.0029380181804299355
96.0,0.0027886629104614258
104.0,0.002528818091377616
112.0,0.0020365866366773844
120.0,0.0016718808328732848
128.0,0.0012805399019271135
144.0,0.0011088571045547724
160.0,0.0015399021795019507
176.0,0.0001533640461275354
192.0,-0.0009508983930572867
208.0,-0.0011620321311056614
224.0,-0.001070055877789855
240.0,-0.001204790431074798
256.0,-0.0008265126380138099
288.0,-0.0005214986740611494
320.0,-0.0002512427163310349
352.0,-0.0005542595754377544
384.0,-0.0003016416449099779
416.0,-0.0002112986403517425
448.0,0.00026384356897324324
480.0,0.0001048683188855648
512.0,-0.001267004176042974
576.0,-0.0012157688615843654
640.0,-0.0009122256306000054
704.0,-0.0010071819415315986
768.0,-0.00042528670746833086
832.0,6.683219544356689e-05
896.0,0.0021504717878997326
960.0,0.0013645783765241504
1024.0,0.0016382087487727404
1152.0,0.0011577457189559937
1280.0,-0.0010905768722295761
1408.0,-0.001915103173814714
1536.0,-0.0006747898878529668
1664.0,-0.0006776771624572575
1792.0,-7.420745532726869e-05
1920.0,-0.00029307164368219674
2048.0,0.0002192086831200868
2304.0,-0.000815242063254118
2560.0,-0.000700075994245708
2816.0,1.2860639799328055e-05
3072.0,-7.605007704114541e-05
3328.0,0.00022447126684710383
3584.0,0.0007870193803682923
3840.0,3.685925548779778e-05
4096.0,0.00015626537788193673
4608.0,-0.00045716037857346237
5120.0,0.00034568863338790834
5632.0,-0.0005431714816950262
6144.0,-0.0001627768506295979
6656.0,-0.000779723864980042
7168.0,0.000674382783472538
7680.0,0.00027515843976289034
8192.0,0.0006097566219978034
end
