version,3.0
numOfCh,1
type,point
parent_name,fe81d_0dot6-0dot1
ch_type,1_1
kcount,1
numberNandB,1
brightnessNandB,1
carpet pos,0
pc,0
Time (ms),CH1 Auto-Correlation
1.0,0.022658821195364
2.0,0.0215096827596426
3.0,0.020464777946472168
4.0,0.019502760842442513
5.0,0.018620697781443596
6.0,0.017803803086280823
7.0,0.017075803130865097
8.0,0.016386745497584343
9.0,0.015776367858052254
10.0,0.015175358392298222
11.0,0.014593716710805893
12.0,0.01410325150936842
13.0,0.013638596050441265
14.0,0.013164582662284374
15.0,0.012727360241115093
16.0,0.012324742041528225
18.0,0.011548835784196854
20.0,0.010885902680456638
22.0,0.010332431644201279
24.0,0.009806271642446518
26.0,0.009229897521436214
28.0,0.008624989539384842
30.0,0.00810200721025467
32.0,0.0076244892552495
36.0,0.006877725012600422
40.0,0.006292198784649372
44.0,0.005690447054803371
48.0,0.005256840027868748
52.0,0.00477009080350399
56.0,0.004193231463432312
60.0,0.0036748405545949936
64.0,0.0033939939457923174
72.0,0.003465820336714387
80.0,0.003531488822773099
88.0,0.0033271710854023695
96.0,0.0027271362487226725
104.0,0.002492438303306699
112.0,0.002323225373402238
120.0,0.0022342056035995483
128.0,0.0022598186042159796
144.0,0.0021015966776758432
160.0,0.0017788982950150967
176.0,0.0014021564275026321
192.0,0.001378906425088644
208.0,0.0016605212586000562
224.0,0.0014780715573579073
240.0,0.0009753096965141594
256.0,2.9655304388143122e-05
288.0,-0.0006552236154675484
320.0,-0.00012241717195138335
352.0,-0.0004302657034713775
384.0,-0.00019258471729699522
416.0,-0.0016365896444767714
448.0,-0.0015151130501180887
480.0,-0.0006316418875940144
512.0,-0.0012004297459498048
576.0,-0.0007268060580827296
640.0,0.00029039662331342697
704.0,0.0005563559825532138
768.0,-0.00020399785717017949
832.0,-0.0009230602881871164
896.0,0.00021068693604320288
960.0,0.0012324643321335316
1024.0,0.0003834870585706085
1152.0,-0.0013337393756955862
1280.0,-0.0009155265288427472
1408.0,-4.292126504878979e-06
1536.0,-0.0011158367851749063
1664.0,0.0021135949064046144
1792.0,0.000853840378113091
1920.0,0.0011151953367516398
2048.0,-0.00026427418924868107
2304.0,-0.0005551259964704514
2560.0,-0.000704777252394706
2816.0,0.0005138098495081067
3072.0,-0.0003055688866879791
3328.0,-0.0011336386669427156
3584.0,0.001295365858823061
3840.0,-0.0008476689690724015
4096.0,-0.0013928383123129606
4608.0,0.0007358667789958417
5120.0,0.0014325134688988328
5632.0,-0.00046984400250948966
6144.0,-0.0008656381978653371
6656.0,0.00022805971093475819
7168.0,-0.0004515235195867717
7680.0,0.00014930816541891545
8192.0,-0.0015315357595682144
end
