version,3.0
numOfCh,1
type,point
parent_name,fe81d_0dot6-0dot1
ch_type,1_1
kcount,1
numberNandB,1
brightnessNandB,1
carpet pos,0
pc,0
Time (ms),CH1 Auto-Correlation
1.0,0.021612195298075676
2.0,0.020486455410718918
3.0,0.019481111317873
4.0,0.018540034070611
5.0,0.01769326999783516
6.0,0.01692654751241207
7.0,0.01621272787451744
8.0,0.015560823492705822
9.0,0.014945026487112045
10.0,0.014368242584168911
11.0,0.013858617283403873
12.0,0.01337986160069704
13.0,0.012941286899149418
14.0,0.012529673054814339
15.0,0.012111521326005459
16.0,0.011745010502636433
18.0,0.011119789443910122
20.0,0.010594754479825497
22.0,0.010151820257306099
24.0,0.009735840372741222
26.0,0.009423029609024525
28.0,0.009131674654781818
30.0,0.008824820630252361
32.0,0.008500594645738602
36.0,0.007792302872985601
40.0,0.007105720695108175
44.0,0.0064065163023769855
48.0,0.005759318824857473
52.0,0.005193153861910105
56.0,0.00476076640188694
60.0,0.004296400118619204
64.0,0.003903078380972147
72.0,0.0034417402930557728
80.0,0.003271412802860141
88.0,0.0029523042030632496
96.0,0.0026524418499320745
104.0,0.0024443489965051413
112.0,0.002250212011858821
120.0,0.0019989688880741596
128.0,0.0017525509465485811
144.0,0.001692613703198731
160.0,0.0014325148658826947
176.0,0.0016000254545360804
192.0,0.0009406799217686057
208.0,0.0012309683952480555
224.0,0.0013396188151091337
240.0,0.001597197842784226
256.0,0.002188360085710883
288.0,0.0007475329330191016
320.0,0.00029859502683393657
352.0,0.00010240636765956879
384.0,-0.0009585540392436087
416.0,-0.0006853099912405014
448.0,0.00019662361592054367
480.0,0.00029398148762993515
512.0,0.00015272149175871164
576.0,-0.0001631776976864785
640.0,-0.001060399692505598
704.0,-0.0005100318230688572
768.0,-0.0002555851242505014
832.0,-0.0008348498959094286
896.0,-0.0026376540772616863
960.0,-0.00169804273173213
1024.0,-0.0008686206419952214
1152.0,-0.0014851911691948771
1280.0,-0.000905935768969357
1408.0,-0.0006355820805765688
1536.0,-0.0007373073021881282
1664.0,-0.0018193349242210388
1792.0,-0.00018759226077236235
1920.0,0.00047876997268758714
2048.0,-8.694102143635973e-05
2304.0,0.001228039269335568
2560.0,0.0008745502564124763
2816.0,0.0005953558720648289
3072.0,-0.00045097109978087246
3328.0,-0.0006273041944950819
3584.0,-0.0016971876611933112
3840.0,-0.0017783207586035132
4096.0,0.00013150690938346088
4608.0,0.001356529537588358
5120.0,4.282966983737424e-05
5632.0,-0.001045923912897706
6144.0,-0.0008917651721276343
6656.0,0.00019193410116713494
7168.0,0.001025060540996492
7680.0,-0.0008343299850821495
8192.0,-0.0010017493041232228
end
