version,3.0
numOfCh,1
type,point
parent_name,fe81d_0dot6-0dot1
ch_type,1_1
kcount,1
numberNandB,1
brightnessNandB,1
carpet pos,0
pc,0
Time (ms),CH1 Auto-Correlation
1.0,0.021192364394664764
2.0,0.020014101639389992
3.0,0.018951838836073875
4.0,0.017994889989495277
5.0,0.017108643427491188
6.0,0.016323238611221313
7.0,0.015582095831632614
8.0,0.014941532164812088
9.0,0.014384656213223934
10.0,0.013869003392755985
11.0,0.013396511785686016
12.0,0.01296092476695776
13.0,0.01254485733807087
14.0,0.012142733670771122
15.0,0.011759510263800621
16.0,0.011341498233377934
18.0,0.010609031654894352
20.0,0.009919386357069016
22.0,0.009351277723908424
24.0,0.008912121877074242
26.0,0.008501725271344185
28.0,0.008140037767589092
30.0,0.00777104776352644
32.0,0.007388942409306765
36.0,0.006846747361123562
40.0,0.006353268399834633
44.0,0.005878411699086428
48.0,0.005336288828402758
52.0,0.004946320317685604
56.0,0.004661022685468197
60.0,0.004616402089595795
64.0,0.004689159337431192
72.0,0.004599676933139563
80.0,0.004132713656872511
88.0,0.003760517342016101
96.0,0.0034180101938545704
104.0,0.0030147875659167767
112.0,0.0027835345827043056
120.0,0.0025624707341194153
128.0,0.002740108408033848
144.0,0.0024303561076521873
160.0,0.0018633565632626414
176.0,0.00204933388158679
192.0,0.002000091364607215
208.0,0.0013547961134463549
224.0,0.0006376862293109298
240.0,0.0005841301172040403
256.0,0.0010173871414735913
288.0,0.0005500827101059258
320.0,0.0002209901431342587
352.0,0.0003843103186227381
384.0,0.0012998461024835706
416.0,0.0012045807670801878
448.0,0.0008424331899732351
480.0,0.0005911437328904867
512.0,0.0006739027448929846
576.0,-0.0003492230025585741
640.0,-0.0004448744875844568
704.0,-0.00034307222813367844
768.0,-0.000377172720618546
832.0,-0.0006502022733911872
896.0,-0.0013373473193496466
960.0,-0.001659180736169219
1024.0,-0.001056223874911666
1152.0,-0.002031338168308139
1280.0,-0.0019383978797122836
1408.0,0.0004230137274134904
1536.0,0.0012697750935330987
1664.0,-0.00019902306667063385
1792.0,0.0012136200675740838
1920.0,0.0016654799692332745
2048.0,0.001186442212201655
2304.0,0.00022270565386861563
2560.0,0.0002009584422921762
2816.0,-0.0004252453800290823
3072.0,-0.0014592282241210341
3328.0,-0.0007152874022722244
3584.0,-9.768197196535766e-05
3840.0,0.00028459940222091973
4096.0,0.001705019734799862
4608.0,0.00012329508899711072
5120.0,-0.0012971473624929786
5632.0,-6.411422873497941e-06
6144.0,-0.00033694898593239486
6656.0,-0.001566374790854752
7168.0,-0.0004108057473786175
7680.0,0.0009801366832107306
8192.0,-0.0007924181991256773
end
