version,3.0
numOfCh,1
type,point
parent_name,fe81d_0dot6-0dot1
ch_type,1_1
kcount,1
numberNandB,1
brightnessNandB,1
carpet pos,0
pc,0
Time (ms),CH1 Auto-Correlation
1.0,0.022142425179481506
2.0,0.02097114361822605
3.0,0.01988469995558262
4.0,0.018903441727161407
5.0,0.01801866851747036
6.0,0.01715928316116333
7.0,0.01638392172753811
8.0,0.015654783695936203
9.0,0.014922012574970722
10.0,0.014239819720387459
11.0,0.013624305836856365
12.0,0.01304561272263527
13.0,0.012548881582915783
14.0,0.012072324752807617
15.0,0.011633941903710365
16.0,0.011261739768087864
18.0,0.010600980371236801
20.0,0.009965106844902039
22.0,0.00935328472405672
24.0,0.008825477212667465
26.0,0.008382366970181465
28.0,0.00793676171451807
30.0,0.007565133273601532
32.0,0.007273111958056688
36.0,0.006710781715810299
40.0,0.006163613870739937
44.0,0.005609630141407251
48.0,0.005094571970403194
52.0,0.004760493990033865
56.0,0.004369762726128101
60.0,0.003999755252152681
64.0,0.003664908464998007
72.0,0.003268933854997158
80.0,0.0028312900103628635
88.0,0.0022386207710951567
96.0,0.0018923707539215684
104.0,0.0014909635065123439
112.0,0.0011926809092983603
120.0,0.00107994070276618
128.0,0.0010258832480758429
144.0,0.0010886178351938725
160.0,0.0007248443434946239
176.0,0.0005040153628215194
192.0,0.0003611144202295691
208.0,0.00012198743206681684
224.0,0.00026602379512041807
240.0,7.282062870217487e-05
256.0,0.00016241420235019177
288.0,2.6723777409642935e-05
320.0,-0.00026628500199876726
352.0,-0.0008398425416089594
384.0,-0.0002805286494549364
416.0,-0.0004948577843606472
448.0,-0.0004789570812135935
480.0,7.970414299052209e-05
512.0,0.0005363186937756836
576.0,0.001283124671317637
640.0,0.0011437458451837301
704.0,0.0010987165151163936
768.0,0.00157702446449548
832.0,0.001184849301353097
896.0,0.0007332652457989752
960.0,0.0005475453799590468
1024.0,-0.0009258032077923417
1152.0,-0.0006402468425221741
1280.0,0.00019840836466755718
1408.0,-0.00015157028974499553
1536.0,-0.000338930229190737
1664.0,-5.642255928250961e-05
1792.0,-0.0009506618371233344
1920.0,-0.0010736383264884353
2048.0,-5.3409021347761154e-05
2304.0,-0.0002046524459728971
2560.0,-0.0010319893481209874
2816.0,-0.0007620097021572292
3072.0,0.0006549294339492917
3328.0,-0.0005153905949555337
3584.0,0.0003014356771018356
3840.0,-0.0003381066781003028
4096.0,-0.0007637850940227509
4608.0,-0.0012062344467267394
5120.0,-0.0008559504058212042
5632.0,-0.0014093497302383184
6144.0,0.0009654380264692008
6656.0,0.0008956627571024001
7168.0,0.0002333313605049625
7680.0,0.0013400819152593613
8192.0,0.0001098683787859045
end
