version,3.0
numOfCh,1
type,point
parent_name,fe81d_0dot6-0dot1
ch_type,1_1
kcount,1
numberNandB,1
brightnessNandB,1
carpet pos,0
pc,0
Time (ms),CH1 Auto-Correlation
1.0,0.02336365543305874
2.0,0.02220497839152813
3.0,0.02114659920334816
4.0,0.020125282928347588
5.0,0.019176822155714035
6.0,0.018314244225621223
7.0,0.017519978806376457
8.0,0.016757842153310776
9.0,0.016063274815678596
10.0,0.015440236777067184
11.0,0.01484114769846201
12.0,0.014283071272075176
13.0,0.01377065572887659
14.0,0.013301682658493519
15.0,0.012858939357101917
16.0,0.012497338466346264
18.0,0.011780887842178345
20.0,0.011175018735229969
22.0,0.010564785450696945
24.0,0.009930702857673168
26.0,0.00932736974209547
28.0,0.008898565545678139
30.0,0.008510695770382881
32.0,0.008128365501761436
36.0,0.0075075444765388966
40.0,0.007148494478315115
44.0,0.00677444227039814
48.0,0.006398848723620176
52.0,0.0059604099951684475
56.0,0.00548649812117219
60.0,0.005228710360825062
64.0,0.005167677067220211
72.0,0.005373899359256029
80.0,0.005239096935838461
88.0,0.0048645902425050735
96.0,0.004616049118340015
104.0,0.0043026539497077465
112.0,0.0038104820996522903
120.0,0.0032506335992366076
128.0,0.0027083992026746273
144.0,0.0016885899240151048
160.0,0.0014445355627685785
176.0,0.0008428779547102749
192.0,0.00042248700628988445
208.0,0.0010359404841437936
224.0,0.0016415044665336609
240.0,0.0017296550795435905
256.0,0.0008442257530987263
288.0,-0.00028598299832083285
320.0,0.0006502247997559607
352.0,0.0014209275832399726
384.0,0.001451541786082089
416.0,0.0008225856581702828
448.0,-0.000290105672320351
480.0,-0.001121373730711639
512.0,-0.0017306952504441142
576.0,-0.0003694579063449055
640.0,-6.572202983079478e-05
704.0,0.00031994475284591317
768.0,0.0015513418475165963
832.0,0.0011836986523121595
896.0,-0.0011570530477911234
960.0,-0.0012880392605438828
1024.0,-0.0013353971298784018
1152.0,-8.964613516582176e-05
1280.0,-0.0008123432635329664
1408.0,-0.0002311264688614756
1536.0,-0.0006404076120816171
1664.0,-0.0005796114564873278
1792.0,0.00019817978318315
1920.0,0.0016832738183438778
2048.0,-7.375499262707308e-05
2304.0,8.98610960575752e-05
2560.0,4.845601142733358e-05
2816.0,0.0015186576638370752
3072.0,-0.0007741948938928545
3328.0,-0.0016199212986975908
3584.0,-0.0006465322221629322
3840.0,-0.0003268281579948962
4096.0,-0.0015848915791139007
4608.0,-0.00033794878982007504
5120.0,-0.0011728930985555053
5632.0,0.0015829023905098438
6144.0,-4.046240064781159e-05
6656.0,-0.0009378502727486193
7168.0,-0.0008319340413436294
7680.0,0.0014293270651251078
8192.0,0.0008906885632313788
end
