version,3.0
numOfCh,1
type,point
parent_name,fe81d_0dot6-0dot1
ch_type,1_1
kcount,1
numberNandB,1
brightnessNandB,1
carpet pos,0
pc,0
Time (ms),CH1 Auto-Correlation
1.0,0.019597316160798073
2.0,0.018521398305892944
3.0,0.017531029880046844
4.0,0.01664441078901291
5.0,0.015791302546858788
6.0,0.014993911609053612
7.0,0.014252507127821445
8.0,0.013588452711701393
9.0,0.012979847379028797
10.0,0.012407520785927773
11.0,0.011879757978022099
12.0,0.011387123726308346
13.0,0.010919841937720776
14.0,0.010517669841647148
15.0,0.010146468877792358
16.0,0.009809636510908604
18.0,0.009219848550856113
20.0,0.00866627786308527
22.0,0.008060755208134651
24.0,0.007569130975753069
26.0,0.007115890271961689
28.0,0.006715869531035423
30.0,0.006358169484883547
32.0,0.0060218265280127525
36.0,0.005437204614281654
40.0,0.005080054514110088
44.0,0.0047178021632134914
48.0,0.004403272178024054
52.0,0.0042243278585374355
56.0,0.004168154206126928
60.0,0.004044326022267342
64.0,0.003987634554505348
72.0,0.0037536320742219687
80.0,0.0030137416906654835
88.0,0.0022500120103359222
96.0,0.0020394599996507168
104.0,0.0019026254303753376
112.0,0.0016035997541621327
120.0,0.0013230002950876951
128.0,0.0013169959420338273
144.0,0.0017789129633456469
160.0,0.0018995982827618718
176.0,0.0016090089920908213
192.0,0.0018202407518401742
208.0,0.002130876062437892
224.0,0.0020435515325516462
240.0,0.0015250910073518753
256.0,0.0013513372978195548
288.0,0.0012090631062164903
320.0,0.0004672579525504261
352.0,0.0003456497797742486
384.0,-0.0002813524624798447
416.0,-0.0006982073537074029
448.0,-0.00027168617816641927
480.0,0.00022986075782682747
512.0,0.00015702753444202244
576.0,-0.0007518472848460078
640.0,-0.0013026463566347957
704.0,6.751810724381357e-05
768.0,0.00024153136473614722
832.0,9.058057912625372e-06
896.0,-0.0003049687948077917
960.0,-0.00021356629440560937
1024.0,7.859971810830757e-05
1152.0,-0.0008729709079489112
1280.0,-0.0003832098445855081
1408.0,-9.615534509066492e-05
1536.0,0.00016223234706558287
1664.0,0.00028377032140269876
1792.0,-0.00020387816766742617
1920.0,-0.00028084119549021125
2048.0,0.00023036937636788934
2304.0,-0.0008937965030781925
2560.0,-0.0014775472227483988
2816.0,-0.0002595422265585512
3072.0,0.00029883484239690006
3328.0,-0.00011273200652794912
3584.0,-1.4350541732710553e-06
3840.0,0.0005293868016451597
4096.0,0.0004427966196089983
4608.0,-0.0003244405088480562
5120.0,0.0003695452760439366
5632.0,0.0003145942173432559
6144.0,-5.332403816282749e-06
6656.0,-0.0011624711332842708
7168.0,-0.0009267093846574426
7680.0,-0.0001988604199141264
8192.0,-6.48593413643539e-05
end
