version,3.0
numOfCh,1
type,point
parent_name,fe81d_0dot6-0dot1
ch_type,1_1
kcount,1
numberNandB,1
brightnessNandB,1
carpet pos,0
pc,0
Time (ms),CH1 Auto-Correlation
1.0,0.02233663760125637
2.0,0.021185927093029022
3.0,0.020159652456641197
4.0,0.019210459664463997
5.0,0.01835927926003933
6.0,0.01757165975868702
7.0,0.016849519684910774
8.0,0.016140347346663475
9.0,0.015486643649637699
10.0,0.014873409643769264
11.0,0.014300238341093063
12.0,0.013768598437309265
13.0,0.013273252174258232
14.0,0.012770584784448147
15.0,0.012342707253992558
16.0,0.011929764412343502
18.0,0.011208495125174522
20.0,0.010551823303103447
22.0,0.009945101104676723
24.0,0.009399241767823696
26.0,0.008875559084117413
28.0,0.008332405239343643
30.0,0.007849040441215038
32.0,0.007435337174683809
36.0,0.006761536933481693
40.0,0.006271371152251959
44.0,0.0059014493599534035
48.0,0.005677228327840567
52.0,0.005650034639984369
56.0,0.0055858781561255455
60.0,0.005461001768708229
64.0,0.0052320039831101894
72.0,0.0046219732612371445
80.0,0.0038475985638797283
88.0,0.003169178031384945
96.0,0.002569344127550721
104.0,0.002052444266155362
112.0,0.0017476736102253199
120.0,0.001471758121624589
128.0,0.0014404290122911334
144.0,0.001236184500157833
160.0,0.0012213119771331549
176.0,0.0009029421489685774
192.0,0.00025292846839874983
208.0,-0.0006050254451110959
224.0,-0.0005331969005055726
240.0,-0.00016644237621221691
256.0,3.566511077224277e-05
288.0,-0.00016670860350131989
320.0,0.00011910491593880579
352.0,0.0004570135206449777
384.0,0.000727324397303164
416.0,0.0010306363692507148
448.0,0.001103365095332265
480.0,0.0012865032767876983
512.0,0.0018909565405920148
576.0,0.0006982349441386759
640.0,-0.0009082379401661456
704.0,-0.0011319464538246393
768.0,-0.00031691769254393876
832.0,-0.00039749027928337455
896.0,0.0003282363759353757
960.0,-4.617800186679233e-06
1024.0,0.0007235149969346821
1152.0,-0.0008940795087255538
1280.0,-0.0009954205015674233
1408.0,-0.0008246181532740593
1536.0,0.0014534193323925138
1664.0,-0.0005722903297282755
1792.0,1.7660877915659512e-07
1920.0,-1.1084792276960798e-05
2048.0,-0.0011675601126626134
2304.0,-0.00033626193180680275
2560.0,-0.0006109167588874698
2816.0,-0.000978178926743567
3072.0,-0.0009995844447985291
3328.0,-0.0006266198470257223
3584.0,0.0004996269126422703
3840.0,-0.000717204820830375
4096.0,0.0002194649277953431
4608.0,0.0004445233498699963
5120.0,0.00012920711014885455
5632.0,0.0003538612218108028
6144.0,0.0002631335228215903
6656.0,-0.00023870384029578418
7168.0,0.00031742401188239455
7680.0,-0.0003698595392052084
8192.0,-8.568127668695524e-05
end
