version,3.0
numOfCh,1
type,point
parent_name,fe81d_0dot6-0dot1
ch_type,1_1
kcount,1
numberNandB,1
brightnessNandB,1
carpet pos,0
pc,0
Time (ms),CH1 Auto-Correlation
1.0,0.019385986030101776
2.0,0.018233222886919975
3.0,0.017196912318468094
4.0,0.016282204538583755
5.0,0.015430410392582417
6.0,0.014664877206087112
7.0,0.013924909755587578
8.0,0.01325275283306837
9.0,0.012625259347259998
10.0,0.012053641490638256
11.0,0.011545796878635883
12.0,0.01106263604015112
13.0,0.010633696801960468
14.0,0.01022373791784048
15.0,0.009842883795499802
16.0,0.009495045989751816
18.0,0.008799172937870026
20.0,0.008136329241096973
22.0,0.007583018857985735
24.0,0.007129323668777943
26.0,0.00672129588201642
28.0,0.006343576591461897
30.0,0.006000119727104902
32.0,0.005697630811482668
36.0,0.0052650924772024155
40.0,0.0047605084255337715
44.0,0.004289976786822081
48.0,0.003813467686995864
52.0,0.003471627365797758
56.0,0.0032759655732661486
60.0,0.0030873308423906565
64.0,0.0029572094790637493
72.0,0.0024219315964728594
80.0,0.0019498036708682775
88.0,0.0012974879937246442
96.0,0.0005673364503309131
104.0,0.00017804212984628975
112.0,2.5233136966562597e-06
120.0,0.00031583727104589343
128.0,0.0006494566332548857
144.0,0.0008570278296247125
160.0,0.00036884783185087144
176.0,0.0003913949185516685
192.0,0.0006881311419419944
208.0,0.0005688109085895121
224.0,0.0005770638817921281
240.0,0.00027441157726570964
256.0,0.0005983434966765344
288.0,0.001071862061508
320.0,0.0009015519171953201
352.0,-0.00029696212732233107
384.0,-0.0009044239413924515
416.0,-0.0010706480825319886
448.0,-9.564283391227946e-05
480.0,0.0008920971886254847
512.0,0.00024718043277971447
576.0,0.0013317668344825506
640.0,1.1855866432597395e-05
704.0,-0.0005487358430400491
768.0,0.0006006146431900561
832.0,0.00018388735770713538
896.0,0.0006577441236004233
960.0,0.0004333277465775609
1024.0,-0.0004923687083646655
1152.0,-7.116651977412403e-05
1280.0,-7.444730727002025e-05
1408.0,0.0006967022200115025
1536.0,-0.00035513617331162095
1664.0,-0.0003312529297545552
1792.0,-0.001259573269635439
1920.0,-0.0015019053826108575
2048.0,-0.0005908976891078055
2304.0,-0.00028026840300299227
2560.0,-0.0007511542644351721
2816.0,-0.00029000313952565193
3072.0,-0.00017572224896866828
3328.0,0.00030803121626377106
3584.0,-0.00043352408101782203
3840.0,0.0008265092619694769
4096.0,0.00018074728723149747
4608.0,1.8148572053178214e-05
5120.0,-0.0009418216650374234
5632.0,0.000451800151495263
6144.0,0.000396428833482787
6656.0,-0.00013844722707290202
7168.0,0.001193759380839765
7680.0,0.0013620188692584634
8192.0,0.0002595959813334048
end
