version,3.0
numOfCh,1
type,point
parent_name,fe81d_0dot6-0dot1
ch_type,1_1
kcount,1
numberNandB,1
brightnessNandB,1
carpet pos,0
pc,0
Time (ms),CH1 Auto-Correlation
1.0,0.020316004753112793
2.0,0.01917426474392414
3.0,0.018111735582351685
4.0,0.017128437757492065
5.0,0.016238931566476822
6.0,0.01541618537157774
7.0,0.014674118719995022
8.0,0.013985119760036469
9.0,0.013357708230614662
10.0,0.01277163065969944
11.0,0.012225781567394733
12.0,0.011701165698468685
13.0,0.011188470758497715
14.0,0.010716269724071026
15.0,0.01028264407068491
16.0,0.009904029779136181
18.0,0.009205067530274391
20.0,0.00856307614594698
22.0,0.00793920923024416
24.0,0.007404754403978586
26.0,0.006967708468437195
28.0,0.00659516965970397
30.0,0.006272333208471537
32.0,0.0060081202536821365
36.0,0.005435311701148748
40.0,0.004911287687718868
44.0,0.004592112731188536
48.0,0.004345200024545193
52.0,0.0041258628480136395
56.0,0.003835009876638651
60.0,0.0037058177404105663
64.0,0.0034836663398891687
72.0,0.0030059742275625467
80.0,0.0028153823222965
88.0,0.0024945377372205257
96.0,0.0019188347505405545
104.0,0.0013630803441628814
112.0,0.0011905906721949577
120.0,0.0015012853546068072
128.0,0.0019728420302271843
144.0,0.002033428754657507
160.0,0.0012214489979669452
176.0,0.0009198073530569673
192.0,0.0004956978373229504
208.0,0.00011487956362543628
224.0,-1.4097867278906051e-05
240.0,-0.00013712482177652419
256.0,-6.682380626443774e-05
288.0,0.0009103993652388453
320.0,0.000472223327960819
352.0,0.00019372774113435298
384.0,0.00015381776029244065
416.0,0.00032712088432163
448.0,0.0005984777235426009
480.0,0.0010700816055759788
512.0,0.0016857838490977883
576.0,0.0012619065819308162
640.0,0.0011510960757732391
704.0,0.0005844942643307149
768.0,0.0009650264400988817
832.0,0.0008958896505646408
896.0,0.0007741114241071045
960.0,-0.00035992759512737393
1024.0,-0.0005088010802865028
1152.0,-0.00038502307143062353
1280.0,0.0004972917377017438
1408.0,0.000904856133274734
1536.0,0.0010836272267624736
1664.0,0.0012884039897471666
1792.0,0.0003841450088657439
1920.0,-0.00026203333982266486
2048.0,0.00018773377814795822
2304.0,0.0007050154381431639
2560.0,-0.000696278759278357
2816.0,0.00043258850928395987
3072.0,0.000556495098862797
3328.0,-0.0010946865659207106
3584.0,-0.0004969009314663708
3840.0,-0.00035578530514612794
4096.0,-0.0012753392802551389
4608.0,1.8795315099850995e-06
5120.0,0.0011368074920028448
5632.0,0.00026375739253126085
6144.0,-0.000685979553963989
6656.0,-0.00016070273704826832
7168.0,0.00021634837321471423
7680.0,-0.0014008580474182963
8192.0,-0.00081931974273175
end
