version,3.0
numOfCh,1
type,point
parent_name,714af_10dot0-1dot0
ch_type,1_1
kcount,1
numberNandB,1
brightnessNandB,1
carpet pos,0
pc,0
Time (ms),CH1 Auto-Correlation
1.0,0.014702698215842247
2.0,0.010413392446935177
3.0,0.007942568510770798
4.0,0.006622589658945799
5.0,0.005273587070405483
6.0,0.004457554779946804
7.0,0.0037904919590801
8.0,0.003347426187247038
9.0,0.0029818115290254354
10.0,0.0025924532674252987
11.0,0.0025036693550646305
12.0,0.002339360537007451
13.0,0.0020203622989356518
14.0,0.0018299054354429245
15.0,0.0017024320550262928
16.0,0.0015859500272199512
18.0,0.001535442192107439
20.0,0.0012531094253063202
22.0,0.001125254319049418
24.0,0.0009822954889386892
26.0,0.0010143924737349153
28.0,0.0009393747895956039
30.0,0.0009142645867541432
32.0,0.0008523150463588536
36.0,0.000610394577961415
40.0,0.0004329353687353432
44.0,0.00038875575410202146
48.0,0.0005111569189466536
52.0,0.00021727105195168406
56.0,0.00033259193878620863
60.0,0.0002809476281981915
64.0,0.0001791163522284478
72.0,-5.98639489908237e-05
80.0,0.00010276913235429674
88.0,-0.00011311426351312548
96.0,-0.00020748538372572511
104.0,-0.00010165444837184623
112.0,-0.00013123538519721478
120.0,4.826348231290467e-06
128.0,-0.00018257500778418034
144.0,-0.0005914992070756853
160.0,-0.00034397401032038033
176.0,-5.390199657995254e-05
192.0,0.00015872444782871753
208.0,0.00036038554389961064
224.0,0.0003268276632297784
240.0,6.971259426791221e-05
256.0,-7.517109770560637e-05
288.0,-2.2685986550641246e-05
320.0,-0.00023041990061756223
352.0,1.674860504863318e-05
384.0,9.180647793982644e-06
416.0,-0.00015829391486477107
448.0,-0.0002831325982697308
480.0,-0.00023463662364520133
512.0,0.00013265435700304806
576.0,7.200035179266706e-05
640.0,-0.00019258564861956984
704.0,-0.0003006085753440857
768.0,8.919028186937794e-05
832.0,3.393846782273613e-05
896.0,3.6006676964461803e-05
960.0,-0.00024073541862890124
1024.0,0.00021519360598176718
1152.0,1.7146895743280766e-06
1280.0,4.573647311190143e-05
1408.0,9.344198042526841e-05
1536.0,-0.00013311603106558323
1664.0,-1.1569808521016967e-05
1792.0,0.00019093237642664462
1920.0,0.0001603374839760363
2048.0,3.406843461561948e-05
2304.0,-0.00021289392316248268
2560.0,-6.960724567761645e-05
2816.0,8.042638364713639e-05
3072.0,0.0002465369470883161
3328.0,-0.0002802936069201678
3584.0,0.00014794334128964692
3840.0,-0.00012348761083558202
4096.0,-2.0999206753913313e-05
4608.0,1.0917196050286293e-05
5120.0,-5.552429138333537e-05
5632.0,-9.803176362765953e-05
6144.0,-1.3033719369559549e-05
6656.0,-6.873675010865554e-05
7168.0,5.708059325115755e-05
7680.0,-7.675749657209963e-05
8192.0,6.236148328753188e-05
end
