version,3.0
numOfCh,1
type,point
parent_name,19e3e_10dot0-0dot01
ch_type,1_1
kcount,1
numberNandB,1
brightnessNandB,1
carpet pos,0
pc,0
Time (ms),CH1 Auto-Correlation
1.0,0.2683713436126709
2.0,0.25974172353744507
3.0,0.2539884150028229
4.0,0.24903041124343872
5.0,0.24597319960594177
6.0,0.24339234828948975
7.0,0.24075190722942352
8.0,0.2388531118631363
9.0,0.237535297870636
10.0,0.23604285717010498
11.0,0.23416323959827423
12.0,0.23247846961021423
13.0,0.23089687526226044
14.0,0.22959385812282562
15.0,0.22845673561096191
16.0,0.22698619961738586
18.0,0.22383278608322144
20.0,0.22087140381336212
22.0,0.2181662768125534
24.0,0.21571308374404907
26.0,0.2140948474407196
28.0,0.21144135296344757
30.0,0.209270641207695
32.0,0.20837612450122833
36.0,0.2055538296699524
40.0,0.20168481767177582
44.0,0.1976417899131775
48.0,0.19437676668167114
52.0,0.18976765871047974
56.0,0.18478168547153473
60.0,0.180728942155838
64.0,0.1784450262784958
72.0,0.17194104194641113
80.0,0.16583068668842316
88.0,0.1599968671798706
96.0,0.15654271841049194
104.0,0.1544373631477356
112.0,0.15249472856521606
120.0,0.14917977154254913
128.0,0.1448572278022766
144.0,0.13646480441093445
160.0,0.1268821805715561
176.0,0.11344302445650101
192.0,0.10679373890161514
208.0,0.10140848904848099
224.0,0.09314215928316116
240.0,0.08863718062639236
256.0,0.08611643314361572
288.0,0.0806908831000328
320.0,0.07293551415205002
352.0,0.0636414885520935
384.0,0.05803108960390091
416.0,0.0595267079770565
448.0,0.061088915914297104
480.0,0.059485968202352524
512.0,0.058079227805137634
576.0,0.04620962589979172
640.0,0.04314939305186272
704.0,0.0443926602602005
768.0,0.02868361584842205
832.0,0.01851668953895569
896.0,0.013754002749919891
960.0,0.01213899813592434
1024.0,0.0045991577208042145
1152.0,0.011420018970966339
1280.0,0.001989543903619051
1408.0,0.011988306418061256
1536.0,-0.019790487363934517
1664.0,-0.025090819224715233
1792.0,-0.020050056278705597
1920.0,-0.018621476367115974
2048.0,-0.024956511333584785
2304.0,0.008529511280357838
2560.0,0.05777601897716522
2816.0,0.049538757652044296
3072.0,0.024569880217313766
3328.0,-0.009512807242572308
3584.0,-0.02572379820048809
3840.0,-0.018608827143907547
4096.0,-0.046147316694259644
4608.0,-0.03272580727934837
5120.0,-0.04788384214043617
5632.0,-0.07232192903757095
6144.0,-0.10390417277812958
6656.0,-0.1402393877506256
7168.0,-0.09059888869524002
end
