version,3.0
numOfCh,1
type,point
parent_name,484af_0dot069-0dot1
ch_type,1_1
kcount,1
numberNandB,1
brightnessNandB,1
carpet pos,0
pc,0
Time (ms),CH1 Auto-Correlation
1.0,0.06928038597106934
2.0,0.06856683641672134
3.0,0.06785998493432999
4.0,0.06715866178274155
5.0,0.06656906008720398
6.0,0.06595755368471146
7.0,0.06531907618045807
8.0,0.06470762193202972
9.0,0.06411478668451309
10.0,0.06356468051671982
11.0,0.06299441307783127
12.0,0.06238440051674843
13.0,0.061837390065193176
14.0,0.061188582330942154
15.0,0.0605420358479023
16.0,0.059839993715286255
18.0,0.05883663147687912
20.0,0.058037880808115005
22.0,0.057210955768823624
24.0,0.05634767562150955
26.0,0.05547225847840309
28.0,0.05461476370692253
30.0,0.05383941903710365
32.0,0.05306639149785042
36.0,0.0514388307929039
40.0,0.05013502389192581
44.0,0.04888131842017174
48.0,0.04756377637386322
52.0,0.046216659247875214
56.0,0.04475756734609604
60.0,0.043359577655792236
64.0,0.04202767089009285
72.0,0.03979354724287987
80.0,0.03779280558228493
88.0,0.03572020307183266
96.0,0.03377446532249451
104.0,0.03187347576022148
112.0,0.03001456707715988
120.0,0.028189700096845627
128.0,0.02649841085076332
144.0,0.023675719276070595
160.0,0.020935580134391785
176.0,0.018755748867988586
192.0,0.017451277002692223
208.0,0.016930699348449707
224.0,0.016197877004742622
240.0,0.015557673759758472
256.0,0.015333144925534725
288.0,0.01535481121391058
320.0,0.01496972981840372
352.0,0.014118647202849388
384.0,0.013050641864538193
416.0,0.013761020265519619
448.0,0.013451166450977325
480.0,0.011624478735029697
512.0,0.00937416311353445
576.0,0.005714254919439554
640.0,0.0012771777110174298
704.0,-0.0028869740199297667
768.0,-0.0059793745167553425
832.0,-0.006528961006551981
896.0,-0.006830854807049036
960.0,-0.0067795938812196255
1024.0,-0.007523099426180124
1152.0,-0.0130801722407341
1280.0,-0.013946040533483028
1408.0,-0.015634069219231606
1536.0,-0.016844231635332108
1664.0,-0.011565626598894596
1792.0,-0.004535633139312267
1920.0,-0.00495695136487484
2048.0,-0.003071594750508666
2304.0,0.0015736008062958717
2560.0,0.007491611875593662
2816.0,0.009528323076665401
3072.0,0.008772125467658043
3328.0,0.0027349211741238832
3584.0,-0.0017047211294993758
3840.0,-0.005982529371976852
4096.0,-0.008219588547945023
4608.0,-0.0105639873072505
5120.0,0.006621253211051226
5632.0,0.008095107041299343
6144.0,0.001709248055703938
6656.0,-0.011311855167150497
7168.0,-0.010286855511367321
7680.0,0.003449248382821679
8192.0,0.007074239198118448
end
