version,3.0
numOfCh,1
type,point
parent_name,484af_0dot069-0dot1
ch_type,1_1
kcount,1
numberNandB,1
brightnessNandB,1
carpet pos,0
pc,0
Time (ms),CH1 Auto-Correlation
1.0,0.046110574156045914
2.0,0.045545995235443115
3.0,0.04502503201365471
4.0,0.044493429362773895
5.0,0.04398530721664429
6.0,0.04351269081234932
7.0,0.04304702579975128
8.0,0.042553942650556564
9.0,0.04206196963787079
10.0,0.04159531369805336
11.0,0.04114355146884918
12.0,0.04070544242858887
13.0,0.04029006510972977
14.0,0.03989348188042641
15.0,0.03949767351150513
16.0,0.03914550691843033
18.0,0.03844311833381653
20.0,0.03780679032206535
22.0,0.037186894565820694
24.0,0.03654735907912254
26.0,0.03594350814819336
28.0,0.03537717089056969
30.0,0.03474627807736397
32.0,0.03409937024116516
36.0,0.03292325511574745
40.0,0.031837694346904755
44.0,0.030843298882246017
48.0,0.030009059235453606
52.0,0.02918766438961029
56.0,0.028391074389219284
60.0,0.027532000094652176
64.0,0.02671605721116066
72.0,0.025363922119140625
80.0,0.024241136386990547
88.0,0.02329191192984581
96.0,0.02248554676771164
104.0,0.021914010867476463
112.0,0.021403459832072258
120.0,0.02083832211792469
128.0,0.020222831517457962
144.0,0.0192119013518095
160.0,0.018219497054815292
176.0,0.017208227887749672
192.0,0.01666526310145855
208.0,0.016183894127607346
224.0,0.015304313972592354
240.0,0.014461128041148186
256.0,0.014066901057958603
288.0,0.012759260833263397
320.0,0.010164170525968075
352.0,0.007591886445879936
384.0,0.005384352523833513
416.0,0.004730830900371075
448.0,0.005530328955501318
480.0,0.005318331532180309
512.0,0.005197927355766296
576.0,0.006980826612561941
640.0,0.006130308378487825
704.0,0.004847823642194271
768.0,0.0018295528134331107
832.0,0.0011258425656706095
896.0,0.0023634331300854683
960.0,0.000539149739779532
1024.0,-0.0011327806860208511
1152.0,-0.0014425202971324325
1280.0,-0.0034473794512450695
1408.0,-0.006401098798960447
1536.0,-0.006163543090224266
1664.0,-0.008193790912628174
1792.0,-0.006651378236711025
1920.0,-0.007297562435269356
2048.0,-0.008548912592232227
2304.0,-0.0035334250424057245
2560.0,-0.003515025367960334
2816.0,-0.0069139315746724606
3072.0,7.349829684244469e-05
3328.0,0.0009669875144027174
3584.0,0.0022899906616657972
3840.0,0.005546179134398699
4096.0,0.008856309577822685
4608.0,0.005564703606069088
5120.0,-0.0030208586249500513
5632.0,-0.007361670956015587
6144.0,-0.015047821216285229
6656.0,-0.010318947024643421
7168.0,-0.0005226363427937031
7680.0,0.0072823017835617065
8192.0,0.010377337224781513
end
