version,3.0
numOfCh,1
type,point
parent_name,484af_0dot069-0dot1
ch_type,1_1
kcount,1
numberNandB,1
brightnessNandB,1
carpet pos,0
pc,0
Time (ms),CH1 Auto-Correlation
1.0,0.06496886163949966
2.0,0.06426862627267838
3.0,0.06368232518434525
4.0,0.06314326822757721
5.0,0.06263091415166855
6.0,0.06212108954787254
7.0,0.06163876876235008
8.0,0.06119222939014435
9.0,0.060724254697561264
10.0,0.06024334579706192
11.0,0.059758976101875305
12.0,0.05931077525019646
13.0,0.05887266993522644
14.0,0.058445390313863754
15.0,0.0580475889146328
16.0,0.05764467269182205
18.0,0.05686674267053604
20.0,0.05611206591129303
22.0,0.05538898706436157
24.0,0.054713599383831024
26.0,0.05408504232764244
28.0,0.05346537381410599
30.0,0.05285769701004028
32.0,0.05230241268873215
36.0,0.05127108469605446
40.0,0.050246670842170715
44.0,0.04916200414299965
48.0,0.04804730787873268
52.0,0.04685087874531746
56.0,0.0455879271030426
60.0,0.044335026293992996
64.0,0.043087512254714966
72.0,0.04094498232007027
80.0,0.038985397666692734
88.0,0.036985695362091064
96.0,0.03511441498994827
104.0,0.03342541679739952
112.0,0.03210800513625145
120.0,0.030959995463490486
128.0,0.02966367080807686
144.0,0.027054712176322937
160.0,0.024813519790768623
176.0,0.023026518523693085
192.0,0.021671444177627563
208.0,0.02073923498392105
224.0,0.019583478569984436
240.0,0.01841740496456623
256.0,0.017377816140651703
288.0,0.015420283190906048
320.0,0.014019408263266087
352.0,0.013613210059702396
384.0,0.012932573445141315
416.0,0.011717136949300766
448.0,0.01092431228607893
480.0,0.00912690069526434
512.0,0.00755865266546607
576.0,0.006159875076264143
640.0,0.004113300703465939
704.0,0.001495975535362959
768.0,0.000744387274608016
832.0,0.0025659897364676
896.0,0.0014784249942749739
960.0,-0.0015935245901346207
1024.0,-0.004809922073036432
1152.0,-0.011867957189679146
1280.0,-0.013360465876758099
1408.0,-0.014300884678959846
1536.0,-0.019218992441892624
1664.0,-0.017902329564094543
1792.0,-0.014941244386136532
1920.0,-0.013357162475585938
2048.0,-0.0151923056691885
2304.0,-0.01070281583815813
2560.0,-0.0026216714177280664
2816.0,0.0032212131191045046
3072.0,0.010854472406208515
3328.0,0.02000296488404274
3584.0,0.014497548341751099
3840.0,0.006688449066132307
4096.0,-0.0007438163738697767
4608.0,-0.0047747669741511345
5120.0,-0.004678195808082819
5632.0,-0.008864572271704674
6144.0,-0.0028153029270470142
6656.0,9.688555292086676e-05
7168.0,-0.0041759563609957695
7680.0,-0.001598201459273696
8192.0,0.003837130730971694
end
