version,3.0
numOfCh,1
type,point
parent_name,484af_0dot069-0dot1
ch_type,1_1
kcount,1
numberNandB,1
brightnessNandB,1
carpet pos,0
pc,0
Time (ms),CH1 Auto-Correlation
1.0,0.05039539188146591
2.0,0.04994127154350281
3.0,0.04949166253209114
4.0,0.04903300479054451
5.0,0.048595771193504333
6.0,0.04817146062850952
7.0,0.04776524752378464
8.0,0.04736492782831192
9.0,0.04697025567293167
10.0,0.0465807169675827
11.0,0.04621055722236633
12.0,0.04583815485239029
13.0,0.04545317590236664
14.0,0.04507516697049141
15.0,0.04470105841755867
16.0,0.04433493688702583
18.0,0.0436377190053463
20.0,0.04294678568840027
22.0,0.042270954698324203
24.0,0.041647814214229584
26.0,0.04108418524265289
28.0,0.04053526371717453
30.0,0.039953626692295074
32.0,0.03936385363340378
36.0,0.03827201575040817
40.0,0.037281326949596405
44.0,0.03632451593875885
48.0,0.03542906418442726
52.0,0.03460799157619476
56.0,0.03388524428009987
60.0,0.03315603733062744
64.0,0.03244980424642563
72.0,0.031133633106946945
80.0,0.029885178431868553
88.0,0.02860381454229355
96.0,0.02725912630558014
104.0,0.025844236835837364
112.0,0.024590833112597466
120.0,0.023403501138091087
128.0,0.022318974137306213
144.0,0.02054041437804699
160.0,0.019237060099840164
176.0,0.01819322071969509
192.0,0.017069261521100998
208.0,0.01562315784394741
224.0,0.014383363537490368
240.0,0.013586397282779217
256.0,0.013201780617237091
288.0,0.01215409953147173
320.0,0.009684540331363678
352.0,0.00769777363166213
384.0,0.005976246204227209
416.0,0.005179244559258223
448.0,0.005210643168538809
480.0,0.004751868546009064
512.0,0.0037694566417485476
576.0,0.0030283392407000065
640.0,0.003511593444272876
704.0,0.0027778171934187412
768.0,0.003407597541809082
832.0,0.002799593610689044
896.0,0.0006307503790594637
960.0,-0.0020763413049280643
1024.0,-0.003958140499889851
1152.0,-0.003740508807823062
1280.0,-0.0038129519671201706
1408.0,-0.004650891292840242
1536.0,-0.0027429924812167883
1664.0,-0.0030340482480823994
1792.0,-0.005988358519971371
1920.0,-0.004435040056705475
2048.0,-0.0011273453710600734
2304.0,-0.003880738513544202
2560.0,-0.003724662121385336
2816.0,0.007732287514954805
3072.0,0.004508230835199356
3328.0,0.0033912290818989277
3584.0,0.009678599424660206
3840.0,0.006333104334771633
4096.0,-0.0025891761761158705
4608.0,-0.011099493131041527
5120.0,-0.014168327674269676
5632.0,-0.014884501695632935
6144.0,-0.0008348778355866671
6656.0,0.008762745186686516
7168.0,-0.0019148288993164897
7680.0,-0.0035244300961494446
8192.0,0.002724560210481286
end
