version,3.0
numOfCh,1
type,point
parent_name,484af_0dot069-0dot1
ch_type,1_1
kcount,1
numberNandB,1
brightnessNandB,1
carpet pos,0
pc,0
Time (ms),CH1 Auto-Correlation
1.0,0.08989405632019043
2.0,0.08917567133903503
3.0,0.08851541578769684
4.0,0.08790063858032227
5.0,0.08730162680149078
6.0,0.08670602738857269
7.0,0.08617384731769562
8.0,0.08568183332681656
9.0,0.08521261066198349
10.0,0.08481024950742722
11.0,0.08438525348901749
12.0,0.08400282263755798
13.0,0.08357954025268555
14.0,0.08321082592010498
15.0,0.08279553055763245
16.0,0.08236944675445557
18.0,0.08150427788496017
20.0,0.08064890652894974
22.0,0.07980428636074066
24.0,0.07901442795991898
26.0,0.07829193025827408
28.0,0.07760638743638992
30.0,0.0769651010632515
32.0,0.07631707191467285
36.0,0.0749974399805069
40.0,0.0736895501613617
44.0,0.07256593555212021
48.0,0.07146758586168289
52.0,0.07030893117189407
56.0,0.06923212856054306
60.0,0.06833561509847641
64.0,0.0675445944070816
72.0,0.06589653342962265
80.0,0.0645766630768776
88.0,0.0633724182844162
96.0,0.06221142038702965
104.0,0.06098505109548569
112.0,0.05941116809844971
120.0,0.05785996839404106
128.0,0.05647829547524452
144.0,0.05445333942770958
160.0,0.052487246692180634
176.0,0.05097683146595955
192.0,0.04944635555148125
208.0,0.048724278807640076
224.0,0.047953952103853226
240.0,0.047380365431308746
256.0,0.04757701978087425
288.0,0.047126851975917816
320.0,0.04507238790392876
352.0,0.04343312606215477
384.0,0.04335441812872887
416.0,0.042352136224508286
448.0,0.04067143797874451
480.0,0.03928036242723465
512.0,0.039261192083358765
576.0,0.03795788064599037
640.0,0.03559593856334686
704.0,0.03364739939570427
768.0,0.03175200894474983
832.0,0.029773009940981865
896.0,0.027604926377534866
960.0,0.02534048818051815
1024.0,0.022657644003629684
1152.0,0.018771683797240257
1280.0,0.01805548183619976
1408.0,0.019846437498927116
1536.0,0.016203058883547783
1664.0,0.012587802484631538
1792.0,0.012779243290424347
1920.0,0.007543491665273905
2048.0,0.00908337440341711
2304.0,0.014996272511780262
2560.0,0.008550822734832764
2816.0,-0.004451750312000513
3072.0,-0.01300487294793129
3328.0,-0.023792488500475883
3584.0,-0.031390972435474396
3840.0,-0.033461153507232666
4096.0,-0.041934605687856674
4608.0,-0.03212738409638405
5120.0,-0.036582354456186295
5632.0,-0.039684902876615524
6144.0,-0.035831887274980545
6656.0,-0.022739112377166748
7168.0,0.008927525952458382
7680.0,0.013945570215582848
8192.0,0.00822973158210516
end
