version,3.0
numOfCh,1
type,point
parent_name,484af_0dot069-0dot1
ch_type,1_1
kcount,1
numberNandB,1
brightnessNandB,1
carpet pos,0
pc,0
Time (ms),CH1 Auto-Correlation
1.0,0.04925515130162239
2.0,0.04877685382962227
3.0,0.04833647981286049
4.0,0.047893594950437546
5.0,0.04744783788919449
6.0,0.047012846916913986
7.0,0.04661500081419945
8.0,0.0462251678109169
9.0,0.04583399370312691
10.0,0.0454622283577919
11.0,0.04508927837014198
12.0,0.04472513869404793
13.0,0.04434804245829582
14.0,0.04396719112992287
15.0,0.043609410524368286
16.0,0.04326596111059189
18.0,0.042593710124492645
20.0,0.04193361476063728
22.0,0.041304364800453186
24.0,0.04069911316037178
26.0,0.04014074429869652
28.0,0.03958062827587128
30.0,0.0390612818300724
32.0,0.03856951370835304
36.0,0.03761779144406319
40.0,0.03666529804468155
44.0,0.03579258546233177
48.0,0.03495039418339729
52.0,0.034131236374378204
56.0,0.03331960737705231
60.0,0.03251326456665993
64.0,0.03172101825475693
72.0,0.030202524736523628
80.0,0.029020780697464943
88.0,0.02803073823451996
96.0,0.02712908573448658
104.0,0.026251837611198425
112.0,0.02531563863158226
120.0,0.02427016943693161
128.0,0.02335190773010254
144.0,0.021963249891996384
160.0,0.020634327083826065
176.0,0.01909099519252777
192.0,0.01759144850075245
208.0,0.016332097351551056
224.0,0.01490797195583582
240.0,0.013568711467087269
256.0,0.012445904314517975
288.0,0.011081953532993793
320.0,0.008569401688873768
352.0,0.006998920347541571
384.0,0.0067734913900494576
416.0,0.006810071412473917
448.0,0.00585972610861063
480.0,0.005017753224819899
512.0,0.00471583753824234
576.0,0.00555585278198123
640.0,0.008380530402064323
704.0,0.01273153256624937
768.0,0.014231227338314056
832.0,0.012684080749750137
896.0,0.010906602256000042
960.0,0.009688823483884335
1024.0,0.008256797678768635
1152.0,0.005643039476126432
1280.0,0.0018746362766250968
1408.0,-8.645654816064052e-06
1536.0,0.0028408882208168507
1664.0,0.002766693476587534
1792.0,0.0022841079626232386
1920.0,0.0008183364989235997
2048.0,0.0015672837616875768
2304.0,-0.0013774338876828551
2560.0,-0.009423439390957355
2816.0,-0.009349130094051361
3072.0,-0.0034114180598407984
3328.0,-0.007436648942530155
3584.0,-0.013949879445135593
3840.0,-0.007549329195171595
4096.0,-0.0053181410767138
4608.0,-0.0036049881018698215
5120.0,9.428941848454997e-05
5632.0,-0.0045171622186899185
6144.0,-8.765151142142713e-05
6656.0,-0.005323807243257761
7168.0,0.0026370768900960684
7680.0,0.005782193969935179
8192.0,0.011456512846052647
end
