version,3.0
numOfCh,1
type,point
parent_name,484af_0dot069-0dot1
ch_type,1_1
kcount,1
numberNandB,1
brightnessNandB,1
carpet pos,0
pc,0
Time (ms),CH1 Auto-Correlation
1.0,0.05118434503674507
2.0,0.05074603110551834
3.0,0.050321388989686966
4.0,0.04991200938820839
5.0,0.049493659287691116
6.0,0.049090489745140076
7.0,0.048685427755117416
8.0,0.048273250460624695
9.0,0.04786283150315285
10.0,0.047443050891160965
11.0,0.04704524204134941
12.0,0.04665179178118706
13.0,0.04626166820526123
14.0,0.04588046669960022
15.0,0.04551134631037712
16.0,0.045140769332647324
18.0,0.044417984783649445
20.0,0.04370510205626488
22.0,0.04299214109778404
24.0,0.04230642318725586
26.0,0.0416393019258976
28.0,0.04100218415260315
30.0,0.04039357230067253
32.0,0.03977692499756813
36.0,0.03865029662847519
40.0,0.03756241127848625
44.0,0.036520279943943024
48.0,0.035491060465574265
52.0,0.03446703404188156
56.0,0.03355827555060387
60.0,0.03273985907435417
64.0,0.03194090351462364
72.0,0.030268805101513863
80.0,0.028777794912457466
88.0,0.027585173025727272
96.0,0.026563281193375587
104.0,0.025643691420555115
112.0,0.02483067288994789
120.0,0.02398584596812725
128.0,0.022988690063357353
144.0,0.02108103409409523
160.0,0.019224269315600395
176.0,0.018119677901268005
192.0,0.01793268509209156
208.0,0.017993925139307976
224.0,0.01794840395450592
240.0,0.01781158335506916
256.0,0.01750856637954712
288.0,0.01691710576415062
320.0,0.01665332354605198
352.0,0.016740957275032997
384.0,0.01675138995051384
416.0,0.015767371281981468
448.0,0.014319545589387417
480.0,0.012285513803362846
512.0,0.009499036706984043
576.0,0.003324538702145219
640.0,0.00033974432153627276
704.0,-0.00022493096184916794
768.0,-0.0002928791509475559
832.0,0.0008442446705885231
896.0,3.095173087785952e-05
960.0,-0.0019824516493827105
1024.0,-0.001648167846724391
1152.0,-0.0015105034690350294
1280.0,0.001227447297424078
1408.0,0.005683716386556625
1536.0,0.0063517349772155285
1664.0,0.004559959284961224
1792.0,0.011108197271823883
1920.0,0.010609318502247334
2048.0,0.008597780019044876
2304.0,0.005282157100737095
2560.0,0.0016407391522079706
2816.0,0.001321947667747736
3072.0,0.004305546171963215
3328.0,0.008002293296158314
3584.0,0.003825647523626685
3840.0,-0.004510560072958469
4096.0,-0.008680999279022217
4608.0,-0.0018993569537997246
5120.0,0.0007974986801855266
5632.0,-0.0018758783116936684
6144.0,-0.004906101152300835
6656.0,-2.3740569304209203e-05
7168.0,-0.014051338657736778
7680.0,-0.013105483725667
8192.0,-0.00377239310182631
end
