version,3.0
numOfCh,1
type,point
parent_name,484af_0dot069-0dot1
ch_type,1_1
kcount,1
numberNandB,1
brightnessNandB,1
carpet pos,0
pc,0
Time (ms),CH1 Auto-Correlation
1.0,0.055206045508384705
2.0,0.0547061562538147
3.0,0.05422373116016388
4.0,0.05373406037688255
5.0,0.053256526589393616
6.0,0.05280939117074013
7.0,0.052373066544532776
8.0,0.05194958671927452
9.0,0.051521215587854385
10.0,0.05109035223722458
11.0,0.050681594759225845
12.0,0.050268083810806274
13.0,0.049858469516038895
14.0,0.04945997893810272
15.0,0.049069516360759735
16.0,0.04868583008646965
18.0,0.047911256551742554
20.0,0.04713262990117073
22.0,0.04636276140809059
24.0,0.04558909311890602
26.0,0.04481489211320877
28.0,0.04404845088720322
30.0,0.04332559183239937
32.0,0.042644452303647995
36.0,0.04138275980949402
40.0,0.04017443582415581
44.0,0.039003003388643265
48.0,0.037849459797143936
52.0,0.03676833212375641
56.0,0.03574042394757271
60.0,0.03471110388636589
64.0,0.03368367254734039
72.0,0.03171604499220848
80.0,0.030013982206583023
88.0,0.02843756228685379
96.0,0.026988757774233818
104.0,0.025458330288529396
112.0,0.023952525109052658
120.0,0.02264886349439621
128.0,0.021433301270008087
144.0,0.019050227478146553
160.0,0.01660851389169693
176.0,0.014362193644046783
192.0,0.012498054653406143
208.0,0.010669765993952751
224.0,0.009292202070355415
240.0,0.008665019646286964
256.0,0.008650664240121841
288.0,0.009424067102372646
320.0,0.010357570834457874
352.0,0.01078361738473177
384.0,0.010082017630338669
416.0,0.008518090471625328
448.0,0.00741789024323225
480.0,0.007373369764536619
512.0,0.006938340608030558
576.0,0.006500894669443369
640.0,0.00448567746207118
704.0,0.0023773754946887493
768.0,-0.00043393997475504875
832.0,-0.0013706929748877883
896.0,-0.0015894414391368628
960.0,-0.0011353581212460995
1024.0,-0.0038261464796960354
1152.0,-0.004820735193789005
1280.0,-0.0017774261068552732
1408.0,-0.0003791643539443612
1536.0,-0.002161012263968587
1664.0,-0.005088516976684332
1792.0,-0.004434465430676937
1920.0,-0.003270329674705863
2048.0,-0.006291251629590988
2304.0,-0.008822375908493996
2560.0,-0.002016740618273616
2816.0,0.0009605400264263153
3072.0,-0.008298628963530064
3328.0,0.0006351424963213503
3584.0,-0.0015217522159218788
3840.0,0.004481980111449957
4096.0,0.006267101038247347
4608.0,0.004826896823942661
5120.0,0.0009664303506724536
5632.0,0.0012530286330729723
6144.0,-0.0001505895343143493
6656.0,-0.006668271496891975
7168.0,-0.004673159681260586
7680.0,-0.001288923667743802
8192.0,5.817018518428085e-06
end
