version,3.0
numOfCh,1
type,point
parent_name,484af_0dot069-0dot1
ch_type,1_1
kcount,1
numberNandB,1
brightnessNandB,1
carpet pos,0
pc,0
Time (ms),CH1 Auto-Correlation
1.0,0.07663266360759735
2.0,0.07591427862644196
3.0,0.0751916915178299
4.0,0.07452962547540665
5.0,0.0739138126373291
6.0,0.07332800328731537
7.0,0.07276823371648788
8.0,0.07224351167678833
9.0,0.07174616307020187
10.0,0.07124501466751099
11.0,0.07073237001895905
12.0,0.0702533945441246
13.0,0.06979256868362427
14.0,0.06936212629079819
15.0,0.06895085424184799
16.0,0.06855028867721558
18.0,0.06776195764541626
20.0,0.06702038645744324
22.0,0.06628946959972382
24.0,0.06557208299636841
26.0,0.06484610587358475
28.0,0.06408706307411194
30.0,0.06334329396486282
32.0,0.0626620501279831
36.0,0.06140023469924927
40.0,0.06017140671610832
44.0,0.05902771279215813
48.0,0.05784580111503601
52.0,0.056805700063705444
56.0,0.05578802153468132
60.0,0.054764166474342346
64.0,0.05363330990076065
72.0,0.05150112509727478
80.0,0.04983896762132645
88.0,0.0482158437371254
96.0,0.046697862446308136
104.0,0.04535691440105438
112.0,0.04366103559732437
120.0,0.04182059317827225
128.0,0.039992112666368484
144.0,0.03670734912157059
160.0,0.0338522233068943
176.0,0.03165753185749054
192.0,0.029465220868587494
208.0,0.027903418987989426
224.0,0.02647034451365471
240.0,0.025373386219143867
256.0,0.024835122749209404
288.0,0.02508876472711563
320.0,0.02609345316886902
352.0,0.02672404609620571
384.0,0.028023606166243553
416.0,0.028747137635946274
448.0,0.028774531558156013
480.0,0.028296034783124924
512.0,0.027248430997133255
576.0,0.023453501984477043
640.0,0.018387649208307266
704.0,0.01632561907172203
768.0,0.016054904088377953
832.0,0.017556361854076385
896.0,0.02170471101999283
960.0,0.023244619369506836
1024.0,0.021809842437505722
1152.0,0.014107225462794304
1280.0,0.01340446900576353
1408.0,0.013794916681945324
1536.0,0.010168090462684631
1664.0,0.0033324130345135927
1792.0,0.0018832293571904302
1920.0,0.000940177938900888
2048.0,-0.002817211439833045
2304.0,-0.007993098348379135
2560.0,-0.01059330627322197
2816.0,-0.010258392430841923
3072.0,-0.016220353543758392
3328.0,-0.018047509714961052
3584.0,-0.02097441628575325
3840.0,-0.017273595556616783
4096.0,-0.011416216380894184
4608.0,-0.0005960866110399365
5120.0,0.004556787665933371
5632.0,0.006734443362802267
6144.0,0.011519458144903183
6656.0,0.02272452786564827
7168.0,0.014451173134148121
7680.0,0.0010269293561577797
8192.0,0.008885469287633896
end
