version,3.0
numOfCh,1
type,point
parent_name,484af_0dot069-0dot1
ch_type,1_1
kcount,1
numberNandB,1
brightnessNandB,1
carpet pos,0
pc,0
Time (ms),CH1 Auto-Correlation
1.0,0.11178703606128693
2.0,0.10965565592050552
3.0,0.10743574798107147
4.0,0.1052398532629013
5.0,0.1030188575387001
6.0,0.10100526362657547
7.0,0.09927316755056381
8.0,0.09755206108093262
9.0,0.09605563431978226
10.0,0.09481281042098999
11.0,0.09344969689846039
12.0,0.09200579673051834
13.0,0.0906272754073143
14.0,0.08928526937961578
15.0,0.08769909292459488
16.0,0.08612237870693207
18.0,0.08347994834184647
20.0,0.08122444152832031
22.0,0.07953839749097824
24.0,0.07816608250141144
26.0,0.07720165699720383
28.0,0.07638909667730331
30.0,0.07527978718280792
32.0,0.07447297871112823
36.0,0.07317478209733963
40.0,0.07272151112556458
44.0,0.07210575044155121
48.0,0.07058596611022949
52.0,0.06883377581834793
56.0,0.06740298122167587
60.0,0.06623337417840958
64.0,0.06505008786916733
72.0,0.05747498199343681
80.0,0.05115551874041557
88.0,0.04849425330758095
96.0,0.04644880071282387
104.0,0.04514671862125397
112.0,0.04325127229094505
120.0,0.04137920215725899
128.0,0.039328526705503464
144.0,0.03569641709327698
160.0,0.0334806963801384
176.0,0.031588874757289886
192.0,0.030370350927114487
208.0,0.029365677386522293
224.0,0.026742354035377502
240.0,0.023731306195259094
256.0,0.022198790684342384
288.0,0.018997294828295708
320.0,0.016292961314320564
352.0,0.014712117612361908
384.0,0.014879994094371796
416.0,0.015309040434658527
448.0,0.014644133858382702
480.0,0.014026383869349957
512.0,0.014403250068426132
576.0,0.01648543030023575
640.0,0.013833612203598022
704.0,0.01162099651992321
768.0,0.009917767718434334
832.0,0.00545544782653451
896.0,-8.743285434320569e-05
960.0,-0.0016470470000058413
1024.0,-8.07057034535319e-08
1152.0,-0.002750910585746169
1280.0,-0.004396011587232351
1408.0,-0.002392335096374154
1536.0,-0.007367366459220648
1664.0,-0.004372569266706705
1792.0,0.006782103329896927
1920.0,0.009037869051098824
2048.0,0.01684623770415783
2304.0,0.012692726217210293
2560.0,0.009852619841694832
2816.0,0.009027710184454918
3072.0,0.0064849513582885265
3328.0,-0.0011490670731291175
3584.0,-0.019107917323708534
3840.0,-0.02027284912765026
4096.0,-0.020435042679309845
4608.0,-0.01723467744886875
5120.0,-0.0021187046077102423
5632.0,-0.00029465663828887045
6144.0,-0.014774907380342484
6656.0,-0.01642710343003273
7168.0,-0.00945845153182745
7680.0,-0.0015743104740977287
8192.0,-0.0036504168529063463
end
