version,3.0
numOfCh,1
type,point
parent_name,484af_0dot069-0dot1
ch_type,1_1
kcount,1
numberNandB,1
brightnessNandB,1
carpet pos,0
pc,0
Time (ms),CH1 Auto-Correlation
1.0,0.08628835529088974
2.0,0.08578746765851974
3.0,0.08529733121395111
4.0,0.08481495082378387
5.0,0.08435497432947159
6.0,0.08390745520591736
7.0,0.08345326036214828
8.0,0.08300773054361343
9.0,0.08258745074272156
10.0,0.08218003064393997
11.0,0.08178078383207321
12.0,0.08138123154640198
13.0,0.08098321408033371
14.0,0.08059088885784149
15.0,0.08019765466451645
16.0,0.07981611043214798
18.0,0.07901980727910995
20.0,0.07822857052087784
22.0,0.07746992260217667
24.0,0.07672522217035294
26.0,0.07600153982639313
28.0,0.07530497014522552
30.0,0.0746375024318695
32.0,0.07398367673158646
36.0,0.07270273566246033
40.0,0.07143979519605637
44.0,0.07019022107124329
48.0,0.06902408599853516
52.0,0.06790528446435928
56.0,0.06684653460979462
60.0,0.0657726600766182
64.0,0.0648207738995552
72.0,0.06300649046897888
80.0,0.0612792931497097
88.0,0.059623297303915024
96.0,0.058235976845026016
104.0,0.057011473923921585
112.0,0.055943138897418976
120.0,0.05497511848807335
128.0,0.054048456251621246
144.0,0.052376795560121536
160.0,0.05094034969806671
176.0,0.04984433203935623
192.0,0.049182865768671036
208.0,0.04843984171748161
224.0,0.047517888247966766
240.0,0.04655582830309868
256.0,0.04584916681051254
288.0,0.042944248765707016
320.0,0.03946565464138985
352.0,0.03713231161236763
384.0,0.0369713231921196
416.0,0.03677111864089966
448.0,0.03585166484117508
480.0,0.035595208406448364
512.0,0.03475399687886238
576.0,0.031195662915706635
640.0,0.03258997201919556
704.0,0.033306870609521866
768.0,0.03212813660502434
832.0,0.02963474579155445
896.0,0.026308272033929825
960.0,0.024935228750109673
1024.0,0.021640868857502937
1152.0,0.012284256517887115
1280.0,0.003657697467133403
1408.0,0.0018277430208399892
1536.0,-1.304592387896264e-05
1664.0,0.0010535424808040261
1792.0,0.00011398673814255744
1920.0,-0.005716510117053986
2048.0,-0.008994256146252155
2304.0,-0.005305927246809006
2560.0,-0.004872909747064114
2816.0,0.003706488525494933
3072.0,-0.0007384878117591143
3328.0,0.009063896723091602
3584.0,0.004568975884467363
3840.0,0.0006698930519632995
4096.0,-0.002553410828113556
4608.0,-0.010350881144404411
5120.0,-0.016385991126298904
5632.0,-0.030127445235848427
6144.0,-0.03528190776705742
6656.0,-0.018476173281669617
7168.0,-0.004988861735910177
7680.0,0.014151745475828648
8192.0,0.018259113654494286
end
