version,3.0
numOfCh,1
type,point
parent_name,484af_0dot069-0dot1
ch_type,1_1
kcount,1
numberNandB,1
brightnessNandB,1
carpet pos,0
pc,0
Time (ms),CH1 Auto-Correlation
1.0,0.048568885773420334
2.0,0.048090461641550064
3.0,0.04761536791920662
4.0,0.04714719578623772
5.0,0.04667772725224495
6.0,0.04623574763536453
7.0,0.04580400139093399
8.0,0.045368414372205734
9.0,0.04493909329175949
10.0,0.04452575743198395
11.0,0.044122494757175446
12.0,0.043726228177547455
13.0,0.04332495480775833
14.0,0.0429244227707386
15.0,0.04252997040748596
16.0,0.04214891791343689
18.0,0.04143934324383736
20.0,0.04074987396597862
22.0,0.040089961141347885
24.0,0.039472516626119614
26.0,0.03891925886273384
28.0,0.03841555491089821
30.0,0.037960875779390335
32.0,0.03754371404647827
36.0,0.03675521910190582
40.0,0.03597240149974823
44.0,0.03521448373794556
48.0,0.03445911779999733
52.0,0.03366871178150177
56.0,0.03288498520851135
60.0,0.03213387727737427
64.0,0.031409140676259995
72.0,0.030063806101679802
80.0,0.028955409303307533
88.0,0.02796735055744648
96.0,0.027029717341065407
104.0,0.026095546782016754
112.0,0.025044767186045647
120.0,0.023975206539034843
128.0,0.023109907284379005
144.0,0.02161763794720173
160.0,0.020369509235024452
176.0,0.018878422677516937
192.0,0.018061893060803413
208.0,0.017148178070783615
224.0,0.01607905514538288
240.0,0.015237490646541119
256.0,0.014219757169485092
288.0,0.011925282888114452
320.0,0.009613587521016598
352.0,0.008125094696879387
384.0,0.007943078875541687
416.0,0.007159066386520863
448.0,0.006684036459773779
480.0,0.005982548929750919
512.0,0.004217811394482851
576.0,0.003452292177826166
640.0,0.0030734774190932512
704.0,0.0017556741368025541
768.0,0.0026190788485109806
832.0,0.0025894399732351303
896.0,0.002794224303215742
960.0,0.0024059659335762262
1024.0,0.0016991967568174005
1152.0,0.0021810580510646105
1280.0,0.006801520939916372
1408.0,0.006109245121479034
1536.0,0.007049024570733309
1664.0,0.005532152950763702
1792.0,0.00604212936013937
1920.0,0.008960955776274204
2048.0,0.008904379792511463
2304.0,0.0045894356444478035
2560.0,5.499142844200833e-06
2816.0,-0.0065880510956048965
3072.0,-0.009502483531832695
3328.0,0.00028515662415884435
3584.0,0.003472429933026433
3840.0,0.005836054217070341
4096.0,0.0022052850108593702
4608.0,-0.01223232876509428
5120.0,-0.009745331481099129
5632.0,-0.011462331749498844
6144.0,-0.008354808203876019
6656.0,-0.015040837228298187
7168.0,-0.0013927294639870524
7680.0,-0.0008214979898184538
8192.0,-0.00011753893340937793
end
