version,3.0
numOfCh,1
type,point
parent_name,484af_0dot069-0dot1
ch_type,1_1
kcount,1
numberNandB,1
brightnessNandB,1
carpet pos,0
pc,0
Time (ms),CH1 Auto-Correlation
1.0,0.06304539740085602
2.0,0.06243108958005905
3.0,0.061844926327466965
4.0,0.061232663691043854
5.0,0.06060376390814781
6.0,0.060017794370651245
7.0,0.05943531170487404
8.0,0.05886682868003845
9.0,0.05833128094673157
10.0,0.057822734117507935
11.0,0.057326849550008774
12.0,0.056854937225580215
13.0,0.05642779916524887
14.0,0.05600550398230553
15.0,0.055601369589567184
16.0,0.055222999304533005
18.0,0.05446157976984978
20.0,0.05373625084757805
22.0,0.05302632972598076
24.0,0.05233895778656006
26.0,0.05166011303663254
28.0,0.05104596167802811
30.0,0.050473038107156754
32.0,0.04994066059589386
36.0,0.04882582277059555
40.0,0.04779620096087456
44.0,0.04687689617276192
48.0,0.04598766937851906
52.0,0.04511404037475586
56.0,0.0443495474755764
60.0,0.04366151615977287
64.0,0.04286150261759758
72.0,0.04120420292019844
80.0,0.04008309915661812
88.0,0.03878104314208031
96.0,0.037581078708171844
104.0,0.0363428108394146
112.0,0.03533690795302391
120.0,0.03443054109811783
128.0,0.03366583213210106
144.0,0.03130726516246796
160.0,0.0295517947524786
176.0,0.028127547353506088
192.0,0.026761891320347786
208.0,0.025192497298121452
224.0,0.02327764220535755
240.0,0.021536894142627716
256.0,0.020915064960718155
288.0,0.02059275656938553
320.0,0.01949583925306797
352.0,0.01846453733742237
384.0,0.016208866611123085
416.0,0.01523868553340435
448.0,0.014174573123455048
480.0,0.013018785044550896
512.0,0.012210838496685028
576.0,0.010065322741866112
640.0,0.007051481865346432
704.0,0.005811239592730999
768.0,0.004088192246854305
832.0,0.002987088169902563
896.0,0.0010844507487490773
960.0,-0.0016359962755814195
1024.0,-0.0026136431843042374
1152.0,-0.008350370451807976
1280.0,-0.007842105813324451
1408.0,-0.0020144404843449593
1536.0,-0.0009229994611814618
1664.0,-0.00466079032048583
1792.0,-0.005108929704874754
1920.0,-0.0066024670377373695
2048.0,-0.004439463838934898
2304.0,-0.002725152065977454
2560.0,0.005243593826889992
2816.0,0.006543613504618406
3072.0,0.01027174387127161
3328.0,0.0033062549773603678
3584.0,-0.0006923588225618005
3840.0,-0.007725252769887447
4096.0,-0.011532766744494438
4608.0,-0.010817053727805614
5120.0,-0.003903791308403015
5632.0,0.006182114593684673
6144.0,0.012390535324811935
6656.0,0.0099262660369277
7168.0,0.0055675567127764225
7680.0,-0.004287813790142536
8192.0,-0.010210534557700157
end
