version,3.0
numOfCh,1
type,point
parent_name,484af_0dot069-0dot1
ch_type,1_1
kcount,1
numberNandB,1
brightnessNandB,1
carpet pos,0
pc,0
Time (ms),CH1 Auto-Correlation
1.0,0.06119568273425102
2.0,0.06065399572253227
3.0,0.060122523456811905
4.0,0.05959833785891533
5.0,0.059083908796310425
6.0,0.05860454589128494
7.0,0.05812637135386467
8.0,0.05764834210276604
9.0,0.05718867853283882
10.0,0.056718066334724426
11.0,0.05626177787780762
12.0,0.055824585258960724
13.0,0.055392250418663025
14.0,0.05497746169567108
15.0,0.054571520537137985
16.0,0.0541684627532959
18.0,0.05337768793106079
20.0,0.052560389041900635
22.0,0.051738105714321136
24.0,0.05097546800971031
26.0,0.050222381949424744
28.0,0.04948025941848755
30.0,0.04878503829240799
32.0,0.048136498779058456
36.0,0.04694436118006706
40.0,0.04593804478645325
44.0,0.0450013093650341
48.0,0.04408825933933258
52.0,0.04315736144781113
56.0,0.042254623025655746
60.0,0.04135889932513237
64.0,0.04057158902287483
72.0,0.03929518908262253
80.0,0.038216836750507355
88.0,0.037268705666065216
96.0,0.036223676055669785
104.0,0.03514934331178665
112.0,0.03418688848614693
120.0,0.03311222046613693
128.0,0.031937722116708755
144.0,0.029665250331163406
160.0,0.02739003114402294
176.0,0.02516842633485794
192.0,0.02348596602678299
208.0,0.02225668542087078
224.0,0.021080106496810913
240.0,0.019969802349805832
256.0,0.01910533756017685
288.0,0.01721772365272045
320.0,0.016243694350123405
352.0,0.016066312789916992
384.0,0.015611303970217705
416.0,0.014624725095927715
448.0,0.01347198337316513
480.0,0.011247331276535988
512.0,0.008335708640515804
576.0,0.005095719359815121
640.0,0.0009191950084641576
704.0,-0.0024906580802053213
768.0,-0.0049868058413267136
832.0,-0.008227558806538582
896.0,-0.01031056884676218
960.0,-0.010593210346996784
1024.0,-0.011662539094686508
1152.0,-0.014989077113568783
1280.0,-0.013555646874010563
1408.0,-0.01131322979927063
1536.0,-0.01014893501996994
1664.0,-0.004188631195574999
1792.0,-0.001026869984343648
1920.0,-0.001807699678465724
2048.0,0.0008829220314510167
2304.0,0.011429283767938614
2560.0,0.013319534249603748
2816.0,0.005133862607181072
3072.0,-0.003133357735350728
3328.0,-0.011401782743632793
3584.0,-0.020096248015761375
3840.0,-0.025759952142834663
4096.0,-0.017117520794272423
4608.0,0.003706997726112604
5120.0,0.008625277318060398
5632.0,-0.003654818283393979
6144.0,-0.007783019449561834
6656.0,0.0006678258068859577
7168.0,0.007166740018874407
7680.0,0.009105073288083076
8192.0,0.00911245308816433
end
