version,3.0
numOfCh,1
type,point
parent_name,484af_0dot069-0dot1
ch_type,1_1
kcount,1
numberNandB,1
brightnessNandB,1
carpet pos,0
pc,0
Time (ms),CH1 Auto-Correlation
1.0,0.07512616366147995
2.0,0.07457251101732254
3.0,0.07403942197561264
4.0,0.07351475208997726
5.0,0.07299675792455673
6.0,0.07250078022480011
7.0,0.07202467322349548
8.0,0.07157140225172043
9.0,0.07111810892820358
10.0,0.07068073749542236
11.0,0.07027630507946014
12.0,0.06986210495233536
13.0,0.06946519762277603
14.0,0.06907465308904648
15.0,0.06868007034063339
16.0,0.06830482929944992
18.0,0.0675552636384964
20.0,0.06683221459388733
22.0,0.0661422610282898
24.0,0.06547243148088455
26.0,0.06483040750026703
28.0,0.06421151012182236
30.0,0.06359487026929855
32.0,0.06297139078378677
36.0,0.061677005141973495
40.0,0.06043573096394539
44.0,0.05928254500031471
48.0,0.05817538872361183
52.0,0.057061173021793365
56.0,0.05597272887825966
60.0,0.054892659187316895
64.0,0.05388973653316498
72.0,0.0521167553961277
80.0,0.05041218176484108
88.0,0.0487775094807148
96.0,0.04716632142663002
104.0,0.04573013260960579
112.0,0.04469422623515129
120.0,0.04385420307517052
128.0,0.043165482580661774
144.0,0.042038045823574066
160.0,0.040610283613204956
176.0,0.03896807134151459
192.0,0.03711995854973793
208.0,0.035328228026628494
224.0,0.03358786925673485
240.0,0.03158387914299965
256.0,0.030035575851798058
288.0,0.02876482531428337
320.0,0.028814204037189484
352.0,0.028879454359412193
384.0,0.027520233765244484
416.0,0.025897130370140076
448.0,0.024231521412730217
480.0,0.022579148411750793
512.0,0.02215772308409214
576.0,0.020915985107421875
640.0,0.01900367997586727
704.0,0.019452044740319252
768.0,0.019572291523218155
832.0,0.019312700256705284
896.0,0.02021128311753273
960.0,0.01817876286804676
1024.0,0.01843825913965702
1152.0,0.016707591712474823
1280.0,0.01771209016442299
1408.0,0.020796485245227814
1536.0,0.015541800297796726
1664.0,0.011429920792579651
1792.0,0.009565098211169243
1920.0,0.008401860482990742
2048.0,0.00653471564874053
2304.0,-0.005546045023947954
2560.0,-0.006626371759921312
2816.0,-0.005078946705907583
3072.0,-0.01201813854277134
3328.0,-0.0080378083512187
3584.0,-0.017960544675588608
3840.0,-0.021017009392380714
4096.0,-0.02112232707440853
4608.0,-0.02389279007911682
5120.0,-0.021809561178088188
5632.0,-0.02636162005364895
6144.0,-0.020602360367774963
6656.0,-0.011629626154899597
7168.0,-0.014957902021706104
7680.0,-0.012022489681839943
8192.0,0.002723933197557926
end
