version,3.0
numOfCh,1
type,point
parent_name,484af_0dot069-0dot1
ch_type,1_1
kcount,1
numberNandB,1
brightnessNandB,1
carpet pos,0
pc,0
Time (ms),CH1 Auto-Correlation
1.0,0.0796697586774826
2.0,0.07918864488601685
3.0,0.07873287051916122
4.0,0.07829739153385162
5.0,0.07787144184112549
6.0,0.07746370881795883
7.0,0.07706964761018753
8.0,0.07668935507535934
9.0,0.07631371170282364
10.0,0.07594651728868484
11.0,0.07559474557638168
12.0,0.07524153590202332
13.0,0.07489103078842163
14.0,0.07453644275665283
15.0,0.07418017834424973
16.0,0.07382078468799591
18.0,0.07314301282167435
20.0,0.07249744981527328
22.0,0.07186732441186905
24.0,0.07126267999410629
26.0,0.0707041323184967
28.0,0.07019560039043427
30.0,0.06967029720544815
32.0,0.06913729757070541
36.0,0.0680684745311737
40.0,0.06699945777654648
44.0,0.0659291222691536
48.0,0.0649041086435318
52.0,0.0639132708311081
56.0,0.06301918625831604
60.0,0.06225036084651947
64.0,0.06155196577310562
72.0,0.06001951918005943
80.0,0.05848049744963646
88.0,0.0569569393992424
96.0,0.055625222623348236
104.0,0.054451558738946915
112.0,0.0534040667116642
120.0,0.05232519283890724
128.0,0.051248371601104736
144.0,0.048929862678050995
160.0,0.046441856771707535
176.0,0.04401598125696182
192.0,0.04203777015209198
208.0,0.04066853225231171
224.0,0.03956948220729828
240.0,0.03856464847922325
256.0,0.03779364377260208
288.0,0.037487078458070755
320.0,0.03683644160628319
352.0,0.03611311689019203
384.0,0.03572824224829674
416.0,0.034608710557222366
448.0,0.032098427414894104
480.0,0.028802279382944107
512.0,0.025706911459565163
576.0,0.01906026154756546
640.0,0.015255278907716274
704.0,0.01401828695088625
768.0,0.013811334036290646
832.0,0.012797465547919273
896.0,0.008788108825683594
960.0,0.0033576202113181353
1024.0,-0.0019308854825794697
1152.0,-0.010599429719150066
1280.0,-0.01508901547640562
1408.0,-0.0177913848310709
1536.0,-0.021074768155813217
1664.0,-0.019098874181509018
1792.0,-0.02161557227373123
1920.0,-0.02596983127295971
2048.0,-0.023753276094794273
2304.0,-0.019801687449216843
2560.0,-0.014132006093859673
2816.0,-0.008636378683149815
3072.0,-0.003969976678490639
3328.0,0.005641733296215534
3584.0,0.011951548047363758
3840.0,0.013644671067595482
4096.0,0.015178157947957516
4608.0,0.013755165040493011
5120.0,0.008007394149899483
5632.0,-0.005830449517816305
6144.0,-0.02608891762793064
6656.0,-0.031232651323080063
7168.0,-0.018295684829354286
7680.0,0.003955933731049299
8192.0,0.030093809589743614
end
