version,3.0
numOfCh,1
type,point
parent_name,484af_0dot069-0dot1
ch_type,1_1
kcount,1
numberNandB,1
brightnessNandB,1
carpet pos,0
pc,0
Time (ms),CH1 Auto-Correlation
1.0,0.05872591212391853
2.0,0.05805225297808647
3.0,0.057407937943935394
4.0,0.056779906153678894
5.0,0.056179244071245193
6.0,0.05560111999511719
7.0,0.055051714181900024
8.0,0.05450877174735069
9.0,0.05399346351623535
10.0,0.05349504575133324
11.0,0.05297176539897919
12.0,0.05246133357286453
13.0,0.05197756737470627
14.0,0.051511250436306
15.0,0.051042310893535614
16.0,0.05056970939040184
18.0,0.049629535526037216
20.0,0.04867910221219063
22.0,0.04778347536921501
24.0,0.04692310094833374
26.0,0.046043749898672104
28.0,0.045124784111976624
30.0,0.04423600062727928
32.0,0.04340479522943497
36.0,0.04177773743867874
40.0,0.04024818539619446
44.0,0.03877880051732063
48.0,0.037354253232479095
52.0,0.036034923046827316
56.0,0.034890756011009216
60.0,0.03395183011889458
64.0,0.03319583833217621
72.0,0.0319589264690876
80.0,0.030714455991983414
88.0,0.029495196416974068
96.0,0.028358977288007736
104.0,0.02729000896215439
112.0,0.026067377999424934
120.0,0.024922849610447884
128.0,0.02393232099711895
144.0,0.022566918283700943
160.0,0.020870758220553398
176.0,0.019172199070453644
192.0,0.01695946604013443
208.0,0.015300066210329533
224.0,0.014255624264478683
240.0,0.013190489262342453
256.0,0.011324367485940456
288.0,0.008052041754126549
320.0,0.0071783121675252914
352.0,0.0054555325768888
384.0,0.004044516012072563
416.0,0.003675228450447321
448.0,0.0032984509598463774
480.0,0.003226218046620488
512.0,0.004469791892915964
576.0,0.0047677382826805115
640.0,0.003433316247537732
704.0,0.0011129789054393768
768.0,-0.0008126245811581612
832.0,0.000618703372310847
896.0,0.0017540339613333344
960.0,0.004139808937907219
1024.0,0.006595890037715435
1152.0,0.004139678552746773
1280.0,0.0055584898218512535
1408.0,0.005660209339112043
1536.0,0.0065945410169661045
1664.0,0.004025707487016916
1792.0,0.0014499733224511147
1920.0,0.0006649602437391877
2048.0,0.0038623828440904617
2304.0,-0.00615055812522769
2560.0,-0.007359830196946859
2816.0,-0.005079497583210468
3072.0,-0.008109360933303833
3328.0,-0.008273833431303501
3584.0,-0.006482275668531656
3840.0,-0.0058670383878052235
4096.0,-0.006121283397078514
4608.0,-0.0077406116761267185
5120.0,-0.0055621410720050335
5632.0,-0.0026196513790637255
6144.0,-0.002995660062879324
6656.0,0.005763286724686623
7168.0,0.0069880434311926365
7680.0,0.006389650981873274
8192.0,0.010043554939329624
end
