version,3.0
numOfCh,1
type,point
parent_name,484af_0dot069-0dot1
ch_type,1_1
kcount,1
numberNandB,1
brightnessNandB,1
carpet pos,0
pc,0
Time (ms),CH1 Auto-Correlation
1.0,0.06232075020670891
2.0,0.06165318191051483
3.0,0.061017487198114395
4.0,0.06041571870446205
5.0,0.05983681231737137
6.0,0.059296704828739166
7.0,0.058741357177495956
8.0,0.058202046900987625
9.0,0.057704005390405655
10.0,0.05720805749297142
11.0,0.056697290390729904
12.0,0.056211356073617935
13.0,0.05572377145290375
14.0,0.055252958089113235
15.0,0.05479980260133743
16.0,0.05438928306102753
18.0,0.05355289578437805
20.0,0.05265176668763161
22.0,0.05174381658434868
24.0,0.05091164633631706
26.0,0.05011458694934845
28.0,0.04932049661874771
30.0,0.0485311858355999
32.0,0.047756947576999664
36.0,0.046407077461481094
40.0,0.045134104788303375
44.0,0.0439123772084713
48.0,0.0426834374666214
52.0,0.0413905568420887
56.0,0.04017271101474762
60.0,0.0391199067234993
64.0,0.03812991455197334
72.0,0.036440178751945496
80.0,0.03462636470794678
88.0,0.032770801335573196
96.0,0.031017320230603218
104.0,0.02959197387099266
112.0,0.028407465666532516
120.0,0.027357708662748337
128.0,0.026243744418025017
144.0,0.02411852404475212
160.0,0.02303125336766243
176.0,0.022758226841688156
192.0,0.02206186205148697
208.0,0.020519092679023743
224.0,0.019041888415813446
240.0,0.01723509281873703
256.0,0.01623529940843582
288.0,0.014853911474347115
320.0,0.013183461502194405
352.0,0.012264699675142765
384.0,0.012608726508915424
416.0,0.01301454659551382
448.0,0.013369649648666382
480.0,0.012588695622980595
512.0,0.011693451553583145
576.0,0.010086740367114544
640.0,0.009215759113430977
704.0,0.00910287257283926
768.0,0.004774455912411213
832.0,0.002074367366731167
896.0,0.002216148190200329
960.0,0.004511875566095114
1024.0,0.004152456298470497
1152.0,-0.001402116846293211
1280.0,-0.004405121318995953
1408.0,-0.005864466540515423
1536.0,-0.003911973442882299
1664.0,0.0011199023574590683
1792.0,-0.0009677634225226939
1920.0,-0.0020347638055682182
2048.0,-0.0010896915337070823
2304.0,0.0010936326580122113
2560.0,0.003615911118686199
2816.0,0.005793335381895304
3072.0,0.007280041463673115
3328.0,0.0034339313860982656
3584.0,-0.0050115142948925495
3840.0,-0.004561339505016804
4096.0,-0.0064611113630235195
4608.0,-0.0075058224610984325
5120.0,-0.007491219323128462
5632.0,-0.003466217080131173
6144.0,-0.0028298229444772005
6656.0,-0.010184306651353836
7168.0,-0.021357111632823944
7680.0,-0.012046515010297298
8192.0,0.0016515733441337943
end
