version,3.0
numOfCh,1
type,point
parent_name,484af_0dot069-0dot1
ch_type,1_1
kcount,1
numberNandB,1
brightnessNandB,1
carpet pos,0
pc,0
Time (ms),CH1 Auto-Correlation
1.0,0.08885043114423752
2.0,0.0876726359128952
3.0,0.08674321323633194
4.0,0.08586151152849197
5.0,0.08509783446788788
6.0,0.08439185470342636
7.0,0.08366904407739639
8.0,0.08286388218402863
9.0,0.08208471536636353
10.0,0.08132793009281158
11.0,0.08051260560750961
12.0,0.07973821461200714
13.0,0.07901451736688614
14.0,0.07833131402730942
15.0,0.07766170799732208
16.0,0.076997771859169
18.0,0.07594572752714157
20.0,0.0747000128030777
22.0,0.07336344569921494
24.0,0.07207375764846802
26.0,0.07086034119129181
28.0,0.0697677731513977
30.0,0.06878277659416199
32.0,0.0676957368850708
36.0,0.06572777032852173
40.0,0.06425143778324127
44.0,0.06298922747373581
48.0,0.06196229159832001
52.0,0.06089794263243675
56.0,0.05970381200313568
60.0,0.05859176442027092
64.0,0.05767342820763588
72.0,0.056286003440618515
80.0,0.05511278286576271
88.0,0.054161809384822845
96.0,0.052601248025894165
104.0,0.05083247274160385
112.0,0.04905499145388603
120.0,0.04707654193043709
128.0,0.045528803020715714
144.0,0.04293358698487282
160.0,0.04005804285407066
176.0,0.03690798953175545
192.0,0.033894289284944534
208.0,0.030115876346826553
224.0,0.02719670906662941
240.0,0.025356877595186234
256.0,0.023846335709095
288.0,0.01913788728415966
320.0,0.015253249555826187
352.0,0.012022108770906925
384.0,0.0075744036585092545
416.0,0.003538839053362608
448.0,0.0024368991144001484
480.0,0.00042111967923119664
512.0,-0.0024959479924291372
576.0,-0.00623661931604147
640.0,-0.004884508904069662
704.0,-0.00219177664257586
768.0,-0.0005267946980893612
832.0,0.000678432930726558
896.0,0.00558518897742033
960.0,0.010708811692893505
1024.0,0.0147578539326787
1152.0,0.021525543183088303
1280.0,0.018343422561883926
1408.0,0.01388264074921608
1536.0,0.006944899447262287
1664.0,0.0009889096254482865
1792.0,-0.0028510717675089836
1920.0,-0.001635490800254047
2048.0,0.003801682498306036
2304.0,0.004749578423798084
2560.0,-0.00437938654795289
2816.0,0.0008962240535765886
3072.0,0.00799749605357647
3328.0,0.0019190071616321802
3584.0,-0.015516011044383049
3840.0,-0.02699044533073902
4096.0,-0.005283051170408726
4608.0,-0.01384180411696434
5120.0,-0.03446899726986885
5632.0,-0.010227092541754246
6144.0,-0.017852360382676125
6656.0,0.005024651065468788
7168.0,0.007841276004910469
7680.0,-0.026697056367993355
8192.0,-0.0496867410838604
end
