version,3.0
numOfCh,1
type,point
parent_name,484af_0dot069-0dot1
ch_type,1_1
kcount,1
numberNandB,1
brightnessNandB,1
carpet pos,0
pc,0
Time (ms),CH1 Auto-Correlation
1.0,0.07068309187889099
2.0,0.06996240466833115
3.0,0.06928852945566177
4.0,0.06864609569311142
5.0,0.06801748275756836
6.0,0.0673791840672493
7.0,0.06677141040563583
8.0,0.06610645353794098
9.0,0.06549027562141418
10.0,0.06498952955007553
11.0,0.06458405405282974
12.0,0.06413283944129944
13.0,0.06369323283433914
14.0,0.06323931366205215
15.0,0.06273060292005539
16.0,0.06224226951599121
18.0,0.06139068305492401
20.0,0.06038958579301834
22.0,0.05930992588400841
24.0,0.058343060314655304
26.0,0.05745353177189827
28.0,0.056709982454776764
30.0,0.05611129850149155
32.0,0.05543936416506767
36.0,0.0539700910449028
40.0,0.052395470440387726
44.0,0.05104435235261917
48.0,0.04989047721028328
52.0,0.04876529797911644
56.0,0.047615837305784225
60.0,0.04648296535015106
64.0,0.04543183743953705
72.0,0.04373316839337349
80.0,0.04233422502875328
88.0,0.04118023067712784
96.0,0.04010650888085365
104.0,0.039216119796037674
112.0,0.0382610522210598
120.0,0.03750927373766899
128.0,0.03658192977309227
144.0,0.03400910273194313
160.0,0.031264398247003555
176.0,0.02887371927499771
192.0,0.026039795950055122
208.0,0.023676881566643715
224.0,0.02202603779733181
240.0,0.021073436364531517
256.0,0.019973065704107285
288.0,0.018374798819422722
320.0,0.018054787069559097
352.0,0.017086857929825783
384.0,0.01587969809770584
416.0,0.014852281659841537
448.0,0.015348713845014572
480.0,0.015314638614654541
512.0,0.014522490091621876
576.0,0.013516432605683804
640.0,0.013075821101665497
704.0,0.013781518675386906
768.0,0.015645990148186684
832.0,0.013694359920918941
896.0,0.013434674590826035
960.0,0.013251887634396553
1024.0,0.013089348562061787
1152.0,0.011611212976276875
1280.0,0.01046778168529272
1408.0,0.009654135443270206
1536.0,0.005066000856459141
1664.0,0.002528183860704303
1792.0,0.0006775878719054163
1920.0,-0.006144730374217033
2048.0,-0.00916049350053072
2304.0,-0.0032697024289518595
2560.0,0.0012409283081069589
2816.0,-0.003485900117084384
3072.0,-0.010473008267581463
3328.0,-0.007082414347678423
3584.0,-0.004237834829837084
3840.0,0.0037596561014652252
4096.0,0.0060579413548111916
4608.0,0.0019864679779857397
5120.0,-0.003257330972701311
5632.0,-0.009837789461016655
6144.0,-0.015814650803804398
6656.0,-0.014180553145706654
7168.0,-0.015855003148317337
7680.0,-0.017787957563996315
8192.0,-0.002782590687274933
end
