version,3.0
numOfCh,1
type,point
parent_name,484af_0dot069-0dot1
ch_type,1_1
kcount,1
numberNandB,1
brightnessNandB,1
carpet pos,0
pc,0
Time (ms),CH1 Auto-Correlation
1.0,0.0665612742304802
2.0,0.06590088456869125
3.0,0.06528182327747345
4.0,0.06467122584581375
5.0,0.06410450488328934
6.0,0.06357256323099136
7.0,0.06305884569883347
8.0,0.06253528594970703
9.0,0.0620448999106884
10.0,0.06154892221093178
11.0,0.061058077961206436
12.0,0.06059924140572548
13.0,0.06016695871949196
14.0,0.0597202442586422
15.0,0.05929793789982796
16.0,0.058883484452962875
18.0,0.05811356380581856
20.0,0.057368263602256775
22.0,0.05662092939019203
24.0,0.055858321487903595
26.0,0.05510660260915756
28.0,0.05437035486102104
30.0,0.05366713926196098
32.0,0.05296230688691139
36.0,0.05170664191246033
40.0,0.050567880272865295
44.0,0.0495680570602417
48.0,0.04864572733640671
52.0,0.04771159961819649
56.0,0.046789031475782394
60.0,0.045951612293720245
64.0,0.04512127861380577
72.0,0.04375258833169937
80.0,0.042566049844026566
88.0,0.04123144596815109
96.0,0.039774030447006226
104.0,0.03847339376807213
112.0,0.03729558363556862
120.0,0.03617379441857338
128.0,0.035167183727025986
144.0,0.03325852006673813
160.0,0.031108252704143524
176.0,0.02877543680369854
192.0,0.026412062346935272
208.0,0.02492140419781208
224.0,0.023545732721686363
240.0,0.021912159398198128
256.0,0.020303038880228996
288.0,0.017554650083184242
320.0,0.015437167137861252
352.0,0.013237174600362778
384.0,0.011166765354573727
416.0,0.008935577236115932
448.0,0.008079063147306442
480.0,0.007917293347418308
512.0,0.008923259563744068
576.0,0.007958014495670795
640.0,0.0067011332139372826
704.0,0.007294880226254463
768.0,0.00852942280471325
832.0,0.009262646548449993
896.0,0.007897676900029182
960.0,0.008588500320911407
1024.0,0.008296320214867592
1152.0,0.007021931931376457
1280.0,0.008109825663268566
1408.0,0.00706329895183444
1536.0,0.0038808288518339396
1664.0,0.0003531605179887265
1792.0,0.0035806065425276756
1920.0,0.00742895295843482
2048.0,0.007625355385243893
2304.0,-0.00439990172162652
2560.0,-0.012392324395477772
2816.0,-0.0077014220878481865
3072.0,-0.001088311430066824
3328.0,-0.0033505551982671022
3584.0,-0.008385764434933662
3840.0,-0.006661534309387207
4096.0,-0.0007574310875497758
4608.0,-0.009305943734943867
5120.0,0.0037283641286194324
5632.0,-0.011330542154610157
6144.0,-0.016060058027505875
6656.0,-0.017580164596438408
7168.0,-0.001959131797775626
7680.0,-0.01416061632335186
8192.0,-0.008042674511671066
end
