version,3.0
numOfCh,1
type,point
parent_name,484af_0dot069-0dot1
ch_type,1_1
kcount,1
numberNandB,1
brightnessNandB,1
carpet pos,0
pc,0
Time (ms),CH1 Auto-Correlation
1.0,0.05167892575263977
2.0,0.05120086297392845
3.0,0.05074383690953255
4.0,0.05030437186360359
5.0,0.049878038465976715
6.0,0.04947986453771591
7.0,0.04908202961087227
8.0,0.04868423566222191
9.0,0.04829004779458046
10.0,0.04791869595646858
11.0,0.047552645206451416
12.0,0.04719410836696625
13.0,0.04684111848473549
14.0,0.046477656811475754
15.0,0.04614389315247536
16.0,0.04580612853169441
18.0,0.045179788023233414
20.0,0.0445585660636425
22.0,0.04397476837038994
24.0,0.0434366874396801
26.0,0.04290453717112541
28.0,0.04235479608178139
30.0,0.041786566376686096
32.0,0.041181501001119614
36.0,0.039916668087244034
40.0,0.03873789682984352
44.0,0.03758389502763748
48.0,0.03640521690249443
52.0,0.035326577723026276
56.0,0.034321628510951996
60.0,0.0333523154258728
64.0,0.03236384317278862
72.0,0.030501291155815125
80.0,0.028684627264738083
88.0,0.026874246075749397
96.0,0.025282664224505424
104.0,0.02378399670124054
112.0,0.022312533110380173
120.0,0.02096727304160595
128.0,0.01987924613058567
144.0,0.018008824437856674
160.0,0.015969201922416687
176.0,0.014283936470746994
192.0,0.012512095272541046
208.0,0.010616506449878216
224.0,0.008830057457089424
240.0,0.0070991856046020985
256.0,0.005712780635803938
288.0,0.003946453332901001
320.0,0.0027091738302260637
352.0,0.0021922460291534662
384.0,0.002728424733504653
416.0,0.0038261658046394587
448.0,0.004062753636389971
480.0,0.003436777740716934
512.0,0.0024070406798273325
576.0,0.0007036981405690312
640.0,0.0011373335728421807
704.0,0.0035845465026795864
768.0,0.006279665045440197
832.0,0.009430967271327972
896.0,0.009517551399767399
960.0,0.00568747753277421
1024.0,0.0028255456127226353
1152.0,0.005698736757040024
1280.0,0.0065512931905686855
1408.0,0.0011990993516519666
1536.0,-0.004804184194654226
1664.0,-0.0030521689914166927
1792.0,-0.0010527101112529635
1920.0,0.00021683576051145792
2048.0,0.002620181068778038
2304.0,0.005023027770221233
2560.0,-0.0004319156869314611
2816.0,-4.501956937019713e-06
3072.0,0.0022559352219104767
3328.0,0.004071249160915613
3584.0,-0.0014217572752386332
3840.0,-0.006980034988373518
4096.0,-0.00023061197134666145
4608.0,-0.007632387336343527
5120.0,0.0024438744876533747
5632.0,-0.007848627865314484
6144.0,-0.007634382229298353
6656.0,-0.006418952718377113
7168.0,-0.006463044788688421
7680.0,-0.0009900453733280301
8192.0,-0.0065080514177680016
end
