version,3.0
numOfCh,1
type,point
parent_name,484af_0dot069-0dot1
ch_type,1_1
kcount,1
numberNandB,1
brightnessNandB,1
carpet pos,0
pc,0
Time (ms),CH1 Auto-Correlation
1.0,0.08099907636642456
2.0,0.08051031082868576
3.0,0.0800369381904602
4.0,0.07956601679325104
5.0,0.07909584045410156
6.0,0.07862787693738937
7.0,0.07815595716238022
8.0,0.07768067717552185
9.0,0.07721074670553207
10.0,0.07675770670175552
11.0,0.07631462812423706
12.0,0.07586689293384552
13.0,0.07543539255857468
14.0,0.0750136747956276
15.0,0.07459568977355957
16.0,0.07419099658727646
18.0,0.07338099926710129
20.0,0.07255875319242477
22.0,0.07179133594036102
24.0,0.07103648781776428
26.0,0.07029012590646744
28.0,0.06956756114959717
30.0,0.06884880363941193
32.0,0.06813618540763855
36.0,0.06681658327579498
40.0,0.06552839279174805
44.0,0.06432189047336578
48.0,0.06310363113880157
52.0,0.06184300780296326
56.0,0.06065572425723076
60.0,0.059547919780015945
64.0,0.058541953563690186
72.0,0.05658053979277611
80.0,0.05482656508684158
88.0,0.053156815469264984
96.0,0.05159951001405716
104.0,0.05019348859786987
112.0,0.04900223761796951
120.0,0.04792894423007965
128.0,0.04690602049231529
144.0,0.04532714933156967
160.0,0.04389611631631851
176.0,0.04258351773023605
192.0,0.041755497455596924
208.0,0.04077588766813278
224.0,0.03992937132716179
240.0,0.039380721747875214
256.0,0.03902607411146164
288.0,0.038284946233034134
320.0,0.036807842552661896
352.0,0.03511115163564682
384.0,0.033808592706918716
416.0,0.03177100047469139
448.0,0.028155803680419922
480.0,0.025585440918803215
512.0,0.022978894412517548
576.0,0.021166274324059486
640.0,0.01970818266272545
704.0,0.01534250658005476
768.0,0.010821880772709846
832.0,0.009433161467313766
896.0,0.008538024500012398
960.0,0.008774511516094208
1024.0,0.010138632729649544
1152.0,0.004843356087803841
1280.0,0.004090864676982164
1408.0,0.0025871102698147297
1536.0,0.006700539495795965
1664.0,0.006092850584536791
1792.0,0.0037171884905546904
1920.0,0.004659572150558233
2048.0,0.002066684188321233
2304.0,0.00276330579072237
2560.0,0.002224783878773451
2816.0,-0.0018645783420652151
3072.0,-0.012476460076868534
3328.0,-0.022122468799352646
3584.0,-0.0322616770863533
3840.0,-0.03599514439702034
4096.0,-0.036770761013031006
4608.0,-0.023884598165750504
5120.0,-0.01646731048822403
5632.0,-0.014287730678915977
6144.0,-0.005843497812747955
6656.0,0.003722624620422721
7168.0,0.00994933396577835
7680.0,0.01991552859544754
8192.0,0.025850649923086166
end
