version,3.0
numOfCh,1
type,point
parent_name,484af_0dot069-0dot1
ch_type,1_1
kcount,1
numberNandB,1
brightnessNandB,1
carpet pos,0
pc,0
Time (ms),CH1 Auto-Correlation
1.0,0.08063102513551712
2.0,0.0800221785902977
3.0,0.0794142410159111
4.0,0.07883045077323914
5.0,0.07826973497867584
6.0,0.07770934700965881
7.0,0.07716717571020126
8.0,0.07665016502141953
9.0,0.07612151652574539
10.0,0.07560322433710098
11.0,0.07508427649736404
12.0,0.07457081228494644
13.0,0.07408171147108078
14.0,0.07359638810157776
15.0,0.0731353908777237
16.0,0.07266645133495331
18.0,0.07170066237449646
20.0,0.07075309753417969
22.0,0.06979705393314362
24.0,0.0688377097249031
26.0,0.06786437332630157
28.0,0.06691967695951462
30.0,0.06600351631641388
32.0,0.06519153714179993
36.0,0.06370660662651062
40.0,0.062376637011766434
44.0,0.06111051142215729
48.0,0.05984227731823921
52.0,0.05880018323659897
56.0,0.05783859267830849
60.0,0.056885477155447006
64.0,0.05601608008146286
72.0,0.05457606911659241
80.0,0.05307573080062866
88.0,0.05180516466498375
96.0,0.0506555549800396
104.0,0.04929180443286896
112.0,0.047636479139328
120.0,0.04597584903240204
128.0,0.044557198882102966
144.0,0.041872184723615646
160.0,0.03980284184217453
176.0,0.038369856774806976
192.0,0.036877863109111786
208.0,0.03504854440689087
224.0,0.03335966169834137
240.0,0.03224043920636177
256.0,0.030836327001452446
288.0,0.027400068938732147
320.0,0.024289065971970558
352.0,0.021160166710615158
384.0,0.01846488006412983
416.0,0.01510679256170988
448.0,0.011492738500237465
480.0,0.009141406044363976
512.0,0.007384358439594507
576.0,0.0034302014391869307
640.0,-0.000281961023574695
704.0,-0.004247110802680254
768.0,-0.0035155254881829023
832.0,-0.004538137465715408
896.0,-0.008425600826740265
960.0,-0.012306887656450272
1024.0,-0.013067113235592842
1152.0,-0.011398213915526867
1280.0,-0.012380640022456646
1408.0,-0.012502732686698437
1536.0,-0.010035550221800804
1664.0,-0.0034837534185498953
1792.0,-0.0031244002748280764
1920.0,-0.007228733040392399
2048.0,-0.012632405385375023
2304.0,-0.0015020639402791858
2560.0,0.007676456589251757
2816.0,0.005215214565396309
3072.0,-0.007728423457592726
3328.0,-0.013435848988592625
3584.0,-0.006970297545194626
3840.0,-0.0023653535172343254
4096.0,0.0034266402944922447
4608.0,-0.0012694342294707894
5120.0,-0.010658083483576775
5632.0,-0.013227413408458233
6144.0,-0.014511835761368275
6656.0,0.002517904154956341
7168.0,0.004295902792364359
7680.0,0.007888967171311378
8192.0,0.03304704278707504
end
