version,3.0
numOfCh,1
type,point
parent_name,1000-cuts
ch_type,1_1
kcount,1
numberNandB,1
brightnessNandB,1
carpet pos,0
pc,0
Time (ms),CH1 Auto-Correlation
1.0,0.06640040129423141
2.0,0.062047336250543594
3.0,0.05798347666859627
4.0,0.05421042814850807
5.0,0.050733912736177444
6.0,0.04751808941364288
7.0,0.04458680748939514
8.0,0.04183327406644821
9.0,0.039209574460983276
10.0,0.03676445782184601
11.0,0.03441642224788666
12.0,0.03221024572849274
13.0,0.03001006878912449
14.0,0.028008386492729187
15.0,0.026050953194499016
16.0,0.02416297234594822
18.0,0.02094072476029396
20.0,0.018201516941189766
22.0,0.015793388709425926
24.0,0.013585971668362617
26.0,0.011372895911335945
28.0,0.009278583340346813
30.0,0.00749585498124361
32.0,0.0060618119314312935
36.0,0.003914827946573496
40.0,0.002067323075607419
44.0,0.0005120488349348307
48.0,-0.000751466432120651
52.0,-0.0013854410499334335
56.0,-0.00191881216596812
60.0,-0.002280094660818577
64.0,-0.002773800864815712
72.0,-0.0020957770757377148
80.0,-1.50110145114013e-05
88.0,0.0013007267843931913
96.0,0.0018246213439852
104.0,0.0016617323271930218
112.0,0.0010189387248829007
120.0,-5.110442725708708e-05
128.0,-0.00040569264092482626
144.0,-0.0013288772897794843
160.0,-0.0008409331203438342
176.0,0.002135464223101735
192.0,0.0019356287084519863
208.0,0.0018272639717906713
224.0,0.0004733354435302317
240.0,-0.000361077138222754
256.0,0.00046340320841409266
288.0,-0.0005533507210202515
320.0,-0.003079403657466173
352.0,-0.00028687159647233784
384.0,-0.0003794541989918798
416.0,-0.0018493812531232834
448.0,6.99712909408845e-05
480.0,0.0029467400163412094
512.0,0.0017746805679053068
576.0,-0.0020840379875153303
640.0,0.00023814127780497074
704.0,-0.0017768515972420573
768.0,-0.000592809054069221
832.0,-0.002111070556566119
896.0,-0.0027326110284775496
960.0,0.0008043189882300794
1024.0,-0.001540713245049119
1152.0,0.0007272593793459237
1280.0,-0.000406349019613117
1408.0,0.001338704489171505
1536.0,-0.002139400690793991
1664.0,0.002406197600066662
1792.0,0.002530184341594577
1920.0,-0.0016071874415501952
2048.0,0.0010854564607143402
2304.0,-0.0010802674805745482
2560.0,-0.0014929139288142323
2816.0,0.00038029701681807637
3072.0,-0.0009815024677664042
3328.0,0.0007088412530720234
3584.0,0.0013104528188705444
3840.0,0.001035394030623138
4096.0,-0.0004212210769765079
4608.0,-0.0005868405569344759
5120.0,0.00042378276702947915
5632.0,-0.0006987237138673663
6144.0,-0.0003022136224899441
6656.0,-0.0011403110111132264
7168.0,0.0014030644670128822
7680.0,0.00031340407440438867
8192.0,-0.0005292118876241148
9216.0,-0.00010453195864101872
10240.0,0.00034138531191274524
11264.0,-0.0007800886523909867
12288.0,0.0009531733230687678
13312.0,0.00014692157856188715
14336.0,-0.0017141749849542975
end
