version,3.0
numOfCh,1
type,point
parent_name,1000-cuts
ch_type,1_1
kcount,1
numberNandB,1
brightnessNandB,1
carpet pos,0
pc,0
Time (ms),CH1 Auto-Correlation
1.0,0.027518896386027336
2.0,0.025687970221042633
3.0,0.024009061977267265
4.0,0.022456297650933266
5.0,0.02104410156607628
6.0,0.01973908767104149
7.0,0.01851726323366165
8.0,0.01739475503563881
9.0,0.01628897897899151
10.0,0.015229662880301476
11.0,0.014249407686293125
12.0,0.013406166806817055
13.0,0.01265624351799488
14.0,0.011940977536141872
15.0,0.011270496062934399
16.0,0.010623069480061531
18.0,0.009346296079456806
20.0,0.00811870489269495
22.0,0.006942729000002146
24.0,0.005861830431967974
26.0,0.004983654245734215
28.0,0.004239396657794714
30.0,0.003642392111942172
32.0,0.003215446602553129
36.0,0.002484481316059828
40.0,0.0017866631969809532
44.0,0.00110938074067235
48.0,0.0007558252546004951
52.0,0.000585396948736161
56.0,0.00027193743153475225
60.0,0.0001428695977665484
64.0,1.5627727407263592e-05
72.0,-0.00016353948740288615
80.0,-0.00041161777335219085
88.0,-9.691280865808949e-05
96.0,0.00038789361133240163
104.0,0.00015454579261131585
112.0,-0.0003356478700879961
120.0,-0.000360396399628371
128.0,-0.0002460084215272218
144.0,-0.0003203456290066242
160.0,-0.0001585309801157564
176.0,0.00018055297550745308
192.0,0.00036851450568065047
208.0,0.00046236542402766645
224.0,-9.899912402033806e-05
240.0,-0.0005721308407373726
256.0,-0.0003334064094815403
288.0,-0.0002532194193918258
320.0,-0.00023595208767801523
352.0,2.6443869501235895e-05
384.0,0.00022360608272720128
416.0,-0.0011265696957707405
448.0,-0.0014617544366046786
480.0,-0.001002903445623815
512.0,-0.0003759093815460801
576.0,-7.672169886063784e-05
640.0,-4.248420736985281e-06
704.0,0.0008646287024021149
768.0,0.0007741678273305297
832.0,-0.00031611081794835627
896.0,0.0005672949482686818
960.0,0.00015171983977779746
1024.0,0.0004085187101736665
1152.0,0.0002258187159895897
1280.0,0.000516172032803297
1408.0,0.00041117166983895004
1536.0,-0.0005051354528404772
1664.0,9.83288191491738e-05
1792.0,6.952374678803608e-05
1920.0,-0.0004507915582507849
2048.0,-0.0009084664052352309
2304.0,0.0001140718231908977
2560.0,0.00012984455679543316
2816.0,-0.0003208041889593005
3072.0,-0.00010901383211603388
3328.0,-0.00017809928976930678
3584.0,-0.0005960013368166983
3840.0,-0.0003791170020122081
4096.0,3.4779415727825835e-05
4608.0,0.0001310661027673632
5120.0,-0.00020313748973421752
5632.0,0.00014646939234808087
6144.0,-0.00031086758826859295
6656.0,-0.00044227164471521974
7168.0,-0.00014747836394235492
7680.0,0.0003730172466021031
8192.0,-3.1617215427104384e-05
9216.0,0.0003530152316670865
10240.0,0.0006056662532500923
11264.0,-3.2580021070316434e-05
12288.0,-0.0007941057556308806
13312.0,-0.0007140428642742336
14336.0,2.9978655220475048e-05
end
