version,3.0
numOfCh,1
type,point
parent_name,1000-cuts
ch_type,1_1
kcount,1
numberNandB,1
brightnessNandB,1
carpet pos,0
pc,0
Time (ms),CH1 Auto-Correlation
1.0,0.061453405767679214
2.0,0.056892115622758865
3.0,0.052707232534885406
4.0,0.0487891361117363
5.0,0.04528721421957016
6.0,0.042226992547512054
7.0,0.03922219201922417
8.0,0.03643810376524925
9.0,0.03380865603685379
10.0,0.03127948194742203
11.0,0.02887776680290699
12.0,0.026595771312713623
13.0,0.0245121568441391
14.0,0.0226622074842453
15.0,0.0209317896515131
16.0,0.019349176436662674
18.0,0.01647740602493286
20.0,0.014096744358539581
22.0,0.012159114703536034
24.0,0.010389367118477821
26.0,0.008923233486711979
28.0,0.007634459994733334
30.0,0.006559382192790508
32.0,0.005679769907146692
36.0,0.003683781251311302
40.0,0.002190039725974202
44.0,0.0012315661879256368
48.0,0.0003759074897971004
52.0,-3.0738341592950746e-05
56.0,0.00015208611148409545
60.0,0.0005157917039468884
64.0,0.0005714118597097695
72.0,0.0003939426096621901
80.0,0.000286242866422981
88.0,0.00021776737412437797
96.0,-0.0002405806735623628
104.0,-0.0010171746835112572
112.0,-0.0014426903799176216
120.0,-0.001058163121342659
128.0,2.2797416022513062e-05
144.0,0.0009697743807919323
160.0,0.0026330137625336647
176.0,0.0006823799340054393
192.0,0.0010620098328217864
208.0,0.001646166667342186
224.0,0.0003171566058881581
240.0,0.0005969032645225525
256.0,0.00032628781627863646
288.0,0.0011778961634263396
320.0,0.001454508164897561
352.0,0.0006916773854754865
384.0,-6.663175736321136e-05
416.0,-0.001786445383913815
448.0,0.0011540662962943316
480.0,0.003914829343557358
512.0,0.0024062925949692726
576.0,0.0002637872821651399
640.0,7.517277845181525e-05
704.0,0.003364721080288291
768.0,0.0017277152510359883
832.0,0.002133845118805766
896.0,0.0008986382163129747
960.0,-0.00047326579806394875
1024.0,0.0011993206571787596
1152.0,0.0006324764690361917
1280.0,0.0019184574484825134
1408.0,-6.6551954660099e-05
1536.0,-0.00010214316716883332
1664.0,0.00042375409975647926
1792.0,0.0001924932439578697
1920.0,0.0009901565499603748
2048.0,-0.001485705142840743
2304.0,-0.0012012122897431254
2560.0,-0.0003637066693045199
2816.0,-0.0015663119265809655
3072.0,-0.0008703648345544934
3328.0,-0.001993261044844985
3584.0,-0.0001471980503993109
3840.0,-0.0011294299038127065
4096.0,-0.0017772536957636476
4608.0,-0.0011175645049661398
5120.0,-0.0004651965864468366
5632.0,0.00021037184342276305
6144.0,0.0006439876742660999
6656.0,0.0006587922107428312
7168.0,0.0009045348269864917
7680.0,0.00064225954702124
8192.0,-0.00013947070692665875
9216.0,-0.0007096537738107145
10240.0,-0.0007561561651527882
11264.0,-0.00021432741777971387
12288.0,0.0004020561755169183
13312.0,0.0007226111483760178
14336.0,0.0007026551174931228
end
