version,3.0
numOfCh,1
type,point
parent_name,1000-cuts
ch_type,1_1
kcount,1
numberNandB,1
brightnessNandB,1
carpet pos,0
pc,0
Time (ms),CH1 Auto-Correlation
1.0,0.025319337844848633
2.0,0.02360672317445278
3.0,0.02196166291832924
4.0,0.020381193608045578
5.0,0.01891656219959259
6.0,0.01750854402780533
7.0,0.016233796253800392
8.0,0.015058928169310093
9.0,0.013953405432403088
10.0,0.012954744510352612
11.0,0.011967896483838558
12.0,0.011039629578590393
13.0,0.010166587308049202
14.0,0.00937568861991167
15.0,0.008649598807096481
16.0,0.007989983074367046
18.0,0.006757291033864021
20.0,0.005707073491066694
22.0,0.0048269303515553474
24.0,0.004023999907076359
26.0,0.0033324030227959156
28.0,0.002771145198494196
30.0,0.0023727682419121265
32.0,0.002062026411294937
36.0,0.001494324766099453
40.0,0.0011105290614068508
44.0,0.0006656837649643421
48.0,0.0004140349628869444
52.0,0.0002715927257668227
56.0,6.147874955786392e-05
60.0,-0.00022912507120054215
64.0,-0.0002968310727737844
72.0,-0.0005088097532279789
80.0,-0.0004476212488953024
88.0,-0.0004895256133750081
96.0,-0.00012708970461972058
104.0,-0.00018058066780213267
112.0,-0.00033720125793479383
120.0,0.0003303554840385914
128.0,0.0006356012891046703
144.0,-0.0004201009578537196
160.0,-0.001239639357663691
176.0,-0.0009324923739768565
192.0,-0.0004687558102887124
208.0,-2.77091612588265e-06
224.0,0.0012098605511710048
240.0,0.0010713184019550681
256.0,0.00028970089624635875
288.0,-0.00031383021268993616
320.0,-0.00013693433720618486
352.0,0.00039017287781462073
384.0,-1.5373361748061143e-05
416.0,0.0002372601447859779
448.0,0.0001777870493242517
480.0,-0.00023116855300031602
512.0,7.925747195258737e-05
576.0,-0.0001075501786544919
640.0,0.0004488375270739198
704.0,0.0005026452126912773
768.0,6.764777208445594e-05
832.0,-1.8254431779496372e-05
896.0,0.0005057784728705883
960.0,0.0006738599040545523
1024.0,3.536988060659496e-06
1152.0,0.00032057202770374715
1280.0,5.84592271479778e-06
1408.0,0.0004335204721428454
1536.0,0.0010459780460223556
1664.0,-0.00019935148884542286
1792.0,-0.0006281361565925181
1920.0,0.00029505722341127694
2048.0,0.00078951584873721
2304.0,-1.8260707292938605e-05
2560.0,-0.00021313931210897863
2816.0,-7.871395791880786e-05
3072.0,-0.0002039200917351991
3328.0,3.269088119850494e-05
3584.0,0.00022876050206832588
3840.0,-0.0006674264441244304
4096.0,-0.00024060717259999365
4608.0,-5.8360736147733405e-05
5120.0,-5.533729927265085e-05
5632.0,-1.4581205505237449e-05
6144.0,-2.176834641431924e-06
6656.0,3.121714689768851e-05
7168.0,0.0003913932596333325
7680.0,6.197677430463955e-05
8192.0,-0.0003663230745587498
9216.0,-0.00042208333616144955
10240.0,-0.0004328275681473315
11264.0,-0.0003737084334716201
12288.0,-0.00012559058086480945
13312.0,0.0002605658082757145
14336.0,0.0005016680806875229
end
