version,3.0
numOfCh,1
type,point
parent_name,1000-cuts
ch_type,1_1
kcount,1
numberNandB,1
brightnessNandB,1
carpet pos,0
pc,0
Time (ms),CH1 Auto-Correlation
1.0,0.05381956323981285
2.0,0.05018245056271553
3.0,0.04686108976602554
4.0,0.04371146857738495
5.0,0.040791068226099014
6.0,0.03812486678361893
7.0,0.03563679754734039
8.0,0.033351097255945206
9.0,0.031275201588869095
10.0,0.029280835762619972
11.0,0.027423763647675514
12.0,0.02567891962826252
13.0,0.023934658616781235
14.0,0.022283196449279785
15.0,0.02074502781033516
16.0,0.01927131973206997
18.0,0.016916340216994286
20.0,0.015115795657038689
22.0,0.013525675982236862
24.0,0.012090886011719704
26.0,0.010725066997110844
28.0,0.009448018856346607
30.0,0.008446704596281052
32.0,0.007646843791007996
36.0,0.006365180015563965
40.0,0.005394571460783482
44.0,0.004453922621905804
48.0,0.003557938616722822
52.0,0.0028276434168219566
56.0,0.002155399415642023
60.0,0.0012875322718173265
64.0,0.0007476113387383521
72.0,-0.00011246993381064385
80.0,-0.0006037569255568087
88.0,-0.00028525295783765614
96.0,-0.0007510688155889511
104.0,-0.0011738021858036518
112.0,-0.0012925842311233282
120.0,-0.0011881206883117557
128.0,-0.0013784414622932673
144.0,0.0003889718500431627
160.0,-0.00010191458568442613
176.0,-0.0003106444200966507
192.0,0.0004435972368810326
208.0,-0.0002850449818652123
224.0,-0.0001012550710584037
240.0,0.0003467644564807415
256.0,-0.0018132268451154232
288.0,-0.002264287555590272
320.0,-0.0003101668262388557
352.0,0.0011317315511405468
384.0,-0.0017607620684430003
416.0,-0.0012933845864608884
448.0,-0.00022498211183119565
480.0,-0.0005414395709522069
512.0,-0.0007929019047878683
576.0,1.9932176655856892e-05
640.0,-0.002084077801555395
704.0,-0.0008682537009008229
768.0,-0.0013374212430790067
832.0,-0.0014364534290507436
896.0,-0.001098194275982678
960.0,0.000313507451210171
1024.0,-0.0005987574113532901
1152.0,-0.0012172020506113768
1280.0,0.00034313072683289647
1408.0,0.0008227232028730214
1536.0,0.0003030492225661874
1664.0,0.0009096842259168625
1792.0,0.00025444591301493347
1920.0,0.0007007772801443934
2048.0,0.00021124156774021685
2304.0,-0.0006545194773934782
2560.0,-0.0013027810491621494
2816.0,0.0015398894902318716
3072.0,-0.0001772157265804708
3328.0,0.0020744060166180134
3584.0,-0.0006081275059841573
3840.0,-0.0010029111290350556
4096.0,-0.000401752651669085
4608.0,0.0004173569905105978
5120.0,0.0004472478467505425
5632.0,-0.0009036920382641256
6144.0,-0.00010651597403921187
6656.0,0.00040160532807931304
7168.0,0.0001276761176995933
7680.0,-0.00043210905278101563
8192.0,-7.992702012415975e-05
9216.0,-0.0006926851929165423
10240.0,0.00022790307411924005
11264.0,3.085596108576283e-05
12288.0,-0.0007398508605547249
13312.0,0.0003333429340273142
14336.0,0.0001695885875960812
end
