version,3.0
numOfCh,1
type,point
parent_name,1000-cuts
ch_type,1_1
kcount,1
numberNandB,1
brightnessNandB,1
carpet pos,0
pc,0
Time (ms),CH1 Auto-Correlation
1.0,0.04313168302178383
2.0,0.04018949344754219
3.0,0.037409182637929916
4.0,0.03477255627512932
5.0,0.03237900882959366
6.0,0.030217252671718597
7.0,0.028179777786135674
8.0,0.026319289579987526
9.0,0.024582548066973686
10.0,0.02304227650165558
11.0,0.02166004478931427
12.0,0.020321527495980263
13.0,0.019038930535316467
14.0,0.017859017476439476
15.0,0.016763634979724884
16.0,0.01584865152835846
18.0,0.014284109696745872
20.0,0.012743867002427578
22.0,0.011422325856983662
24.0,0.010157361626625061
26.0,0.009047571569681168
28.0,0.008014122024178505
30.0,0.007200139109045267
32.0,0.006458166986703873
36.0,0.005443596746772528
40.0,0.004404347389936447
44.0,0.0031994348391890526
48.0,0.0024011190980672836
52.0,0.0020038029178977013
56.0,0.0017800782807171345
60.0,0.0013928641565144062
64.0,0.0007839282043278217
72.0,0.00039441726403310895
80.0,0.0008920766995288432
88.0,0.001633629435673356
96.0,0.002071269089356065
104.0,0.002709972904995084
112.0,0.0022476210724562407
120.0,0.001441723550669849
128.0,0.0006755284848622978
144.0,-0.0009894552640616894
160.0,-0.0017373093869537115
176.0,-0.001147485920228064
192.0,-6.617458711843938e-05
208.0,-0.0016717789694666862
224.0,-0.002092645037919283
240.0,-0.0003982862108387053
256.0,1.881616481114179e-05
288.0,-6.437373667722568e-05
320.0,-0.0007898093317635357
352.0,-0.002312503755092621
384.0,-0.000227558019105345
416.0,0.0006676223711110651
448.0,0.0016388921067118645
480.0,-1.2749526831612457e-05
512.0,0.0006574668805114925
576.0,-0.0010471474379301071
640.0,-0.0003621698124334216
704.0,0.0011990891071036458
768.0,0.0027510905638337135
832.0,0.000266008370090276
896.0,0.0010925558162853122
960.0,-0.0011110109044238925
1024.0,0.0003824871382676065
1152.0,-0.0002081440616166219
1280.0,-0.0014279736205935478
1408.0,-0.0024736844934523106
1536.0,-0.0005457627703435719
1664.0,0.00048737050383351743
1792.0,7.361995085375383e-05
1920.0,0.0007893394795246422
2048.0,-8.3487197116483e-05
2304.0,0.000247228832449764
2560.0,-0.000705727085005492
2816.0,0.0013373674592003226
3072.0,0.0003181292850058526
3328.0,-0.0010690661147236824
3584.0,0.00024521886371076107
3840.0,0.00020863227837253362
4096.0,-0.0005707860691472888
4608.0,0.00010090616706293076
5120.0,5.820496880915016e-05
5632.0,-0.00031445256900042295
6144.0,-0.0005753892473876476
6656.0,-0.0007544494001194835
7168.0,-0.000773065781686455
7680.0,8.355161116924137e-05
8192.0,0.000474806729471311
9216.0,0.0001948374992934987
10240.0,-3.0359200536622666e-05
11264.0,-0.0003259475342929363
12288.0,3.232411836506799e-05
13312.0,0.00045135445543564856
14336.0,0.0005050362669862807
end
