version,3.0
numOfCh,1
type,point
parent_name,1000-cuts
ch_type,1_1
kcount,1
numberNandB,1
brightnessNandB,1
carpet pos,0
pc,0
Time (ms),CH1 Auto-Correlation
1.0,0.10596603900194168
2.0,0.09941378980875015
3.0,0.09328349679708481
4.0,0.08754792809486389
5.0,0.08207546174526215
6.0,0.07688822597265244
7.0,0.0719047337770462
8.0,0.0673019140958786
9.0,0.06304121017456055
10.0,0.05901351943612099
11.0,0.05528855323791504
12.0,0.05175013467669487
13.0,0.04851173982024193
14.0,0.04541800543665886
15.0,0.04246675968170166
16.0,0.03976934775710106
18.0,0.03485647216439247
20.0,0.03076028823852539
22.0,0.026769179850816727
24.0,0.02273503504693508
26.0,0.01904635690152645
28.0,0.015720298513770103
30.0,0.013199974782764912
32.0,0.011349653825163841
36.0,0.008835832588374615
40.0,0.006667915731668472
44.0,0.004999377299100161
48.0,0.002826955169439316
52.0,0.0011180590372532606
56.0,0.0003799836558755487
60.0,0.0006920686573721468
64.0,0.0016497309552505612
72.0,0.001062755356542766
80.0,-0.0004770986270159483
88.0,-0.00036837393417954445
96.0,-0.0008850248996168375
104.0,-0.0005738069303333759
112.0,0.00013008243695367128
120.0,0.000983605394139886
128.0,0.0019555308390408754
144.0,-0.0006845302996225655
160.0,-0.0018521532183513045
176.0,-0.004221500363200903
192.0,-0.004257779568433762
208.0,-0.0008081072010099888
224.0,-0.0009646895341575146
240.0,-0.0011843976099044085
256.0,-0.0005312000284902751
288.0,-0.0010692100040614605
320.0,-5.193331162445247e-05
352.0,-0.004920302890241146
384.0,-0.005649624392390251
416.0,-0.003980509005486965
448.0,0.002280617132782936
480.0,0.0031640499364584684
512.0,0.001954314298927784
576.0,0.000746405276004225
640.0,0.0005226223147474229
704.0,0.0025711061898618937
768.0,0.0003806996683124453
832.0,0.0011683234479278326
896.0,0.0018313887994736433
960.0,0.001046472112648189
1024.0,0.0018680966459214687
1152.0,0.002268555574119091
1280.0,0.0003137117309961468
1408.0,0.0007911211578175426
1536.0,0.0002919136022683233
1664.0,0.004608890973031521
1792.0,0.0012383306166157126
1920.0,-0.003944071009755135
2048.0,-0.003934686072170734
2304.0,0.004003564361482859
2560.0,0.0014075388899073005
2816.0,-0.000522630347404629
3072.0,0.0017863329267129302
3328.0,6.1984290368855e-05
3584.0,0.00011718568566720933
3840.0,-0.00031060725450515747
4096.0,0.0009580546757206321
4608.0,-0.0004395687719807029
5120.0,-0.0007098427740857005
5632.0,-0.0003911931999027729
6144.0,-0.001176504883915186
6656.0,-0.0026982109993696213
7168.0,0.00012054925173288211
7680.0,-0.003017036011442542
8192.0,-0.0005705055664293468
9216.0,-0.001003554556518793
10240.0,-0.0007231748313643038
11264.0,-0.0002356053882976994
12288.0,0.0012939563021063805
13312.0,0.0004490559222176671
14336.0,-0.000492541934363544
end
