version,3.0
numOfCh,1
type,point
parent_name,1000-cuts
ch_type,1_1
kcount,1
numberNandB,1
brightnessNandB,1
carpet pos,0
pc,0
Time (ms),CH1 Auto-Correlation
1.0,0.03157561644911766
2.0,0.02940157614648342
3.0,0.02737182378768921
4.0,0.025459924712777138
5.0,0.023674530908465385
6.0,0.021924637258052826
7.0,0.020296510308980942
8.0,0.018725423142313957
9.0,0.017304889857769012
10.0,0.01600545085966587
11.0,0.01476203091442585
12.0,0.013603457249701023
13.0,0.012573415413498878
14.0,0.011665968224406242
15.0,0.010803873650729656
16.0,0.009998321533203125
18.0,0.008469424210488796
20.0,0.007098986301571131
22.0,0.0061556268483400345
24.0,0.005412139929831028
26.0,0.004871934186667204
28.0,0.0043853819370269775
30.0,0.003977040760219097
32.0,0.003589449217543006
36.0,0.0027923344168812037
40.0,0.0021277458872646093
44.0,0.0017657256685197353
48.0,0.0016331441001966596
52.0,0.0015825049486011267
56.0,0.0014338841428980231
60.0,0.001178970211185515
64.0,0.000760470749810338
72.0,0.0005990960053168237
80.0,0.0003499274607747793
88.0,0.0008127825567498803
96.0,0.0012373176869004965
104.0,0.001209794543683529
112.0,0.001037891604937613
120.0,0.0008165126200765371
128.0,0.0003965573268942535
144.0,7.923124940134585e-05
160.0,0.0007049806299619377
176.0,5.2295668865554035e-05
192.0,-0.00030346133280545473
208.0,-0.0002486582088749856
224.0,-0.000504935160279274
240.0,-0.00040059859747998416
256.0,-0.0005022217519581318
288.0,0.00036176969297230244
320.0,-0.0006409129709936678
352.0,0.0007182439439930022
384.0,0.0007248945184983313
416.0,-0.0008676620782352984
448.0,-0.0008457536459900439
480.0,-0.0016578447539359331
512.0,-0.001703745685517788
576.0,0.0011522116838023067
640.0,0.0005821160157211125
704.0,-0.0008436140487901866
768.0,0.000752635532990098
832.0,-0.00032937483047135174
896.0,-0.00023305104696191847
960.0,0.00031408033100888133
1024.0,-0.0007322655292227864
1152.0,0.00035545232822187245
1280.0,0.0011163781164214015
1408.0,0.00047155620995908976
1536.0,2.1273364836815745e-05
1664.0,-0.0006801339332014322
1792.0,0.0007230931078083813
1920.0,-0.0005697093438357115
2048.0,-0.0001655601809034124
2304.0,0.00022363742755260319
2560.0,6.64684921503067e-05
2816.0,0.0003255294868722558
3072.0,0.00018412248755339533
3328.0,-0.00016328752099070698
3584.0,-0.0001079396897694096
3840.0,0.0005004145787097514
4096.0,0.0002706680097617209
4608.0,-0.0004424394282978028
5120.0,0.0003698771761264652
5632.0,-0.00026829700800590217
6144.0,-0.0004316016274970025
6656.0,-0.00011937534873140976
7168.0,-0.00012039348803227767
7680.0,-0.0004996436182409525
8192.0,-0.00032261235173791647
9216.0,-0.0003418670385144651
10240.0,-0.0006750683533027768
11264.0,0.00028409462538547814
12288.0,0.0007938530179671943
13312.0,-0.0009616215247660875
14336.0,0.00037742502172477543
end
