version,3.0
numOfCh,1
type,point
parent_name,1000-cuts
ch_type,1_1
kcount,1
numberNandB,1
brightnessNandB,1
carpet pos,0
pc,0
Time (ms),CH1 Auto-Correlation
1.0,0.0724111944437027
2.0,0.0673869177699089
3.0,0.06263285130262375
4.0,0.058218419551849365
5.0,0.054091282188892365
6.0,0.050208549946546555
7.0,0.046476151794195175
8.0,0.04305049777030945
9.0,0.03979568928480148
10.0,0.036526065319776535
11.0,0.03353627026081085
12.0,0.030744003131985664
13.0,0.02815408445894718
14.0,0.02588604763150215
15.0,0.023830654099583626
16.0,0.021893346682190895
18.0,0.018587015569210052
20.0,0.01579389162361622
22.0,0.013213461264967918
24.0,0.010853588581085205
26.0,0.008727689273655415
28.0,0.006768280640244484
30.0,0.005044638179242611
32.0,0.003587413113564253
36.0,0.0018087681382894516
40.0,0.00016654384671710432
44.0,-0.0012099893065169454
48.0,-0.002430884400382638
52.0,-0.0025268015451729298
56.0,-0.0024077328853309155
60.0,-0.0025563796516507864
64.0,-0.0023216388653963804
72.0,-0.002148146741092205
80.0,-0.002155025489628315
88.0,-0.0023727472871541977
96.0,-0.003203645348548889
104.0,-0.0028654024936258793
112.0,-0.0024388767778873444
120.0,-0.0017480801325291395
128.0,-0.0008546801982447505
144.0,0.0018318182555958629
160.0,0.0023756646551191807
176.0,0.0011113720247521996
192.0,0.0024625372607260942
208.0,0.0015278019709512591
224.0,-0.0006215653265826404
240.0,-0.0011309680994600058
256.0,0.00023881350352894515
288.0,-0.0023116013035178185
320.0,0.0010034762090072036
352.0,-0.001623229356482625
384.0,-0.0010271850042045116
416.0,0.0003627504629548639
448.0,0.0002360810321988538
480.0,0.0010759177384898067
512.0,0.0019489539554342628
576.0,-0.0002542655565775931
640.0,-6.128292443463579e-05
704.0,-0.0012346097500994802
768.0,-0.0032856350298970938
832.0,-0.0010286050383001566
896.0,-0.0036475060041993856
960.0,-0.00023234743275679648
1024.0,-0.0017131870845332742
1152.0,0.0011334369191899896
1280.0,-0.001136059407144785
1408.0,-0.0016028543468564749
1536.0,0.00126070121768862
1664.0,9.841813880484551e-05
1792.0,-0.0017945681465789676
1920.0,-0.001732409349642694
2048.0,0.0003467736823949963
2304.0,0.00013017639867030084
2560.0,0.0006539897294715047
2816.0,0.0019452149281278253
3072.0,0.001343662035651505
3328.0,0.0003380180278327316
3584.0,9.09632071852684e-05
3840.0,-0.0023916433565318584
4096.0,-0.0006101017352193594
4608.0,0.0006325007998384535
5120.0,-5.7912289776140824e-05
5632.0,0.0001611472835065797
6144.0,0.0002176214475184679
6656.0,-0.0005799991195090115
7168.0,0.0003144271904602647
7680.0,-0.000612219562754035
8192.0,0.00047417497262358665
9216.0,0.0007713331142440438
10240.0,-0.0009810702176764607
11264.0,-1.1708586498571094e-05
12288.0,0.0005835409974679351
13312.0,-0.0011273062555119395
14336.0,-8.024160342756659e-05
end
