version,3.0
numOfCh,1
type,point
parent_name,1000-cuts
ch_type,1_1
kcount,1
numberNandB,1
brightnessNandB,1
carpet pos,0
pc,0
Time (ms),CH1 Auto-Correlation
1.0,0.0631357952952385
2.0,0.05904720351099968
3.0,0.05525483563542366
4.0,0.051598142832517624
5.0,0.04814240708947182
6.0,0.044931747019290924
7.0,0.04187438637018204
8.0,0.03887998312711716
9.0,0.03613169491291046
10.0,0.03347210958600044
11.0,0.030859751626849174
12.0,0.02841859869658947
13.0,0.026106908917427063
14.0,0.0239537563174963
15.0,0.022006772458553314
16.0,0.020224958658218384
18.0,0.01703810878098011
20.0,0.01432781107723713
22.0,0.011992846615612507
24.0,0.009987490251660347
26.0,0.008446370251476765
28.0,0.0069849793799221516
30.0,0.0058155064471066
32.0,0.005000898148864508
36.0,0.004038403742015362
40.0,0.0033421190455555916
44.0,0.0028543807566165924
48.0,0.0024182589258998632
52.0,0.002070195972919464
56.0,0.0016046544769778848
60.0,0.0010439802426844835
64.0,0.0013038577744737267
72.0,0.0019701546989381313
80.0,0.0017294263234362006
88.0,0.0012749412562698126
96.0,0.0003891926899086684
104.0,-0.0011561868013814092
112.0,-0.0009131897822953761
120.0,-0.0003704350092448294
128.0,-0.00011503302812343463
144.0,0.001005611615255475
160.0,-0.0007577562937512994
176.0,-0.002795936306938529
192.0,-0.0022676922380924225
208.0,0.0005127028562128544
224.0,-0.0003673380415420979
240.0,-0.0008080194238573313
256.0,-0.00018254105816595256
288.0,0.001893081353046
320.0,0.0007181051769293845
352.0,0.0014088075840845704
384.0,-0.0014926332514733076
416.0,0.0004730932123493403
448.0,-0.002027715789154172
480.0,-0.004055520053952932
512.0,-0.00030443083960562944
576.0,-0.0005067673628218472
640.0,-0.0003029443323612213
704.0,-0.0031729869078844786
768.0,0.0008481621043756604
832.0,0.0012087870854884386
896.0,-0.002552255056798458
960.0,0.0002875708742067218
1024.0,0.0017842045053839684
1152.0,0.0005128454067744315
1280.0,-0.001272035064175725
1408.0,0.0004770167579408735
1536.0,-0.0008032165351323783
1664.0,-0.00022774132958147675
1792.0,-0.0005113583174534142
1920.0,0.00014546667807735503
2048.0,-0.0008381945663131773
2304.0,0.0013516668695956469
2560.0,0.0010309909703209996
2816.0,-0.00030653245630674064
3072.0,-0.0009845372987911105
3328.0,0.0010816437425091863
3584.0,9.486681665293872e-05
3840.0,-0.0007573382463306189
4096.0,-0.0008598932763561606
4608.0,-0.000364037201507017
5120.0,-0.0010034608421847224
5632.0,0.0009230131981894374
6144.0,-0.0006307238363660872
6656.0,0.00013661857519764453
7168.0,-0.00020545408187899739
7680.0,-0.001010435400530696
8192.0,0.0002574037353042513
9216.0,4.281095607439056e-05
10240.0,0.0003308706800453365
11264.0,-0.00075960234971717
12288.0,-0.00018202661885879934
13312.0,0.00013418347225524485
14336.0,-9.141396003542468e-05
end
