version,3.0
numOfCh,1
type,point
parent_name,1000-cuts
ch_type,1_1
kcount,1
numberNandB,1
brightnessNandB,1
carpet pos,0
pc,0
Time (ms),CH1 Auto-Correlation
1.0,0.0503658801317215
2.0,0.04702097177505493
3.0,0.04381733015179634
4.0,0.04079233109951019
5.0,0.03791315481066704
6.0,0.03521779924631119
7.0,0.03270482271909714
8.0,0.03042113222181797
9.0,0.02823627181351185
10.0,0.026218874379992485
11.0,0.024330291897058487
12.0,0.02252516709268093
13.0,0.02085663378238678
14.0,0.019265901297330856
15.0,0.017730535939335823
16.0,0.01633085310459137
18.0,0.013743597082793713
20.0,0.01142395194619894
22.0,0.009348415769636631
24.0,0.0076119061559438705
26.0,0.006076325662434101
28.0,0.004804282449185848
30.0,0.0037273152265697718
32.0,0.002782981377094984
36.0,0.0014850095612928271
40.0,0.0006538760499097407
44.0,0.0002986952313221991
48.0,0.00039000652031973004
52.0,0.0005744303343817592
56.0,0.0005297685856930912
60.0,0.00044858810724690557
64.0,0.0004895657766610384
72.0,0.000810466066468507
80.0,0.00046641501830890775
88.0,0.00033572816755622625
96.0,0.0009165978408418596
104.0,0.0006501101888716221
112.0,0.00037605114630423486
120.0,-0.00027351980679668486
128.0,-0.0005441182875074446
144.0,-0.0006772590568289161
160.0,-0.0006174314767122269
176.0,-0.0016194655327126384
192.0,-0.0011736494489014149
208.0,-0.001996982842683792
224.0,-0.0023027504794299603
240.0,-0.0017080903053283691
256.0,-0.0006322171539068222
288.0,0.00025132542941719294
320.0,0.0020197981502860785
352.0,0.00022498841281048954
384.0,-0.0015213772421702743
416.0,-0.00018463526794221252
448.0,0.003659964306280017
480.0,0.0036155995912849903
512.0,0.0015798346139490604
576.0,0.0005556922988034785
640.0,-0.0021606595255434513
704.0,0.0002666192303877324
768.0,-0.0005962647264823318
832.0,0.0008534248336218297
896.0,0.0021128104999661446
960.0,0.0015722241951152682
1024.0,0.0009083875338546932
1152.0,-0.0009414748637937009
1280.0,-0.0013056460302323103
1408.0,0.0008267795201390982
1536.0,-0.0006080996245145798
1664.0,-0.0013021890772506595
1792.0,-0.0006699684890918434
1920.0,0.0008231506799347699
2048.0,0.0002396819763816893
2304.0,-0.00043152342550456524
2560.0,-0.0011668609222397208
2816.0,0.0002939972619060427
3072.0,-0.0006983315688557923
3328.0,-0.0006658043712377548
3584.0,0.0006421136204153299
3840.0,9.78596945060417e-05
4096.0,-0.0005928799510002136
4608.0,-6.543425843119621e-05
5120.0,0.0007900145719759166
5632.0,0.00012073667312506586
6144.0,-0.00029018885106779635
6656.0,-0.00020427808340173215
7168.0,-0.0006443808088079095
7680.0,-0.001039424678310752
8192.0,-0.0003903073084075004
9216.0,0.0005614724941551685
10240.0,0.0012219061609357595
11264.0,0.0004263393930159509
12288.0,-0.0011143998708575964
13312.0,-0.0008501072297804058
14336.0,0.001297034788876772
end
