version,3.0
numOfCh,1
type,point
parent_name,1000-cuts
ch_type,1_1
kcount,1
numberNandB,1
brightnessNandB,1
carpet pos,0
pc,0
Time (ms),CH1 Auto-Correlation
1.0,0.05558939278125763
2.0,0.05155432969331741
3.0,0.04783644154667854
4.0,0.044387876987457275
5.0,0.04122854024171829
6.0,0.03828559070825577
7.0,0.03571922332048416
8.0,0.033275045454502106
9.0,0.031039929017424583
10.0,0.02889949642121792
11.0,0.026863576844334602
12.0,0.02500799670815468
13.0,0.02332969941198826
14.0,0.021803712472319603
15.0,0.020376577973365784
16.0,0.01902756839990616
18.0,0.016416974365711212
20.0,0.014142686501145363
22.0,0.012433512136340141
24.0,0.010749327018857002
26.0,0.009095304645597935
28.0,0.0075650811195373535
30.0,0.00627047149464488
32.0,0.005205134861171246
36.0,0.0034497263841331005
40.0,0.0022704508155584335
44.0,0.0016319736605510116
48.0,0.0009370289044454694
52.0,0.0004264189919922501
56.0,-0.0001577746297698468
60.0,-0.0008242757758125663
64.0,-0.001340924296528101
72.0,-0.0013496290193870664
80.0,-0.0016838620649650693
88.0,-0.0021682223305106163
96.0,-0.00126569252461195
104.0,-0.0006664788816124201
112.0,-6.255338121263776e-06
120.0,0.00019219449313823134
128.0,0.0003215975593775511
144.0,0.0017067925073206425
160.0,0.0023875869810581207
176.0,0.0028454437851905823
192.0,0.0030909287743270397
208.0,0.0013619813835248351
224.0,0.0005252560367807746
240.0,-0.00016229890752583742
256.0,-0.0013102443190291524
288.0,-0.00014793449372518808
320.0,-4.320496736909263e-05
352.0,0.002494693035259843
384.0,0.0015314415795728564
416.0,-0.0009722476243041456
448.0,-0.002140643307939172
480.0,-0.0015559204621240497
512.0,-0.0014298022724688053
576.0,0.0011233314871788025
640.0,-0.0014151905197650194
704.0,0.00029621709836646914
768.0,0.002292986260727048
832.0,0.0008438025834038854
896.0,-0.000653793744277209
960.0,-0.0016362316673621535
1024.0,-0.0005055185174569488
1152.0,0.0004056644975207746
1280.0,0.0006871527875773609
1408.0,-0.0007653674110770226
1536.0,0.0015256138285622
1664.0,-0.0017596703255549073
1792.0,-0.0011293926509097219
1920.0,-0.0005960630369372666
2048.0,-0.002037987345829606
2304.0,-0.0007952856831252575
2560.0,-0.001494892407208681
2816.0,-0.0012899823486804962
3072.0,-0.0008126795873977244
3328.0,0.00014555099187418818
3584.0,0.0004344861372373998
3840.0,0.0003297662187833339
4096.0,0.0014480357058346272
4608.0,0.0005161779699847102
5120.0,0.0007748675998300314
5632.0,-0.00022116478066891432
6144.0,-0.0003836194227915257
6656.0,-0.0003278812509961426
7168.0,-0.0008014903287403286
7680.0,-0.00025288763572461903
8192.0,0.0005929642939008772
9216.0,5.777120895800181e-05
10240.0,0.00019547570263966918
11264.0,0.00030553803662769496
12288.0,-0.0004750777152366936
13312.0,-0.0006969337700866163
14336.0,0.0005994943203404546
end
