version,3.0
numOfCh,1
type,point
parent_name,1000-cuts
ch_type,1_1
kcount,1
numberNandB,1
brightnessNandB,1
carpet pos,0
pc,0
Time (ms),CH1 Auto-Correlation
1.0,0.07374516874551773
2.0,0.06843686103820801
3.0,0.06343693286180496
4.0,0.05863122269511223
5.0,0.05421297252178192
6.0,0.04995718225836754
7.0,0.046156976372003555
8.0,0.042745694518089294
9.0,0.03964042291045189
10.0,0.03691745921969414
11.0,0.03444785997271538
12.0,0.03216206282377243
13.0,0.029949186369776726
14.0,0.027952054515480995
15.0,0.026267195120453835
16.0,0.02462836354970932
18.0,0.021544042974710464
20.0,0.019112998619675636
22.0,0.016813015565276146
24.0,0.014946355484426022
26.0,0.013326197862625122
28.0,0.011771202087402344
30.0,0.010132583789527416
32.0,0.008687502704560757
36.0,0.006413361523300409
40.0,0.004172011744230986
44.0,0.0025850357487797737
48.0,0.0013603834668174386
52.0,0.0002705817751120776
56.0,-2.6039146177936345e-05
60.0,4.106107007828541e-05
64.0,3.7433815123222303e-06
72.0,-0.0008193430257961154
80.0,-0.0006831252831034362
88.0,-0.0031791969668120146
96.0,-0.005403937306255102
104.0,-0.006051008589565754
112.0,-0.005765799432992935
120.0,-0.005597494542598724
128.0,-0.004629726987332106
144.0,-0.0021177316084504128
160.0,-0.0024930445943027735
176.0,-0.002669377252459526
192.0,0.001592437271028757
208.0,0.0032964397687464952
224.0,0.004315821919590235
240.0,0.005206888075917959
256.0,0.0028693932108581066
288.0,6.138761818874627e-05
320.0,-0.002543492941185832
352.0,-0.0049909986555576324
384.0,-0.003309403546154499
416.0,-0.0029206392355263233
448.0,-0.004340938292443752
480.0,-0.002796000801026821
512.0,-0.00010102077794726938
576.0,-0.0025607466232031584
640.0,-0.0007871057605370879
704.0,0.0035133492201566696
768.0,0.0021053808741271496
832.0,-0.0016170138260349631
896.0,0.002162118209525943
960.0,0.0015418657567352057
1024.0,-0.0010003678034991026
1152.0,-9.988639794755727e-05
1280.0,0.0013663950376212597
1408.0,0.0028765019960701466
1536.0,0.00022495233861263841
1664.0,0.00047302586608566344
1792.0,-0.001827120897360146
1920.0,-0.0019875906873494387
2048.0,0.0026594488881528378
2304.0,0.0010626965668052435
2560.0,0.0010732553200796247
2816.0,-0.0010382621549069881
3072.0,-0.000669062661472708
3328.0,0.00032590856426395476
3584.0,-0.00023368233814835548
3840.0,0.0004523085372056812
4096.0,-0.0012201415374875069
4608.0,-0.00021274431492201984
5120.0,-0.0004534712643362582
5632.0,-0.0008317057508975267
6144.0,-0.0002008651354117319
6656.0,-0.0009260671795345843
7168.0,0.0008485719445161521
7680.0,-0.001183270593173802
8192.0,0.0005053721833974123
9216.0,0.00023555704683531076
10240.0,0.0003014420799445361
11264.0,8.884717681212351e-05
12288.0,0.00014874293992761523
13312.0,5.867714207852259e-05
14336.0,-0.0002957257383968681
end
