version,3.0
numOfCh,1
type,point
parent_name,1000-cuts
ch_type,1_1
kcount,1
numberNandB,1
brightnessNandB,1
carpet pos,0
pc,0
Time (ms),CH1 Auto-Correlation
1.0,0.07666250318288803
2.0,0.07127917557954788
3.0,0.06632247567176819
4.0,0.06181011721491814
5.0,0.057626668363809586
6.0,0.05360325425863266
7.0,0.04993531480431557
8.0,0.046701621264219284
9.0,0.04353608563542366
10.0,0.040378883481025696
11.0,0.03760401904582977
12.0,0.03488343954086304
13.0,0.03233001008629799
14.0,0.029843328520655632
15.0,0.0277139563113451
16.0,0.02573505975306034
18.0,0.022245727479457855
20.0,0.019708974286913872
22.0,0.017634298652410507
24.0,0.015758639201521873
26.0,0.01413018349558115
28.0,0.01270162221044302
30.0,0.011800620704889297
32.0,0.011044046841561794
36.0,0.009514828212559223
40.0,0.008043677546083927
44.0,0.006315324921160936
48.0,0.004749522544443607
52.0,0.0035492433235049248
56.0,0.003341465024277568
60.0,0.0037184811662882566
64.0,0.004121731035411358
72.0,0.004629835020750761
80.0,0.003609220264479518
88.0,0.0020993647631257772
96.0,0.0004663092258851975
104.0,-0.0024176856968551874
112.0,-0.004587897099554539
120.0,-0.0037494669668376446
128.0,-0.0011264123022556305
144.0,0.0014204607577994466
160.0,0.000424715515691787
176.0,-0.0016119155334308743
192.0,-0.0024118549190461636
208.0,-0.002466874895617366
224.0,-0.00016069204139057547
240.0,0.0006191496504470706
256.0,-0.0002312028082087636
288.0,-9.057395800482482e-05
320.0,0.0015433585504069924
352.0,-0.0016853295965120196
384.0,-0.001038063201121986
416.0,-0.003907941281795502
448.0,-0.005139647051692009
480.0,-0.0033104734029620886
512.0,-0.001905249897390604
576.0,2.5498850391159067e-06
640.0,-0.002433512359857559
704.0,-0.0006160481134429574
768.0,0.00507244560867548
832.0,3.793701034737751e-05
896.0,0.0017626563785597682
960.0,-0.0006716367206536233
1024.0,0.0005639171577058733
1152.0,0.00174808653537184
1280.0,0.0005325030069798231
1408.0,-0.0027024319861084223
1536.0,0.0005161011940799654
1664.0,-0.00090792280388996
1792.0,0.002138452837243676
1920.0,-0.0004255819949321449
2048.0,0.0009490923839621246
2304.0,0.0005954069783911109
2560.0,-0.0006842396687716246
2816.0,9.516592399450019e-05
3072.0,-0.00024860084522515535
3328.0,0.0008028640877455473
3584.0,0.0008552338113076985
3840.0,-0.00047405457007698715
4096.0,-0.001145402085967362
4608.0,0.00047198927495628595
5120.0,-0.00011522410932229832
5632.0,0.0006378127727657557
6144.0,0.0006088996888138354
6656.0,-0.0012051749508827925
7168.0,-0.0008751263376325369
7680.0,-0.0017793667502701283
8192.0,0.0006336519145406783
9216.0,0.0007833865820430219
10240.0,-0.00036897853715345263
11264.0,0.00018417229875922203
12288.0,-0.0013041520724073052
13312.0,-0.0018898494308814406
14336.0,0.0015960216987878084
end
