version,3.0
numOfCh,1
type,point
parent_name,1000-cuts
ch_type,1_1
kcount,1
numberNandB,1
brightnessNandB,1
carpet pos,0
pc,0
Time (ms),CH1 Auto-Correlation
1.0,0.057957880198955536
2.0,0.0543416403234005
3.0,0.05096727982163429
4.0,0.047697875648736954
5.0,0.044626399874687195
6.0,0.04174130782485008
7.0,0.039101190865039825
8.0,0.03672955557703972
9.0,0.03452041372656822
10.0,0.03238223120570183
11.0,0.030454538762569427
12.0,0.028639504685997963
13.0,0.026980118826031685
14.0,0.025413237512111664
15.0,0.024011967703700066
16.0,0.022756008431315422
18.0,0.020503869280219078
20.0,0.018646618351340294
22.0,0.016918715089559555
24.0,0.015389841981232166
26.0,0.014004244469106197
28.0,0.012574927881360054
30.0,0.01112346537411213
32.0,0.009743341244757175
36.0,0.007210150361061096
40.0,0.005246370565146208
44.0,0.0034306419547647238
48.0,0.0022488152608275414
52.0,0.0019222941482439637
56.0,0.0019261955749243498
60.0,0.0021527172066271305
64.0,0.002196928719058633
72.0,0.0011304133804515004
80.0,-0.0004934014868922532
88.0,-0.0016181275714188814
96.0,-0.0020226268097758293
104.0,-0.0026248127687722445
112.0,-0.003313669003546238
120.0,-0.002371318871155381
128.0,-0.002190421801060438
144.0,-0.0015723765827715397
160.0,-0.0016352274687960744
176.0,-0.000712429522536695
192.0,-0.001299326540902257
208.0,-0.0013877511955797672
224.0,0.00012164298095740378
240.0,0.0007551688468083739
256.0,-0.0010871633421629667
288.0,0.0003077907604165375
320.0,0.002818537876009941
352.0,0.0007840808248147368
384.0,0.0008789416751824319
416.0,0.00268120551481843
448.0,0.00214817700907588
480.0,0.0025329873897135258
512.0,0.001682073576375842
576.0,-0.003327651647850871
640.0,0.00010894506704062223
704.0,0.001786523382179439
768.0,-0.00021603243658319116
832.0,0.0002639138838276267
896.0,-0.0012061379384249449
960.0,-0.00260449992492795
1024.0,-0.0019557615742087364
1152.0,-9.861883881967515e-05
1280.0,-0.001457817037589848
1408.0,0.0020060224924236536
1536.0,-0.0009383664582856
1664.0,0.0011483414564281702
1792.0,-0.00039592120447196066
1920.0,-0.00023120411788113415
2048.0,0.0011849189177155495
2304.0,-0.0009027076885104179
2560.0,9.903140744427219e-05
2816.0,-0.00130287220235914
3072.0,-0.0015859041595831513
3328.0,0.0005742061184719205
3584.0,-0.0008523784345015883
3840.0,0.0009955792920663953
4096.0,-0.001325981575064361
4608.0,0.0008318762993440032
5120.0,0.0001999632950173691
5632.0,-0.0001620633847778663
6144.0,0.0006993278511799872
6656.0,-0.0011133032385259867
7168.0,-0.0006314686615951359
7680.0,0.00013540455256588757
8192.0,-0.0012458804994821548
9216.0,-0.0001731159136397764
10240.0,0.0006831751088611782
11264.0,-0.00043717544758692384
12288.0,0.0007935245521366596
13312.0,0.000385700463084504
14336.0,-0.00015082983009051532
end
