version,3.0
numOfCh,1
type,point
parent_name,1000-cuts
ch_type,1_1
kcount,1
numberNandB,1
brightnessNandB,1
carpet pos,0
pc,0
Time (ms),CH1 Auto-Correlation
1.0,0.07179931551218033
2.0,0.06706460565328598
3.0,0.06260795146226883
4.0,0.05846871808171272
5.0,0.05462353304028511
6.0,0.05101589486002922
7.0,0.04773995652794838
8.0,0.04475654661655426
9.0,0.04188777878880501
10.0,0.039169006049633026
11.0,0.03666901960968971
12.0,0.03422769159078598
13.0,0.03207319229841232
14.0,0.029898041859269142
15.0,0.027740003541111946
16.0,0.02568211778998375
18.0,0.022246673703193665
20.0,0.019365690648555756
22.0,0.01682986319065094
24.0,0.014558191411197186
26.0,0.01243978925049305
28.0,0.010579495690762997
30.0,0.00885859876871109
32.0,0.007368972525000572
36.0,0.005556878633797169
40.0,0.004412572830915451
44.0,0.003229167079553008
48.0,0.0020193883683532476
52.0,0.0011292847339063883
56.0,-8.361225627595559e-05
60.0,-0.0015184665098786354
64.0,-0.002367091830819845
72.0,-0.0031884494237601757
80.0,-0.0033891580533236265
88.0,-0.003380109556019306
96.0,-0.00253057898953557
104.0,-0.001312247826717794
112.0,-0.00029702336178161204
120.0,-2.4394643332925625e-05
128.0,-0.0008203078177757561
144.0,-0.0022479130420833826
160.0,-0.0033331916201859713
176.0,-0.0014270166866481304
192.0,0.0012654309393838048
208.0,0.0013857284793630242
224.0,-0.0003801426209975034
240.0,0.0017635010881349444
256.0,0.0006085713393986225
288.0,0.0005600129370577633
320.0,0.0014938142849132419
352.0,-0.0003874542308039963
384.0,0.0006830845377407968
416.0,0.0016009350074455142
448.0,0.002179524162784219
480.0,0.0013251794734969735
512.0,9.541879990138113e-05
576.0,0.0002666118962224573
640.0,0.001767657115124166
704.0,0.0004979455843567848
768.0,0.0014062020927667618
832.0,-0.0005656570428982377
896.0,-0.0021211961284279823
960.0,0.0005687281955033541
1024.0,0.001252899062819779
1152.0,0.0007176665822044015
1280.0,0.0008003609837032855
1408.0,-0.0021839069668203592
1536.0,-0.0009940608870238066
1664.0,0.0018735245103016496
1792.0,-0.0012220166390761733
1920.0,0.0008189453510567546
2048.0,0.0024807536974549294
2304.0,-0.0014670932432636619
2560.0,-0.0014738347381353378
2816.0,-0.0010730298236012459
3072.0,-0.00178233883343637
3328.0,-0.0011568544432520866
3584.0,-0.001311355154030025
3840.0,-0.0005590857472270727
4096.0,0.0005343349184840918
4608.0,0.00032931045279838145
5120.0,0.0004642327839974314
5632.0,-0.00010670458141248673
6144.0,0.0010627687443047762
6656.0,0.0004308801726438105
7168.0,0.0010258201509714127
7680.0,-0.0004924301174469292
8192.0,-0.0005700464826077223
9216.0,-0.0006927563226781785
10240.0,-0.0016687395982444286
11264.0,-0.0001939324865816161
12288.0,0.00033006054582074285
13312.0,0.002609177026897669
14336.0,-0.00190936797298491
end
