version,3.0
numOfCh,1
type,point
parent_name,1000-cuts
ch_type,1_1
kcount,1
numberNandB,1
brightnessNandB,1
carpet pos,0
pc,0
Time (ms),CH1 Auto-Correlation
1.0,0.0780925452709198
2.0,0.07262367755174637
3.0,0.06767863035202026
4.0,0.06308165192604065
5.0,0.05897360295057297
6.0,0.05525949224829674
7.0,0.05189765244722366
8.0,0.048607055097818375
9.0,0.04563596844673157
10.0,0.042783841490745544
11.0,0.04015808552503586
12.0,0.037781622260808945
13.0,0.035475216805934906
14.0,0.033367253839969635
15.0,0.03140037879347801
16.0,0.02955291047692299
18.0,0.02583056129515171
20.0,0.02244013361632824
22.0,0.01948576420545578
24.0,0.016871389001607895
26.0,0.014462442137300968
28.0,0.01244600024074316
30.0,0.010705240070819855
32.0,0.009516444988548756
36.0,0.007528332527726889
40.0,0.005668895319104195
44.0,0.004646733403205872
48.0,0.0031535772141069174
52.0,0.0020236987620592117
56.0,0.0017182137817144394
60.0,0.001159096253104508
64.0,0.0007245509186759591
72.0,-6.036562626832165e-05
80.0,0.00018830446060746908
88.0,0.0008154193055815995
96.0,8.80111547303386e-05
104.0,-0.0009376961388625205
112.0,-0.0019367272034287453
120.0,-0.0035621069837361574
128.0,-0.004534522537142038
144.0,-0.004875407554209232
160.0,-0.004718359559774399
176.0,-0.0021453755907714367
192.0,-0.0012718356447294354
208.0,-0.00022849364904686809
224.0,0.00024981109891086817
240.0,0.0017459953669458628
256.0,0.0015537897124886513
288.0,0.0011620901059359312
320.0,0.0019734760280698538
352.0,-0.00017012581520248204
384.0,0.0022319615818560123
416.0,0.001013632514514029
448.0,-0.0018512844108045101
480.0,-0.002217956818640232
512.0,-0.002853238256648183
576.0,-0.0018231880385428667
640.0,-0.0006828571204096079
704.0,-0.0008231813553720713
768.0,0.00032045491388998926
832.0,0.0027489427011460066
896.0,-0.0010758393909782171
960.0,0.0018541730241850019
1024.0,-0.00228860299102962
1152.0,0.00344668491743505
1280.0,-0.0009586687083356082
1408.0,-0.0015813569771125913
1536.0,-0.00018484977772459388
1664.0,-0.00011080928379669785
1792.0,0.0017888143192976713
1920.0,-0.0019914109725505114
2048.0,-0.0011350477579981089
2304.0,0.0005818517529405653
2560.0,-0.0012567685917019844
2816.0,-0.00014380819629877806
3072.0,-0.0004084123356733471
3328.0,0.0004025277739856392
3584.0,-0.0006443475722335279
3840.0,0.0007819680031388998
4096.0,0.0004312178643886
4608.0,-1.8459830243955366e-05
5120.0,-0.0006012080702930689
5632.0,0.00032004681997932494
6144.0,-0.0004049881245009601
6656.0,-0.00030714008607901633
7168.0,0.0015807484742254019
7680.0,-0.0008250761893577874
8192.0,0.0005807830020785332
9216.0,-0.0005288381944410503
10240.0,0.0005137359257787466
11264.0,0.000725581485312432
12288.0,-0.00016546761617064476
13312.0,0.0006687761633656919
14336.0,-0.0012537124566733837
end
