version,3.0
numOfCh,1
type,point
parent_name,1000-cuts
ch_type,1_1
kcount,1
numberNandB,1
brightnessNandB,1
carpet pos,0
pc,0
Time (ms),CH1 Auto-Correlation
1.0,0.028083577752113342
2.0,0.02618531323969364
3.0,0.02444588579237461
4.0,0.022849038243293762
5.0,0.021357635036110878
6.0,0.019962256774306297
7.0,0.01860930770635605
8.0,0.0172752533107996
9.0,0.016058869659900665
10.0,0.014921249821782112
11.0,0.013861906714737415
12.0,0.012854228727519512
13.0,0.01196841150522232
14.0,0.011129114776849747
15.0,0.010362147353589535
16.0,0.009659284725785255
18.0,0.008407799527049065
20.0,0.007369227707386017
22.0,0.0064417701214551926
24.0,0.0055902148596942425
26.0,0.004877929110080004
28.0,0.004206444602459669
30.0,0.003585855010896921
32.0,0.0029867361299693584
36.0,0.002097438322380185
40.0,0.0016221111873164773
44.0,0.0013386834179982543
48.0,0.0012591591803357005
52.0,0.0011306364322081208
56.0,0.0008144062594510615
60.0,0.00040152735891751945
64.0,0.00015242256631609052
72.0,1.3570351256930735e-05
80.0,0.00030358409276232123
88.0,0.000513651582878083
96.0,0.00048605166375637054
104.0,0.00028511430718936026
112.0,0.0003530935209710151
120.0,0.00029335898580029607
128.0,-2.1274181563057937e-05
144.0,0.0001816288713598624
160.0,0.00010260238195769489
176.0,-0.000519212509971112
192.0,-0.0006662756786681712
208.0,-0.0013279156992211938
224.0,-0.001429834752343595
240.0,-0.0007592555484734476
256.0,-0.0003144181682728231
288.0,6.156434392323717e-05
320.0,0.000340991944540292
352.0,0.00022066145902499557
384.0,-0.0001984894333872944
416.0,-0.0006222504307515919
448.0,-0.0010209472384303808
480.0,-0.0013968950370326638
512.0,0.0005312308785505593
576.0,0.0012069534277543426
640.0,0.0005864438135176897
704.0,0.00020923343254253268
768.0,-0.0007757307612337172
832.0,-0.00033956198603846133
896.0,0.0007829230162315071
960.0,-0.0006423936574719846
1024.0,-0.0014240012969821692
1152.0,-0.00032468631980009377
1280.0,0.0004494679451454431
1408.0,-0.00022929783153813332
1536.0,0.0009458701242692769
1664.0,-1.9214165149605833e-05
1792.0,-7.14029447408393e-05
1920.0,7.960088987601921e-05
2048.0,-0.0010788077488541603
2304.0,0.00011298932076897472
2560.0,-0.0005723645444959402
2816.0,-0.00027283793315291405
3072.0,-0.00029080311651341617
3328.0,-0.0003132763085886836
3584.0,-0.0002612515236251056
3840.0,0.0002803409588523209
4096.0,-4.246254320605658e-05
4608.0,0.0002357646735617891
5120.0,-9.613718430045992e-05
5632.0,-0.00010952117008855566
6144.0,7.323396289393713e-07
6656.0,-0.00020169287745375186
7168.0,-0.0004330333322286606
7680.0,-0.0005675331340171397
8192.0,1.752223579387646e-05
9216.0,-7.777284918120131e-05
10240.0,0.0005446657887659967
11264.0,-0.0001648646139074117
12288.0,2.3421514924848452e-05
13312.0,-0.0003724033012986183
14336.0,-0.00036703789373859763
end
