version,3.0
numOfCh,1
type,point
parent_name,1000-cuts
ch_type,1_1
kcount,1
numberNandB,1
brightnessNandB,1
carpet pos,0
pc,0
Time (ms),CH1 Auto-Correlation
1.0,0.03373052552342415
2.0,0.03149636834859848
3.0,0.029375523328781128
4.0,0.027350416406989098
5.0,0.02545911818742752
6.0,0.023768095299601555
7.0,0.02226760983467102
8.0,0.020796652883291245
9.0,0.01947448030114174
10.0,0.018248658627271652
11.0,0.01714959926903248
12.0,0.016197996214032173
13.0,0.015314501710236073
14.0,0.014437846839427948
15.0,0.013607037253677845
16.0,0.012759344652295113
18.0,0.011176916770637035
20.0,0.00984695553779602
22.0,0.00859002023935318
24.0,0.007546021603047848
26.0,0.006633274722844362
28.0,0.005799385719001293
30.0,0.005019308067858219
32.0,0.00439030397683382
36.0,0.003277767216786742
40.0,0.0022823393810540438
44.0,0.0014912401093170047
48.0,0.0009654294117353857
52.0,0.000332571187755093
56.0,-0.0001264544844161719
60.0,-0.00038956812932156026
64.0,-0.0007570386514998972
72.0,-0.0013487153919413686
80.0,-0.0013990829465910792
88.0,-0.001093997503630817
96.0,-0.0004926947294734418
104.0,0.0006645122775807977
112.0,0.0012192940339446068
120.0,0.0014570963103324175
128.0,0.001166130299679935
144.0,0.0006792425410822034
160.0,-0.00020641865557990968
176.0,-0.00035625474993139505
192.0,-0.0005294298171065748
208.0,0.00015597589663229883
224.0,0.0002408226573606953
240.0,-0.0006940668681636453
256.0,3.8025350477255415e-06
288.0,0.000617898243945092
320.0,-0.00022315880050882697
352.0,-0.00020179360581096262
384.0,-9.338018571725115e-05
416.0,-0.00040358182741329074
448.0,-0.0007092512678354979
480.0,0.0004324995679780841
512.0,0.0013802858302369714
576.0,-0.00022753863595426083
640.0,0.0010504310484975576
704.0,-0.0004409262619446963
768.0,-0.0014697748702019453
832.0,-0.00047976395580917597
896.0,0.000394683622289449
960.0,-0.000205829186597839
1024.0,0.001062562339939177
1152.0,-0.0010232668137177825
1280.0,-4.0205599361797795e-05
1408.0,0.0013048717519268394
1536.0,0.0005098656401969492
1664.0,-0.00023361985222436488
1792.0,-0.0010474283481016755
1920.0,-0.0004262708534952253
2048.0,-0.0006701438105665147
2304.0,-0.00027471050270833075
2560.0,-0.0003768428578041494
2816.0,-3.1872884846961824e-06
3072.0,-0.00017112496425397694
3328.0,-0.0006122227641753852
3584.0,-4.102673483430408e-05
3840.0,0.0001750615774653852
4096.0,6.545312498928979e-05
4608.0,-4.01045945181977e-05
5120.0,7.094138709362596e-05
5632.0,6.977859447943047e-05
6144.0,0.000277245620964095
6656.0,-0.0003906037309207022
7168.0,6.46592743578367e-05
7680.0,0.0003670878941193223
8192.0,-0.0004938439815305173
9216.0,1.26904524222482e-05
10240.0,0.0005406869458965957
11264.0,-8.020746463444084e-06
12288.0,-0.0008630047086626291
13312.0,-0.00041673690429888666
14336.0,0.000523253926075995
end
