version,3.0
numOfCh,1
type,point
parent_name,1000-cuts
ch_type,1_1
kcount,1
numberNandB,1
brightnessNandB,1
carpet pos,0
pc,0
Time (ms),CH1 Auto-Correlation
1.0,0.08130247890949249
2.0,0.07605737447738647
3.0,0.07107406854629517
4.0,0.06629998981952667
5.0,0.06182250753045082
6.0,0.057593997567892075
7.0,0.05361849069595337
8.0,0.049875855445861816
9.0,0.04636489599943161
10.0,0.0433083102107048
11.0,0.04057404771447182
12.0,0.03803763911128044
13.0,0.035748664289712906
14.0,0.033589839935302734
15.0,0.03153403848409653
16.0,0.029518257826566696
18.0,0.025919552892446518
20.0,0.02270422875881195
22.0,0.0200135987251997
24.0,0.017689818516373634
26.0,0.015630166977643967
28.0,0.01390467956662178
30.0,0.012425068765878677
32.0,0.010929503478109837
36.0,0.008305518887937069
40.0,0.006098184268921614
44.0,0.004170721396803856
48.0,0.0030162110924720764
52.0,0.0024094865657389164
56.0,0.0021056048572063446
60.0,0.0019384609768167138
64.0,0.002157035516574979
72.0,0.0015424283919855952
80.0,0.0009980641771107912
88.0,0.0008320374181494117
96.0,-0.0004841843619942665
104.0,-0.0015389524633064866
112.0,-0.0024460896383970976
120.0,-0.0009703336982056499
128.0,-0.0008949030307121575
144.0,-0.0007376212743110955
160.0,0.001781904837116599
176.0,0.00283599691465497
192.0,-0.00010941304208245128
208.0,-0.003009114181622863
224.0,-0.0026911061722785234
240.0,-0.00349812232889235
256.0,-0.003370002843439579
288.0,-0.0018789895111694932
320.0,-0.00045255781151354313
352.0,0.0008670191746205091
384.0,0.0026511766482144594
416.0,0.002189589897170663
448.0,0.0018213670700788498
480.0,0.001536757219582796
512.0,-0.0015133662382140756
576.0,0.0004461086937226355
640.0,0.0008488288149237633
704.0,-0.0016228000167757273
768.0,0.0010298999259248376
832.0,0.001587378908880055
896.0,0.00198429636657238
960.0,-0.000472959887702018
1024.0,-0.00038582831621170044
1152.0,-0.003027696395292878
1280.0,0.0020868470892310143
1408.0,0.00131365901324898
1536.0,-0.0007529115537181497
1664.0,0.0007262412109412253
1792.0,0.0004335990233812481
1920.0,-0.0027035449165850878
2048.0,-0.00107143959030509
2304.0,-0.000959762663114816
2560.0,-0.0021643845830112696
2816.0,0.000511122983880341
3072.0,-0.0008798669441603124
3328.0,-0.0004472883592825383
3584.0,-0.0016774405958130956
3840.0,3.676526102935895e-05
4096.0,0.0013569025322794914
4608.0,-0.00020151989883743227
5120.0,0.0009562009945511818
5632.0,-0.0006576651940122247
6144.0,-0.0001681802823441103
6656.0,-0.0017943531274795532
7168.0,0.00093825877411291
7680.0,0.0008483343408443034
8192.0,0.0016540376236662269
9216.0,0.0007814058335497975
10240.0,-0.0019827166106551886
11264.0,-0.0016389263328164816
12288.0,0.00013913121074438095
13312.0,0.00149589276406914
14336.0,-0.0006766992737539113
end
