version,3.0
numOfCh,1
type,point
parent_name,1000-cuts
ch_type,1_1
kcount,1
numberNandB,1
brightnessNandB,1
carpet pos,0
pc,0
Time (ms),CH1 Auto-Correlation
1.0,0.04509826377034187
2.0,0.041997455060482025
3.0,0.039081163704395294
4.0,0.03639430180191994
5.0,0.03384125232696533
6.0,0.03151855990290642
7.0,0.029411111027002335
8.0,0.027485143393278122
9.0,0.025839651003479958
10.0,0.024289170280098915
11.0,0.022868162021040916
12.0,0.021597282961010933
13.0,0.020335912704467773
14.0,0.019080182537436485
15.0,0.01803411915898323
16.0,0.017003657296299934
18.0,0.015099918469786644
20.0,0.013291358016431332
22.0,0.01162799634039402
24.0,0.010261745192110538
26.0,0.00918392464518547
28.0,0.008329533971846104
30.0,0.007417064625769854
32.0,0.006419800687581301
36.0,0.004371110815554857
40.0,0.002937073353677988
44.0,0.002080784412100911
48.0,0.0015322007238864899
52.0,0.0012586250668391585
56.0,0.0010543810203671455
60.0,0.0007448497344739735
64.0,0.0005811912706121802
72.0,0.0014210164081305265
80.0,0.00136326695792377
88.0,0.0006583655485883355
96.0,-0.0002139332500519231
104.0,-0.0010169000597670674
112.0,-0.0015562628395855427
120.0,-0.002236726228147745
128.0,-0.0027729941066354513
144.0,-0.0021799523383378983
160.0,-0.0014398867497220635
176.0,-0.0006930979434400797
192.0,-7.387060031760484e-05
208.0,0.0008926253067329526
224.0,0.0006352728814817965
240.0,-7.514069875469431e-05
256.0,0.0015729954466223717
288.0,-0.00019798184803221375
320.0,-0.003043859964236617
352.0,-0.0011848354479297996
384.0,6.198968185344711e-05
416.0,7.822669431334361e-06
448.0,-0.0007203443674370646
480.0,0.0011090600164607167
512.0,0.0001848099782364443
576.0,5.610205334960483e-05
640.0,0.0006784850847907364
704.0,0.002152219647541642
768.0,0.001091304700821638
832.0,0.0005446757422760129
896.0,-0.0011347923427820206
960.0,-0.0007349906372837722
1024.0,-0.002133377129212022
1152.0,0.0013059846824035048
1280.0,8.760524906392675e-06
1408.0,0.0002911605697590858
1536.0,0.0015661007491871715
1664.0,-0.0001311714295297861
1792.0,-0.0009825575398281217
1920.0,-4.014535807073116e-05
2048.0,0.0019266860326752067
2304.0,-0.0001766442583175376
2560.0,0.0012171495473012328
2816.0,2.512127139198128e-05
3072.0,0.00012048600183334202
3328.0,-0.0003839600831270218
3584.0,-0.00010442472557770088
3840.0,-0.0003614512679632753
4096.0,0.0005320474738255143
4608.0,1.8433138393447734e-05
5120.0,0.00039437960367649794
5632.0,-0.0001612092601135373
6144.0,-0.0006311612669378519
6656.0,-0.00012265128316357732
7168.0,0.0006620255880989134
7680.0,-0.000727662059944123
8192.0,0.00010401084728073329
9216.0,-3.190382631146349e-05
10240.0,2.987912557728123e-05
11264.0,-0.0007462885696440935
12288.0,-0.001059745904058218
13312.0,-0.0013256203383207321
14336.0,-0.0015646917745471
end
