version,3.0
numOfCh,1
type,point
parent_name,1000-cuts
ch_type,1_1
kcount,1
numberNandB,1
brightnessNandB,1
carpet pos,0
pc,0
Time (ms),CH1 Auto-Correlation
1.0,0.05233512446284294
2.0,0.048811838030815125
3.0,0.045492205768823624
4.0,0.04236113652586937
5.0,0.039417922496795654
6.0,0.036634717136621475
7.0,0.03406485915184021
8.0,0.03171020746231079
9.0,0.029633164405822754
10.0,0.027775755152106285
11.0,0.0260646753013134
12.0,0.02438090555369854
13.0,0.02278178185224533
14.0,0.02127406746149063
15.0,0.019784776493906975
16.0,0.018488841131329536
18.0,0.016317367553710938
20.0,0.014278361573815346
22.0,0.012411004863679409
24.0,0.010755633935332298
26.0,0.009442709386348724
28.0,0.008419854566454887
30.0,0.007522347383201122
32.0,0.006577257998287678
36.0,0.004647478461265564
40.0,0.003172443015500903
44.0,0.0021408379543572664
48.0,0.0016154514160007238
52.0,0.001651792204938829
56.0,0.001799578545615077
60.0,0.0018956254934892058
64.0,0.0016711464850232005
72.0,0.0010231956839561462
80.0,0.0009579199831932783
88.0,0.0007307024206966162
96.0,0.0006732171168550849
104.0,0.0002144975878763944
112.0,0.000317669240757823
120.0,0.00015099365555215627
128.0,0.00048102534492500126
144.0,0.002036379650235176
160.0,0.0025028863456100225
176.0,0.0006679935613647103
192.0,-0.0017501319525763392
208.0,-0.0021306260023266077
224.0,0.00010589723387965932
240.0,-0.00010473209113115445
256.0,-0.0012385828886181116
288.0,0.000875930127222091
320.0,0.0013334490358829498
352.0,-0.00162746652495116
384.0,-0.0018893711967393756
416.0,0.0006351352203637362
448.0,-0.0005594839458353817
480.0,-0.0012452708324417472
512.0,-0.0027734115719795227
576.0,-0.00272266729734838
640.0,-0.0026511535979807377
704.0,0.00038354346179403365
768.0,-0.0019272894132882357
832.0,-0.0006063440232537687
896.0,-0.0014994319062680006
960.0,-0.0012928395299240947
1024.0,-0.00048481160774827003
1152.0,0.0018349853344261646
1280.0,0.0016913596773520112
1408.0,0.0011843914398923516
1536.0,-0.0012000164715573192
1664.0,-0.0005756200989708304
1792.0,-0.0019714937079697847
1920.0,0.0009791046613827348
2048.0,-0.00048742874059826136
2304.0,4.103458559256978e-05
2560.0,0.00013208122982177883
2816.0,0.00047489756252616644
3072.0,0.0006141831399872899
3328.0,-0.0005232750554569066
3584.0,-0.0014581592986360192
3840.0,-0.0009117292938753963
4096.0,0.00042540064896456897
4608.0,0.000453053304227069
5120.0,-0.00018150152754969895
5632.0,0.001018814742565155
6144.0,-0.001970161683857441
6656.0,0.0007329006912186742
7168.0,0.000875946949236095
7680.0,-0.0003821488353423774
8192.0,0.00017406085680704564
9216.0,-0.000603827356826514
10240.0,0.00019523469381965697
11264.0,0.0004138812655583024
12288.0,0.0005780511419288814
13312.0,-0.0004391815746203065
14336.0,-0.0001778871228452772
end
