version,3.0
numOfCh,1
type,point
parent_name,1000-cuts
ch_type,1_1
kcount,1
numberNandB,1
brightnessNandB,1
carpet pos,0
pc,0
Time (ms),CH1 Auto-Correlation
1.0,0.06329387426376343
2.0,0.059029366821050644
3.0,0.05503397434949875
4.0,0.05130157619714737
5.0,0.047887928783893585
6.0,0.04470636323094368
7.0,0.04178210347890854
8.0,0.0390179380774498
9.0,0.036563802510499954
10.0,0.03427538648247719
11.0,0.03205028548836708
12.0,0.029832759872078896
13.0,0.02773965895175934
14.0,0.025897342711687088
15.0,0.024120891466736794
16.0,0.022462930530309677
18.0,0.019417762756347656
20.0,0.016527600586414337
22.0,0.013974334113299847
24.0,0.011798805557191372
26.0,0.009945796802639961
28.0,0.008250897750258446
30.0,0.0066181630827486515
32.0,0.005200295243412256
36.0,0.0031396495178341866
40.0,0.0018585058860480785
44.0,0.0012288186699151993
48.0,0.0009903701720759273
52.0,0.0010411657858639956
56.0,0.0010395465651527047
60.0,0.0010028588585555553
64.0,0.0009253454627469182
72.0,0.0007652142085134983
80.0,-0.0009342518751509488
88.0,-0.0012083618203178048
96.0,-0.0014556593960151076
104.0,-0.0026362380012869835
112.0,-0.003516746684908867
120.0,-0.003157838946208358
128.0,-0.0021540296729654074
144.0,-0.000618243298958987
160.0,5.1904848078265786e-05
176.0,0.0018407204188406467
192.0,0.0036335561890155077
208.0,0.0011849850416183472
224.0,2.864235830202233e-05
240.0,0.0018247041152790189
256.0,-0.0008043853449635208
288.0,0.0011730975238606334
320.0,0.0009601511410437524
352.0,0.0001953786559170112
384.0,-0.0002122533187502995
416.0,-0.0004934698808938265
448.0,-3.8805614167358726e-05
480.0,0.001738441176712513
512.0,0.00035795249277725816
576.0,0.0009280276717618108
640.0,0.0004243652510922402
704.0,-0.003773967968299985
768.0,0.0006377064855769277
832.0,-0.0014017808716744184
896.0,-0.0025778419803828
960.0,0.0005626924685202539
1024.0,-0.00028323562582954764
1152.0,-0.0009599672630429268
1280.0,0.0006359562976285815
1408.0,0.0006643789820373058
1536.0,-0.0010277190012857318
1664.0,-0.0009109919192269444
1792.0,-0.0006602892535738647
1920.0,-0.0022379213478416204
2048.0,0.0002786161203403026
2304.0,0.00040915817953646183
2560.0,0.0004445469821803272
2816.0,0.0012436734978109598
3072.0,-0.0013302266597747803
3328.0,-0.0008925393340177834
3584.0,0.0005835081683471799
3840.0,0.0002464137796778232
4096.0,0.001977263716980815
4608.0,-0.0007335679838433862
5120.0,0.0007191853947006166
5632.0,-0.0011954507790505886
6144.0,0.0004957683268003166
6656.0,0.0009293516050092876
7168.0,-0.0017529164906591177
7680.0,0.000952660571783781
8192.0,-0.0009274924523197114
9216.0,0.0007735276012681425
10240.0,-0.0003754147910512984
11264.0,-0.0014553306391462684
12288.0,0.0012022879673168063
13312.0,-0.000969756452832371
14336.0,-0.0006599436746910214
end
