version,3.0
numOfCh,1
type,point
parent_name,1000-cuts
ch_type,1_1
kcount,1
numberNandB,1
brightnessNandB,1
carpet pos,0
pc,0
Time (ms),CH1 Auto-Correlation
1.0,0.036545708775520325
2.0,0.034289002418518066
3.0,0.03221241012215614
4.0,0.030238643288612366
5.0,0.028446702286601067
6.0,0.026751870289444923
7.0,0.025156866759061813
8.0,0.023602407425642014
9.0,0.022152507677674294
10.0,0.020793093368411064
11.0,0.019589703530073166
12.0,0.01843978464603424
13.0,0.01731376349925995
14.0,0.016265133395791054
15.0,0.015280172228813171
16.0,0.014359532855451107
18.0,0.012623967602849007
20.0,0.011134368367493153
22.0,0.0099331708624959
24.0,0.008944476954638958
26.0,0.008068973198533058
28.0,0.007433011662214994
30.0,0.0069050537422299385
32.0,0.006515514571219683
36.0,0.005924257915467024
40.0,0.005606125108897686
44.0,0.005185836460441351
48.0,0.0046828920021653175
52.0,0.003877499606460333
56.0,0.003069428727030754
60.0,0.002352460753172636
64.0,0.0018448055488988757
72.0,0.0017680189339444041
80.0,0.0018390290206298232
88.0,0.0018333340995013714
96.0,0.0016334441024810076
104.0,0.0011908129090443254
112.0,0.0010450214613229036
120.0,0.0011370223946869373
128.0,0.00173011957667768
144.0,0.0014115634839981794
160.0,-8.110929047688842e-05
176.0,-0.0012304610572755337
192.0,-0.001691540819592774
208.0,-0.0017308680107817054
224.0,-0.002128070453181863
240.0,-0.0008154516690410674
256.0,7.432748680002987e-05
288.0,0.0003011412045452744
320.0,0.0006634138408116996
352.0,0.0012098054867237806
384.0,0.0009297790238633752
416.0,0.0012363995192572474
448.0,-0.0008571265498176217
480.0,-0.0021610811818391085
512.0,-0.0019486049422994256
576.0,-0.0009003948653116822
640.0,-0.0013406540965661407
704.0,0.00010010506957769394
768.0,-0.00020760446204803884
832.0,-0.00036696306779049337
896.0,-0.0012065517948940396
960.0,-1.3581779967353214e-05
1024.0,0.00045303997467271984
1152.0,0.0002285588125232607
1280.0,0.000696041330229491
1408.0,0.0010214790236204863
1536.0,-0.00020840231445617974
1664.0,-0.0005142621812410653
1792.0,-0.0005615277332253754
1920.0,-0.0012607743265107274
2048.0,0.0003024541074410081
2304.0,0.0007846443331800401
2560.0,0.0005827753921039402
2816.0,-0.0005728852702304721
3072.0,-0.0013419875176623464
3328.0,-0.0010000898037105799
3584.0,-0.0003657250199466944
3840.0,0.00019787540077231824
4096.0,0.0002430550375720486
4608.0,-2.827543721650727e-05
5120.0,-0.0002966434112749994
5632.0,-0.0008509986218996346
6144.0,0.0006609939155168831
6656.0,0.00039878394454717636
7168.0,6.116123404353857e-05
7680.0,0.00014146295143291354
8192.0,0.00032908187131397426
9216.0,0.00039003673009574413
10240.0,-0.0005925371078774333
11264.0,-0.0003663877723738551
12288.0,-0.00043043444748036563
13312.0,0.0003953823179472238
14336.0,-0.0002706631785258651
end
