version,3.0
numOfCh,1
type,point
parent_name,1000-cuts
ch_type,1_1
kcount,1
numberNandB,1
brightnessNandB,1
carpet pos,0
pc,0
Time (ms),CH1 Auto-Correlation
1.0,0.06107311695814133
2.0,0.05695927143096924
3.0,0.05296626687049866
4.0,0.049166761338710785
5.0,0.04571698606014252
6.0,0.04267404228448868
7.0,0.0398935005068779
8.0,0.03727726265788078
9.0,0.034849267452955246
10.0,0.032721228897571564
11.0,0.030711093917489052
12.0,0.028864819556474686
13.0,0.027050187811255455
14.0,0.025396516546607018
15.0,0.023702658712863922
16.0,0.02217472530901432
18.0,0.019450245425105095
20.0,0.01715829409658909
22.0,0.01507982611656189
24.0,0.013085920363664627
26.0,0.011241351254284382
28.0,0.009500312618911266
30.0,0.007999404333531857
32.0,0.006717551965266466
36.0,0.004793286323547363
40.0,0.0031674213241785765
44.0,0.0019087364198639989
48.0,0.0012077820720151067
52.0,0.0006910354713909328
56.0,0.00040050040115602314
60.0,-0.0002700313925743103
64.0,-0.0012850860366597772
72.0,-0.0014115682570263743
80.0,-0.00018054028623737395
88.0,0.0008629185613244772
96.0,0.0008880297536961734
104.0,0.0008810163708403707
112.0,-3.26556182699278e-05
120.0,-0.0014677459839731455
128.0,-0.001941023743711412
144.0,-0.002426446881145239
160.0,-0.0004077504272572696
176.0,0.0013154310872778296
192.0,0.0009622842771932483
208.0,0.0014498322270810604
224.0,0.0012404874432832003
240.0,0.0012495731934905052
256.0,0.00012922767200507224
288.0,-0.0014950280310586095
320.0,-0.0010407735826447606
352.0,-0.0015553339617326856
384.0,-0.0021132708061486483
416.0,0.0013509126147255301
448.0,0.0007142212707549334
480.0,-0.0013712942600250244
512.0,0.0005507259047590196
576.0,-0.0016090263379737735
640.0,0.0016886582598090172
704.0,-0.0013931173598393798
768.0,-0.0009581531630828977
832.0,-0.0007067136466503143
896.0,0.003020837903022766
960.0,-0.0002702908241190016
1024.0,-3.0697039619553834e-05
1152.0,-0.002396710915490985
1280.0,0.0008607945055700839
1408.0,0.00011141408322146162
1536.0,0.00026606483152136207
1664.0,-1.4262308468460105e-05
1792.0,-0.0013648666208609939
1920.0,-0.0003909594379365444
2048.0,-0.0005444104317575693
2304.0,-0.00033518628333695233
2560.0,-0.0014727229718118906
2816.0,-0.0002816327614709735
3072.0,-0.0004379686142783612
3328.0,0.0009951390093192458
3584.0,0.0006107476656325161
3840.0,-0.0005630734376609325
4096.0,-0.0010882063070312142
4608.0,7.241791172418743e-05
5120.0,-0.00044579681707546115
5632.0,0.0016672674100846052
6144.0,-0.0003601521602831781
6656.0,0.000513843959197402
7168.0,-0.0006819316186010838
7680.0,-2.3738291929475963e-05
8192.0,3.0289396818261594e-05
9216.0,-0.0003348141035530716
10240.0,-0.00024237572506535798
11264.0,0.0007279437268152833
12288.0,-0.0006525322096422315
13312.0,6.972134724492207e-05
14336.0,-0.0019758320413529873
end
