version,3.0
numOfCh,1
type,point
parent_name,1000-cuts
ch_type,1_1
kcount,1
numberNandB,1
brightnessNandB,1
carpet pos,0
pc,0
Time (ms),CH1 Auto-Correlation
1.0,0.04811321943998337
2.0,0.0450296588242054
3.0,0.042174167931079865
4.0,0.039390675723552704
5.0,0.036835018545389175
6.0,0.03443087637424469
7.0,0.032153770327568054
8.0,0.029978163540363312
9.0,0.027929408475756645
10.0,0.026000982150435448
11.0,0.02416994981467724
12.0,0.022422948852181435
13.0,0.020889531821012497
14.0,0.019462011754512787
15.0,0.018034296110272408
16.0,0.01672489568591118
18.0,0.014385129325091839
20.0,0.012348287738859653
22.0,0.010488085448741913
24.0,0.00863073579967022
26.0,0.006898138206452131
28.0,0.0053384024649858475
30.0,0.00402021361514926
32.0,0.0029873463790863752
36.0,0.001582107855938375
40.0,0.0006443564197979867
44.0,0.00033968346542678773
48.0,0.0002531802165322006
52.0,0.00036710643325932324
56.0,0.00060000125085935
60.0,0.0009330377215519547
64.0,0.001120661967433989
72.0,0.0010732782538980246
80.0,0.0011144413147121668
88.0,5.232375406194478e-05
96.0,-0.0006719543016515672
104.0,-0.0005274415016174316
112.0,-0.0003304928250145167
120.0,-0.0008961599669419229
128.0,-0.0011214056285098195
144.0,-0.0011965458979830146
160.0,-0.001868099789135158
176.0,-0.0023760555777698755
192.0,-0.001100051449611783
208.0,0.000702014600392431
224.0,0.0006255817716009915
240.0,-0.0005831227172166109
256.0,-0.002181924879550934
288.0,-0.0021035955287516117
320.0,-0.000829738681204617
352.0,-0.0001462280488340184
384.0,0.0009197040344588459
416.0,-0.0006229500286281109
448.0,-0.0017723439959809184
480.0,-0.0001267134939553216
512.0,0.0021138915326446295
576.0,0.0007780049345456064
640.0,0.001485880115069449
704.0,0.0010610795579850674
768.0,-0.00042899069376289845
832.0,-0.0011357448529452085
896.0,0.00040825316682457924
960.0,-0.0007193342316895723
1024.0,-7.801086030667648e-05
1152.0,0.0008903033449314535
1280.0,-0.00046217977069318295
1408.0,0.00035583306453190744
1536.0,0.0012459494173526764
1664.0,-0.00038121151737868786
1792.0,0.0001659043482504785
1920.0,-0.0002522224385756999
2048.0,-0.0007419466855935752
2304.0,-0.000911564682610333
2560.0,0.0006990834372118115
2816.0,-0.0004544741823337972
3072.0,0.00010795457637868822
3328.0,-0.00020957450033165514
3584.0,7.631770131411031e-05
3840.0,0.0002787797711789608
4096.0,0.00017007601854857057
4608.0,-0.000305743160424754
5120.0,-0.00026994076324626803
5632.0,-0.0001885997480712831
6144.0,-0.00016541943477932364
6656.0,-0.0004192584892734885
7168.0,-0.0007119473884813488
7680.0,-0.0001238592085428536
8192.0,-0.00013296213001012802
9216.0,-0.00044812829582951963
10240.0,0.0003859571588691324
11264.0,0.00011541242565726861
12288.0,-0.00011839733633678406
13312.0,-3.610335988923907e-05
14336.0,0.00010660328553058207
end
