version,3.0
numOfCh,1
type,point
parent_name,1000-cuts
ch_type,1_1
kcount,1
numberNandB,1
brightnessNandB,1
carpet pos,0
pc,0
Time (ms),CH1 Auto-Correlation
1.0,0.06543020159006119
2.0,0.06119449436664581
3.0,0.05730322003364563
4.0,0.053725384175777435
5.0,0.050373200327157974
6.0,0.04743881896138191
7.0,0.04475637897849083
8.0,0.04216936603188515
9.0,0.039784304797649384
10.0,0.03759385645389557
11.0,0.03544693812727928
12.0,0.033496059477329254
13.0,0.03175819292664528
14.0,0.030026843771338463
15.0,0.028286408632993698
16.0,0.026641104370355606
18.0,0.023815512657165527
20.0,0.02109847404062748
22.0,0.01876858063042164
24.0,0.01678306795656681
26.0,0.015085174702107906
28.0,0.013683636672794819
30.0,0.012197645381093025
32.0,0.010753476060926914
36.0,0.00790141150355339
40.0,0.005654808133840561
44.0,0.00329905329272151
48.0,0.0014754883013665676
52.0,0.0005825185216963291
56.0,0.0007854806608520448
60.0,0.0006659556529484689
64.0,0.0007545377593487501
72.0,3.456032936810516e-05
80.0,-0.0013416178990155458
88.0,-0.0018780522514134645
96.0,-0.002134145935997367
104.0,-0.0020669803488999605
112.0,-0.0020575756207108498
120.0,-0.0011345766251906753
128.0,0.00016003428027033806
144.0,0.0009499429725110531
160.0,0.001286134123802185
176.0,0.001947586191818118
192.0,0.001679687644354999
208.0,8.572242222726345e-05
224.0,-0.0001293868408538401
240.0,0.0006601160275749862
256.0,0.00018048478523269296
288.0,-0.0014138782862573862
320.0,0.00014317430031951517
352.0,0.0018847370520234108
384.0,0.001477781217545271
416.0,-0.0011577036930248141
448.0,-0.003429700620472431
480.0,-0.0029330383986234665
512.0,0.0019114582100883126
576.0,0.002877039136365056
640.0,-0.0013711246429011226
704.0,0.00025780516443774104
768.0,-0.0029091171454638243
832.0,-0.003247781889513135
896.0,0.0014778425684198737
960.0,0.001998261082917452
1024.0,-0.0005725273513235152
1152.0,-0.00025514248409308493
1280.0,0.0008727870881557465
1408.0,-0.0019502276554703712
1536.0,0.00028766944888047874
1664.0,-0.0017603951273486018
1792.0,0.00030154871637932956
1920.0,-0.00018335097411181778
2048.0,-0.0009178479085676372
2304.0,-0.000961233105044812
2560.0,-0.0008883895352482796
2816.0,-0.001106288400478661
3072.0,0.00048637879081070423
3328.0,-0.0002135060785803944
3584.0,-0.00018961085879709572
3840.0,0.0005361572257243097
4096.0,0.0028423944022506475
4608.0,0.0002808665740303695
5120.0,-0.0008560992428101599
5632.0,0.00016487283573951572
6144.0,-0.00012585132208187133
6656.0,0.00010211185872321948
7168.0,0.0003404589369893074
7680.0,0.00012552471889648587
8192.0,0.00047403984353877604
9216.0,-0.001397790852934122
10240.0,-3.581045166356489e-05
11264.0,0.0012724677799269557
12288.0,-0.00020470864546950907
13312.0,-6.417517579393461e-05
14336.0,-0.0013923724181950092
end
