version,3.0
numOfCh,1
type,point
parent_name,1000-cuts
ch_type,1_1
kcount,1
numberNandB,1
brightnessNandB,1
carpet pos,0
pc,0
Time (ms),CH1 Auto-Correlation
1.0,0.06716431677341461
2.0,0.06264293193817139
3.0,0.05845964327454567
4.0,0.054542653262615204
5.0,0.05087445303797722
6.0,0.04737640917301178
7.0,0.04410707950592041
8.0,0.04106169939041138
9.0,0.03812498226761818
10.0,0.035362448543310165
11.0,0.03270959109067917
12.0,0.030100632458925247
13.0,0.027766991406679153
14.0,0.02559034898877144
15.0,0.02358166314661503
16.0,0.02171064354479313
18.0,0.018588213250041008
20.0,0.015946518629789352
22.0,0.013674985617399216
24.0,0.011626522988080978
26.0,0.009707702323794365
28.0,0.00791235826909542
30.0,0.006525899283587933
32.0,0.005494685843586922
36.0,0.004121468868106604
40.0,0.003487934824079275
44.0,0.003942394629120827
48.0,0.004596226383000612
52.0,0.004596965853124857
56.0,0.004396073520183563
60.0,0.004642707761377096
64.0,0.005501737352460623
72.0,0.005892322864383459
80.0,0.005431538913398981
88.0,0.003173990175127983
96.0,0.0017305051442235708
104.0,0.0007074892055243254
112.0,0.0005210405797697604
120.0,0.00012662149674724787
128.0,0.0002734839799813926
144.0,0.0008573458762839437
160.0,-7.902467041276395e-05
176.0,7.469001138815656e-05
192.0,0.0029291126411408186
208.0,0.0021956583950668573
224.0,0.0010419415775686502
240.0,0.0005362140946090221
256.0,0.0004018845211248845
288.0,0.0017285821959376335
320.0,0.0006761217373423278
352.0,0.003234817646443844
384.0,0.0027804861310869455
416.0,0.003677099011838436
448.0,0.0052154529839754105
480.0,0.002607138827443123
512.0,0.00037327047903090715
576.0,0.001725323498249054
640.0,0.003103449707850814
704.0,0.003369699465110898
768.0,0.0004370216920506209
832.0,0.0002177356946049258
896.0,-0.0005376895423978567
960.0,0.0010178908705711365
1024.0,0.0019741009455174208
1152.0,0.0029253214597702026
1280.0,0.0009183635702356696
1408.0,0.0013083121739327908
1536.0,0.00023653618700336665
1664.0,0.0013839576859027147
1792.0,0.00033814983908087015
1920.0,-0.0005862130783498287
2048.0,-0.0017930149333551526
2304.0,-0.000504115829244256
2560.0,-6.481303717009723e-05
2816.0,-0.0008376357145607471
3072.0,-0.00247020716778934
3328.0,-0.0017986547900363803
3584.0,-0.0017255385173484683
3840.0,-0.001067938981577754
4096.0,-0.0013128232676535845
4608.0,-0.0014236061833798885
5120.0,-0.0016119569772854447
5632.0,-0.00034030311508104205
6144.0,0.0010053309379145503
6656.0,0.0005161482258699834
7168.0,-0.00026654417160898447
7680.0,-0.0008033222402445972
8192.0,-0.00033128572977147996
9216.0,-0.001223070314154029
10240.0,-0.00038845714880153537
11264.0,-0.0004787165962625295
12288.0,0.0008983194129541516
13312.0,0.0013960025971755385
14336.0,0.0006019589491188526
end
