version,3.0
numOfCh,1
type,point
parent_name,1000-cuts
ch_type,1_1
kcount,1
numberNandB,1
brightnessNandB,1
carpet pos,0
pc,0
Time (ms),CH1 Auto-Correlation
1.0,0.11052114516496658
2.0,0.10377505421638489
3.0,0.09723494946956635
4.0,0.0910755842924118
5.0,0.08528055995702744
6.0,0.07965201139450073
7.0,0.07434708625078201
8.0,0.06949982792139053
9.0,0.0651373416185379
10.0,0.06128277629613876
11.0,0.05752241611480713
12.0,0.05405798181891441
13.0,0.05092523619532585
14.0,0.04790094494819641
15.0,0.04516899958252907
16.0,0.0427812784910202
18.0,0.03836171701550484
20.0,0.034407056868076324
22.0,0.031343478709459305
24.0,0.028529005125164986
26.0,0.025943337008357048
28.0,0.02385888434946537
30.0,0.022226054221391678
32.0,0.020909534767270088
36.0,0.018511086702346802
40.0,0.01700480654835701
44.0,0.015605526976287365
48.0,0.014960701577365398
52.0,0.014666561968624592
56.0,0.014473173767328262
60.0,0.014163069427013397
64.0,0.013272439129650593
72.0,0.010438796132802963
80.0,0.008070777170360088
88.0,0.007978563196957111
96.0,0.006766439415514469
104.0,0.005168910603970289
112.0,0.006291381549090147
120.0,0.007455031853169203
128.0,0.0074936505407094955
144.0,0.005316386464983225
160.0,0.0018051695078611374
176.0,0.0031743680592626333
192.0,0.0010766314808279276
208.0,0.0006927599315531552
224.0,-0.00314615317620337
240.0,-0.005701306741684675
256.0,-0.007425990421324968
288.0,-0.004622730892151594
320.0,-0.007239494472742081
352.0,-0.007423833012580872
384.0,-0.004513902589678764
416.0,-0.0026713109109550714
448.0,-0.0024002166464924812
480.0,-0.0028093173168599606
512.0,-0.0004992758040316403
576.0,0.0010137169156223536
640.0,0.0015638170298188925
704.0,0.00274826493114233
768.0,0.0007322438759729266
832.0,-0.0026329795364290476
896.0,-0.0010468524415045977
960.0,-0.0027812228072434664
1024.0,-0.006781397853046656
1152.0,-0.0022142555098980665
1280.0,0.002139890566468239
1408.0,0.004859142005443573
1536.0,0.0024538561701774597
1664.0,-0.0025768817868083715
1792.0,0.002040087478235364
1920.0,0.003302576020359993
2048.0,0.0015455662505701184
2304.0,-0.002164087723940611
2560.0,-0.0008994705858640373
2816.0,-0.0006220837240107358
3072.0,-0.002943191211670637
3328.0,-0.0006345440051518381
3584.0,0.0017487986478954554
3840.0,-0.000688865315169096
4096.0,0.0007549406145699322
4608.0,-0.0011990629136562347
5120.0,-0.0003456877311691642
5632.0,9.443530143471435e-05
6144.0,0.0013521267101168633
6656.0,-0.0019580775406211615
7168.0,-0.0028280869591981173
7680.0,0.0013172982726246119
8192.0,-0.0009924392215907574
9216.0,-0.00036835772334598005
10240.0,0.0017834319733083248
11264.0,0.0012773688649758697
12288.0,-0.00013376970309764147
13312.0,-0.0006564576178789139
14336.0,-4.853534483117983e-05
end
