version,3.0
numOfCh,1
type,point
parent_name,1000-cuts
ch_type,1_1
kcount,1
numberNandB,1
brightnessNandB,1
carpet pos,0
pc,0
Time (ms),CH1 Auto-Correlation
1.0,0.08866225928068161
2.0,0.08319904655218124
3.0,0.07815422117710114
4.0,0.07335859537124634
5.0,0.06889452785253525
6.0,0.064814493060112
7.0,0.06103440746665001
8.0,0.05750543996691704
9.0,0.0541117861866951
10.0,0.05096162110567093
11.0,0.04801791161298752
12.0,0.04515949264168739
13.0,0.04271169751882553
14.0,0.04027833417057991
15.0,0.038067612797021866
16.0,0.035920411348342896
18.0,0.03190288692712784
20.0,0.02822008542716503
22.0,0.024951966479420662
24.0,0.022231072187423706
26.0,0.01979111135005951
28.0,0.01776871830224991
30.0,0.015730423852801323
32.0,0.01393467839807272
36.0,0.01044484693557024
40.0,0.007254994940012693
44.0,0.004387450870126486
48.0,0.0022770112846046686
52.0,0.0009547570371069014
56.0,-0.0005893416819162667
60.0,-0.0017644654726609588
64.0,-0.0028002646286040545
72.0,-0.004273284692317247
80.0,-0.004557847511023283
88.0,-0.004539163317531347
96.0,-0.0032013189047574997
104.0,-0.002149057574570179
112.0,-0.0008294723811559379
120.0,-0.00043808159534819424
128.0,-0.001190894516184926
144.0,-0.0001686959876678884
160.0,0.002559676533564925
176.0,0.0024659126065671444
192.0,-0.00022903599892742932
208.0,1.5782374248374254e-05
224.0,0.0029696121346205473
240.0,0.003596847876906395
256.0,0.0026031772140413523
288.0,0.0007062678341753781
320.0,-0.001614700653590262
352.0,0.0014311783015727997
384.0,0.0014218772994354367
416.0,-0.0009639995987527072
448.0,-0.004168508108705282
480.0,-0.004799544345587492
512.0,0.002431190572679043
576.0,0.0015172614948824048
640.0,-0.0012847891775891185
704.0,-0.001276601105928421
768.0,0.0029762957710772753
832.0,0.0009581733029335737
896.0,-0.0005050678155384958
960.0,0.000738828326575458
1024.0,0.0007292991504073143
1152.0,0.0007834698772057891
1280.0,-0.0015516255516558886
1408.0,-0.003181468229740858
1536.0,7.714422099525109e-05
1664.0,-0.000684462720528245
1792.0,-0.002793634310364723
1920.0,-0.005173912271857262
2048.0,-0.002064997097477317
2304.0,0.0007445376249961555
2560.0,-0.00010330096847610548
2816.0,-0.001375994528643787
3072.0,-0.0007300687138922513
3328.0,0.0010828482918441296
3584.0,0.00024383916752412915
3840.0,0.0016511671710759401
4096.0,0.0017758624162524939
4608.0,0.0020157997496426105
5120.0,-0.0006106762448325753
5632.0,-0.0014377729967236519
6144.0,-0.0019124845275655389
6656.0,-7.67358324083034e-06
7168.0,-0.0007064859964884818
7680.0,0.0023578042164444923
8192.0,-0.0008160665165632963
9216.0,0.0008245394565165043
10240.0,-0.0007451405981555581
11264.0,8.080160478129983e-05
12288.0,0.001700792578049004
13312.0,-0.00044396010343916714
14336.0,-0.0014831793960183859
end
