version,3.0
numOfCh,1
type,point
parent_name,1000-cuts
ch_type,1_1
kcount,1
numberNandB,1
brightnessNandB,1
carpet pos,0
pc,0
Time (ms),CH1 Auto-Correlation
1.0,0.08708710223436356
2.0,0.0815773606300354
3.0,0.07642407715320587
4.0,0.07162007689476013
5.0,0.0672147125005722
6.0,0.06308954209089279
7.0,0.0591832660138607
8.0,0.05550948902964592
9.0,0.05191796272993088
10.0,0.04858292266726494
11.0,0.045581914484500885
12.0,0.04265844076871872
13.0,0.039955899119377136
14.0,0.03735442832112312
15.0,0.03495801240205765
16.0,0.032849233597517014
18.0,0.028792066499590874
20.0,0.024815335869789124
22.0,0.021096348762512207
24.0,0.01774182915687561
26.0,0.014901881106197834
28.0,0.012542628683149815
30.0,0.010900020599365234
32.0,0.009441656991839409
36.0,0.007461161818355322
40.0,0.006518562324345112
44.0,0.006443544290959835
48.0,0.006435486488044262
52.0,0.0069577572867274284
56.0,0.007704689633101225
60.0,0.007870696485042572
64.0,0.007823354564607143
72.0,0.006423626095056534
80.0,0.003300759242847562
88.0,-0.0002281169727211818
96.0,-0.0028926003724336624
104.0,-0.0027151682879775763
112.0,-0.0012341487454250455
120.0,0.0004741959855891764
128.0,0.0010560333030298352
144.0,-0.00168298848439008
160.0,-0.0019112139707431197
176.0,0.00011861023813253269
192.0,0.0022360726725310087
208.0,0.0036149867810308933
224.0,0.004565734416246414
240.0,0.003832112532109022
256.0,0.002824225230142474
288.0,0.00044661888387054205
320.0,0.0028101440984755754
352.0,-0.000495239335577935
384.0,-0.0011425437405705452
416.0,0.003985175862908363
448.0,0.004159408155828714
480.0,0.004648792091757059
512.0,0.003967422991991043
576.0,-0.00022347936464939266
640.0,-0.0008377351914532483
704.0,-0.00037922890624031425
768.0,0.0021208198741078377
832.0,-0.0045371330343186855
896.0,-0.0027605867944657803
960.0,0.0006395966047421098
1024.0,-0.0010881803464144468
1152.0,0.0019070939160883427
1280.0,-0.0010648563038557768
1408.0,-0.0025262129493057728
1536.0,0.0009454092942178249
1664.0,0.0008233923581428826
1792.0,0.0018315967172384262
1920.0,0.0005690798861905932
2048.0,-0.0018616587622091174
2304.0,0.0029432992450892925
2560.0,9.152059647021815e-05
2816.0,0.002670402405783534
3072.0,-7.330119115067646e-05
3328.0,0.0025445844512432814
3584.0,0.00027438619872555137
3840.0,0.0007758490392006934
4096.0,0.0014079436659812927
4608.0,-0.0019881606567651033
5120.0,-0.0008260963950306177
5632.0,-0.0004649277834687382
6144.0,0.0012572576524689794
6656.0,-0.0013056600000709295
7168.0,-0.002006448805332184
7680.0,0.0008292751736007631
8192.0,-0.003265324980020523
9216.0,-0.001348501187749207
10240.0,0.0002328427799511701
11264.0,-0.0008712559356354177
12288.0,-0.001055386383086443
13312.0,-0.0016855493886396289
14336.0,-0.0008340978529304266
end
