version,3.0
numOfCh,1
type,point
parent_name,1000-cuts
ch_type,1_1
kcount,1
numberNandB,1
brightnessNandB,1
carpet pos,0
pc,0
Time (ms),CH1 Auto-Correlation
1.0,0.06747143715620041
2.0,0.06266824901103973
3.0,0.05829863250255585
4.0,0.054134614765644073
5.0,0.05019728094339371
6.0,0.04661377891898155
7.0,0.04333608224987984
8.0,0.04032503813505173
9.0,0.03741157054901123
10.0,0.03475673124194145
11.0,0.03245052322745323
12.0,0.030475115403532982
13.0,0.02858448214828968
14.0,0.026765383780002594
15.0,0.025023026391863823
16.0,0.023396780714392662
18.0,0.020537761971354485
20.0,0.01790527254343033
22.0,0.015708308666944504
24.0,0.013819216750562191
26.0,0.012105293571949005
28.0,0.010517343878746033
30.0,0.00914813857525587
32.0,0.007813751697540283
36.0,0.005476431921124458
40.0,0.0037792380899190903
44.0,0.0029830350540578365
48.0,0.002921000123023987
52.0,0.0027791382744908333
56.0,0.002110119443386793
60.0,0.0012661584187299013
64.0,0.00042937867692671716
72.0,-0.0009651276050135493
80.0,-0.001939389738254249
88.0,-0.0031058553140610456
96.0,-0.0040519582107663155
104.0,-0.003056134795770049
112.0,-0.0005845191772095859
120.0,0.0007144096307456493
128.0,0.0003850900975521654
144.0,-0.000988441868685186
160.0,-0.0017985880840569735
176.0,-0.0007816358702257276
192.0,-0.0017243701731786132
208.0,-0.0013649562606588006
224.0,0.00040826015174388885
240.0,0.00010876347369048744
256.0,0.0007939838105812669
288.0,0.0023556500673294067
320.0,-3.332044798298739e-05
352.0,-0.002364426152780652
384.0,-0.0007682815194129944
416.0,0.00044197775423526764
448.0,0.0016948707634583116
480.0,0.0015694332541897893
512.0,0.0009365905425511301
576.0,0.003724710550159216
640.0,0.00123590137809515
704.0,0.00019020852050743997
768.0,0.0015806368319317698
832.0,-0.000892610230948776
896.0,0.002495243912562728
960.0,-0.0010875194566324353
1024.0,0.00014047636068426073
1152.0,-0.0017040037782862782
1280.0,-0.0011509527685120702
1408.0,0.0003642678202595562
1536.0,-4.9168065743288025e-05
1664.0,-0.000597798207309097
1792.0,0.00019534157763700932
1920.0,0.0006572706624865532
2048.0,-0.0003420734137762338
2304.0,0.0005691679543815553
2560.0,0.0015999131137505174
2816.0,-0.0005515764351002872
3072.0,0.0010917589534074068
3328.0,2.1507867131731473e-05
3584.0,0.00017062039114534855
3840.0,0.0006761918775737286
4096.0,0.0007873378344811499
4608.0,0.00103677564766258
5120.0,0.00010389733506599441
5632.0,-0.0010280344868078828
6144.0,-0.0009537005098536611
6656.0,-0.00038067149580456316
7168.0,-0.0006347930757328868
7680.0,0.0004485728859435767
8192.0,-0.00024126835342030972
9216.0,-0.00017347345419693738
10240.0,-0.0021918779239058495
11264.0,-0.0010337509447708726
12288.0,0.0005162314628250897
13312.0,-0.0010866547236219049
14336.0,-0.0009070773958228528
end
