version,3.0
numOfCh,1
type,point
parent_name,1000-cuts
ch_type,1_1
kcount,1
numberNandB,1
brightnessNandB,1
carpet pos,0
pc,0
Time (ms),CH1 Auto-Correlation
1.0,0.09435810148715973
2.0,0.08833799511194229
3.0,0.08270684629678726
4.0,0.07739561051130295
5.0,0.07256507128477097
6.0,0.0679594874382019
7.0,0.06354697048664093
8.0,0.05945558100938797
9.0,0.05543462932109833
10.0,0.05165242403745651
11.0,0.04802849888801575
12.0,0.04456517845392227
13.0,0.04151403531432152
14.0,0.03867623582482338
15.0,0.03600914031267166
16.0,0.0333978533744812
18.0,0.028766212984919548
20.0,0.02464430220425129
22.0,0.02067112736403942
24.0,0.01714034005999565
26.0,0.014095800928771496
28.0,0.011354516260325909
30.0,0.008833454921841621
32.0,0.006626777816563845
36.0,0.003486448200419545
40.0,0.0014486925210803747
44.0,0.0003592163557186723
48.0,-0.0003870096115861088
52.0,-0.0003990669210907072
56.0,-0.00028244152781553566
60.0,-0.0006717708893120289
64.0,-0.001115569961257279
72.0,-0.002828574273735285
80.0,-0.004794924054294825
88.0,-0.005633217748254538
96.0,-0.0036752456799149513
104.0,-0.001625799690373242
112.0,-0.0002909807371906936
120.0,0.0010457710595801473
128.0,0.002185515593737364
144.0,0.0032540156971663237
160.0,0.0046313307248055935
176.0,0.0047469474375247955
192.0,0.002119145356118679
208.0,-0.00354432943277061
224.0,-0.004941880702972412
240.0,-0.005328610073775053
256.0,-0.004109845031052828
288.0,-0.0005615855334326625
320.0,0.001905488665215671
352.0,0.003881689626723528
384.0,-0.0019255130318924785
416.0,-0.004440754652023315
448.0,0.000505091913510114
480.0,0.0056205494329333305
512.0,-0.0005537421093322337
576.0,0.0009726235293783247
640.0,0.0025480976328253746
704.0,-0.003527669934555888
768.0,-0.004065736662596464
832.0,-0.00046016115811653435
896.0,-0.005021931137889624
960.0,-0.0017635157564654946
1024.0,-0.0020567607134580612
1152.0,-0.0022298237308859825
1280.0,-0.0019866260699927807
1408.0,-0.00015190878184512258
1536.0,0.0020499250385910273
1664.0,0.0027343332767486572
1792.0,0.0003658973437268287
1920.0,0.001933020306751132
2048.0,0.0043385885655879974
2304.0,-0.00016764028987381607
2560.0,-0.000591963529586792
2816.0,-0.0020729016978293657
3072.0,-0.0005715786246582866
3328.0,0.0005987913464196026
3584.0,0.0014882291434332728
3840.0,0.0006944761262275279
4096.0,-0.0005325081874616444
4608.0,-0.00031353006488643587
5120.0,0.00011115218512713909
5632.0,-0.0005306737730279565
6144.0,-0.0016443678177893162
6656.0,0.0001894589513540268
7168.0,-0.0001662154245423153
7680.0,-0.0016137879574671388
8192.0,-0.00036255584564059973
9216.0,-0.0006926810019649565
10240.0,0.0007887607789598405
11264.0,-0.0011557609541341662
12288.0,0.002245448064059019
13312.0,-0.001204273896291852
14336.0,0.0008171935915015638
end
