version,3.0
numOfCh,1
type,point
parent_name,1000-cuts
ch_type,1_1
kcount,1
numberNandB,1
brightnessNandB,1
carpet pos,0
pc,0
Time (ms),CH1 Auto-Correlation
1.0,0.05382605642080307
2.0,0.050188757479190826
3.0,0.046631261706352234
4.0,0.043115731328725815
5.0,0.03974683955311775
6.0,0.03662346303462982
7.0,0.03375646471977234
8.0,0.03115803562104702
9.0,0.028775375336408615
10.0,0.026410531252622604
11.0,0.024219080805778503
12.0,0.02232581190764904
13.0,0.0205757487565279
14.0,0.018977759405970573
15.0,0.01755479723215103
16.0,0.016252916306257248
18.0,0.013787643052637577
20.0,0.011589650064706802
22.0,0.00980500876903534
24.0,0.008368410170078278
26.0,0.007252464536577463
28.0,0.006222581025213003
30.0,0.005340480711311102
32.0,0.004605164285749197
36.0,0.0033025448210537434
40.0,0.0022368808276951313
44.0,0.0014964602887630463
48.0,0.0009056715061888099
52.0,0.0005864169215783477
56.0,0.0006076556164771318
60.0,0.0011129459599032998
64.0,0.0012067747302353382
72.0,0.0011821563821285963
80.0,3.590055712265894e-05
88.0,-0.0013715819222852588
96.0,-0.0018107494106516242
104.0,-0.0013177691726014018
112.0,-0.001140038133598864
120.0,-0.0010248471517115831
128.0,-0.0013236099621281028
144.0,-0.0008005925337783992
160.0,0.0007519170758314431
176.0,-0.0011185493785887957
192.0,-0.0017118172254413366
208.0,0.0008953467477113008
224.0,0.0013530325377359986
240.0,0.0016451531555503607
256.0,0.0005863633123226464
288.0,-0.0006559055182151496
320.0,0.002007911214604974
352.0,0.00037332356441766024
384.0,-0.0010621824767440557
416.0,-0.002865743590518832
448.0,-0.0002269987016916275
480.0,0.0005444220150820911
512.0,0.00035324625787325203
576.0,0.0011118232505396008
640.0,-0.00047683180309832096
704.0,-0.002061856910586357
768.0,-0.00019890014664269984
832.0,-0.001232064445503056
896.0,-5.9902282373514026e-05
960.0,0.0021569649688899517
1024.0,0.0013689828338101506
1152.0,-0.0013436212902888656
1280.0,-0.0007769947405904531
1408.0,-0.0017802354414016008
1536.0,0.0008063933928497136
1664.0,0.0005314365844242275
1792.0,-0.0003174699086230248
1920.0,-0.0002901158295571804
2048.0,0.0013476043241098523
2304.0,7.301898585865274e-05
2560.0,0.0004225395096000284
2816.0,0.0001652651117183268
3072.0,-7.483945228159428e-05
3328.0,-0.0007591088651679456
3584.0,0.0004443953512236476
3840.0,-0.0003527224180288613
4096.0,0.00037047901423648
4608.0,-0.0010577957145869732
5120.0,-0.00022018274466972798
5632.0,-0.0004331990494392812
6144.0,0.0011500697582960129
6656.0,-0.0002866612048819661
7168.0,-0.00115572614595294
7680.0,0.0003423650050535798
8192.0,4.401074329507537e-05
9216.0,-0.00036024735891260207
10240.0,-0.00019718629482667893
11264.0,-0.0004705801256932318
12288.0,0.0012659212807193398
13312.0,-0.0012183737708255649
14336.0,0.0008943767752498388
end
