version,3.0
numOfCh,1
type,point
parent_name,1000-cuts
ch_type,1_1
kcount,1
numberNandB,1
brightnessNandB,1
carpet pos,0
pc,0
Time (ms),CH1 Auto-Correlation
1.0,0.04795181378722191
2.0,0.04481436684727669
3.0,0.041894376277923584
4.0,0.03910541534423828
5.0,0.03640378639101982
6.0,0.03385293483734131
7.0,0.03153284639120102
8.0,0.029429741203784943
9.0,0.027480658143758774
10.0,0.025702551007270813
11.0,0.024062372744083405
12.0,0.022545017302036285
13.0,0.021095693111419678
14.0,0.01981632225215435
15.0,0.01870001293718815
16.0,0.017743872478604317
18.0,0.015992237254977226
20.0,0.01442946307361126
22.0,0.012933015823364258
24.0,0.011581607162952423
26.0,0.010299772955477238
28.0,0.00914407055824995
30.0,0.008216272108256817
32.0,0.007627193816006184
36.0,0.006451438646763563
40.0,0.00498593132942915
44.0,0.003823566948994994
48.0,0.0032273081596940756
52.0,0.0026417993940413
56.0,0.0020513650961220264
60.0,0.0014789142878726125
64.0,0.0009677093476057053
72.0,-0.00010487548570381477
80.0,-0.0011544725857675076
88.0,-0.0015279952203854918
96.0,-0.0006946106441318989
104.0,4.0929819078883156e-05
112.0,0.00104485300835222
120.0,0.002205727156251669
128.0,0.002027100883424282
144.0,0.0008320555207319558
160.0,-0.0004292240191716701
176.0,0.0007518797647207975
192.0,0.0012726967688649893
208.0,0.002002546563744545
224.0,0.002853280631825328
240.0,0.0027738946955651045
256.0,0.0015303811524063349
288.0,0.002478871028870344
320.0,0.0021961152087897062
352.0,0.0015793908387422562
384.0,0.0005019138334318995
416.0,0.00021109971567057073
448.0,-0.0007226064335554838
480.0,-0.002220307709649205
512.0,-0.001777524477802217
576.0,-0.0009036276605911553
640.0,-0.001559615251608193
704.0,0.0003129415272269398
768.0,-0.0023260219022631645
832.0,-0.001882859505712986
896.0,-0.0011154479580000043
960.0,-0.0007297071861103177
1024.0,-0.0017748558893799782
1152.0,-0.0009923039469867945
1280.0,0.0008432809263467789
1408.0,-0.00021747901337221265
1536.0,0.0008528267499059439
1664.0,0.000659435463603586
1792.0,0.0010620631510391831
1920.0,1.559375596116297e-05
2048.0,0.00028416753048077226
2304.0,-0.00022075923334341496
2560.0,-0.00047777785221114755
2816.0,-0.0006735911592841148
3072.0,-0.0011211278615519404
3328.0,-0.000515214167535305
3584.0,0.0008070346666499972
3840.0,0.001406832248903811
4096.0,8.107144094537944e-05
4608.0,-0.00023332682030741125
5120.0,0.0010248078033328056
5632.0,-0.00020181383297313005
6144.0,-0.0016319305868819356
6656.0,-0.0009461377048864961
7168.0,0.0002522719732951373
7680.0,0.00015678841737098992
8192.0,-0.0010043850634247065
9216.0,0.0012721430975943804
10240.0,-0.0009643706143833697
11264.0,-0.0012206878745928407
12288.0,0.0006690553855150938
13312.0,0.000269838550593704
14336.0,0.002415984869003296
end
