version,3.0
numOfCh,1
type,point
parent_name,1000-cuts
ch_type,1_1
kcount,1
numberNandB,1
brightnessNandB,1
carpet pos,0
pc,0
Time (ms),CH1 Auto-Correlation
1.0,0.029478469863533974
2.0,0.027750922366976738
3.0,0.02613740973174572
4.0,0.02461317926645279
5.0,0.023200595751404762
6.0,0.021893970668315887
7.0,0.020667467266321182
8.0,0.019516121596097946
9.0,0.018422504886984825
10.0,0.01739419251680374
11.0,0.016364729031920433
12.0,0.015364985913038254
13.0,0.014412377960979939
14.0,0.013488329015672207
15.0,0.012614873237907887
16.0,0.01180086936801672
18.0,0.010352318175137043
20.0,0.009106526151299477
22.0,0.008164847269654274
24.0,0.00727056572213769
26.0,0.006490567699074745
28.0,0.005846608430147171
30.0,0.005294285248965025
32.0,0.004865165334194899
36.0,0.004143561236560345
40.0,0.0034045162610709667
44.0,0.0029743185732513666
48.0,0.002713720314204693
52.0,0.0024358960799872875
56.0,0.002124898135662079
60.0,0.0017359143821522593
64.0,0.001328003709204495
72.0,0.0010074172168970108
80.0,0.0011759502813220024
88.0,0.001053146435879171
96.0,0.00046246658894233406
104.0,0.00013053340080659837
112.0,0.0002652034745551646
120.0,0.0006730507011525333
128.0,0.0010452455608174205
144.0,0.0007479151245206594
160.0,0.0006000234861858189
176.0,0.00036159466253593564
192.0,-0.0001454654848203063
208.0,-2.9840530260116793e-05
224.0,0.00043144472874701023
240.0,0.000278628634987399
256.0,0.00033104183967225254
288.0,0.0016901645576581359
320.0,0.0016800465527921915
352.0,0.0015413016080856323
384.0,0.0003520080354064703
416.0,-0.001125131850130856
448.0,-0.0005355072789825499
480.0,-0.0007753590471111238
512.0,-0.0009775619255378842
576.0,-0.0005802848027087748
640.0,-0.0006080325692892075
704.0,0.00019087319378741086
768.0,-0.0006283029215410352
832.0,-0.0006258938810788095
896.0,0.0006524259224534035
960.0,0.0013284594751894474
1024.0,0.000680276716593653
1152.0,-0.00018659664783626795
1280.0,0.0015135370194911957
1408.0,-0.00010512714652577415
1536.0,-0.00013407609367277473
1664.0,0.00037596936454065144
1792.0,-8.359798084711656e-05
1920.0,-0.0006239179638214409
2048.0,0.0005229719099588692
2304.0,-0.0006662378436885774
2560.0,-0.0001985740236705169
2816.0,-0.0003919479495380074
3072.0,-0.0010473375441506505
3328.0,-0.00041924178367480636
3584.0,-0.0001665436866460368
3840.0,-0.000706894148606807
4096.0,-0.001449019298888743
4608.0,0.0009562107734382153
5120.0,-0.00023879342188593
5632.0,-0.0004512970335781574
6144.0,0.00036893898504786193
6656.0,-0.00013526438851840794
7168.0,-9.38365119509399e-05
7680.0,-0.0007889973348937929
8192.0,0.0007206056034192443
9216.0,3.608189945225604e-05
10240.0,8.508293103659526e-05
11264.0,0.00011502784036565572
12288.0,-0.0002553047670517117
13312.0,-9.548886737320572e-05
14336.0,0.00012131898256484419
end
