version,3.0
numOfCh,1
type,point
parent_name,1000-cuts
ch_type,1_1
kcount,1
numberNandB,1
brightnessNandB,1
carpet pos,0
pc,0
Time (ms),CH1 Auto-Correlation
1.0,0.09157543629407883
2.0,0.08547546714544296
3.0,0.07973010838031769
4.0,0.07429681718349457
5.0,0.06930062919855118
6.0,0.06463358551263809
7.0,0.06036073714494705
8.0,0.05614498257637024
9.0,0.05222395062446594
10.0,0.04843037575483322
11.0,0.04481637105345726
12.0,0.04146243631839752
13.0,0.03819574415683746
14.0,0.03529203310608864
15.0,0.03243660554289818
16.0,0.029813475906848907
18.0,0.02506917342543602
20.0,0.02103356085717678
22.0,0.017489001154899597
24.0,0.014471973292529583
26.0,0.012127801775932312
28.0,0.010504507459700108
30.0,0.009307311847805977
32.0,0.008459360338747501
36.0,0.00714144529774785
40.0,0.00556546775624156
44.0,0.004078468307852745
48.0,0.0022675066720694304
52.0,-4.239946065354161e-06
56.0,-0.0026955525390803814
60.0,-0.004597970750182867
64.0,-0.005550161935389042
72.0,-0.006203739438205957
80.0,-0.005988819058984518
88.0,-0.0057565211318433285
96.0,-0.00488498667255044
104.0,-0.004164631012827158
112.0,-0.004231358412653208
120.0,-0.0032220054417848587
128.0,-0.002043271204456687
144.0,0.0011250450043007731
160.0,-0.0002958029799629003
176.0,-0.0006350075709633529
192.0,-0.0007981628295965493
208.0,-0.0009292815811932087
224.0,0.000725991849321872
240.0,0.0029747989028692245
256.0,0.004690960980951786
288.0,0.004438604228198528
320.0,-0.0010595540516078472
352.0,-0.0026966494042426348
384.0,0.0003366036107763648
416.0,0.005267935339361429
448.0,0.003257659263908863
480.0,0.00081071094609797
512.0,-0.002294012811034918
576.0,0.0002491979976184666
640.0,0.0020230261143296957
704.0,0.0029811603017151356
768.0,-0.0007109091966412961
832.0,0.0010073153534904122
896.0,0.00037340432754717767
960.0,0.0007829699898138642
1024.0,-0.0012710066512227058
1152.0,-0.00023874951875768602
1280.0,-0.0005304341320879757
1408.0,-0.0003075347049161792
1536.0,0.0020339491311460733
1664.0,0.00039853277849033475
1792.0,-0.0002601781452540308
1920.0,0.00037154601886868477
2048.0,-0.0010455867741256952
2304.0,0.0010972399031743407
2560.0,-0.00033560287556611
2816.0,-0.0010069473646581173
3072.0,0.0003464986803010106
3328.0,-0.00010100258805323392
3584.0,-0.0019858083687722683
3840.0,-0.0019990091677755117
4096.0,0.0006512123509310186
4608.0,0.00032020543585531414
5120.0,-0.0002185072808060795
5632.0,-0.0011320404009893537
6144.0,-6.219975330168381e-05
6656.0,0.0004903092631138861
7168.0,-0.00013157525972928852
7680.0,0.00010247035970678553
8192.0,0.0003444660687819123
9216.0,0.001027586404234171
10240.0,-0.00182479084469378
11264.0,-0.0006762200500816107
12288.0,-0.0004189453611616045
13312.0,-0.0007195905200205743
14336.0,0.0007474435260519385
end
