version,3.0
numOfCh,1
type,point
parent_name,1000-cuts
ch_type,1_1
kcount,1
numberNandB,1
brightnessNandB,1
carpet pos,0
pc,0
Time (ms),CH1 Auto-Correlation
1.0,0.05023324117064476
2.0,0.04666080325841904
3.0,0.04338845983147621
4.0,0.040358103811740875
5.0,0.037561073899269104
6.0,0.03502292186021805
7.0,0.032669104635715485
8.0,0.03050825372338295
9.0,0.028513425961136818
10.0,0.02669375017285347
11.0,0.02500166930258274
12.0,0.023347917944192886
13.0,0.021736979484558105
14.0,0.020365852862596512
15.0,0.01909928023815155
16.0,0.017949266359210014
18.0,0.01609751395881176
20.0,0.014432847499847412
22.0,0.01296477485448122
24.0,0.01169832143932581
26.0,0.010529187507927418
28.0,0.009288935922086239
30.0,0.007987802848219872
32.0,0.006508830469101667
36.0,0.004412589129060507
40.0,0.003338391426950693
44.0,0.002103555016219616
48.0,0.00142838922329247
52.0,0.0014053283957764506
56.0,0.0015071096131578088
60.0,0.0014647842617705464
64.0,0.0014995975652709603
72.0,0.0008607245981693268
80.0,-5.0693775847321376e-05
88.0,0.00030398089438676834
96.0,0.0008881791145540774
104.0,0.0011350198183208704
112.0,0.0014300249749794602
120.0,0.0014478018274530768
128.0,0.0004785426426678896
144.0,-0.0021915126126259565
160.0,-0.0031574061140418053
176.0,-0.0018068026984110475
192.0,0.0006927493959665298
208.0,0.00010101699444931
224.0,-0.00030207811505533755
240.0,-0.0002913645876105875
256.0,0.00017161814321298152
288.0,0.0005405980627983809
320.0,-0.000677542295306921
352.0,-0.0013878437457606196
384.0,-0.0028155914042145014
416.0,-0.0034619527868926525
448.0,-0.0020167415495961905
480.0,-0.0010201017139479518
512.0,-0.0013525327667593956
576.0,-0.00020383654918987304
640.0,-0.0002472697524353862
704.0,-0.0010280568385496736
768.0,-0.001101949135772884
832.0,-0.0009483741596341133
896.0,-0.00042367371497675776
960.0,-0.000967730360571295
1024.0,0.000383123813662678
1152.0,-0.0008520797709934413
1280.0,-0.0006546863587573171
1408.0,0.0005618201103061438
1536.0,0.0011397256748750806
1664.0,0.001372416620142758
1792.0,0.00015229142445605248
1920.0,0.001283662160858512
2048.0,-0.00018881596042774618
2304.0,-0.0011124050943180919
2560.0,-0.0012171650305390358
2816.0,0.001558199874125421
3072.0,0.0005090233171358705
3328.0,-7.316324627026916e-05
3584.0,0.0009623560472391546
3840.0,-0.0013134253676980734
4096.0,-0.0016887388192117214
4608.0,-0.000518212909810245
5120.0,0.00031464334460906684
5632.0,-0.00040963629726320505
6144.0,0.0010607987642288208
6656.0,-0.000862019369378686
7168.0,0.0003722613910213113
7680.0,-0.0007630530744791031
8192.0,-0.00022612798784393817
9216.0,-1.4040871064935345e-05
10240.0,0.00038589778705500066
11264.0,-9.412098734173924e-05
12288.0,-6.288657459663227e-05
13312.0,-0.0001971169258467853
14336.0,-4.195161091047339e-05
end
