version,3.0
numOfCh,1
type,point
parent_name,1000-cuts
ch_type,1_1
kcount,1
numberNandB,1
brightnessNandB,1
carpet pos,0
pc,0
Time (ms),CH1 Auto-Correlation
1.0,0.035489633679389954
2.0,0.033196114003658295
3.0,0.031051965430378914
4.0,0.029110414907336235
5.0,0.02735874243080616
6.0,0.02573966234922409
7.0,0.02420799620449543
8.0,0.022717835381627083
9.0,0.021274127066135406
10.0,0.019908595830202103
11.0,0.0187090951949358
12.0,0.017564574256539345
13.0,0.01647433638572693
14.0,0.01540456060320139
15.0,0.014411642216145992
16.0,0.013539223931729794
18.0,0.0119640426710248
20.0,0.01065461803227663
22.0,0.009450342506170273
24.0,0.00841471366584301
26.0,0.007470534183084965
28.0,0.006721182260662317
30.0,0.006257689092308283
32.0,0.005827141925692558
36.0,0.004888172261416912
40.0,0.0039213611744344234
44.0,0.0033341965172439814
48.0,0.0029538634698837996
52.0,0.0026834476739168167
56.0,0.0025360584259033203
60.0,0.002138148294761777
64.0,0.0016159118385985494
72.0,0.0010463206563144922
80.0,0.0007648882456123829
88.0,0.000918336387258023
96.0,0.0014550993219017982
104.0,0.0016873118001967669
112.0,0.0023426369298249483
120.0,0.0023416918702423573
128.0,0.0025612155441194773
144.0,0.0013522569788619876
160.0,-0.0005044122226536274
176.0,-0.00043756229570135474
192.0,-0.00037707388401031494
208.0,-0.000642105471342802
224.0,-0.0008773311856202781
240.0,-0.00021106663916725665
256.0,7.866494706831872e-05
288.0,0.0002686057414393872
320.0,-0.0010650031035766006
352.0,-0.0023700175806879997
384.0,-0.0016997450729832053
416.0,-0.0002373347815591842
448.0,0.0001768233341863379
480.0,-0.0005656256689690053
512.0,-0.0003664623945951462
576.0,-0.0016160510713234544
640.0,-2.2892838387633674e-05
704.0,0.00024099566508084536
768.0,-6.148141255835071e-05
832.0,-0.000348063709679991
896.0,0.0005881093675270677
960.0,0.00026726778014563024
1024.0,-0.0014681399334222078
1152.0,-0.0007379825110547245
1280.0,-0.00016003423661459237
1408.0,0.00038846550160087645
1536.0,-0.0014414138859137893
1664.0,-0.0006842510774731636
1792.0,0.00010135914635611698
1920.0,8.590718061896041e-05
2048.0,1.6396870705648325e-05
2304.0,-0.00032874062890186906
2560.0,-3.5073764593107626e-05
2816.0,0.0006603520596399903
3072.0,9.808650793274865e-05
3328.0,-0.000769475765991956
3584.0,-0.00042473908979445696
3840.0,0.0006571488920599222
4096.0,8.840115697239526e-06
4608.0,8.434912888333201e-05
5120.0,0.00012968701776117086
5632.0,4.890583295491524e-05
6144.0,-1.283062738366425e-05
6656.0,0.00033547362545505166
7168.0,0.00032170332269743085
7680.0,-0.0005362327792681754
8192.0,-6.974297139095142e-05
9216.0,-1.3159109585103579e-05
10240.0,-0.00019489390251692384
11264.0,0.0004170483734924346
12288.0,-0.0003755675279535353
13312.0,-0.00036369403824210167
14336.0,-9.758276428328827e-05
end
