version,3.0
numOfCh,1
type,point
parent_name,1000-cuts
ch_type,1_1
kcount,1
numberNandB,1
brightnessNandB,1
carpet pos,0
pc,0
Time (ms),CH1 Auto-Correlation
1.0,0.02602272294461727
2.0,0.024143613874912262
3.0,0.02236100099980831
4.0,0.020729202777147293
5.0,0.019202090799808502
6.0,0.01782084070146084
7.0,0.016490675508975983
8.0,0.015294084325432777
9.0,0.014117724262177944
10.0,0.013079512864351273
11.0,0.01216607540845871
12.0,0.011273876763880253
13.0,0.010426085442304611
14.0,0.009616479277610779
15.0,0.008842670358717442
16.0,0.00813998468220234
18.0,0.006900927517563105
20.0,0.00600840151309967
22.0,0.00523814233019948
24.0,0.004597971215844154
26.0,0.004072291310876608
28.0,0.003641384420916438
30.0,0.0033194206189364195
32.0,0.0029908916912972927
36.0,0.002455472946166992
40.0,0.002046138048171997
44.0,0.0017815431347116828
48.0,0.0014793624868616462
52.0,0.0010689259506762028
56.0,0.0006365196313709021
60.0,0.00012304952542763203
64.0,-0.00044010754209011793
72.0,-0.0009397072717547417
80.0,-0.0011602422455325723
88.0,-0.0010048717958852649
96.0,-0.0011023686965927482
104.0,-0.0010106886038556695
112.0,-0.0011273955460637808
120.0,-0.001290139858610928
128.0,-0.0010924377711489797
144.0,-0.0010564855765551329
160.0,-0.0005572738591581583
176.0,-0.0003307277802377939
192.0,-1.728726056171581e-05
208.0,0.0004078554338775575
224.0,0.00014224207552615553
240.0,5.046492333349306e-06
256.0,-0.0004006184753961861
288.0,-0.0004116187628824264
320.0,-0.0007144705741666257
352.0,-7.697271939832717e-05
384.0,0.00037693922058679163
416.0,0.0006560598849318922
448.0,0.0003932648105546832
480.0,-0.0006401262362487614
512.0,0.0005404463736340404
576.0,-0.00011723821080522612
640.0,-0.0007234555087052286
704.0,-0.00022244702267926186
768.0,-0.000701758312061429
832.0,1.2689215509453788e-05
896.0,-4.7984402044676244e-05
960.0,-0.0006891738739795983
1024.0,-0.00021323116379790008
1152.0,0.0008665191708132625
1280.0,-0.000284677924355492
1408.0,-0.0006450480432249606
1536.0,0.0004672877548728138
1664.0,-0.00042434028000570834
1792.0,-0.00048182366299442947
1920.0,-0.0005842262762598693
2048.0,-5.3106203267816454e-05
2304.0,-0.00028988788835704327
2560.0,0.0003082278708461672
2816.0,0.0001772531250026077
3072.0,0.0002215051936218515
3328.0,-0.0002567104820627719
3584.0,-0.00035234633833169937
3840.0,0.00025421835016459227
4096.0,0.00028273899806663394
4608.0,-0.0001447896647732705
5120.0,-0.0002536616229917854
5632.0,0.00046962074702605605
6144.0,-0.0003070603415835649
6656.0,-0.00020228023640811443
7168.0,0.00035055325133726
7680.0,-0.0005827011773362756
8192.0,0.00024517063866369426
9216.0,8.351299038622528e-05
10240.0,-0.0001711123186396435
11264.0,4.6014018153073266e-05
12288.0,2.3611708456883207e-05
13312.0,-6.316421058727428e-05
14336.0,-7.654685759916902e-05
end
