version,3.0
numOfCh,1
type,point
parent_name,1000-cuts
ch_type,1_1
kcount,1
numberNandB,1
brightnessNandB,1
carpet pos,0
pc,0
Time (ms),CH1 Auto-Correlation
1.0,0.02515363320708275
2.0,0.02355179563164711
3.0,0.022078467532992363
4.0,0.0206376314163208
5.0,0.01923430897295475
6.0,0.017868470400571823
7.0,0.01661531813442707
8.0,0.01541056390851736
9.0,0.014269663952291012
10.0,0.013187619857490063
11.0,0.01217287965118885
12.0,0.011268897913396358
13.0,0.010416226461529732
14.0,0.009609957225620747
15.0,0.008894422091543674
16.0,0.008197704330086708
18.0,0.006986474618315697
20.0,0.005872081965208054
22.0,0.004871251992881298
24.0,0.004121273756027222
26.0,0.0034910249523818493
28.0,0.0029559480026364326
30.0,0.0025507514365017414
32.0,0.0022366794291883707
36.0,0.0019217380322515965
40.0,0.001570331398397684
44.0,0.0012893269304186106
48.0,0.0011954534566029906
52.0,0.0012375839287415147
56.0,0.0011760614579543471
60.0,0.001302966964431107
64.0,0.0013872327981516719
72.0,0.0013645444996654987
80.0,0.0010753158712759614
88.0,0.0004997844807803631
96.0,-0.00019244261784479022
104.0,-0.00018669171549845487
112.0,4.879395055468194e-05
120.0,0.00015663458907511085
128.0,-0.00015258940402418375
144.0,-0.0005288958782330155
160.0,-0.0007425802177749574
176.0,-0.0010380999883636832
192.0,-0.0006406100001186132
208.0,-0.0005406758282333612
224.0,-0.00021304383699316531
240.0,-0.0007997595239430666
256.0,-0.0006516447756439447
288.0,-2.858294828911312e-05
320.0,-0.0009001597645692527
352.0,0.0005896635702811182
384.0,3.615915557020344e-05
416.0,-0.0008568009361624718
448.0,6.985448999330401e-05
480.0,0.0002963053993880749
512.0,-0.0001276440016226843
576.0,0.0005645315977744758
640.0,-0.00019785448967013508
704.0,0.00032693048706278205
768.0,0.00020484566630329937
832.0,8.18175685708411e-05
896.0,-0.00037821097066625953
960.0,0.00017268142255488783
1024.0,0.0006431763176806271
1152.0,-4.515627006185241e-05
1280.0,0.0007721883011981845
1408.0,-0.0009686393314041197
1536.0,-0.0006361724226735532
1664.0,-0.0011463863775134087
1792.0,0.0004055533790960908
1920.0,-0.0001681143621681258
2048.0,7.267220098583493e-06
2304.0,-0.00020909409795422107
2560.0,-9.881862933980301e-05
2816.0,-0.0003866726183332503
3072.0,0.0002723241923376918
3328.0,0.00016862548363860697
3584.0,-0.0005094333318993449
3840.0,0.0003760281251743436
4096.0,-0.0002699041797313839
4608.0,-0.0004601075197570026
5120.0,1.4900543646945152e-05
5632.0,0.0002700746990740299
6144.0,0.0007237742538563907
6656.0,0.0002346614928683266
7168.0,8.458640513708815e-05
7680.0,-0.0005195077392272651
8192.0,-0.00015261831867974252
9216.0,-0.00013720391143579036
10240.0,-7.317933341255412e-05
11264.0,-0.00010947914415737614
12288.0,0.0001867693936219439
13312.0,0.0001257459371117875
14336.0,1.9997642084490508e-05
end
