version,3.0
numOfCh,1
type,point
parent_name,1000-cuts
ch_type,1_1
kcount,1
numberNandB,1
brightnessNandB,1
carpet pos,0
pc,0
Time (ms),CH1 Auto-Correlation
1.0,0.05235712230205536
2.0,0.049024224281311035
3.0,0.045917462557554245
4.0,0.0429978147149086
5.0,0.040404535830020905
6.0,0.03792043775320053
7.0,0.03558940440416336
8.0,0.03336957097053528
9.0,0.03126876801252365
10.0,0.029292726889252663
11.0,0.027365176007151604
12.0,0.025617219507694244
13.0,0.024019399657845497
14.0,0.02257477305829525
15.0,0.02120969630777836
16.0,0.020048290491104126
18.0,0.01797279343008995
20.0,0.016000567004084587
22.0,0.014046519063413143
24.0,0.01221417635679245
26.0,0.010557751171290874
28.0,0.009181208908557892
30.0,0.007970019243657589
32.0,0.006897775921970606
36.0,0.005224661435931921
40.0,0.004014189820736647
44.0,0.0030191040132194757
48.0,0.001985900104045868
52.0,0.0011144207092002034
56.0,0.0006808009929955006
60.0,0.0007003564387559891
64.0,0.0006377430399879813
72.0,0.0008379846694879234
80.0,0.0010632046032696962
88.0,0.0014489609748125076
96.0,0.0012144199572503567
104.0,0.0017647671047598124
112.0,0.0020811976864933968
120.0,0.0015642568469047546
128.0,0.0010427248198539019
144.0,0.0010215608635917306
160.0,0.00038289002259261906
176.0,-0.000764436146710068
192.0,-0.0026167305186390877
208.0,-0.0025363555178046227
224.0,0.00013401747855823487
240.0,0.0006698525394313037
256.0,0.0005873133195564151
288.0,0.00016330207290593535
320.0,-0.0008531380444765091
352.0,-0.0023836081381887197
384.0,0.00092989148106426
416.0,0.002926161279901862
448.0,0.0022645543795078993
480.0,0.0005942414863966405
512.0,0.0010614229831844568
576.0,-0.0008550285128876567
640.0,-0.0015215309103950858
704.0,-0.001918242429383099
768.0,-0.0022677064407616854
832.0,-0.00048039661487564445
896.0,0.001167461508885026
960.0,0.0015247134724631906
1024.0,0.001512666349299252
1152.0,-0.0007158598746173084
1280.0,0.0005234117852523923
1408.0,0.0017796497559174895
1536.0,-0.00019393548427615315
1664.0,-0.002465754747390747
1792.0,-0.00032015907345339656
1920.0,0.0003649652935564518
2048.0,-0.0006077918224036694
2304.0,-0.0007579943048767745
2560.0,0.00021892719087190926
2816.0,0.0013311131624504924
3072.0,0.0003300401440355927
3328.0,0.00040324762812815607
3584.0,-0.0007987422868609428
3840.0,5.096471431897953e-05
4096.0,-0.0003681631351355463
4608.0,0.0003214361204300076
5120.0,-0.0011067419545724988
5632.0,-0.00045405261334963143
6144.0,3.352741987328045e-05
6656.0,-0.0004906226531602442
7168.0,0.0007278641569428146
7680.0,-0.0007753772661089897
8192.0,-0.0016936860047280788
9216.0,0.000850905489642173
10240.0,-0.0002748390252236277
11264.0,-0.0004056718898937106
12288.0,0.0012988916132599115
13312.0,0.0014063218841329217
14336.0,-0.0009739854722283781
end
