version,3.0
numOfCh,1
type,point
parent_name,1000-cuts
ch_type,1_1
kcount,1
numberNandB,1
brightnessNandB,1
carpet pos,0
pc,0
Time (ms),CH1 Auto-Correlation
1.0,0.06650413572788239
2.0,0.06182882562279701
3.0,0.05769549310207367
4.0,0.05370519310235977
5.0,0.04996484890580177
6.0,0.04637737199664116
7.0,0.04313015565276146
8.0,0.040014758706092834
9.0,0.03716396912932396
10.0,0.03454630449414253
11.0,0.03208969160914421
12.0,0.029804425314068794
13.0,0.027707049623131752
14.0,0.025701100006699562
15.0,0.023845335468649864
16.0,0.02204059436917305
18.0,0.018951131030917168
20.0,0.016052121296525
22.0,0.013365174643695354
24.0,0.011000320315361023
26.0,0.008832762017846107
28.0,0.007193554658442736
30.0,0.005939411465078592
32.0,0.005051730666309595
36.0,0.003354802029207349
40.0,0.0017506020376458764
44.0,-7.03648547641933e-05
48.0,-0.0012121826875954866
52.0,-0.0011971337953582406
56.0,-0.0016839131712913513
60.0,-0.002143952762708068
64.0,-0.0017029320588335395
72.0,0.0005662149633280933
80.0,0.0017661267193034291
88.0,0.0017326405504718423
96.0,0.00039133080281317234
104.0,-0.0012630769051611423
112.0,-0.0023271103855222464
120.0,-0.0027274752501398325
128.0,-0.0031538393814116716
144.0,-3.7912861444056034e-05
160.0,0.0016866489313542843
176.0,0.0032423222437500954
192.0,0.00352089642547071
208.0,0.0023612731602042913
224.0,0.0004645377630367875
240.0,-0.002399926073849201
256.0,-0.0020082537084817886
288.0,0.0010213637724518776
320.0,0.0014931022888049483
352.0,-0.0006072416435927153
384.0,0.0014577620895579457
416.0,0.0028484913054853678
448.0,0.0017161486903205514
480.0,-0.0013961337972432375
512.0,-0.0023761459160596132
576.0,0.0004665433370973915
640.0,0.0003948702069465071
704.0,0.00024076733097899705
768.0,-5.616336420644075e-05
832.0,0.003079839050769806
896.0,-0.0008009563898667693
960.0,-0.00039206130895763636
1024.0,0.0010505822720006108
1152.0,-0.001987508963793516
1280.0,0.0005235724966041744
1408.0,0.0012391639174893498
1536.0,-0.0004026105161756277
1664.0,0.0007546704728156328
1792.0,-0.0004947034758515656
1920.0,-0.0001787793153198436
2048.0,-0.00039112367085181177
2304.0,-0.0016902139177545905
2560.0,-0.00048461960977874696
2816.0,0.0012895792024210095
3072.0,0.00015628876280970871
3328.0,0.00020359482732601464
3584.0,-0.00017216695414390415
3840.0,-0.0006832545041106641
4096.0,0.0004765130579471588
4608.0,-0.0002339625352760777
5120.0,-0.001150032039731741
5632.0,0.0009583802311681211
6144.0,-0.0001279551797779277
6656.0,0.0010760192526504397
7168.0,-4.894619632977992e-05
7680.0,-0.001356662716716528
8192.0,-0.0013177142245694995
9216.0,-0.001013771165162325
10240.0,-8.955301746027544e-05
11264.0,0.00044544634874910116
12288.0,0.0005641120951622725
13312.0,0.00023219188733492047
14336.0,-0.00031760867568664253
end
