version,3.0
numOfCh,1
type,point
parent_name,1000-cuts
ch_type,1_1
kcount,1
numberNandB,1
brightnessNandB,1
carpet pos,0
pc,0
Time (ms),CH1 Auto-Correlation
1.0,0.05072534829378128
2.0,0.047093212604522705
3.0,0.043725959956645966
4.0,0.04064609110355377
5.0,0.037725284695625305
6.0,0.03501122444868088
7.0,0.03252983093261719
8.0,0.030123356729745865
9.0,0.02782328426837921
10.0,0.025728369131684303
11.0,0.02384047582745552
12.0,0.022043662145733833
13.0,0.02036517858505249
14.0,0.018906807526946068
15.0,0.017608456313610077
16.0,0.01637539081275463
18.0,0.014338633045554161
20.0,0.012865912169218063
22.0,0.011441661976277828
24.0,0.009850764647126198
26.0,0.008308883756399155
28.0,0.007114305626600981
30.0,0.006243533454835415
32.0,0.005472623743116856
36.0,0.004160741809755564
40.0,0.0030876919627189636
44.0,0.0019619381055235863
48.0,0.0010698100086301565
52.0,0.0009153217542916536
56.0,0.0009361219126731157
60.0,0.0006392041686922312
64.0,0.0002067452296614647
72.0,5.327047256287187e-05
80.0,0.0006402483559213579
88.0,0.001339791459031403
96.0,0.0017878226935863495
104.0,0.0010663425782695413
112.0,0.00040688973967917264
120.0,0.00016640342073515058
128.0,0.00032285379711538553
144.0,0.0019252968486398458
160.0,0.0017538927495479584
176.0,0.0007800518069416285
192.0,0.0018258352065458894
208.0,0.0016711220378056169
224.0,0.0007674862281419337
240.0,-0.00016117675113491714
256.0,0.0011326138628646731
288.0,0.0012574184220284224
320.0,-0.00039825172279961407
352.0,0.0005101339193060994
384.0,0.0012215771712362766
416.0,0.0003446253249421716
448.0,0.000376483250875026
480.0,0.001343937823548913
512.0,0.0014782538637518883
576.0,-0.0011668119113892317
640.0,-0.0009884247556328773
704.0,-0.0006909930962137878
768.0,0.000551799894310534
832.0,-0.0014318384928628802
896.0,-0.00027271723956800997
960.0,-0.0007981022354215384
1024.0,0.0012973234988749027
1152.0,0.0012830034829676151
1280.0,-0.0023611767683178186
1408.0,0.0008869965677149594
1536.0,-0.0005915124784223735
1664.0,0.0003423162561375648
1792.0,0.00011394650209695101
1920.0,0.0002599172876216471
2048.0,-0.0007802378968335688
2304.0,-0.0005963989533483982
2560.0,0.0006381067796610296
2816.0,-0.00020684351329691708
3072.0,-0.0009421889553777874
3328.0,0.0003057978465221822
3584.0,-0.0005937720416113734
3840.0,0.0008653209079056978
4096.0,0.0008377108606509864
4608.0,-0.0021894783712923527
5120.0,-0.0006554016727022827
5632.0,0.00033172627445310354
6144.0,-0.00030890750349499285
6656.0,-0.0003075123531743884
7168.0,0.00015665663522668183
7680.0,0.0013235231162980199
8192.0,-0.00023893678735475987
9216.0,0.0003171447024215013
10240.0,0.0007299911230802536
11264.0,-7.68123718444258e-05
12288.0,-0.0009958806913346052
13312.0,0.0014540246920660138
14336.0,-0.0011362021323293447
end
