version,3.0
numOfCh,1
type,point
parent_name,1000-cuts
ch_type,1_1
kcount,1
numberNandB,1
brightnessNandB,1
carpet pos,0
pc,0
Time (ms),CH1 Auto-Correlation
1.0,0.09885586053133011
2.0,0.09237437695264816
3.0,0.08632206916809082
4.0,0.08072768151760101
5.0,0.0753970742225647
6.0,0.07049604505300522
7.0,0.06583736091852188
8.0,0.06138122081756592
9.0,0.05726504698395729
10.0,0.05343103036284447
11.0,0.04995112866163254
12.0,0.04662712663412094
13.0,0.0434347428381443
14.0,0.04053819924592972
15.0,0.037750452756881714
16.0,0.035186704248189926
18.0,0.030434682965278625
20.0,0.02612576261162758
22.0,0.022223379462957382
24.0,0.019292572513222694
26.0,0.016803277656435966
28.0,0.014440176077187061
30.0,0.012115090154111385
32.0,0.009703265503048897
36.0,0.006124564446508884
40.0,0.003483416745439172
44.0,0.0015772762708365917
48.0,0.0008019998203963041
52.0,0.001201513223350048
56.0,0.001557147246785462
60.0,0.0016300550196319818
64.0,0.0014740730402991176
72.0,0.00025548384292051196
80.0,-0.0015060651348903775
88.0,-0.0005826989654451609
96.0,0.0011645497288554907
104.0,0.0004518459609244019
112.0,0.0016238747630268335
120.0,0.002201475203037262
128.0,0.0023496835492551327
144.0,-4.256861575413495e-05
160.0,-0.004153774585574865
176.0,-0.0028104374650865793
192.0,-0.00266070244833827
208.0,-0.0026387455873191357
224.0,0.0017901980318129063
240.0,0.002623983658850193
256.0,0.0018541879253461957
288.0,0.002329922979697585
320.0,0.0011257973965257406
352.0,0.0019855310674756765
384.0,0.0018508881330490112
416.0,-0.0014850464649498463
448.0,-0.0031233574263751507
480.0,-0.0013065171660855412
512.0,-0.0015460983850061893
576.0,-0.0024809229653328657
640.0,-0.0003301453252788633
704.0,-0.003925684839487076
768.0,-0.0007511379662901163
832.0,-0.0012263813987374306
896.0,0.002921018749475479
960.0,-0.003387486794963479
1024.0,-0.0008893609629012644
1152.0,0.0012179517652839422
1280.0,0.0001480712235206738
1408.0,0.0011048486921936274
1536.0,-0.0018039422575384378
1664.0,0.0004759843577630818
1792.0,0.0019215898355469108
1920.0,-0.0034255334176123142
2048.0,-0.0023084813728928566
2304.0,-0.0017010691808536649
2560.0,-0.0005596707342192531
2816.0,-0.00020208403293509036
3072.0,7.044515223242342e-05
3328.0,0.0005469298339448869
3584.0,-0.0005525824963115156
3840.0,-0.0019636466167867184
4096.0,0.0011467479635030031
4608.0,0.0009888148633763194
5120.0,-0.0006872896919958293
5632.0,0.0014688478549942374
6144.0,0.0008141932194121182
6656.0,-0.0005978551926091313
7168.0,-0.001740815700031817
7680.0,-0.0003002524026669562
8192.0,-0.0013213425409048796
9216.0,0.0005830040317960083
10240.0,0.00029157858807593584
11264.0,-0.0001805626816349104
12288.0,-0.0006699345540255308
13312.0,9.117206354858354e-05
14336.0,0.0001240128476638347
end
