version,3.0
numOfCh,1
type,point
parent_name,1000-cuts
ch_type,1_1
kcount,1
numberNandB,1
brightnessNandB,1
carpet pos,0
pc,0
Time (ms),CH1 Auto-Correlation
1.0,0.07296466082334518
2.0,0.06807581335306168
3.0,0.06361130625009537
4.0,0.05953293666243553
5.0,0.05562219023704529
6.0,0.05196768790483475
7.0,0.04839681088924408
8.0,0.045056600123643875
9.0,0.041843313723802567
10.0,0.03880077973008156
11.0,0.0359344556927681
12.0,0.033289868384599686
13.0,0.030673513188958168
14.0,0.028244303539395332
15.0,0.02592417597770691
16.0,0.023625843226909637
18.0,0.01980096846818924
20.0,0.01633800007402897
22.0,0.013444879092276096
24.0,0.01091849710792303
26.0,0.008793631568551064
28.0,0.006779790390282869
30.0,0.00515008857473731
32.0,0.0038096592761576176
36.0,0.001763426000252366
40.0,0.0004410043475218117
44.0,-0.0008696626755408943
48.0,-0.002059219405055046
52.0,-0.002969797933474183
56.0,-0.003347244346514344
60.0,-0.0029598495457321405
64.0,-0.0028072064742445946
72.0,-0.002065656939521432
80.0,-0.0011384377721697092
88.0,-0.0006984802894294262
96.0,6.357995880534872e-05
104.0,0.0016724654706194997
112.0,0.001709834556095302
120.0,0.0008144977036863565
128.0,-0.0006330033065751195
144.0,-0.00036271425778977573
160.0,0.0024435219820588827
176.0,0.0018393683712929487
192.0,-0.0009101302130147815
208.0,0.00011092299246229231
224.0,0.0012763848062604666
240.0,9.688554564490914e-05
256.0,0.000413939036661759
288.0,0.0007414499996230006
320.0,-0.0002389242290519178
352.0,-0.0009158467291854322
384.0,0.0006344713037833571
416.0,0.0003488439251668751
448.0,-0.0007016378804109991
480.0,0.0027280361391603947
512.0,0.004684200510382652
576.0,-0.00036915813689120114
640.0,0.0008854832267388701
704.0,-0.0006350305047817528
768.0,0.000130175962112844
832.0,0.0013135807821527123
896.0,0.0009172596037387848
960.0,-0.0032014925964176655
1024.0,-0.0020337922032922506
1152.0,8.729131513973698e-05
1280.0,0.000349665671819821
1408.0,0.0007852836279198527
1536.0,-0.0007843959028832614
1664.0,-0.0008047311566770077
1792.0,-0.0005952774663455784
1920.0,-0.0008243860793299973
2048.0,0.001684345304965973
2304.0,-0.0024315230548381805
2560.0,-0.0004024129593744874
2816.0,-0.0015325146960094571
3072.0,-0.001108439639210701
3328.0,-0.000999996904283762
3584.0,-0.00036262249341234565
3840.0,-0.001155782607384026
4096.0,0.00014639920846093446
4608.0,-6.16638790233992e-05
5120.0,-0.0002806345873977989
5632.0,0.0004741859738714993
6144.0,0.0013697558315470815
6656.0,0.0006133104907348752
7168.0,0.00030891518690623343
7680.0,0.0004591016622725874
8192.0,-0.00012157990568084642
9216.0,-0.0004399009922053665
10240.0,-0.0005297155003063381
11264.0,-0.000491282728035003
12288.0,0.0007913486333563924
13312.0,0.00019158214854542166
14336.0,-0.0009331089677289128
end
