version,3.0
numOfCh,1
type,point
parent_name,1000-cuts
ch_type,1_1
kcount,1
numberNandB,1
brightnessNandB,1
carpet pos,0
pc,0
Time (ms),CH1 Auto-Correlation
1.0,0.12925970554351807
2.0,0.12105755507946014
3.0,0.11362196505069733
4.0,0.1067027822136879
5.0,0.100227490067482
6.0,0.09425235539674759
7.0,0.08873207122087479
8.0,0.08343389630317688
9.0,0.07831728458404541
10.0,0.07341448217630386
11.0,0.06873282045125961
12.0,0.06424209475517273
13.0,0.06018451973795891
14.0,0.05637563019990921
15.0,0.05284309759736061
16.0,0.049646735191345215
18.0,0.043548326939344406
20.0,0.03811419755220413
22.0,0.03381390869617462
24.0,0.02992541715502739
26.0,0.026233138516545296
28.0,0.022653287276625633
30.0,0.01949561946094036
32.0,0.017024751752614975
36.0,0.012718752957880497
40.0,0.009682133793830872
44.0,0.006762068253010511
48.0,0.004401750862598419
52.0,0.0024449657648801804
56.0,0.0015825479058548808
60.0,0.0012509924126788974
64.0,0.0011014151386916637
72.0,0.0020289684180170298
80.0,0.0021311042364686728
88.0,0.0030500958673655987
96.0,0.004157736897468567
104.0,0.0027270419523119926
112.0,3.091188409598544e-05
120.0,-0.004170780535787344
128.0,-0.005963591858744621
144.0,-0.0034105402883142233
160.0,-0.0031781441066414118
176.0,-0.0014754097210243344
192.0,-0.00373883661814034
208.0,-0.008370098657906055
224.0,-0.00853662472218275
240.0,-0.005286345724016428
256.0,-0.004483756609261036
288.0,-0.003232418093830347
320.0,-0.004385159816592932
352.0,-0.003614120651036501
384.0,-0.00018905267643276602
416.0,0.005373384337872267
448.0,-0.00032312102848663926
480.0,0.0006123715429566801
512.0,0.0029906444251537323
576.0,0.00027714198222383857
640.0,0.00045069196494296193
704.0,-0.0017395647009834647
768.0,-0.008194035850465298
832.0,0.0015422935830429196
896.0,0.0032889482099562883
960.0,0.0075794244185090065
1024.0,0.0039020993281155825
1152.0,0.0014262843178585172
1280.0,0.0005313701694831252
1408.0,-0.0002989069325849414
1536.0,-0.00074600032530725
1664.0,-0.0020291325636208057
1792.0,-0.0012191629502922297
1920.0,-0.0009938617004081607
2048.0,-7.791434472892433e-05
2304.0,0.0018532120157033205
2560.0,-0.0016476118471473455
2816.0,-0.0003263600810896605
3072.0,-0.00023500969109591097
3328.0,0.0008681713370606303
3584.0,5.347636033548042e-05
3840.0,-0.0018672918668016791
4096.0,0.0013351048110052943
4608.0,-0.0017623835010454059
5120.0,0.00024097439018078148
5632.0,0.0013519299682229757
6144.0,-0.00028369203209877014
6656.0,0.00022476287267636508
7168.0,0.000616398872807622
7680.0,-0.001377010834403336
8192.0,0.002462317468598485
9216.0,-0.0008179855067282915
10240.0,-0.0013363363686949015
11264.0,-0.0008018047665245831
12288.0,-0.0006797405076213181
13312.0,-0.0012805789010599256
14336.0,-0.000951172027271241
end
