version,3.0
numOfCh,1
type,point
parent_name,1000-cuts
ch_type,1_1
kcount,1
numberNandB,1
brightnessNandB,1
carpet pos,0
pc,0
Time (ms),CH1 Auto-Correlation
1.0,0.06663398444652557
2.0,0.06226486340165138
3.0,0.05832616239786148
4.0,0.05474383011460304
5.0,0.05135522782802582
6.0,0.048216562718153
7.0,0.04534912109375
8.0,0.04268595203757286
9.0,0.04024078696966171
10.0,0.03787827491760254
11.0,0.03564378246665001
12.0,0.03364429250359535
13.0,0.0316932275891304
14.0,0.029778223484754562
15.0,0.0279049351811409
16.0,0.026208940893411636
18.0,0.023152045905590057
20.0,0.020331989973783493
22.0,0.017975768074393272
24.0,0.015922512859106064
26.0,0.014229326508939266
28.0,0.012637881562113762
30.0,0.010976199060678482
32.0,0.009557676501572132
36.0,0.006938128732144833
40.0,0.0049981228075921535
44.0,0.0034518707543611526
48.0,0.002460166346281767
52.0,0.0018182530766353011
56.0,0.0008021813700906932
60.0,0.0001606637379154563
64.0,-0.00019332507508806884
72.0,-0.0006904508336447179
80.0,-0.0009084190824069083
88.0,-0.0015932501992210746
96.0,-0.0019194353371858597
104.0,-0.0017844095127657056
112.0,-0.0013802305329591036
120.0,-0.0014859696384519339
128.0,-0.0013983617536723614
144.0,-0.0008901942055672407
160.0,-0.002017187187448144
176.0,-0.0012189530534669757
192.0,-0.0016693691723048687
208.0,-0.002160216448828578
224.0,-4.338196958997287e-05
240.0,0.002241580281406641
256.0,0.00193301762919873
288.0,0.0008341612410731614
320.0,0.00048041646368801594
352.0,0.00030963882454670966
384.0,0.0021198384929448366
416.0,0.0009335002978332341
448.0,0.001189010334201157
480.0,0.0018983820918947458
512.0,-0.0009039207361638546
576.0,0.0012549293460324407
640.0,0.000719249015673995
704.0,0.0004769570368807763
768.0,-0.000711690925527364
832.0,9.255825716536492e-05
896.0,-0.0010237456299364567
960.0,0.001966584473848343
1024.0,0.0004882458597421646
1152.0,-0.0010537371272221208
1280.0,-0.0021099764853715897
1408.0,0.0005758816841989756
1536.0,-0.0025863940827548504
1664.0,-0.00024776620557531714
1792.0,-0.0021066642366349697
1920.0,0.0010553851025179029
2048.0,-0.0005632434040307999
2304.0,-0.0005971635109744966
2560.0,-0.0007125328993424773
2816.0,0.0007300798897631466
3072.0,-0.0001288560888497159
3328.0,-6.287393625825644e-05
3584.0,-2.3724120183032937e-05
3840.0,-0.0005907595041207969
4096.0,1.4654985534434672e-05
4608.0,-0.00021071609808132052
5120.0,-0.0005495756049640477
5632.0,0.0001362410985166207
6144.0,0.0005656141438521445
6656.0,-0.0005379325593821704
7168.0,-0.0014987258473411202
7680.0,-0.000572516000829637
8192.0,0.0008708060486242175
9216.0,0.0004979540826752782
10240.0,-0.00046396724064834416
11264.0,0.0022988535929471254
12288.0,0.0012286254204809666
13312.0,-0.0033161889296025038
14336.0,-0.00041797442827373743
end
