version,3.0
numOfCh,1
type,point
parent_name,1000-cuts
ch_type,1_1
kcount,1
numberNandB,1
brightnessNandB,1
carpet pos,0
pc,0
Time (ms),CH1 Auto-Correlation
1.0,0.050001878291368484
2.0,0.04631806164979935
3.0,0.042871247977018356
4.0,0.03960727900266647
5.0,0.03661030903458595
6.0,0.03394756466150284
7.0,0.0314885750412941
8.0,0.02925322949886322
9.0,0.027170198038220406
10.0,0.025250671431422234
11.0,0.023463815450668335
12.0,0.021771442145109177
13.0,0.020140789449214935
14.0,0.018607506528496742
15.0,0.01711585931479931
16.0,0.015801284462213516
18.0,0.013385425321757793
20.0,0.011214199475944042
22.0,0.009376611560583115
24.0,0.007751782424747944
26.0,0.006253176834434271
28.0,0.004869183525443077
30.0,0.003609977662563324
32.0,0.002611759351566434
36.0,0.0016581725794821978
40.0,0.001006547943688929
44.0,0.00033274650922976434
48.0,-0.00025287215248681605
52.0,-0.00020744861103594303
56.0,-9.368301834911108e-05
60.0,6.229686550796032e-05
64.0,-0.00022426361101679504
72.0,-0.0007582885446026921
80.0,-0.0013452190905809402
88.0,-0.001917844987474382
96.0,-0.001748155220411718
104.0,-0.0018731593154370785
112.0,-0.0023659770376980305
120.0,-0.0015439840499311686
128.0,-0.0009414809755980968
144.0,-0.002198123373091221
160.0,-0.0028438663575798273
176.0,-0.0016277915565297008
192.0,-0.0008333507576026022
208.0,0.000174585627974011
224.0,0.0016044678632169962
240.0,0.0020904908888041973
256.0,0.0006506772479042411
288.0,-0.001529468223452568
320.0,-0.0007904248195700347
352.0,0.00018131527758669108
384.0,-0.0008351992582902312
416.0,0.00018551424727775156
448.0,-0.00014262128388509154
480.0,-0.0012583936331793666
512.0,0.00015756022185087204
576.0,0.0017355626914650202
640.0,0.0006011531222611666
704.0,-0.002078866120427847
768.0,-0.00030425534350797534
832.0,0.0002134591486537829
896.0,-0.0006717246142216027
960.0,0.0005082061979919672
1024.0,0.0014933455968275666
1152.0,0.0012760413810610771
1280.0,-0.0012287080753594637
1408.0,-0.0007231120835058391
1536.0,-0.0010916106402873993
1664.0,0.0005069534527137876
1792.0,0.000696557923220098
1920.0,-3.143393769278191e-05
2048.0,-0.0004380924510769546
2304.0,0.0002746479003690183
2560.0,-0.0009544284548610449
2816.0,0.0004955314798280597
3072.0,0.00029324309434741735
3328.0,-3.615171954152174e-05
3584.0,-3.007979830726981e-05
3840.0,-0.0007121968665160239
4096.0,0.0012121015461161733
4608.0,-0.0005360403447411954
5120.0,0.0006245459080673754
5632.0,-0.0010376060381531715
6144.0,0.0003236604970879853
6656.0,-0.0006037066341377795
7168.0,-0.00027671808493323624
7680.0,0.00033931617508642375
8192.0,-5.9755242546088994e-05
9216.0,-3.1120220228331164e-05
10240.0,-0.00014415939222089946
11264.0,0.00027392676565796137
12288.0,0.00031154617317952216
13312.0,-0.0014057549415156245
14336.0,0.00078038708306849
end
