version,3.0
numOfCh,1
type,point
parent_name,1000-cuts
ch_type,1_1
kcount,1
numberNandB,1
brightnessNandB,1
carpet pos,0
pc,0
Time (ms),CH1 Auto-Correlation
1.0,0.08876899629831314
2.0,0.08275636285543442
3.0,0.07692109793424606
4.0,0.07153791934251785
5.0,0.06648673862218857
6.0,0.061874907463788986
7.0,0.057490698993206024
8.0,0.05339428409934044
9.0,0.04969264194369316
10.0,0.04615863412618637
11.0,0.04307645559310913
12.0,0.040040530264377594
13.0,0.037194810807704926
14.0,0.03462688624858856
15.0,0.03228707239031792
16.0,0.030237287282943726
18.0,0.02631790190935135
20.0,0.02314588986337185
22.0,0.020397495478391647
24.0,0.018071694299578667
26.0,0.015808073803782463
28.0,0.013573311269283295
30.0,0.011409941129386425
32.0,0.009520209394395351
36.0,0.006506931036710739
40.0,0.00419122027233243
44.0,0.0023774285800755024
48.0,0.0008101306739263237
52.0,0.0004003458598162979
56.0,0.00034540146589279175
60.0,-0.0003304985002614558
64.0,-0.0005154734244570136
72.0,0.0015973898116499186
80.0,0.0009588986285962164
88.0,-0.001159482286311686
96.0,-0.0020266587380319834
104.0,-0.002263755537569523
112.0,-0.0013669778127223253
120.0,-0.0004428467946127057
128.0,9.376722300658002e-05
144.0,0.000476527406135574
160.0,0.0027162814512848854
176.0,0.003318580100312829
192.0,0.005065496079623699
208.0,0.0024436376988887787
224.0,0.0021974577102810144
240.0,0.0024795003701001406
256.0,0.0011185057228431106
288.0,0.0015531422104686499
320.0,-0.0008884883136488497
352.0,-0.004523108713328838
384.0,0.0009945062920451164
416.0,-0.002037069061771035
448.0,-0.003603923600167036
480.0,-0.004348528105765581
512.0,-1.541470192023553e-05
576.0,0.0018886561738327146
640.0,0.0014033634215593338
704.0,0.0025217910297214985
768.0,0.0028972611762583256
832.0,0.0016440829494968057
896.0,-0.00039261046913452446
960.0,0.0012619663029909134
1024.0,-0.0008505343575961888
1152.0,-0.002535921288654208
1280.0,0.000988643616437912
1408.0,0.0009018044220283628
1536.0,0.0014317429158836603
1664.0,0.0017995464149862528
1792.0,-0.0013958727940917015
1920.0,0.0020200228318572044
2048.0,-0.0015000086277723312
2304.0,0.000316138583002612
2560.0,-0.0007639921386726201
2816.0,-0.0007268282352015376
3072.0,-0.0023515091743320227
3328.0,-0.003625753102824092
3584.0,-0.0005326555692590773
3840.0,0.0006267816061154008
4096.0,-0.0017470322782173753
4608.0,-0.0006846321630291641
5120.0,-0.00020254381524864584
5632.0,-0.0001777504658093676
6144.0,8.130659261951223e-05
6656.0,-1.4706790352647658e-05
7168.0,0.001400821260176599
7680.0,0.001437600003555417
8192.0,0.0003625176032073796
9216.0,0.002823830349370837
10240.0,-0.002579817082732916
11264.0,0.00038625995512120426
12288.0,-0.0025352027732878923
13312.0,-0.0013619513483718038
14336.0,0.00168098125141114
end
