version,3.0
numOfCh,1
type,point
parent_name,1000-cuts
ch_type,1_1
kcount,1
numberNandB,1
brightnessNandB,1
carpet pos,0
pc,0
Time (ms),CH1 Auto-Correlation
1.0,0.02657114528119564
2.0,0.024765387177467346
3.0,0.023060690611600876
4.0,0.021471278741955757
5.0,0.02000170201063156
6.0,0.01865534856915474
7.0,0.017394941300153732
8.0,0.01619061827659607
9.0,0.015046079643070698
10.0,0.013954158872365952
11.0,0.012910513207316399
12.0,0.011961589567363262
13.0,0.011072501540184021
14.0,0.010266871191561222
15.0,0.009455608204007149
16.0,0.008697967045009136
18.0,0.007341452874243259
20.0,0.006104053929448128
22.0,0.005055983085185289
24.0,0.004187289625406265
26.0,0.003511813236400485
28.0,0.0030846211593598127
30.0,0.0027895064558833838
32.0,0.00256438460201025
36.0,0.0022672435734421015
40.0,0.002138313138857484
44.0,0.0019817810971289873
48.0,0.001770509290508926
52.0,0.0015363952843472362
56.0,0.001410677214153111
60.0,0.001228127395734191
64.0,0.0010797129943966866
72.0,0.00119492644444108
80.0,0.001455016084946692
88.0,0.0011792972218245268
96.0,0.000903916428796947
104.0,0.0010251962812617421
112.0,0.0009720303933136165
120.0,0.0005553532973863184
128.0,0.0004461222852114588
144.0,0.0010514147579669952
160.0,0.0011686754878610373
176.0,0.0004723663441836834
192.0,-5.458027953864075e-05
208.0,-7.751715747872368e-05
224.0,-0.0011781691573560238
240.0,-0.001440427266061306
256.0,-0.0015243174275383353
288.0,-0.0022598428186029196
320.0,-0.002272100653499365
352.0,-0.0015599754406139255
384.0,-0.0021847437601536512
416.0,-0.0012655832106247544
448.0,-0.0006923018372617662
480.0,-0.00019020856416318566
512.0,0.00022774386161472648
576.0,0.0005834682960994542
640.0,-0.0008804234676063061
704.0,0.000524506438523531
768.0,6.159818440210074e-05
832.0,0.000770842598285526
896.0,0.00023505360877607018
960.0,0.0002766432298813015
1024.0,0.00047475757310166955
1152.0,-6.499512528534979e-05
1280.0,7.996876956894994e-05
1408.0,-3.899697549059056e-05
1536.0,-0.0002836620551533997
1664.0,0.00035484955878928304
1792.0,-0.0004698801494669169
1920.0,1.3048963410255965e-05
2048.0,-0.0002910610055550933
2304.0,-1.9537112621037522e-06
2560.0,0.00022501201601698995
2816.0,-0.00040476294816471636
3072.0,-0.00048043899005278945
3328.0,0.0005316284950822592
3584.0,-0.00011556487152120098
3840.0,0.00017976699746213853
4096.0,-0.0006165397935546935
4608.0,0.00011020292731700465
5120.0,-0.00011429273581597954
5632.0,-6.142709025880322e-05
6144.0,0.00022332780645228922
6656.0,4.592598997987807e-05
7168.0,-8.77718921401538e-05
7680.0,3.711548743012827e-06
8192.0,-6.29650749033317e-05
9216.0,-1.3553800272347871e-05
10240.0,-6.161465989862336e-06
11264.0,5.033960769651458e-05
12288.0,0.00017856484919320792
13312.0,2.530356687202584e-05
14336.0,-0.00023073767079040408
end
