version,3.0
numOfCh,1
type,point
parent_name,1000-cuts
ch_type,1_1
kcount,1
numberNandB,1
brightnessNandB,1
carpet pos,0
pc,0
Time (ms),CH1 Auto-Correlation
1.0,0.025134863331913948
2.0,0.023526255041360855
3.0,0.021988505497574806
4.0,0.020534874871373177
5.0,0.019227389246225357
6.0,0.018009861931204796
7.0,0.01687806099653244
8.0,0.01587558165192604
9.0,0.014952987432479858
10.0,0.014129884541034698
11.0,0.013333793729543686
12.0,0.012592353858053684
13.0,0.01189835648983717
14.0,0.011260981671512127
15.0,0.010660638101398945
16.0,0.010082500986754894
18.0,0.009064699523150921
20.0,0.008085529319941998
22.0,0.00722986925393343
24.0,0.006402271334081888
26.0,0.005641602911055088
28.0,0.004978902637958527
30.0,0.00435842527076602
32.0,0.0038065253756940365
36.0,0.002813623519614339
40.0,0.0020132765639573336
44.0,0.0013482521753758192
48.0,0.0008006489952094853
52.0,0.00034655194031074643
56.0,-8.06315874797292e-05
60.0,-0.00034675016649998724
64.0,-0.0004324564943090081
72.0,-0.0006445089820772409
80.0,-0.0009843881707638502
88.0,-0.0007856676820665598
96.0,-0.0006890526274219155
104.0,-0.000632965296972543
112.0,-0.000396058865590021
120.0,-0.0002675019786693156
128.0,-0.0003564694197848439
144.0,-0.00039090256905183196
160.0,-0.000474383938126266
176.0,-0.00065744633320719
192.0,-0.0004750161024276167
208.0,-0.0005850025918334723
224.0,-0.0010599590605124831
240.0,-0.0014889014419168234
256.0,-0.0025126745458692312
288.0,-0.001014740439131856
320.0,-0.0006270097219385207
352.0,-0.0014722913037985563
384.0,-0.000812782789580524
416.0,0.0005598322604782879
448.0,0.00037538164178840816
480.0,9.609347034711391e-05
512.0,0.0002869434538297355
576.0,0.000281472981441766
640.0,-0.00011285511573078111
704.0,0.0002775080210994929
768.0,0.0003911722160410136
832.0,-0.0004967085551470518
896.0,0.00027614604914560914
960.0,0.0011930369073525071
1024.0,-0.0004553364124149084
1152.0,0.000249326549237594
1280.0,-0.00016305746976286173
1408.0,0.0010193875059485435
1536.0,-0.0007309685461223125
1664.0,-0.0006449737120419741
1792.0,0.00042623424087651074
1920.0,0.001314223394729197
2048.0,0.00013928279804531485
2304.0,-0.00012608444376382977
2560.0,0.0001615193032193929
2816.0,-0.00034880387829616666
3072.0,-0.0003406489558983594
3328.0,0.000492008519358933
3584.0,-0.0007660536793991923
3840.0,0.0006344073917716742
4096.0,-0.0006256821216084063
4608.0,8.018405787879601e-05
5120.0,-0.00031885222415439785
5632.0,6.430286885006353e-05
6144.0,7.158116204664111e-05
6656.0,0.0002295134327141568
7168.0,2.4946082703536376e-05
7680.0,0.0003021495940629393
8192.0,8.671213436173275e-05
9216.0,-2.8940115953446366e-05
10240.0,-0.00025074114091694355
11264.0,-8.47559203975834e-05
12288.0,-0.0002607189817354083
13312.0,-4.268773045623675e-05
14336.0,0.0004210928163956851
end
