version,3.0
numOfCh,1
type,point
parent_name,1000-cuts
ch_type,1_1
kcount,1
numberNandB,1
brightnessNandB,1
carpet pos,0
pc,0
Time (ms),CH1 Auto-Correlation
1.0,0.02643950656056404
2.0,0.024608492851257324
3.0,0.022930290549993515
4.0,0.02135355770587921
5.0,0.01993156038224697
6.0,0.018619108945131302
7.0,0.01741187646985054
8.0,0.016247954219579697
9.0,0.015173540450632572
10.0,0.014237044379115105
11.0,0.013343216851353645
12.0,0.012521334923803806
13.0,0.011639120057225227
14.0,0.010861890390515327
15.0,0.010140908882021904
16.0,0.00943862833082676
18.0,0.008276661857962608
20.0,0.007233753334730864
22.0,0.0062688193283975124
24.0,0.005372145678848028
26.0,0.004596394952386618
28.0,0.0039616795256733894
30.0,0.0034760877024382353
32.0,0.003086111508309841
36.0,0.0026503282133489847
40.0,0.002396299736574292
44.0,0.0021843959111720324
48.0,0.0020256934221833944
52.0,0.001817227341234684
56.0,0.0016346999909728765
60.0,0.0014462147373706102
64.0,0.001142127439379692
72.0,0.0003451481170486659
80.0,0.0001716294646030292
88.0,-8.077312486420851e-06
96.0,-0.0004519833892118186
104.0,-0.0004326352500356734
112.0,-0.00021534420375246555
120.0,-0.0001418283354723826
128.0,-0.0004869909316767007
144.0,-0.0009030906949192286
160.0,-0.0008331502904184163
176.0,-0.0007421093760058284
192.0,-0.0001510200381744653
208.0,0.00010510435822652653
224.0,0.00016300125571433455
240.0,0.0005956909735687077
256.0,0.0017947512678802013
288.0,0.000742858974263072
320.0,0.0008266112999990582
352.0,0.0001485377288190648
384.0,-0.0006827822653576732
416.0,0.0005833369214087725
448.0,0.000690298795234412
480.0,-0.0001238731638295576
512.0,-0.0003580555785447359
576.0,0.00025524236843921244
640.0,0.0013309604255482554
704.0,-8.08078475529328e-05
768.0,-0.0007006207597441971
832.0,-0.00011916951916646212
896.0,0.0004987360443919897
960.0,0.0006027489434927702
1024.0,-0.00015629135305061936
1152.0,-0.0004281753208488226
1280.0,0.00013196084182709455
1408.0,-0.0006894454709254205
1536.0,8.610356599092484e-05
1664.0,-0.00025262238341383636
1792.0,0.00014334851584862918
1920.0,0.00026299769524484873
2048.0,2.712314199015964e-06
2304.0,-0.0003951536491513252
2560.0,-0.0008830438600853086
2816.0,-0.0006441220175474882
3072.0,-0.0005416916101239622
3328.0,-0.00016921966744121164
3584.0,-0.0004104094405192882
3840.0,0.0002197254216298461
4096.0,8.45329268486239e-05
4608.0,-0.00029255615663714707
5120.0,2.9362874556682073e-05
5632.0,0.0001428333343937993
6144.0,0.0007943008677102625
6656.0,0.0001524310209788382
7168.0,0.00022435050050262362
7680.0,0.0005159448483027518
8192.0,0.0002556141116656363
9216.0,-0.0012081027962267399
10240.0,-2.669240529939998e-05
11264.0,0.00010572442988632247
12288.0,0.0014385685790330172
13312.0,-0.0005219561280682683
14336.0,-2.4069131541182287e-05
end
