version,3.0
numOfCh,1
type,point
parent_name,1000-cuts
ch_type,1_1
kcount,1
numberNandB,1
brightnessNandB,1
carpet pos,0
pc,0
Time (ms),CH1 Auto-Correlation
1.0,0.07793127000331879
2.0,0.07243676483631134
3.0,0.0672929510474205
4.0,0.0625467374920845
5.0,0.05811354145407677
6.0,0.053926412016153336
7.0,0.04996013268828392
8.0,0.046228211373090744
9.0,0.042816828936338425
10.0,0.03959118574857712
11.0,0.03658575937151909
12.0,0.0337970033288002
13.0,0.03145403787493706
14.0,0.029314091429114342
15.0,0.027264093980193138
16.0,0.02537156268954277
18.0,0.021748792380094528
20.0,0.018646221607923508
22.0,0.016327781602740288
24.0,0.014225033111870289
26.0,0.01241215318441391
28.0,0.01078343577682972
30.0,0.009566884487867355
32.0,0.008576225489377975
36.0,0.006370765157043934
40.0,0.004344014450907707
44.0,0.0032202149741351604
48.0,0.002409008564427495
52.0,0.0011581963626667857
56.0,0.00012409707414917648
60.0,-0.00015155445726122707
64.0,0.00036908104084432125
72.0,0.0017305468209087849
80.0,0.002729155123233795
88.0,0.0024605735670775175
96.0,0.0007533275056630373
104.0,0.00048268065438605845
112.0,0.0006755102076567709
120.0,0.0013815906131640077
128.0,0.0020833928138017654
144.0,0.004417398013174534
160.0,0.004128843080252409
176.0,0.0010873719584196806
192.0,-0.0007504640379920602
208.0,0.000503504415974021
224.0,0.0039308019913733006
240.0,0.0034380927681922913
256.0,0.00037723436253145337
288.0,-0.0007525743567384779
320.0,-0.0004825621726922691
352.0,-0.0010401631006971002
384.0,0.0012036572443321347
416.0,0.002165180863812566
448.0,0.0017708629602566361
480.0,0.0012542714830487967
512.0,-0.0004859355976805091
576.0,0.0009095784043893218
640.0,0.00014760240446776152
704.0,0.004454853944480419
768.0,0.0011907764710485935
832.0,-0.0017691628308966756
896.0,-0.0010135363554582
960.0,0.00039203878259286284
1024.0,0.0007891407585702837
1152.0,-0.0009298670338466763
1280.0,0.0010785036720335484
1408.0,-0.001260485383681953
1536.0,-0.0018306986894458532
1664.0,-0.0016575453337281942
1792.0,-0.00012314315245021135
1920.0,-0.00015419306873809546
2048.0,-0.0010069875279441476
2304.0,-0.0019153355387970805
2560.0,0.001646612654440105
2816.0,-0.00018692701996769756
3072.0,0.0010346333729103208
3328.0,0.0010961574735119939
3584.0,0.0007129049627110362
3840.0,0.0008304115035571158
4096.0,-0.000403609243221581
4608.0,0.00035825386294163764
5120.0,0.0005397751810960472
5632.0,-0.0004601383989211172
6144.0,0.0006109820678830147
6656.0,-8.46074385663087e-07
7168.0,-0.001994482707232237
7680.0,-0.0012035506078973413
8192.0,0.0005792429437860847
9216.0,-6.421188300009817e-05
10240.0,-0.0034349989145994186
11264.0,0.0004908088594675064
12288.0,6.458199641201645e-05
13312.0,-0.0010587444994598627
14336.0,-0.0006913677207194269
end
