version,3.0
numOfCh,1
type,point
parent_name,1000-cuts
ch_type,1_1
kcount,1
numberNandB,1
brightnessNandB,1
carpet pos,0
pc,0
Time (ms),CH1 Auto-Correlation
1.0,0.07477676123380661
2.0,0.06985773891210556
3.0,0.06529603898525238
4.0,0.061178144067525864
5.0,0.057272594422101974
6.0,0.05372787266969681
7.0,0.0504559688270092
8.0,0.04731002449989319
9.0,0.044310420751571655
10.0,0.04147866368293762
11.0,0.038838617503643036
12.0,0.03643839433789253
13.0,0.03426594287157059
14.0,0.03222136199474335
15.0,0.030140897259116173
16.0,0.02819596230983734
18.0,0.024540642276406288
20.0,0.021359311416745186
22.0,0.018702631816267967
24.0,0.016522325575351715
26.0,0.014800704084336758
28.0,0.013394261710345745
30.0,0.012430127710103989
32.0,0.011567649431526661
36.0,0.01003868319094181
40.0,0.008873212151229382
44.0,0.007664834149181843
48.0,0.006514585576951504
52.0,0.005243764724582434
56.0,0.0039468565955758095
60.0,0.0027108644135296345
64.0,0.0019400822930037975
72.0,0.0004671406641136855
80.0,-0.0005287206149660051
88.0,0.000611866416875273
96.0,0.003052732441574335
104.0,0.004118119832128286
112.0,0.003083878429606557
120.0,0.00041310820961371064
128.0,-0.0015597525052726269
144.0,-0.0013638935051858425
160.0,-0.002495833905413747
176.0,-0.0011698389425873756
192.0,-0.0004663734289351851
208.0,0.0019641227554529905
224.0,0.0022654191125184298
240.0,0.0004132016038056463
256.0,-0.0012395164230838418
288.0,-0.001473965821787715
320.0,-0.001742723397910595
352.0,-0.00154812540858984
384.0,-0.0027512835804373026
416.0,0.00030626534135080874
448.0,-0.0002003683621296659
480.0,-0.0008923624409362674
512.0,0.00039361644303426147
576.0,0.0004900201456621289
640.0,-8.327407704200596e-05
704.0,-0.0018481729784980416
768.0,-0.0011971020139753819
832.0,0.0005176484119147062
896.0,-0.003140810877084732
960.0,0.0016077723121270537
1024.0,0.0006222521769814193
1152.0,0.0007946245023049414
1280.0,0.000843775284010917
1408.0,-0.00013524794485419989
1536.0,0.00022141945373732597
1664.0,-0.0019483740907162428
1792.0,-0.0004337672144174576
1920.0,-0.002373384777456522
2048.0,7.552342140115798e-05
2304.0,0.0007783856708556414
2560.0,0.0014345234958454967
2816.0,-0.0001981091481866315
3072.0,9.41690377658233e-05
3328.0,-0.0005774439196102321
3584.0,-0.0018696726765483618
3840.0,0.001633406151086092
4096.0,-0.00026928179431706667
4608.0,-4.5391720050247386e-05
5120.0,0.00026140513364225626
5632.0,-0.0017825147369876504
6144.0,0.00014307431410998106
6656.0,-0.0012973814737051725
7168.0,0.00013526991824619472
7680.0,0.0008720136829651892
8192.0,-0.0013768114149570465
9216.0,0.000354814255842939
10240.0,0.0013099296484142542
11264.0,0.0002567483752500266
12288.0,0.0009840524289757013
13312.0,-0.0013106884434819221
14336.0,0.000137278315378353
end
