version,3.0
numOfCh,1
type,point
parent_name,1000-cuts
ch_type,1_1
kcount,1
numberNandB,1
brightnessNandB,1
carpet pos,0
pc,0
Time (ms),CH1 Auto-Correlation
1.0,0.07840755581855774
2.0,0.07324666529893875
3.0,0.06841246038675308
4.0,0.06395808607339859
5.0,0.05960904806852341
6.0,0.05546420067548752
7.0,0.05152727663516998
8.0,0.047731321305036545
9.0,0.04425333812832832
10.0,0.04098695516586304
11.0,0.03798263892531395
12.0,0.03506902605295181
13.0,0.032434653490781784
14.0,0.029931772500276566
15.0,0.027512947097420692
16.0,0.025216173380613327
18.0,0.02118178829550743
20.0,0.017931384965777397
22.0,0.015197311528027058
24.0,0.012980197556316853
26.0,0.010940092615783215
28.0,0.00895871315151453
30.0,0.0071581569500267506
32.0,0.005645131226629019
36.0,0.002948082285001874
40.0,0.0011484307469800115
44.0,0.00019761256407946348
48.0,-0.0005660849274136126
52.0,-0.0014830072177574039
56.0,-0.0022314945235848427
60.0,-0.0025999583303928375
64.0,-0.0033490131609141827
72.0,-0.004482046701014042
80.0,-0.0037638188805431128
88.0,-0.003030597697943449
96.0,-0.0026843142695724964
104.0,-0.00019128706480842084
112.0,0.0014706325018778443
120.0,0.0020967121236026287
128.0,0.0022003331687301397
144.0,0.0015050843358039856
160.0,0.004581083543598652
176.0,0.0033476597163826227
192.0,0.002505019772797823
208.0,0.003171388292685151
224.0,0.004221403505653143
240.0,0.005165144335478544
256.0,0.004476785194128752
288.0,0.0009333429043181241
320.0,-0.0004716662806458771
352.0,0.0003467827627900988
384.0,-0.0005605933838523924
416.0,-0.0005121497088111937
448.0,0.0016341861337423325
480.0,0.0022017171140760183
512.0,0.0017103165155276656
576.0,0.0008585827308706939
640.0,0.0004960225196555257
704.0,0.0004681962018366903
768.0,0.0012851948849856853
832.0,0.000412344845244661
896.0,-0.00011161783913848922
960.0,0.0007338563445955515
1024.0,0.0013690001796931028
1152.0,-0.0011586303589865565
1280.0,0.0009351478656753898
1408.0,-0.0003225782420486212
1536.0,0.0007296574185602367
1664.0,-0.00043448872747831047
1792.0,0.0006009195349179208
1920.0,-0.0016284700250253081
2048.0,0.0009217870538122952
2304.0,-1.4884750271448866e-05
2560.0,-0.0016874046996235847
2816.0,-0.0018313777400180697
3072.0,-0.00017164611199405044
3328.0,-0.0008668903028592467
3584.0,-0.001560320146381855
3840.0,-0.00019577323109842837
4096.0,0.0008766124956309795
4608.0,-0.00027772769681178033
5120.0,-0.002136770635843277
5632.0,-0.0015251339646056294
6144.0,-0.0002512277278583497
6656.0,-0.0013004207285121083
7168.0,-0.0013965684920549393
7680.0,0.00014705455396324396
8192.0,0.0028779960703104734
9216.0,0.001354910433292389
10240.0,-0.0005421716487035155
11264.0,-0.0001422847853973508
12288.0,0.001375472405925393
13312.0,-0.002213429193943739
14336.0,-0.002331771655008197
end
