version,3.0
numOfCh,1
type,point
parent_name,1000-cuts
ch_type,1_1
kcount,1
numberNandB,1
brightnessNandB,1
carpet pos,0
pc,0
Time (ms),CH1 Auto-Correlation
1.0,0.10046536475419998
2.0,0.09395474195480347
3.0,0.0877053514122963
4.0,0.08202555030584335
5.0,0.07668080180883408
6.0,0.07168441265821457
7.0,0.06710170209407806
8.0,0.062772735953331
9.0,0.05867121368646622
10.0,0.05483304336667061
11.0,0.05116303637623787
12.0,0.04792194068431854
13.0,0.04490817338228226
14.0,0.04209692031145096
15.0,0.039357464760541916
16.0,0.03664715588092804
18.0,0.0318540558218956
20.0,0.027620380744338036
22.0,0.023844607174396515
24.0,0.02044127881526947
26.0,0.017559479922056198
28.0,0.015244390815496445
30.0,0.013153966516256332
32.0,0.011159704998135567
36.0,0.008106750436127186
40.0,0.00642548268660903
44.0,0.005602414254099131
48.0,0.004913790617138147
52.0,0.004773066844791174
56.0,0.004935788922011852
60.0,0.004786524455994368
64.0,0.004340735729783773
72.0,0.002483018906787038
80.0,-0.0007007906096987426
88.0,-0.0027878519613295794
96.0,-0.005020939279347658
104.0,-0.006483224220573902
112.0,-0.006556435488164425
120.0,-0.0060274251736700535
128.0,-0.005491479765623808
144.0,-0.002399733755737543
160.0,-0.006531068589538336
176.0,-0.008639011532068253
192.0,-0.008578957058489323
208.0,-0.004990666173398495
224.0,-0.0017190981889143586
240.0,0.0017243882175534964
256.0,0.0033368458971381187
288.0,0.0031109072733670473
320.0,0.000970029563177377
352.0,0.0027655402664095163
384.0,0.002679267432540655
416.0,0.0021498410496860743
448.0,0.0022212211042642593
480.0,-0.0017632339149713516
512.0,-0.007079447153955698
576.0,-0.003965133335441351
640.0,0.0006286475108936429
704.0,0.0013096919283270836
768.0,0.0017324774526059628
832.0,-0.0018250299617648125
896.0,-0.00464501092210412
960.0,-0.0012912332313135266
1024.0,0.0010695608798414469
1152.0,0.000759909744374454
1280.0,-0.000527355819940567
1408.0,0.0014091688208281994
1536.0,0.0039551532827317715
1664.0,-0.003354721935465932
1792.0,0.0024384756106883287
1920.0,0.0018511272501200438
2048.0,-7.349211955443025e-05
2304.0,0.00101028336212039
2560.0,-0.0017772490391507745
2816.0,-0.0025418761651962996
3072.0,-0.0003168143448419869
3328.0,-0.0012089064111933112
3584.0,-0.0005698169698007405
3840.0,0.002529444405809045
4096.0,-0.00027978362049907446
4608.0,-0.0013796034036204219
5120.0,-0.0011153731029480696
5632.0,0.001511069480329752
6144.0,-0.000982000958174467
6656.0,-0.001766855944879353
7168.0,0.0006176653550937772
7680.0,0.001813132781535387
8192.0,-0.001432939199730754
9216.0,0.0016964849783107638
10240.0,-0.0010627147275954485
11264.0,0.0014248709194362164
12288.0,-0.0013895039446651936
13312.0,0.0015586121007800102
14336.0,-0.0015658141346648335
end
