version,3.0
numOfCh,1
type,point
parent_name,1000-cuts
ch_type,1_1
kcount,1
numberNandB,1
brightnessNandB,1
carpet pos,0
pc,0
Time (ms),CH1 Auto-Correlation
1.0,0.07051403820514679
2.0,0.06571051478385925
3.0,0.06119470298290253
4.0,0.057071786373853683
5.0,0.05318605154752731
6.0,0.049651339650154114
7.0,0.04637601971626282
8.0,0.04339314252138138
9.0,0.040564484894275665
10.0,0.03796292468905449
11.0,0.03566209599375725
12.0,0.033518411219120026
13.0,0.031474120914936066
14.0,0.02963956445455551
15.0,0.02785477228462696
16.0,0.026109125465154648
18.0,0.022591542452573776
20.0,0.019462311640381813
22.0,0.0164321456104517
24.0,0.01370264682918787
26.0,0.011268160305917263
28.0,0.009066577069461346
30.0,0.007407487370073795
32.0,0.005991938058286905
36.0,0.0038423342630267143
40.0,0.0025439199525862932
44.0,0.0016556938644498587
48.0,0.0013728203484788537
52.0,0.001859971322119236
56.0,0.0018538831500336528
60.0,0.0022462608758360147
64.0,0.0026000055950134993
72.0,0.0026924414560198784
80.0,0.0030284742824733257
88.0,0.002301045460626483
96.0,0.001128353294916451
104.0,0.00028457038570195436
112.0,-0.0002925946027971804
120.0,-0.00036806368734687567
128.0,-0.00030395822250284255
144.0,0.0008027684525586665
160.0,0.0018160989275202155
176.0,0.0021279514767229557
192.0,0.0006218795897439122
208.0,5.6062504881992936e-05
224.0,-0.0014680055901408195
240.0,-0.0016140977386385202
256.0,-0.001090159290470183
288.0,0.0016009865794330835
320.0,0.002457700204104185
352.0,0.0003613684675656259
384.0,-0.001292663742788136
416.0,-0.0039682695642113686
448.0,-0.004597267601639032
480.0,-0.005447208881378174
512.0,-0.004217558540403843
576.0,-0.0026108648162335157
640.0,-6.125005165813491e-05
704.0,-6.402647704817355e-05
768.0,-0.0017774512525647879
832.0,0.0017127810278907418
896.0,-0.00046291519538499415
960.0,0.0028852748218923807
1024.0,-0.0006132989074103534
1152.0,-0.002162760589271784
1280.0,-0.0018707618582993746
1408.0,-0.0015252752928063273
1536.0,-5.664936907123774e-05
1664.0,-0.00040885916678234935
1792.0,0.00013216701336205006
1920.0,0.0009402043069712818
2048.0,0.00027869397308677435
2304.0,0.0004395123105496168
2560.0,-0.0011404633987694979
2816.0,0.0006719545344822109
3072.0,0.00044717133278027177
3328.0,-0.0004357409488875419
3584.0,0.0004919749335385859
3840.0,0.0003284848644398153
4096.0,-2.0859608412138186e-05
4608.0,-0.0003005347680300474
5120.0,-0.00016712750948499888
5632.0,0.00026944081764668226
6144.0,-0.00048343196976929903
6656.0,0.0002533709048293531
7168.0,0.00025591571466065943
7680.0,0.0011890610912814736
8192.0,-0.0005466059083119035
9216.0,-0.0002458663657307625
10240.0,0.00032311773975379765
11264.0,0.0002939134428743273
12288.0,-0.0006692937458865345
13312.0,0.0009276687633246183
14336.0,0.0003695397754199803
end
