version,3.0
numOfCh,1
type,point
parent_name,1000-cuts
ch_type,1_1
kcount,1
numberNandB,1
brightnessNandB,1
carpet pos,0
pc,0
Time (ms),CH1 Auto-Correlation
1.0,0.06346908956766129
2.0,0.0589786022901535
3.0,0.054802995175123215
4.0,0.05076085403561592
5.0,0.04692907631397247
6.0,0.04338274523615837
7.0,0.040022317320108414
8.0,0.03705856204032898
9.0,0.03438730537891388
10.0,0.03188792243599892
11.0,0.029499467462301254
12.0,0.027103684842586517
13.0,0.025106312707066536
14.0,0.02313048765063286
15.0,0.021371254697442055
16.0,0.01951693184673786
18.0,0.016341475769877434
20.0,0.013805408030748367
22.0,0.011806497350335121
24.0,0.010259175673127174
26.0,0.009085550904273987
28.0,0.0082343565300107
30.0,0.007631598971784115
32.0,0.007186997681856155
36.0,0.006443439517170191
40.0,0.005840488243848085
44.0,0.00505304429680109
48.0,0.004427971784025431
52.0,0.004310924094170332
56.0,0.004370657727122307
60.0,0.0042573739774525166
64.0,0.003974050749093294
72.0,0.002523586852476001
80.0,0.0015553174307569861
88.0,0.0012676012702286243
96.0,0.0008212038083001971
104.0,7.319196447497234e-05
112.0,0.000774743442889303
120.0,0.0015503811882808805
128.0,0.0031347819603979588
144.0,0.0031097871251404285
160.0,0.002913679927587509
176.0,0.000783828494604677
192.0,-0.0022938011679798365
208.0,-0.0009151825215667486
224.0,0.0007096192566677928
240.0,0.0010671543423086405
256.0,0.0022283352445811033
288.0,-2.138629679393489e-05
320.0,0.0015205472009256482
352.0,0.0019001300679519773
384.0,0.0016011045081540942
416.0,5.2372386562637985e-05
448.0,-0.0017299625324085355
480.0,-0.0016256686067208648
512.0,-0.00018559774616733193
576.0,-0.0029996903613209724
640.0,-0.00045376975322142243
704.0,-0.003985071089118719
768.0,-9.018396667670459e-05
832.0,0.0011595886899158359
896.0,-0.0009257610072381794
960.0,0.0019217155640944839
1024.0,0.0009078711736947298
1152.0,0.0017004699911922216
1280.0,0.0004773283435497433
1408.0,-0.0014808611012995243
1536.0,-0.00040945480577647686
1664.0,-0.0005793808959424496
1792.0,-0.0004939427017234266
1920.0,0.00040746014565229416
2048.0,-0.00012340319517534226
2304.0,-0.0018705521943047643
2560.0,-0.0009412711369805038
2816.0,0.0012173674767836928
3072.0,0.00166807952336967
3328.0,0.00016553061141166836
3584.0,-0.00012391932250466198
3840.0,0.0009309941669926047
4096.0,0.00047103859833441675
4608.0,-0.002152752596884966
5120.0,0.0006203383672982454
5632.0,-0.002402552170678973
6144.0,0.0013493308797478676
6656.0,8.445198909612373e-05
7168.0,-4.668673500418663e-05
7680.0,0.0007599979871883988
8192.0,-0.0017593568190932274
9216.0,-0.0005189638468436897
10240.0,0.0003762671258300543
11264.0,-6.5577682107687e-05
12288.0,8.111219358397648e-05
13312.0,-0.00047877710312604904
14336.0,0.00040236723725683987
end
