version,3.0
numOfCh,1
type,point
parent_name,1000-cuts
ch_type,1_1
kcount,1
numberNandB,1
brightnessNandB,1
carpet pos,0
pc,0
Time (ms),CH1 Auto-Correlation
1.0,0.08413875102996826
2.0,0.07838250696659088
3.0,0.07308834791183472
4.0,0.06805666536092758
5.0,0.06332184374332428
6.0,0.05889815464615822
7.0,0.05489938333630562
8.0,0.051153846085071564
9.0,0.04753193259239197
10.0,0.044124167412519455
11.0,0.040940940380096436
12.0,0.037942878901958466
13.0,0.035131774842739105
14.0,0.03256053104996681
15.0,0.030301649123430252
16.0,0.028199458494782448
18.0,0.02454415336251259
20.0,0.02122887596487999
22.0,0.018167342990636826
24.0,0.015403871424496174
26.0,0.012713582254946232
28.0,0.010430507361888885
30.0,0.008812583982944489
32.0,0.007585462182760239
36.0,0.00621322076767683
40.0,0.005245582200586796
44.0,0.004254884086549282
48.0,0.0034492192789912224
52.0,0.003313880879431963
56.0,0.003706285497173667
60.0,0.004036626312881708
64.0,0.003780932631343603
72.0,0.0023977067321538925
80.0,0.0003332527121528983
88.0,-0.0010860785841941833
96.0,-0.0027199797332286835
104.0,-0.0037332265637815
112.0,-0.003235424868762493
120.0,-0.0017965269507840276
128.0,-0.0017616034019738436
144.0,-0.0005136580439284444
160.0,-0.0005534780793823302
176.0,0.00035459548234939575
192.0,0.004159973002970219
208.0,0.004823992028832436
224.0,0.0011603232705965638
240.0,0.001706509618088603
256.0,0.0011344790691509843
288.0,0.0034098345786333084
320.0,0.0007388879894278944
352.0,0.001048276200890541
384.0,0.0006544165662489831
416.0,0.00029493769397959113
448.0,-0.0006912254029884934
480.0,0.002661694074049592
512.0,0.005971523933112621
576.0,0.0033067006152123213
640.0,-0.0005725680384784937
704.0,0.0019260835833847523
768.0,-0.0007179914973676205
832.0,-0.0029519451782107353
896.0,0.0009607608080841601
960.0,7.785346679156646e-05
1024.0,-0.0011164781171828508
1152.0,-0.0005838836077600718
1280.0,-0.0015515421982854605
1408.0,-0.0033938423730432987
1536.0,-0.0022511372808367014
1664.0,0.00029570009792223573
1792.0,-0.0028977927286177874
1920.0,-0.0027140737511217594
2048.0,0.0014917735243216157
2304.0,-0.000559536274522543
2560.0,0.0014805860118940473
2816.0,0.00032360447221435606
3072.0,0.0004413234128151089
3328.0,0.0005058485548943281
3584.0,-0.0005873168702237308
3840.0,-0.0005792586598545313
4096.0,-0.00022820895537734032
4608.0,-0.0007084563258104026
5120.0,-0.0006153325666673481
5632.0,-0.002134963171556592
6144.0,-0.0002068813337245956
6656.0,0.0007870926638133824
7168.0,0.0019348305650055408
7680.0,0.0012415299424901605
8192.0,-7.708331395406276e-05
9216.0,8.073789649643004e-05
10240.0,-0.001087266718968749
11264.0,0.0020818214397877455
12288.0,-0.003494926728308201
13312.0,-0.0031259963288903236
14336.0,0.0039620716124773026
end
