version,3.0
numOfCh,1
type,point
parent_name,1000-cuts
ch_type,1_1
kcount,1
numberNandB,1
brightnessNandB,1
carpet pos,0
pc,0
Time (ms),CH1 Auto-Correlation
1.0,0.02666531689465046
2.0,0.024889225140213966
3.0,0.023225413635373116
4.0,0.02162608690559864
5.0,0.02020219713449478
6.0,0.018874136731028557
7.0,0.01763511262834072
8.0,0.01651967689394951
9.0,0.015506312251091003
10.0,0.014573299326002598
11.0,0.013709464110434055
12.0,0.012862924486398697
13.0,0.012047634460031986
14.0,0.011291783303022385
15.0,0.010581725277006626
16.0,0.009949733503162861
18.0,0.008757064118981361
20.0,0.00771337328478694
22.0,0.0067627872340381145
24.0,0.005755563732236624
26.0,0.004727974999696016
28.0,0.003812507027760148
30.0,0.003037935821339488
32.0,0.0023447060957551003
36.0,0.0013262091670185328
40.0,0.00042942166328430176
44.0,-0.00033887382596731186
48.0,-0.0007229786715470254
52.0,-0.001018031733110547
56.0,-0.0012950925156474113
60.0,-0.0013352823443710804
64.0,-0.0011630560038611293
72.0,-0.0011952867498621345
80.0,-0.0012671668082475662
88.0,-0.0009355318616144359
96.0,-0.0006466378108598292
104.0,5.054110715718707e-06
112.0,0.0004445431986823678
120.0,0.00044141808757558465
128.0,0.0004619568644557148
144.0,-0.00012565399811137468
160.0,0.00019790213264059275
176.0,0.0004198196402285248
192.0,0.00025799512513913214
208.0,-0.0010492131114006042
224.0,-0.002324830973520875
240.0,-0.0025141937658190727
256.0,-0.0009462429443374276
288.0,0.001620401395484805
320.0,0.0006557725137099624
352.0,-2.0972449419787154e-05
384.0,-0.0010058048646897078
416.0,-0.0008413486648350954
448.0,-0.0006046257331036031
480.0,0.0003716551582328975
512.0,-0.00044571678154170513
576.0,-0.00029060139786452055
640.0,0.00069256970891729
704.0,8.409943256992847e-05
768.0,0.0002587710041552782
832.0,-0.00046614150051027536
896.0,6.672931340290233e-05
960.0,-0.00034596488694660366
1024.0,-0.00030652584973722696
1152.0,-0.00024270795984193683
1280.0,0.000446725869551301
1408.0,-0.00017857362399809062
1536.0,0.0003920214076060802
1664.0,0.0005561922444030643
1792.0,0.001275464310310781
1920.0,-0.0003373382205609232
2048.0,-0.0002924305445048958
2304.0,-0.0005604990292340517
2560.0,0.00017137863324023783
2816.0,0.00015817310486454517
3072.0,-0.00016882452473510057
3328.0,-0.0002530061174184084
3584.0,0.0008912355988286436
3840.0,-0.0008490586769767106
4096.0,-0.00047586995060555637
4608.0,8.135543794196565e-07
5120.0,0.00017184170428663492
5632.0,-0.00014554343943018466
6144.0,-6.586687959497795e-05
6656.0,0.0001881393400253728
7168.0,-7.223556895041838e-05
7680.0,-0.00025342838489450514
8192.0,-6.080758248572238e-05
9216.0,-0.00035382190253585577
10240.0,-0.00015681423246860504
11264.0,4.685781095759012e-05
12288.0,0.0003021843731403351
13312.0,0.0003008971398230642
14336.0,0.0001278537092730403
end
