version,3.0
numOfCh,1
type,point
parent_name,1000-cuts
ch_type,1_1
kcount,1
numberNandB,1
brightnessNandB,1
carpet pos,0
pc,0
Time (ms),CH1 Auto-Correlation
1.0,0.05834169313311577
2.0,0.054302893579006195
3.0,0.05056072399020195
4.0,0.04707730561494827
5.0,0.04375312477350235
6.0,0.04052675515413284
7.0,0.03748081997036934
8.0,0.03469476476311684
9.0,0.032115381211042404
10.0,0.029731692746281624
11.0,0.027625616639852524
12.0,0.025608841329813004
13.0,0.023695100098848343
14.0,0.021941838786005974
15.0,0.020300310105085373
16.0,0.01881040260195732
18.0,0.016215752810239792
20.0,0.014156137593090534
22.0,0.012632124125957489
24.0,0.01141757145524025
26.0,0.01041635125875473
28.0,0.009627087041735649
30.0,0.00899566151201725
32.0,0.00815173052251339
36.0,0.006310128141194582
40.0,0.0044825817458331585
44.0,0.0027628890238702297
48.0,0.0016169254668056965
52.0,0.000868020870257169
56.0,0.0004597115330398083
60.0,0.00010028023098129779
64.0,-0.000429504580097273
72.0,-0.0005862932302989066
80.0,-0.0011274580610916018
88.0,-0.000946690037380904
96.0,-0.0004258615372236818
104.0,-1.2168631656095386e-05
112.0,0.0005914611974731088
120.0,0.0013467555399984121
128.0,0.0015742728719487786
144.0,0.0015237777261063457
160.0,0.0011495122453197837
176.0,0.0005256328149698675
192.0,0.0009106267825700343
208.0,0.0031636811327189207
224.0,0.0022198434453457594
240.0,-0.0003103722119703889
256.0,-0.0020849506836384535
288.0,-0.002049802104011178
320.0,0.0006222467054612935
352.0,0.0008675653371028602
384.0,0.0005640420713461936
416.0,-0.0010870650876313448
448.0,-0.0012769571039825678
480.0,-0.0052068596705794334
512.0,-0.0027898470871150494
576.0,-0.0013883220963180065
640.0,-3.19759565172717e-05
704.0,0.0007322142482735217
768.0,-0.0011970459017902613
832.0,0.0006840894347988069
896.0,0.0001595205976627767
960.0,-0.0013805963099002838
1024.0,0.0006682273233309388
1152.0,-0.00042747726547531784
1280.0,-0.000217527718632482
1408.0,0.0002448733721394092
1536.0,-0.00011918538075406104
1664.0,-0.0004448821709956974
1792.0,-0.001826586085371673
1920.0,-0.0011913295602425933
2048.0,-0.00022585512488149107
2304.0,0.0014023418771103024
2560.0,-0.0007225534645840526
2816.0,0.0004304687608964741
3072.0,-0.0003113503335043788
3328.0,-1.6775671610957943e-05
3584.0,-4.3974701839033514e-05
3840.0,-0.0005473998608067632
4096.0,0.00048054926446639
4608.0,-0.0003866232873406261
5120.0,0.00017256842693313956
5632.0,0.0006188403349369764
6144.0,-0.0003682061214931309
6656.0,-0.0009442506125196815
7168.0,2.7988840884063393e-05
7680.0,0.0004295448597986251
8192.0,-0.001193017465993762
9216.0,0.00038990029133856297
10240.0,0.00024944328470155597
11264.0,0.0004325033805798739
12288.0,-0.0008926172740757465
13312.0,-0.0004965632106177509
14336.0,0.0016828244552016258
end
