version,3.0
numOfCh,1
type,point
parent_name,1000-cuts
ch_type,1_1
kcount,1
numberNandB,1
brightnessNandB,1
carpet pos,0
pc,0
Time (ms),CH1 Auto-Correlation
1.0,0.04190436005592346
2.0,0.039071738719940186
3.0,0.036474864929914474
4.0,0.034000180661678314
5.0,0.03161691501736641
6.0,0.02937842346727848
7.0,0.027321957051753998
8.0,0.025391120463609695
9.0,0.02354680933058262
10.0,0.02180204540491104
11.0,0.02015168033540249
12.0,0.018708519637584686
13.0,0.0173802487552166
14.0,0.016184337437152863
15.0,0.015116926282644272
16.0,0.014099170453846455
18.0,0.012241315096616745
20.0,0.010771924629807472
22.0,0.009480999782681465
24.0,0.008281858637928963
26.0,0.007296082563698292
28.0,0.006495452485978603
30.0,0.005942169111222029
32.0,0.005524409003555775
36.0,0.004745811689645052
40.0,0.0041746399365365505
44.0,0.0034036433789879084
48.0,0.0024336425121873617
52.0,0.0016203435370698571
56.0,0.0009620788623578846
60.0,0.0004536188207566738
64.0,0.00015733223699498922
72.0,-0.0004395837022457272
80.0,-0.0009494756232015789
88.0,-0.0009222456137649715
96.0,-0.0006961053004488349
104.0,-0.0007631894550286233
112.0,-0.0007788498187437654
120.0,-0.0002271460834890604
128.0,-9.359601972391829e-05
144.0,-0.0002011421456700191
160.0,0.0005563329323194921
176.0,4.9986674639512785e-06
192.0,-0.00040862555033527315
208.0,0.0004041497886646539
224.0,0.000673687900416553
240.0,0.00026316833100281656
256.0,0.0002742100041359663
288.0,0.0010939899366348982
320.0,-9.345846774522215e-05
352.0,-0.0011903430568054318
384.0,-0.003077068366110325
416.0,-0.0007186697912402451
448.0,0.0019274671794846654
480.0,0.001635401276871562
512.0,0.0002375114127062261
576.0,0.00017699558520689607
640.0,-0.0005888236919417977
704.0,-0.0009342556004412472
768.0,0.0008686712826602161
832.0,0.00034393960959278047
896.0,-0.0015301480889320374
960.0,-0.00047490911674685776
1024.0,-0.00019671660265885293
1152.0,0.0005972460494376719
1280.0,-0.001011171960271895
1408.0,0.00023660963051952422
1536.0,-0.0007133035105653107
1664.0,-0.0007764753536321223
1792.0,-0.00037018710281699896
1920.0,0.0003690925950650126
2048.0,0.001114554237574339
2304.0,0.00033320978400297463
2560.0,-0.00031806284096091986
2816.0,-0.000647157256025821
3072.0,8.744940714677796e-05
3328.0,0.0003527278604451567
3584.0,6.620407657464966e-05
3840.0,0.0010590944439172745
4096.0,1.308161245106021e-05
4608.0,0.0006666941335424781
5120.0,-0.0006981405313126743
5632.0,-0.00038686947664245963
6144.0,-0.0005087921163067222
6656.0,0.0010394020937383175
7168.0,-7.977641507750377e-05
7680.0,7.985426782397553e-05
8192.0,-0.0004206583253107965
9216.0,-0.0003358602989464998
10240.0,-2.3512788175139576e-05
11264.0,-8.260725007858127e-05
12288.0,-0.0006190752610564232
13312.0,-0.00027267244877293706
14336.0,-9.550172399030998e-05
end
