version,3.0
numOfCh,1
type,point
parent_name,1000-cuts
ch_type,1_1
kcount,1
numberNandB,1
brightnessNandB,1
carpet pos,0
pc,0
Time (ms),CH1 Auto-Correlation
1.0,0.02889973856508732
2.0,0.026885930448770523
3.0,0.024990394711494446
4.0,0.023226963356137276
5.0,0.021632904186844826
6.0,0.02013425901532173
7.0,0.018748506903648376
8.0,0.017459092661738396
9.0,0.016208888962864876
10.0,0.014978090301156044
11.0,0.013835528865456581
12.0,0.01277037151157856
13.0,0.011803137138485909
14.0,0.01090724766254425
15.0,0.010167943313717842
16.0,0.009439499117434025
18.0,0.008184782229363918
20.0,0.007142112590372562
22.0,0.006366807967424393
24.0,0.0058002350851893425
26.0,0.005381194408982992
28.0,0.0050629605539143085
30.0,0.004821685142815113
32.0,0.004411698784679174
36.0,0.0035429424606263638
40.0,0.003193831769749522
44.0,0.003086965996772051
48.0,0.0030192916747182608
52.0,0.0029168003238737583
56.0,0.0028946532402187586
60.0,0.0027481126599013805
64.0,0.0024892326910048723
72.0,0.0019388445653021336
80.0,0.0015042570885270834
88.0,0.0011484258575364947
96.0,0.0007613098132424057
104.0,0.0007480991189368069
112.0,0.0010508488630875945
120.0,0.001071612467058003
128.0,0.00101137300953269
144.0,0.0009974469430744648
160.0,0.0009412034996785223
176.0,0.0004242069262545556
192.0,9.050202061189339e-05
208.0,-0.000538707128725946
224.0,-0.0010111541487276554
240.0,-0.0009003955638036132
256.0,-0.00029844805249013007
288.0,-0.0012446914333850145
320.0,-0.0005549818743020296
352.0,0.0007334905094467103
384.0,0.00010017233580583706
416.0,-6.198912160471082e-05
448.0,5.53199861315079e-05
480.0,0.0013190159806981683
512.0,0.000883245375007391
576.0,0.0012559333117678761
640.0,0.0003859885619021952
704.0,0.0003646288241725415
768.0,0.001292742439545691
832.0,-0.000525723968166858
896.0,0.0003444291651248932
960.0,-0.0009567815577611327
1024.0,-0.0013782180612906814
1152.0,-0.0008207857026718557
1280.0,-9.930506348609924e-05
1408.0,-5.8400164562044665e-06
1536.0,-0.00032314466079697013
1664.0,-6.885935727041215e-05
1792.0,0.0009281038073822856
1920.0,-0.000520543020684272
2048.0,-0.0002457886002957821
2304.0,-0.00033632066333666444
2560.0,-0.0002305131929460913
2816.0,-0.0007490997086279094
3072.0,-0.0005811845185235143
3328.0,-0.0009338950039818883
3584.0,0.0004412795533426106
3840.0,3.14096687361598e-05
4096.0,0.00032098806696012616
4608.0,0.00021543935872614384
5120.0,-0.00017632330127526075
5632.0,-0.00015887933841440827
6144.0,-0.0006764829740859568
6656.0,-0.00010814356210175902
7168.0,0.0003707284922711551
7680.0,0.0003769528411794454
8192.0,0.0001815025316318497
9216.0,1.3742698683927301e-05
10240.0,-0.0005930936895310879
11264.0,-0.0002973049122374505
12288.0,0.0008775594178587198
13312.0,2.78075021924451e-05
14336.0,6.690287409583107e-05
end
