version,3.0
numOfCh,1
type,point
parent_name,1000-cuts
ch_type,1_1
kcount,1
numberNandB,1
brightnessNandB,1
carpet pos,0
pc,0
Time (ms),CH1 Auto-Correlation
1.0,0.05645506829023361
2.0,0.05239470303058624
3.0,0.04864538460969925
4.0,0.04525831341743469
5.0,0.04208887368440628
6.0,0.03897999972105026
7.0,0.03605382889509201
8.0,0.03330739587545395
9.0,0.030741555616259575
10.0,0.028475293889641762
11.0,0.026244351640343666
12.0,0.024173010140657425
13.0,0.022300640121102333
14.0,0.02061694674193859
15.0,0.018965760245919228
16.0,0.017404446378350258
18.0,0.014534576795995235
20.0,0.012065892107784748
22.0,0.010249693877995014
24.0,0.008700031787157059
26.0,0.007525203749537468
28.0,0.006572944112122059
30.0,0.005780212115496397
32.0,0.005345179233700037
36.0,0.004422678146511316
40.0,0.003143875626847148
44.0,0.0024923207238316536
48.0,0.0022799759171903133
52.0,0.0015912012895569205
56.0,0.0009490489028394222
60.0,0.00025051264674402773
64.0,-0.00024519267026335
72.0,-6.711002060910687e-05
80.0,0.00010459769691806287
88.0,-0.0005507819587364793
96.0,-0.001285393605940044
104.0,-0.0016044736839830875
112.0,-0.001539536751806736
120.0,-0.0007993624894879758
128.0,-0.001015724497847259
144.0,-0.002665264531970024
160.0,-0.0008882029796950519
176.0,-6.374008535203757e-06
192.0,-0.0024097429122775793
208.0,-0.0008101532584987581
224.0,-8.102574611257296e-06
240.0,-0.0017329766415059566
256.0,-0.0017120211850851774
288.0,-0.0004712143272627145
320.0,-0.0009894019458442926
352.0,-0.0006639605271629989
384.0,0.0013104217359796166
416.0,-0.0002961688442155719
448.0,-0.0011025062995031476
480.0,-0.001452970551326871
512.0,-0.0007205738802440464
576.0,0.0007152379839681089
640.0,-0.0005053221830166876
704.0,0.0011860574595630169
768.0,0.0007599758100695908
832.0,-0.0003674569015856832
896.0,-0.0011964788427576423
960.0,0.0009719791123643517
1024.0,-0.0006028310745023191
1152.0,0.0011892124311998487
1280.0,0.0014949068427085876
1408.0,-0.001036692876368761
1536.0,0.00013054750161245465
1664.0,-0.0022667692974209785
1792.0,-0.00029364757938310504
1920.0,0.00044580179383046925
2048.0,-0.0005087442696094513
2304.0,-0.0006200733478181064
2560.0,5.207074718782678e-05
2816.0,-0.0005965348682366312
3072.0,3.9434504287783056e-05
3328.0,0.0004316186241339892
3584.0,-0.0003353313368279487
3840.0,0.0009280192316509783
4096.0,-0.00010038130858447403
4608.0,2.9382437787717208e-05
5120.0,0.00034592117299325764
5632.0,-0.00020878075156360865
6144.0,-0.00033786939457058907
6656.0,-0.0005204215412959456
7168.0,-0.0008302731439471245
7680.0,-0.0005162076558917761
8192.0,0.00042520230636000633
9216.0,0.00010844838107004762
10240.0,2.120563294738531e-05
11264.0,-0.0006986477528698742
12288.0,7.022793579380959e-05
13312.0,0.00038470179424621165
14336.0,8.97035060916096e-05
end
