version,3.0
numOfCh,1
type,point
parent_name,1000-cuts
ch_type,1_1
kcount,1
numberNandB,1
brightnessNandB,1
carpet pos,0
pc,0
Time (ms),CH1 Auto-Correlation
1.0,0.06677666306495667
2.0,0.06220368668437004
3.0,0.058003056794404984
4.0,0.05396970734000206
5.0,0.05016859248280525
6.0,0.04676148295402527
7.0,0.04360124468803406
8.0,0.040712691843509674
9.0,0.03804435580968857
10.0,0.035593513399362564
11.0,0.033300623297691345
12.0,0.03120686113834381
13.0,0.02919027954339981
14.0,0.02736664190888405
15.0,0.025498487055301666
16.0,0.02384197525680065
18.0,0.020681556314229965
20.0,0.01795605756342411
22.0,0.015526151284575462
24.0,0.013415511697530746
26.0,0.011503221467137337
28.0,0.009998288005590439
30.0,0.00886890571564436
32.0,0.007692460436373949
36.0,0.005814474541693926
40.0,0.004594047088176012
44.0,0.004253967199474573
48.0,0.00413169153034687
52.0,0.0038437952753156424
56.0,0.0035540086682885885
60.0,0.003094716230407357
64.0,0.0027182050980627537
72.0,0.001701572211459279
80.0,-1.4573704902431928e-05
88.0,-0.001740319887176156
96.0,-0.0015136515721678734
104.0,-0.00026808265829458833
112.0,0.0009915769333019853
120.0,0.0014948672614991665
128.0,0.0020845457911491394
144.0,0.0008219599258154631
160.0,-0.0001262228179257363
176.0,-0.0010976959019899368
192.0,-0.00050399883184582
208.0,0.0006802675197832286
224.0,0.0004322994500398636
240.0,-0.0009495904669165611
256.0,-0.00246822414919734
288.0,-0.001919232658110559
320.0,1.6735468307160772e-05
352.0,0.0002510489139240235
384.0,0.0005879440577700734
416.0,-0.00021766760619357228
448.0,0.00021103027393110096
480.0,0.003508959198370576
512.0,0.0026240453589707613
576.0,0.0009355604997836053
640.0,-0.00048587089986540377
704.0,0.0005443350528366864
768.0,-0.0013964636018499732
832.0,0.0008588493219576776
896.0,-0.0014310016995295882
960.0,0.00011465894931461662
1024.0,-0.001324885175563395
1152.0,-0.0026704091578722
1280.0,-0.001923208823427558
1408.0,-0.001071455655619502
1536.0,-0.0018315725028514862
1664.0,-0.0012802942655980587
1792.0,0.0007368331425823271
1920.0,0.0017214452382177114
2048.0,-0.0006005085888318717
2304.0,0.0012173724826425314
2560.0,-0.00020946553559042513
2816.0,-0.00030756043270230293
3072.0,-0.0007348186336457729
3328.0,-0.00029447046108543873
3584.0,-0.0021121895406395197
3840.0,0.0003247296845074743
4096.0,0.0005880031967535615
4608.0,4.092109884368256e-05
5120.0,-0.00012289326696190983
5632.0,0.00042706530075520277
6144.0,0.0004562624963000417
6656.0,0.0009270536247640848
7168.0,0.00031819086871109903
7680.0,-0.0008991395006887615
8192.0,-0.0006720612873323262
9216.0,-6.737557123415172e-05
10240.0,0.0004242252034600824
11264.0,-0.0006768310558982193
12288.0,0.0002005281567107886
13312.0,-0.00012668641284108162
14336.0,-0.00020352270803414285
end
