version,3.0
numOfCh,1
type,point
parent_name,1000-cuts
ch_type,1_1
kcount,1
numberNandB,1
brightnessNandB,1
carpet pos,0
pc,0
Time (ms),CH1 Auto-Correlation
1.0,0.06063593178987503
2.0,0.05630896985530853
3.0,0.05224845930933952
4.0,0.04841356351971626
5.0,0.04490428790450096
6.0,0.04157831892371178
7.0,0.038571301847696304
8.0,0.035844963043928146
9.0,0.03322133794426918
10.0,0.030772607773542404
11.0,0.0284749623388052
12.0,0.026539543643593788
13.0,0.02487308904528618
14.0,0.023328546434640884
15.0,0.0218612439930439
16.0,0.0205678828060627
18.0,0.018139567226171494
20.0,0.016037074849009514
22.0,0.013916321098804474
24.0,0.011640031822025776
26.0,0.00946218241006136
28.0,0.007670017424970865
30.0,0.006142344791442156
32.0,0.004927000496536493
36.0,0.002773205516859889
40.0,0.0011665583588182926
44.0,0.0004722431185655296
48.0,5.898584640817717e-05
52.0,-0.00010824856872204691
56.0,3.919624941772781e-05
60.0,-0.00042996203410439193
64.0,-0.0002707901003304869
72.0,-0.00033464099396951497
80.0,-0.00016030063852667809
88.0,0.0007811309769749641
96.0,0.001199362799525261
104.0,0.0023533080238848925
112.0,0.0037008158396929502
120.0,0.003726421855390072
128.0,0.0035522941034287214
144.0,0.001720487605780363
160.0,0.000777193927206099
176.0,0.0005793260643258691
192.0,0.0002913737262133509
208.0,-0.0005835924530401826
224.0,-0.001698533073067665
240.0,-0.0021685059182345867
256.0,-0.0013489032862707973
288.0,-0.002692317822948098
320.0,-0.0016907673561945558
352.0,-0.002879402134567499
384.0,-0.001278500072658062
416.0,-0.001216030796058476
448.0,-0.00038889169809408486
480.0,0.0008009469602257013
512.0,0.0021296634804457426
576.0,0.0014600764261558652
640.0,0.0028104365337640047
704.0,0.002209623111411929
768.0,0.001801606034860015
832.0,0.0007030968554317951
896.0,-0.002280586864799261
960.0,-0.004407999571412802
1024.0,-0.00025938908220268786
1152.0,-0.0006278807413764298
1280.0,5.1179715228499845e-05
1408.0,9.763750858837739e-05
1536.0,-0.001305145095102489
1664.0,-0.0021506694611161947
1792.0,-0.00015334207273554057
1920.0,0.0026184874586760998
2048.0,0.0021095555275678635
2304.0,0.0005123979062773287
2560.0,0.0005164999165572226
2816.0,0.0009708961006253958
3072.0,-0.00030932435765862465
3328.0,-0.0014340884517878294
3584.0,-0.0006547824013978243
3840.0,0.00030605916981585324
4096.0,-0.0005207525682635605
4608.0,0.00016950677672866732
5120.0,0.0004017599276266992
5632.0,-0.00047089686268009245
6144.0,-0.0007880076300352812
6656.0,-0.0009191249846480787
7168.0,0.0009387729805894196
7680.0,-7.43921336834319e-05
8192.0,-0.0012447463814169168
9216.0,-0.00018714020552579314
10240.0,-0.00015224958769977093
11264.0,0.0003625217650551349
12288.0,0.0002217322471551597
13312.0,-0.0015051639638841152
14336.0,-0.002051138086244464
end
