version,3.0
numOfCh,1
type,point
parent_name,1000-cuts
ch_type,1_1
kcount,1
numberNandB,1
brightnessNandB,1
carpet pos,0
pc,0
Time (ms),CH1 Auto-Correlation
1.0,0.1071251779794693
2.0,0.09982121735811234
3.0,0.09279005229473114
4.0,0.0859895572066307
5.0,0.07980281114578247
6.0,0.07416506856679916
7.0,0.06906120479106903
8.0,0.06409485638141632
9.0,0.05970164015889168
10.0,0.05543556436896324
11.0,0.0512232705950737
12.0,0.047419026494026184
13.0,0.04390227794647217
14.0,0.04076169431209564
15.0,0.03801572322845459
16.0,0.035639986395835876
18.0,0.0312354676425457
20.0,0.027426978573203087
22.0,0.023962322622537613
24.0,0.020882733166217804
26.0,0.018471302464604378
28.0,0.016701487824320793
30.0,0.0151388393715024
32.0,0.013916153460741043
36.0,0.011177432723343372
40.0,0.009617838077247143
44.0,0.007897729054093361
48.0,0.00552979065105319
52.0,0.0034431482199579477
56.0,0.002211511367931962
60.0,0.0011307781096547842
64.0,-0.0001923026575241238
72.0,-0.002557489788159728
80.0,-0.003474822035059333
88.0,-0.005128747317939997
96.0,-0.0069993725046515465
104.0,-0.00665877154096961
112.0,-0.005361402872949839
120.0,-0.004203725140541792
128.0,-0.0022070857230573893
144.0,-0.0017006315756589174
160.0,-0.001082730945199728
176.0,0.0006844595773145556
192.0,0.0006925753550603986
208.0,0.005461548455059528
224.0,0.004900067113339901
240.0,0.0023692052345722914
256.0,0.004773521795868874
288.0,0.0029363250359892845
320.0,0.0002428738516755402
352.0,0.0029419853817671537
384.0,-0.00017230113735422492
416.0,0.0010174281196668744
448.0,-0.0008970013004727662
480.0,0.0003928229270968586
512.0,-0.0066566974855959415
576.0,0.0009924083715304732
640.0,0.00023599460837431252
704.0,-0.0007477281033061445
768.0,-0.005553393624722958
832.0,-0.0007481949287466705
896.0,0.000172208427102305
960.0,-0.0011129408376291394
1024.0,-0.0034970776177942753
1152.0,-0.0025264283176511526
1280.0,0.000646627857349813
1408.0,-0.0010886266827583313
1536.0,0.002322590909898281
1664.0,-0.0018762015970423818
1792.0,0.0010717440163716674
1920.0,0.0016880290349945426
2048.0,-0.0005123717710375786
2304.0,-0.0016290645580738783
2560.0,-0.0017145731253549457
2816.0,-0.000972521083895117
3072.0,0.0014605445321649313
3328.0,0.001007537473924458
3584.0,0.001072198967449367
3840.0,0.000779212627094239
4096.0,0.0012090556556358933
4608.0,-0.0015319265658035874
5120.0,-0.0016712996875867248
5632.0,-0.0014850584557279944
6144.0,0.0017199916765093803
6656.0,0.0006634119781665504
7168.0,-0.0009341514087282121
7680.0,-0.0009081540629267693
8192.0,0.00024600295000709593
9216.0,0.0006345164147205651
10240.0,0.0018835397204384208
11264.0,-0.0024291740264743567
12288.0,-0.0012249754508957267
13312.0,0.0028168850112706423
14336.0,0.00134742702357471
end
