version,3.0
numOfCh,1
type,point
parent_name,1000-cuts
ch_type,1_1
kcount,1
numberNandB,1
brightnessNandB,1
carpet pos,0
pc,0
Time (ms),CH1 Auto-Correlation
1.0,0.03124874085187912
2.0,0.028981966897845268
3.0,0.026854105293750763
4.0,0.02491326443850994
5.0,0.023110022768378258
6.0,0.021378768607974052
7.0,0.01977553404867649
8.0,0.0183034036308527
9.0,0.016883864998817444
10.0,0.015538322739303112
11.0,0.014294584281742573
12.0,0.013149961829185486
13.0,0.012116529978811741
14.0,0.011215333826839924
15.0,0.010324912145733833
16.0,0.009470166638493538
18.0,0.007949450984597206
20.0,0.00672804145142436
22.0,0.005805892404168844
24.0,0.005132070742547512
26.0,0.004725406877696514
28.0,0.00441117025911808
30.0,0.003980677574872971
32.0,0.003614925779402256
36.0,0.0030422580894082785
40.0,0.0025750775821506977
44.0,0.002312406664714217
48.0,0.0020881539676338434
52.0,0.0016183806583285332
56.0,0.0012748207664117217
60.0,0.0009332215413451195
64.0,0.0008504332508891821
72.0,0.0007747116615064442
80.0,0.0010438832687214017
88.0,0.000672485854011029
96.0,7.932675543997902e-06
104.0,-0.00032725033815950155
112.0,-0.00033608361263759434
120.0,7.34595232643187e-05
128.0,0.00031325529562309384
144.0,-0.0007700807182118297
160.0,-0.001363963820040226
176.0,-0.0014302703784778714
192.0,-0.0008282389608211815
208.0,-5.380541188060306e-05
224.0,-6.542088522110134e-05
240.0,-0.001053243293426931
256.0,-0.001460518455132842
288.0,-0.0014110569609329104
320.0,-0.00043686304707080126
352.0,-0.0002281703636981547
384.0,-0.001296617672778666
416.0,-0.0028018434531986713
448.0,-0.0015420715790241957
480.0,-0.0015650361310690641
512.0,-0.0004093063180334866
576.0,0.0010061829816550016
640.0,0.0006718231015838683
704.0,-0.00038446372491307557
768.0,0.00017703947378322482
832.0,0.001209259033203125
896.0,0.0005690566031262279
960.0,-0.0009336023940704763
1024.0,-0.0010703919688239694
1152.0,-0.00013122099335305393
1280.0,-0.00015091514796949923
1408.0,0.0006152681307867169
1536.0,0.0004035180027130991
1664.0,0.0011007244465872645
1792.0,-5.2183750085532665e-05
1920.0,-0.0008663767948746681
2048.0,0.000823143171146512
2304.0,-0.0002518421388231218
2560.0,-0.0006029647192917764
2816.0,0.00014412814925890416
3072.0,0.00042110434151254594
3328.0,0.00027398194652050734
3584.0,-0.00031838048016652465
3840.0,-9.564972424414009e-05
4096.0,-2.7044847229262814e-05
4608.0,-0.0004349219670984894
5120.0,0.00034617813071236014
5632.0,-0.00020396406762301922
6144.0,0.0001030242710839957
6656.0,-0.00016662030247971416
7168.0,-0.00020275122369639575
7680.0,-9.053874236997217e-05
8192.0,0.00021104892948642373
9216.0,-7.893033034633845e-05
10240.0,-3.4758366382448e-05
11264.0,0.00013025246153119951
12288.0,0.00012619636254385114
13312.0,-0.00011172237282153219
14336.0,6.697577191516757e-06
end
