version,3.0
numOfCh,1
type,point
parent_name,1000-cuts
ch_type,1_1
kcount,1
numberNandB,1
brightnessNandB,1
carpet pos,0
pc,0
Time (ms),CH1 Auto-Correlation
1.0,0.04335052892565727
2.0,0.04029211401939392
3.0,0.037508439272642136
4.0,0.03500967472791672
5.0,0.032716840505599976
6.0,0.030582446604967117
7.0,0.028590550646185875
8.0,0.02675507962703705
9.0,0.02505863457918167
10.0,0.023393534123897552
11.0,0.021830420941114426
12.0,0.020383745431900024
13.0,0.01901545561850071
14.0,0.017697982490062714
15.0,0.016593342646956444
16.0,0.015623336657881737
18.0,0.013678723946213722
20.0,0.011803383938968182
22.0,0.009974668733775616
24.0,0.00841559749096632
26.0,0.0071080829948186874
28.0,0.00601282250136137
30.0,0.004990305285900831
32.0,0.003962221089750528
36.0,0.002702888334169984
40.0,0.0020566494204103947
44.0,0.0015165044460445642
48.0,0.0010969644645228982
52.0,0.0005832883180119097
56.0,0.00012754183262586594
60.0,-0.00018559822638053447
64.0,-0.0004983819089829922
72.0,-0.0006883106543682516
80.0,0.00017825161921791732
88.0,3.515422940836288e-05
96.0,-0.0003403001755941659
104.0,-0.00058250647271052
112.0,0.00026942789554595947
120.0,0.0012796177761629224
128.0,0.0007765897898934782
144.0,-0.0003017434210050851
160.0,-0.000537318002898246
176.0,0.0002457421214785427
192.0,0.0011220003943890333
208.0,0.0006619931082241237
224.0,-0.0003360642585903406
240.0,0.00020559121912810951
256.0,0.0017069262685254216
288.0,0.0012911696685478091
320.0,0.00013179756933823228
352.0,0.0008706702501513064
384.0,0.002652923110872507
416.0,0.0019654114730656147
448.0,0.0010887928074225783
480.0,-0.0009235108736902475
512.0,-0.00015363884449470788
576.0,-0.0008114905213005841
640.0,0.00146997079718858
704.0,0.002266485709697008
768.0,0.00013798323925584555
832.0,-0.000531140249222517
896.0,-0.00027626953669823706
960.0,-0.0018155991565436125
1024.0,-0.0002959890407510102
1152.0,0.0002573481178842485
1280.0,-0.001252063550055027
1408.0,0.000634399417322129
1536.0,-0.0016473883297294378
1664.0,-0.001240669866092503
1792.0,0.00019944075029343367
1920.0,-0.0012295413762331009
2048.0,0.0007760687731206417
2304.0,-0.0008837602217681706
2560.0,0.00022351162624545395
2816.0,0.0001742622844176367
3072.0,-0.0007050235872156918
3328.0,0.00012612600403372198
3584.0,-0.001376404776237905
3840.0,-0.0005693037528544664
4096.0,0.00023800675990059972
4608.0,-0.00019406096544116735
5120.0,-0.00012436574616003782
5632.0,0.00012079539737896994
6144.0,0.0008510125335305929
6656.0,0.0005394350155256689
7168.0,0.0005154014215804636
7680.0,0.00015774417261127383
8192.0,-0.00039818111690692604
9216.0,-0.00048518608673475683
10240.0,0.0002234116109320894
11264.0,-0.0003298813244327903
12288.0,-0.0004890872514806688
13312.0,5.85737798246555e-05
14336.0,0.001868206076323986
end
