version,3.0
numOfCh,1
type,point
parent_name,1000-cuts
ch_type,1_1
kcount,1
numberNandB,1
brightnessNandB,1
carpet pos,0
pc,0
Time (ms),CH1 Auto-Correlation
1.0,0.08407726138830185
2.0,0.0790538564324379
3.0,0.07442266494035721
4.0,0.07002969831228256
5.0,0.06591266393661499
6.0,0.06220407411456108
7.0,0.058651648461818695
8.0,0.05527667701244354
9.0,0.05203327536582947
10.0,0.04888947680592537
11.0,0.04593745246529579
12.0,0.04308381676673889
13.0,0.040355537086725235
14.0,0.03780185803771019
15.0,0.03530685231089592
16.0,0.032851483672857285
18.0,0.028511688113212585
20.0,0.02463345229625702
22.0,0.021282650530338287
24.0,0.018381692469120026
26.0,0.01544472761452198
28.0,0.012953082099556923
30.0,0.010891585610806942
32.0,0.008995003998279572
36.0,0.006431357003748417
40.0,0.004648970905691385
44.0,0.0035358460154384375
48.0,0.0027270708233118057
52.0,0.0021841847337782383
56.0,0.0016639595851302147
60.0,0.0016627006698399782
64.0,0.0019244715804234147
72.0,0.001197870122268796
80.0,-0.0002400340890744701
88.0,-0.0008390422444790602
96.0,0.00017979292897507548
104.0,0.0008173625683411956
112.0,0.001081056660041213
120.0,0.000654174538794905
128.0,-0.0002982034638989717
144.0,0.00208080280572176
160.0,0.00417233956977725
176.0,0.0028156577609479427
192.0,-0.0008394360193051398
208.0,-0.0014075490180402994
224.0,-0.0012979292077943683
240.0,-0.0007924132514744997
256.0,-0.00022873205307405442
288.0,-0.0020836368203163147
320.0,-0.0020174060482531786
352.0,-0.0029955608770251274
384.0,-0.0038479447830468416
416.0,-0.00023675816191826016
448.0,0.00022921391064301133
480.0,0.00019645082647912204
512.0,-0.0013900623889639974
576.0,-0.0002033092750934884
640.0,0.0015388071769848466
704.0,-0.002256578067317605
768.0,-0.0011968421749770641
832.0,-0.0025129388086497784
896.0,-7.170880417106673e-05
960.0,-0.0018299241783097386
1024.0,-0.0021994495764374733
1152.0,-0.00046957843005657196
1280.0,-0.0004881903878413141
1408.0,-0.00027418823447078466
1536.0,0.0006407501641660929
1664.0,-0.00199502962641418
1792.0,-0.0012949473457410932
1920.0,-0.0007764354231767356
2048.0,0.0007857210584916174
2304.0,0.0014142008731141686
2560.0,0.0017360781785100698
2816.0,-0.0009240502258762717
3072.0,0.0013747253688052297
3328.0,0.001505918800830841
3584.0,-0.0004944682586938143
3840.0,-0.0020060655660927296
4096.0,-0.002247004071250558
4608.0,0.0009817088721320033
5120.0,-0.0008140572463162243
5632.0,0.001475387834943831
6144.0,-0.0006808957550674677
6656.0,-0.0014541450655087829
7168.0,0.0002718997420743108
7680.0,0.0005003525293432176
8192.0,-0.0012025319738313556
9216.0,-0.000971592147834599
10240.0,0.00012576003791764379
11264.0,0.0005340689676813781
12288.0,-0.001265861326828599
13312.0,0.0021024872548878193
14336.0,-0.001179710030555725
end
