version,3.0
numOfCh,1
type,point
parent_name,1000-cuts
ch_type,1_1
kcount,1
numberNandB,1
brightnessNandB,1
carpet pos,0
pc,0
Time (ms),CH1 Auto-Correlation
1.0,0.060101114213466644
2.0,0.05633365735411644
3.0,0.052776582539081573
4.0,0.04948429390788078
5.0,0.046327900141477585
6.0,0.04330211505293846
7.0,0.040583137422800064
8.0,0.037936314940452576
9.0,0.03540578484535217
10.0,0.03296428918838501
11.0,0.030661167576909065
12.0,0.02850300259888172
13.0,0.026402801275253296
14.0,0.024410247802734375
15.0,0.02255345694720745
16.0,0.020785372704267502
18.0,0.017587415874004364
20.0,0.014825169928371906
22.0,0.012422262690961361
24.0,0.010243249125778675
26.0,0.0083510996773839
28.0,0.006724224891513586
30.0,0.005354197695851326
32.0,0.0041497512720525265
36.0,0.0028426474891602993
40.0,0.0023261550813913345
44.0,0.0022722138091921806
48.0,0.002256060019135475
52.0,0.001847548526711762
56.0,0.001019781455397606
60.0,0.00017155187379103154
64.0,-0.0001546085550216958
72.0,-0.0011659504380077124
80.0,-0.0015840972773730755
88.0,-0.0013728572521358728
96.0,-0.00029675819678232074
104.0,0.0002866534050554037
112.0,0.0003103039925917983
120.0,0.0002512400387786329
128.0,0.00025834955158643425
144.0,-0.00019841220637317747
160.0,-0.00026308183441869915
176.0,0.0006950758397579193
192.0,0.0018475197721272707
208.0,0.0019705439917743206
224.0,0.002107830485329032
240.0,0.0024469264317303896
256.0,0.0021082533057779074
288.0,-0.00030016378150321543
320.0,-0.0017498895758762956
352.0,-0.001896933652460575
384.0,-0.004216368775814772
416.0,-0.0021095219999551773
448.0,-0.0005695009022019804
480.0,0.0006127453525550663
512.0,0.001019356306642294
576.0,-0.0008118671830743551
640.0,-0.0021200634073466063
704.0,-0.0005369645077735186
768.0,0.0006959140300750732
832.0,-0.003356566419824958
896.0,-0.0016449522227048874
960.0,0.0008879897650331259
1024.0,0.0015532649122178555
1152.0,-0.0016219905810430646
1280.0,4.117805292480625e-05
1408.0,-0.00031627717544324696
1536.0,-8.503043500240892e-05
1664.0,-0.0004370056849438697
1792.0,0.0010519198840484023
1920.0,-0.00011633904068730772
2048.0,0.0014744459185749292
2304.0,0.0010168863227590919
2560.0,0.0007362775504589081
2816.0,-0.0005586363840848207
3072.0,-0.00030793892801739275
3328.0,-0.0002960461424663663
3584.0,-0.0004397836746647954
3840.0,-0.0008417185163125396
4096.0,-0.0002800708170980215
4608.0,0.0012758836383000016
5120.0,-0.0005971993668936193
5632.0,-0.0005297425086610019
6144.0,-0.0005476491060107946
6656.0,0.0012952660908922553
7168.0,-9.761493856785819e-05
7680.0,-0.0003264790284447372
8192.0,0.0001472072908654809
9216.0,-0.00014628711505793035
10240.0,-0.00043913943227380514
11264.0,-4.033327422803268e-05
12288.0,4.385129068396054e-05
13312.0,0.000562267261557281
14336.0,0.0004865358932875097
end
