version,3.0
numOfCh,1
type,point
parent_name,1000-cuts
ch_type,1_1
kcount,1
numberNandB,1
brightnessNandB,1
carpet pos,0
pc,0
Time (ms),CH1 Auto-Correlation
1.0,0.06463678181171417
2.0,0.060202691704034805
3.0,0.056101951748132706
4.0,0.05242585390806198
5.0,0.04902682825922966
6.0,0.04584144428372383
7.0,0.04289489611983299
8.0,0.0400041826069355
9.0,0.03726125881075859
10.0,0.03473543003201485
11.0,0.03229207918047905
12.0,0.030040714889764786
13.0,0.027966171503067017
14.0,0.025996897369623184
15.0,0.02421352081000805
16.0,0.02247657999396324
18.0,0.019508065655827522
20.0,0.016865655779838562
22.0,0.014427226036787033
24.0,0.012385476380586624
26.0,0.010641375556588173
28.0,0.009247194975614548
30.0,0.007836473174393177
32.0,0.0065805958583951
36.0,0.004557488020509481
40.0,0.002647057641297579
44.0,0.0008946271846070886
48.0,-2.0203206076985225e-05
52.0,-0.0007598923402838409
56.0,-0.000324136926792562
60.0,0.00012158630124758929
64.0,0.0002735455345828086
72.0,0.0006150968838483095
80.0,0.0008499408140778542
88.0,0.00044500691001303494
96.0,0.0004926327965222299
104.0,-0.0008193707326427102
112.0,-0.002389174420386553
120.0,-0.0026365078520029783
128.0,-0.0035033756867051125
144.0,-0.002695836126804352
160.0,-0.0014594427775591612
176.0,-0.002269159071147442
192.0,-0.0011029544984921813
208.0,0.0005078919930383563
224.0,0.0004218036774545908
240.0,-0.0007055215537548065
256.0,-0.003646369557827711
288.0,-0.0035736544523388147
320.0,-0.0006957622244954109
352.0,-0.00031556960311718285
384.0,-0.0018180407350882888
416.0,0.0015937915304675698
448.0,5.375017281039618e-05
480.0,-0.0020956257358193398
512.0,-0.001397827174514532
576.0,0.0007756299455650151
640.0,0.001926145632751286
704.0,-0.0011918545933440328
768.0,-0.002913862466812134
832.0,0.002137424424290657
896.0,-0.0008304384537041187
960.0,-0.0023148462641984224
1024.0,0.0003372168284840882
1152.0,0.000258532352745533
1280.0,-9.610917186364532e-05
1408.0,0.0014296367298811674
1536.0,0.0005025614518672228
1664.0,-0.0013948361156508327
1792.0,4.537195491138846e-05
1920.0,0.00012208828411530703
2048.0,-4.401797559694387e-05
2304.0,8.323974179802462e-05
2560.0,-0.0005669662496075034
2816.0,0.0004105506232008338
3072.0,-0.00019272087956778705
3328.0,0.00017839946667663753
3584.0,-0.0008854509214870632
3840.0,0.00043534155702218413
4096.0,0.00015508160868193954
4608.0,-0.000712039356585592
5120.0,0.0002655566204339266
5632.0,0.00014523360005114228
6144.0,-0.0002937965327873826
6656.0,-0.0001167931841337122
7168.0,-0.0003498929727356881
7680.0,-0.00038999461685307324
8192.0,1.4341419955599122e-05
9216.0,8.717304808669724e-06
10240.0,0.0003138771280646324
11264.0,0.00022793021344114095
12288.0,0.0002737098257057369
13312.0,-0.0010678665712475777
14336.0,0.00035635774838738143
end
