version,3.0
numOfCh,1
type,point
parent_name,1000-cuts
ch_type,1_1
kcount,1
numberNandB,1
brightnessNandB,1
carpet pos,0
pc,0
Time (ms),CH1 Auto-Correlation
1.0,0.01942734234035015
2.0,0.018007418140769005
3.0,0.016729438677430153
4.0,0.015590726397931576
5.0,0.014577561058104038
6.0,0.013639015145599842
7.0,0.012768296524882317
8.0,0.011973605491220951
9.0,0.011219543404877186
10.0,0.010535629466176033
11.0,0.009892039000988007
12.0,0.009330488741397858
13.0,0.008770057931542397
14.0,0.008271011523902416
15.0,0.00778859481215477
16.0,0.0073302253149449825
18.0,0.006488506682217121
20.0,0.005781726911664009
22.0,0.005148767959326506
24.0,0.004524554125964642
26.0,0.003932491410523653
28.0,0.0033834597561508417
30.0,0.0028022942133247852
32.0,0.002307524671778083
36.0,0.0016634714556857944
40.0,0.0012881578877568245
44.0,0.0009893563110381365
48.0,0.000728691287804395
52.0,0.0006206809193827212
56.0,0.0004080522048752755
60.0,0.0002928010653704405
64.0,0.0002747219696175307
72.0,0.0003809007175732404
80.0,0.0003323955461382866
88.0,1.8896829715231434e-05
96.0,-6.76237468724139e-05
104.0,-9.742109250510111e-05
112.0,4.8328023694921285e-05
120.0,9.372446220368147e-05
128.0,0.000288233975879848
144.0,0.00047238028491847217
160.0,0.0003329342871438712
176.0,0.0002401808596914634
192.0,-8.413261093664914e-05
208.0,-0.00013988011050969362
224.0,9.066284292202909e-06
240.0,-0.0002721488708630204
256.0,-0.0001690249191597104
288.0,-0.00033269895357079804
320.0,-0.0005480703548528254
352.0,2.8621522574212577e-07
384.0,3.590743290260434e-05
416.0,0.00020770836272276938
448.0,-5.56279846932739e-05
480.0,0.0003345569712109864
512.0,9.995939763030037e-05
576.0,0.0004497287154663354
640.0,0.0004945994587615132
704.0,0.0003608254774007946
768.0,-0.0004551537276711315
832.0,-0.0005826835404150188
896.0,-0.00018949649529531598
960.0,0.0003079846501350403
1024.0,-2.2119362256489694e-05
1152.0,-0.0003961478068958968
1280.0,0.00016567361308261752
1408.0,0.0002846194838639349
1536.0,0.00010414252028567716
1664.0,-0.00037813803646713495
1792.0,-0.000912675925064832
1920.0,-0.00013184458657633513
2048.0,0.00021086292690597475
2304.0,0.00024378986563533545
2560.0,3.143457797705196e-05
2816.0,-0.00032730810926295817
3072.0,1.40431047839229e-05
3328.0,0.0001560014352435246
3584.0,0.00021306618873495609
3840.0,0.0003410475910641253
4096.0,-0.00021959755395073444
4608.0,8.816891204332933e-05
5120.0,-0.00021924717293586582
5632.0,-0.000338545476552099
6144.0,-0.00013359496369957924
6656.0,-0.0002866139402613044
7168.0,0.00010938161722151563
7680.0,1.804253588488791e-05
8192.0,8.733158028917387e-05
9216.0,-9.03692125575617e-05
10240.0,-6.9966416049283e-05
11264.0,0.00014216203999239951
12288.0,0.00017163502343464643
13312.0,-0.00047245665336959064
14336.0,0.0006003976450301707
end
