version,3.0
numOfCh,1
type,point
parent_name,1000-cuts
ch_type,1_1
kcount,1
numberNandB,1
brightnessNandB,1
carpet pos,0
pc,0
Time (ms),CH1 Auto-Correlation
1.0,0.02652057819068432
2.0,0.024667968973517418
3.0,0.022962024435400963
4.0,0.021391117945313454
5.0,0.01997474581003189
6.0,0.018686886876821518
7.0,0.017483780160546303
8.0,0.0162955429404974
9.0,0.015227898955345154
10.0,0.014257163740694523
11.0,0.013310103677213192
12.0,0.012454834766685963
13.0,0.011661885306239128
14.0,0.010980403050780296
15.0,0.010311293415725231
16.0,0.009668109007179737
18.0,0.008473940193653107
20.0,0.007467612158507109
22.0,0.006669716909527779
24.0,0.005935556720942259
26.0,0.005338297225534916
28.0,0.004866213072091341
30.0,0.004519997164607048
32.0,0.0042554521933197975
36.0,0.003706007730215788
40.0,0.0032770861871540546
44.0,0.002982247620820999
48.0,0.00251178746111691
52.0,0.002023818204179406
56.0,0.0014172907685860991
60.0,0.000820754561573267
64.0,0.00042513382504694164
72.0,0.00045752813457511365
80.0,-0.0002831925521604717
88.0,-0.0011795260943472385
96.0,-0.00163874716963619
104.0,-0.0017450408777222037
112.0,-0.001355956308543682
120.0,-0.001099734683521092
128.0,-0.0010292221559211612
144.0,-0.0002691335685085505
160.0,-0.00018776576325763017
176.0,-0.0006202984368428588
192.0,-0.0015176860615611076
208.0,-0.0019373474642634392
224.0,-0.0014396385522559285
240.0,-0.0014539911644533277
256.0,-0.0020075610373169184
288.0,-0.0005421954556368291
320.0,-0.00020341994240880013
352.0,0.0005008488660678267
384.0,0.0013152806786820292
416.0,0.0009481203742325306
448.0,0.0018549540545791388
480.0,0.0001715561666060239
512.0,-0.0005424153059720993
576.0,-0.001071106526069343
640.0,-0.0012258186470717192
704.0,0.0004442489589564502
768.0,0.0017459933878853917
832.0,-0.00025939501938410103
896.0,-0.00030656735179945827
960.0,-0.0007818069425411522
1024.0,-4.9177120672538877e-05
1152.0,-0.00015617355529684573
1280.0,-0.0002743088698480278
1408.0,-0.00040762723074294627
1536.0,0.0008079242543317378
1664.0,-0.0010410412214696407
1792.0,-0.00014561321586370468
1920.0,0.0003934712731279433
2048.0,0.0003752370539586991
2304.0,0.0002737621543928981
2560.0,0.00010419361933600157
2816.0,-0.000538189138751477
3072.0,-9.528738155495375e-05
3328.0,-0.00021512793318834156
3584.0,-0.00019968427659478039
3840.0,0.0005015383940190077
4096.0,6.16398174315691e-05
4608.0,0.0002319895284017548
5120.0,-0.000893753080163151
5632.0,-6.662416126346216e-05
6144.0,0.0005357855698093772
6656.0,-0.0001540478551760316
7168.0,0.00039359673974104226
7680.0,-0.0002161627053283155
8192.0,0.0003321972908452153
9216.0,-8.886657451512292e-05
10240.0,0.0003063380718231201
11264.0,-0.00043999796616844833
12288.0,-0.00012717444042209536
13312.0,0.0003680904919747263
14336.0,-0.0006249210564419627
end
