version,3.0
numOfCh,1
type,point
parent_name,1000-cuts
ch_type,1_1
kcount,1
numberNandB,1
brightnessNandB,1
carpet pos,0
pc,0
Time (ms),CH1 Auto-Correlation
1.0,0.07171664386987686
2.0,0.06667900830507278
3.0,0.062206801027059555
4.0,0.05803569406270981
5.0,0.05418000370264053
6.0,0.05070607736706734
7.0,0.04744921624660492
8.0,0.04437260329723358
9.0,0.04149177670478821
10.0,0.03890469670295715
11.0,0.036531247198581696
12.0,0.034191783517599106
13.0,0.03188154473900795
14.0,0.02972402237355709
15.0,0.027662603184580803
16.0,0.025694996118545532
18.0,0.022133028134703636
20.0,0.01886383444070816
22.0,0.015989195555448532
24.0,0.013735459186136723
26.0,0.01198206003755331
28.0,0.010338069871068
30.0,0.008523420430719852
32.0,0.006683241110295057
36.0,0.003938612528145313
40.0,0.0023743759375065565
44.0,0.001326998695731163
48.0,4.427818930707872e-05
52.0,-0.0006570654804818332
56.0,-0.0009498681174591184
60.0,-0.0004308844800107181
64.0,0.0006827142788097262
72.0,0.0012735252967104316
80.0,0.001172221265733242
88.0,0.00041087158024311066
96.0,-0.00020437610510271043
104.0,-0.0010019708424806595
112.0,-0.0013194899074733257
120.0,-0.0007995476480573416
128.0,-0.00043678382644429803
144.0,0.0018770998576655984
160.0,0.002992616267874837
176.0,0.0008777114562690258
192.0,-0.0026431770529597998
208.0,-0.0021102074533700943
224.0,0.0010286946780979633
240.0,0.002886242466047406
256.0,0.00032755083520896733
288.0,-0.005668857134878635
320.0,-0.0012933745747432113
352.0,-0.00045190355740487576
384.0,5.162600791663863e-05
416.0,0.00021591363474726677
448.0,-0.002228235825896263
480.0,-0.00018029856437351555
512.0,-0.001607377314940095
576.0,-0.001034271321259439
640.0,-1.0079552339448128e-05
704.0,0.000557399878744036
768.0,-0.00289559387601912
832.0,-0.0002840248344000429
896.0,-0.003416467225179076
960.0,-0.001396441599354148
1024.0,-0.00212615798227489
1152.0,0.0017460919916629791
1280.0,0.001154208555817604
1408.0,-0.0006006652838550508
1536.0,-7.924399142211769e-06
1664.0,-0.0004632189520634711
1792.0,0.0012984820641577244
1920.0,-0.0010985018452629447
2048.0,0.001061825081706047
2304.0,0.00038128640153445303
2560.0,-0.0009751930483616889
2816.0,0.0020490814931690693
3072.0,-0.0013151641469448805
3328.0,-0.0028549674898386
3584.0,0.0008871654281392694
3840.0,-0.0004584089037962258
4096.0,0.0028119729831814766
4608.0,-0.0009235176839865744
5120.0,-0.0006014011451043189
5632.0,0.0004237586399540305
6144.0,1.6879686882020906e-05
6656.0,0.000454483728390187
7168.0,0.000539133558049798
7680.0,-0.002352275652810931
8192.0,0.00035933865001425147
9216.0,0.0006187031394802034
10240.0,-0.00047530391020700336
11264.0,-2.3868506104918197e-05
12288.0,-0.00013865309301763773
13312.0,0.0007350158412009478
14336.0,-0.00019502168288454413
end
