version,3.0
numOfCh,1
type,point
parent_name,1000-cuts
ch_type,1_1
kcount,1
numberNandB,1
brightnessNandB,1
carpet pos,0
pc,0
Time (ms),CH1 Auto-Correlation
1.0,0.028781749308109283
2.0,0.026812391355633736
3.0,0.024964135140180588
4.0,0.023251701146364212
5.0,0.021705657243728638
6.0,0.020264530554413795
7.0,0.018892353400588036
8.0,0.017650850117206573
9.0,0.016522370278835297
10.0,0.015499338507652283
11.0,0.014488193206489086
12.0,0.013553215190768242
13.0,0.012679489329457283
14.0,0.011831295676529408
15.0,0.011040924116969109
16.0,0.010289755649864674
18.0,0.009008727967739105
20.0,0.00781939271837473
22.0,0.006682674866169691
24.0,0.005811033304780722
26.0,0.005087417550384998
28.0,0.004549921955913305
30.0,0.004319269210100174
32.0,0.004119532182812691
36.0,0.0038539301604032516
40.0,0.0036004455760121346
44.0,0.002976364688947797
48.0,0.002297600032761693
52.0,0.001762967905960977
56.0,0.001344988588243723
60.0,0.0008561608265154064
64.0,0.0005236538709141314
72.0,-2.424513513687998e-05
80.0,-0.00017743049829732627
88.0,-0.00025573078892193735
96.0,1.303982480749255e-05
104.0,-0.000158291106345132
112.0,-0.0009548373054713011
120.0,-0.0013344739563763142
128.0,-0.0013623679988086224
144.0,-0.0009276006021536887
160.0,-0.0016238081734627485
176.0,-0.0012600305490195751
192.0,-0.0006225169054232538
208.0,-0.0005250964895822108
224.0,-0.001047071535140276
240.0,-0.0014185014879330993
256.0,-0.0008712958660908043
288.0,-0.0015747190918773413
320.0,-0.00026959989918395877
352.0,0.0006418762495741248
384.0,0.00026945138233713806
416.0,-4.5792923629051074e-05
448.0,-0.00012392239295877516
480.0,4.5231867261463776e-05
512.0,1.265005448658485e-05
576.0,-0.0001482696388848126
640.0,-0.0011344105005264282
704.0,-0.0005947216413915157
768.0,-0.0009669908904470503
832.0,0.0009395235101692379
896.0,-2.3414527561271825e-07
960.0,-0.0013918362092226744
1024.0,-0.0003975540166720748
1152.0,0.0004630026814993471
1280.0,0.0005610751104541123
1408.0,-2.5523704607621767e-05
1536.0,-0.0009741770336404443
1664.0,0.0007558395154774189
1792.0,0.0006857154658064246
1920.0,-0.0010714416857808828
2048.0,-0.00042045427835546434
2304.0,0.0007683551521040499
2560.0,-0.00035924973781220615
2816.0,-0.00023584166774526238
3072.0,-0.0008902387344278395
3328.0,0.0002792661252897233
3584.0,0.0004034689045511186
3840.0,0.00017047073924914002
4096.0,0.0003353212377987802
4608.0,-8.688567322678864e-05
5120.0,-0.0003816514799837023
5632.0,0.00041456162580288947
6144.0,0.00013186820433475077
6656.0,-0.0008057464729063213
7168.0,-0.00013198642409406602
7680.0,0.0004932501469738781
8192.0,-0.00010731572547229007
9216.0,0.0001903565862448886
10240.0,-0.00052849535131827
11264.0,0.00010992353782057762
12288.0,0.00033336036722175777
13312.0,0.00028425740310922265
14336.0,-0.0013755703112110496
end
