version,3.0
numOfCh,1
type,point
parent_name,1000-cuts
ch_type,1_1
kcount,1
numberNandB,1
brightnessNandB,1
carpet pos,0
pc,0
Time (ms),CH1 Auto-Correlation
1.0,0.08281005173921585
2.0,0.076930470764637
3.0,0.07133445143699646
4.0,0.06618168950080872
5.0,0.06139704957604408
6.0,0.05696429684758186
7.0,0.0529417023062706
8.0,0.049170639365911484
9.0,0.04561439901590347
10.0,0.04239453002810478
11.0,0.039588812738657
12.0,0.037018075585365295
13.0,0.03446708247065544
14.0,0.032014962285757065
15.0,0.029714668169617653
16.0,0.027515865862369537
18.0,0.02373685874044895
20.0,0.020586971193552017
22.0,0.01760203205049038
24.0,0.014914433471858501
26.0,0.01264041755348444
28.0,0.010614278726279736
30.0,0.008971625007689
32.0,0.007821752689778805
36.0,0.006600352935492992
40.0,0.00598414009436965
44.0,0.005159626714885235
48.0,0.004330650437623262
52.0,0.003435540944337845
56.0,0.0022301734425127506
60.0,0.000626442430075258
64.0,-0.0006032020319253206
72.0,-0.0011691278778016567
80.0,-0.0005642852047458291
88.0,4.760223600897007e-05
96.0,0.0007531981682404876
104.0,0.0009801455307751894
112.0,0.0013043202925473452
120.0,0.0018315529450774193
128.0,0.002031311159953475
144.0,0.0025730514898896217
160.0,0.00400703027844429
176.0,0.004189244471490383
192.0,0.0038612575735896826
208.0,0.0021395529620349407
224.0,-0.0006501700263470411
240.0,-0.0033201961778104305
256.0,-0.0014124505687505007
288.0,0.0021840159315615892
320.0,0.002094540512189269
352.0,0.0024227979592978954
384.0,0.0007057901821099222
416.0,0.0023840893991291523
448.0,0.0023057509679347277
480.0,0.0009837172692641616
512.0,0.0035442740190774202
576.0,-0.0010282887378707528
640.0,0.0008461975958198309
704.0,-0.0008151570218615234
768.0,0.0022371041122823954
832.0,0.002885581227019429
896.0,0.00172772619407624
960.0,0.004197501577436924
1024.0,-0.0014076859224587679
1152.0,-0.0008835981716401875
1280.0,0.001749544870108366
1408.0,0.0013736368855461478
1536.0,-0.0016785822808742523
1664.0,0.0010794129921123385
1792.0,-0.0007515518227592111
1920.0,-0.0012286232085898519
2048.0,0.001610833453014493
2304.0,0.00026753052952699363
2560.0,0.00044184437138028443
2816.0,-0.001224203035235405
3072.0,-0.0015180363552644849
3328.0,0.0008055029902607203
3584.0,-0.0015038993442431092
3840.0,-0.0009666233090683818
4096.0,0.0009102522162720561
4608.0,-0.00024239001504611224
5120.0,0.0005273954011499882
5632.0,-0.001396261272020638
6144.0,-0.0008489268366247416
6656.0,-0.0029463032260537148
7168.0,0.0006417352124117315
7680.0,-0.0033314654137939215
8192.0,-0.0022231617476791143
9216.0,-0.0005326090613380075
10240.0,0.0005059596733190119
11264.0,0.0010813164990395308
12288.0,0.002043892163783312
13312.0,0.0007730320212431252
14336.0,0.0008647872600704432
end
