version,3.0
numOfCh,1
type,point
parent_name,1000-cuts
ch_type,1_1
kcount,1
numberNandB,1
brightnessNandB,1
carpet pos,0
pc,0
Time (ms),CH1 Auto-Correlation
1.0,0.053513482213020325
2.0,0.04947859048843384
3.0,0.045646097511053085
4.0,0.04216136783361435
5.0,0.038970284163951874
6.0,0.036171793937683105
7.0,0.033545028418302536
8.0,0.031177788972854614
9.0,0.028886128216981888
10.0,0.02674706093966961
11.0,0.02476469799876213
12.0,0.022902289405465126
13.0,0.021120017394423485
14.0,0.019530272111296654
15.0,0.018002523109316826
16.0,0.016793038696050644
18.0,0.014832228422164917
20.0,0.013168436475098133
22.0,0.011623261496424675
24.0,0.010410520248115063
26.0,0.009381061419844627
28.0,0.008195919916033745
30.0,0.007036538328975439
32.0,0.005902504548430443
36.0,0.003953544422984123
40.0,0.002372931456193328
44.0,0.0007150252349674702
48.0,-0.00014805195678491145
52.0,-0.0005619232542812824
56.0,-0.0007482845103368163
60.0,-0.0009210530552081764
64.0,-0.0015128562226891518
72.0,-0.0018480055732652545
80.0,-0.0011472764890640974
88.0,-0.0009110790560953319
96.0,-0.0009153212304227054
104.0,-0.001298088114708662
112.0,0.00016089034033939242
120.0,0.0009413430816493928
128.0,-3.2840871426742524e-05
144.0,0.001512101385742426
160.0,0.001062068622559309
176.0,0.00028800455038435757
192.0,-0.0007271611248143017
208.0,0.001344593008980155
224.0,0.0009386430028825998
240.0,-0.0012578540481626987
256.0,-0.0031674241181463003
288.0,-0.001868159743025899
320.0,-0.0028673652559518814
352.0,-0.0018765645800158381
384.0,0.0006169129628688097
416.0,0.0015099963638931513
448.0,0.00110427918843925
480.0,-0.0011721036862581968
512.0,-0.0006710553425364196
576.0,0.0021655242890119553
640.0,0.0012253945460543036
704.0,-0.002093205228447914
768.0,-0.00010730561916716397
832.0,0.001681843539699912
896.0,-0.0013426407240331173
960.0,0.0015279027866199613
1024.0,-0.00029360639746300876
1152.0,-0.0007444488001056015
1280.0,-0.0010510338470339775
1408.0,-0.0008333029691129923
1536.0,-0.0004170859174337238
1664.0,-0.0005003109690733254
1792.0,-1.7283679198953905e-06
1920.0,-0.0006622029468417168
2048.0,-0.00010600901441648602
2304.0,-5.9411169786471874e-05
2560.0,1.1809306670329534e-05
2816.0,8.909035386750475e-05
3072.0,-0.00035593638313002884
3328.0,3.149658732581884e-05
3584.0,0.0006397602846845984
3840.0,-0.00021633108553942293
4096.0,0.0009579958859831095
4608.0,-0.000193691739696078
5120.0,0.0007969839498400688
5632.0,-0.0005456515937112272
6144.0,-0.00017967646999750286
6656.0,-0.0006306119030341506
7168.0,-0.00042251517879776657
7680.0,0.0006765599828213453
8192.0,0.0006669568247161806
9216.0,0.00019464781507849693
10240.0,-0.0007982456008903682
11264.0,-0.00028016019496135414
12288.0,0.00013384378689806908
13312.0,0.00013885505904909223
14336.0,-0.0009728405857458711
end
