version,3.0
numOfCh,1
type,point
parent_name,1000-cuts
ch_type,1_1
kcount,1
numberNandB,1
brightnessNandB,1
carpet pos,0
pc,0
Time (ms),CH1 Auto-Correlation
1.0,0.04669485613703728
2.0,0.043601859360933304
3.0,0.04074273258447647
4.0,0.038076192140579224
5.0,0.0356079526245594
6.0,0.03330002352595329
7.0,0.031172960996627808
8.0,0.029138866811990738
9.0,0.02724955603480339
10.0,0.025546185672283173
11.0,0.02385794185101986
12.0,0.022383350878953934
13.0,0.02095014788210392
14.0,0.019566677510738373
15.0,0.01824774779379368
16.0,0.017012890428304672
18.0,0.014942945912480354
20.0,0.01321752741932869
22.0,0.011591026559472084
24.0,0.010106979869306087
26.0,0.008788492530584335
28.0,0.007465428672730923
30.0,0.006252302322536707
32.0,0.005261898040771484
36.0,0.0035172468051314354
40.0,0.0024882378056645393
44.0,0.0018881779396906495
48.0,0.001447150600142777
52.0,0.0011049872264266014
56.0,0.0011058953823521733
60.0,0.0008561600116081536
64.0,0.00034886071807704866
72.0,-0.0009078027214854956
80.0,-0.0008768276311457157
88.0,-0.0003475379489827901
96.0,-0.00010419064346933737
104.0,0.0005262434715405107
112.0,0.0008350763819180429
120.0,-0.000304995512124151
128.0,-0.0011341499630361795
144.0,-0.0005921380943618715
160.0,0.0003418238484300673
176.0,0.0010966183617711067
192.0,0.0011150750797241926
208.0,0.0008392470772378147
224.0,0.00019645200518425554
240.0,-2.631055031088181e-05
256.0,0.0010346774943172932
288.0,-0.000145231097121723
320.0,0.0003183027438353747
352.0,0.0016369260847568512
384.0,0.0005164980539120734
416.0,0.00022642596741206944
448.0,-0.0017509587341919541
480.0,-0.0020041880197823048
512.0,-0.0009089784580282867
576.0,-0.0014283211203292012
640.0,-0.0005009131855331361
704.0,0.0004141175886616111
768.0,0.0025406843051314354
832.0,9.809057519305497e-05
896.0,-0.0017559113912284374
960.0,6.878227577544749e-05
1024.0,0.00028499364270828664
1152.0,-0.00038006698014214635
1280.0,0.0010116134071722627
1408.0,0.0003073808620683849
1536.0,0.0009502340690232813
1664.0,-0.00021536555141210556
1792.0,0.0001497241173638031
1920.0,-0.000775875523686409
2048.0,0.00034551467979326844
2304.0,-0.0002481313422322273
2560.0,0.0003307552542537451
2816.0,0.0008404867257922888
3072.0,-0.0005364506505429745
3328.0,-0.000544058857485652
3584.0,-0.00011447014549048617
3840.0,0.0002913297212217003
4096.0,-0.00018626808014232665
4608.0,-0.0005669135716743767
5120.0,-0.000279668893199414
5632.0,-0.00030079440330155194
6144.0,-0.0002205581549787894
6656.0,-0.0005762034561485052
7168.0,-0.0007476099417544901
7680.0,-0.0006220751674845815
8192.0,-0.0003217732300981879
9216.0,0.0007042448851279914
10240.0,0.0002973098889924586
11264.0,0.00016207380394916981
12288.0,-0.0002831646124832332
13312.0,2.2562628146260977e-05
14336.0,0.00127037416677922
end
