version,3.0
numOfCh,1
type,point
parent_name,1000-cuts
ch_type,1_1
kcount,1
numberNandB,1
brightnessNandB,1
carpet pos,0
pc,0
Time (ms),CH1 Auto-Correlation
1.0,0.09734012186527252
2.0,0.091506727039814
3.0,0.08602672070264816
4.0,0.0809064656496048
5.0,0.07603490352630615
6.0,0.07148067653179169
7.0,0.06729204952716827
8.0,0.06330552697181702
9.0,0.05949750170111656
10.0,0.056050773710012436
11.0,0.05271083116531372
12.0,0.04934195056557655
13.0,0.046381089836359024
14.0,0.04363587126135826
15.0,0.04097422957420349
16.0,0.03839561715722084
18.0,0.03351679816842079
20.0,0.02924976497888565
22.0,0.02541961334645748
24.0,0.022029999643564224
26.0,0.019198743626475334
28.0,0.016872305423021317
30.0,0.014978977851569653
32.0,0.013450819067656994
36.0,0.011168804951012135
40.0,0.009134883992373943
44.0,0.007311628665775061
48.0,0.006129876244813204
52.0,0.004875426180660725
56.0,0.003420221386477351
60.0,0.0018360518151894212
64.0,0.00014157536497805268
72.0,-0.0030529501382261515
80.0,-0.004765781573951244
88.0,-0.004895942751318216
96.0,-0.003362646559253335
104.0,-0.0016505179228261113
112.0,-0.0009541244944557548
120.0,0.0012337372172623873
128.0,0.0030816467478871346
144.0,0.0029091588221490383
160.0,-0.0007999138906598091
176.0,-0.004209220875054598
192.0,-0.006668359972536564
208.0,-0.007467268500477076
224.0,-0.008768118917942047
240.0,-0.004930151626467705
256.0,-0.0005856595817022026
288.0,-0.0025125208776444197
320.0,-0.001737350830808282
352.0,-0.0012388145551085472
384.0,8.054982754401863e-05
416.0,0.0010200627148151398
448.0,-0.00038683900493197143
480.0,0.0014217840507626534
512.0,0.0009298233781009912
576.0,0.0015885174507275224
640.0,-0.0023960769176483154
704.0,-0.0027274915482848883
768.0,-0.0010389607632532716
832.0,-0.0018813189817592502
896.0,-0.004454007837921381
960.0,0.0006004702299833298
1024.0,0.002777853049337864
1152.0,0.0036238906905055046
1280.0,-0.0010005309013649821
1408.0,-0.0005305225495249033
1536.0,-0.0030944666359573603
1664.0,0.004843649920076132
1792.0,-0.000774487154558301
1920.0,2.485846016497817e-05
2048.0,0.00016628227604087442
2304.0,0.0004467825056053698
2560.0,0.0010583860566839576
2816.0,0.0006439402350224555
3072.0,-0.001500564394518733
3328.0,-0.0015797961968928576
3584.0,-0.0014307815581560135
3840.0,-0.0001740087172947824
4096.0,0.0006528192898258567
4608.0,-1.4940977052901872e-05
5120.0,-0.0005370586877688766
5632.0,-0.0017792127327993512
6144.0,-0.00038565334398299456
6656.0,-0.0006305964197963476
7168.0,0.0010426375083625317
7680.0,-0.0017309285467490554
8192.0,-0.0015998849412426353
9216.0,0.0002896571240853518
10240.0,0.000649489345960319
11264.0,0.0017561801942065358
12288.0,0.0009446459007449448
13312.0,0.00017652197857387364
14336.0,-0.0012439590645954013
end
