version,3.0
numOfCh,1
type,point
parent_name,1000-cuts
ch_type,1_1
kcount,1
numberNandB,1
brightnessNandB,1
carpet pos,0
pc,0
Time (ms),CH1 Auto-Correlation
1.0,0.06234206259250641
2.0,0.058250851929187775
3.0,0.054533421993255615
4.0,0.05114956200122833
5.0,0.047992121428251266
6.0,0.04513762891292572
7.0,0.042456164956092834
8.0,0.03994382917881012
9.0,0.03753141313791275
10.0,0.035233814269304276
11.0,0.03315339237451553
12.0,0.03107449784874916
13.0,0.02911956049501896
14.0,0.0273442305624485
15.0,0.02577110566198826
16.0,0.02428605780005455
18.0,0.021651236340403557
20.0,0.019097713753581047
22.0,0.016892610117793083
24.0,0.014922636561095715
26.0,0.013199852779507637
28.0,0.011901569552719593
30.0,0.010664819739758968
32.0,0.009431964717805386
36.0,0.007432452868670225
40.0,0.006063664332032204
44.0,0.0045278361067175865
48.0,0.0034687137231230736
52.0,0.002754636574536562
56.0,0.0019035310251638293
60.0,0.0008846522541716695
64.0,0.0002990108332596719
72.0,-7.878203905420378e-05
80.0,-0.0007747438503429294
88.0,-0.0014579457929357886
96.0,-0.0023291276302188635
104.0,-0.002228731755167246
112.0,-0.000464837794424966
120.0,0.000656731310300529
128.0,0.0015161465853452682
144.0,0.003389669582247734
160.0,0.004315710160881281
176.0,0.004356666002422571
192.0,0.004030187148600817
208.0,0.0024943710304796696
224.0,0.0012013936648145318
240.0,-0.00015651869762223214
256.0,0.0009557880111970007
288.0,0.0020653624087572098
320.0,0.004509040154516697
352.0,0.0018201150232926011
384.0,0.0006243101670406759
416.0,0.002874869853258133
448.0,0.002726372331380844
480.0,0.002629159716889262
512.0,0.00012982942280359566
576.0,0.0013970326399430633
640.0,-0.00018644164083525538
704.0,-0.0003987843228969723
768.0,-0.0018035618122667074
832.0,0.001780039630830288
896.0,0.0030436154920607805
960.0,-0.00034960536868311465
1024.0,-0.0014874051557853818
1152.0,0.0011125241871923208
1280.0,-0.0016976790502667427
1408.0,-0.0009495321428403258
1536.0,-0.00011023532715626061
1664.0,-0.00012154620344517753
1792.0,-0.0002370082656852901
1920.0,-0.0007221871055662632
2048.0,0.0019381492165848613
2304.0,0.0003348904720041901
2560.0,5.904987847316079e-05
2816.0,0.0001466269459342584
3072.0,-0.0012411843053996563
3328.0,-0.0014448424335569143
3584.0,-0.0004363715124782175
3840.0,-0.0024838109966367483
4096.0,-0.003084502648562193
4608.0,-0.0005872886977158487
5120.0,-0.00032823244691826403
5632.0,0.000408073392463848
6144.0,-0.0011023628758266568
6656.0,-0.0010872818529605865
7168.0,-0.0010352528188377619
7680.0,0.0003497677680570632
8192.0,0.0011797603219747543
9216.0,0.0009919559815898538
10240.0,0.001997638028115034
11264.0,0.00022697862004861236
12288.0,-0.0017656090203672647
13312.0,-0.0006585718365386128
14336.0,-4.470709882298252e-06
end
