version,3.0
numOfCh,1
type,point
parent_name,1000-cuts
ch_type,1_1
kcount,1
numberNandB,1
brightnessNandB,1
carpet pos,0
pc,0
Time (ms),CH1 Auto-Correlation
1.0,0.06483879685401917
2.0,0.060420066118240356
3.0,0.056377168744802475
4.0,0.052792686969041824
5.0,0.04950913041830063
6.0,0.04642215743660927
7.0,0.04348834231495857
8.0,0.04078013449907303
9.0,0.0381452776491642
10.0,0.03573160991072655
11.0,0.0335635244846344
12.0,0.03147710859775543
13.0,0.029572224244475365
14.0,0.027849353849887848
15.0,0.026183096691966057
16.0,0.02463805489242077
18.0,0.02177605964243412
20.0,0.019259562715888023
22.0,0.01708032190799713
24.0,0.015351793728768826
26.0,0.014013214036822319
28.0,0.012751569971442223
30.0,0.011734032072126865
32.0,0.010763873346149921
36.0,0.009486432187259197
40.0,0.009039419703185558
44.0,0.008430848829448223
48.0,0.007374545559287071
52.0,0.006047903094440699
56.0,0.00470010144636035
60.0,0.0037166192196309566
64.0,0.002942606806755066
72.0,0.0009395276429131627
80.0,-0.0011004206025972962
88.0,-0.0014814322348684072
96.0,-0.0018597712041810155
104.0,-0.0027419468387961388
112.0,-0.0023418429773300886
120.0,-0.0018265011021867394
128.0,-0.0013254400109872222
144.0,-0.0017151229549199343
160.0,-0.0013411040417850018
176.0,-0.0034234346821904182
192.0,-0.0034279783722013235
208.0,-0.0019398361910134554
224.0,-0.00015401572454720736
240.0,0.0009544832282699645
256.0,0.0016005614306777716
288.0,0.0005841395468451083
320.0,0.001513887196779251
352.0,0.0020725803915411234
384.0,0.0005665401695296168
416.0,0.0013200140092521906
448.0,0.0025403357576578856
480.0,-0.000603974680416286
512.0,-0.0022091250866651535
576.0,0.0024348797742277384
640.0,0.0005738954059779644
704.0,0.0009263732936233282
768.0,0.000821080815512687
832.0,-0.002487314399331808
896.0,-0.0017831430304795504
960.0,0.0005340635543689132
1024.0,0.00047091676970012486
1152.0,-0.0015807573217898607
1280.0,-0.0017358066979795694
1408.0,0.00011703575000865385
1536.0,0.0009125777869485319
1664.0,-0.0011032866314053535
1792.0,-0.0017469498561695218
1920.0,-0.0012270767474547029
2048.0,6.515602581202984e-05
2304.0,-0.0009185767848975956
2560.0,-0.00019077085016760975
2816.0,0.0006719972006976604
3072.0,0.0012767596635967493
3328.0,0.000870024785399437
3584.0,0.0002301248168805614
3840.0,0.0004059424391016364
4096.0,0.000821577210444957
4608.0,-0.0008325466769747436
5120.0,-0.00010281674622092396
5632.0,-0.0004998240037821233
6144.0,-0.0017683187033981085
6656.0,0.00035813040449284017
7168.0,0.0005606997292488813
7680.0,-3.759951505344361e-05
8192.0,0.0008937442908063531
9216.0,-0.001387103577144444
10240.0,0.0004940772778354585
11264.0,0.0011807604460045695
12288.0,-0.0009318249067291617
13312.0,0.0014101812848821282
14336.0,0.0007364663761109114
end
