version,3.0
numOfCh,1
type,point
parent_name,1000-cuts
ch_type,1_1
kcount,1
numberNandB,1
brightnessNandB,1
carpet pos,0
pc,0
Time (ms),CH1 Auto-Correlation
1.0,0.07977988570928574
2.0,0.07446944713592529
3.0,0.06947189569473267
4.0,0.06486712396144867
5.0,0.06075117737054825
6.0,0.056823305785655975
7.0,0.05315200239419937
8.0,0.04962863028049469
9.0,0.046334102749824524
10.0,0.043376680463552475
11.0,0.04069242626428604
12.0,0.038173504173755646
13.0,0.0358661413192749
14.0,0.03377673029899597
15.0,0.031856387853622437
16.0,0.03011147305369377
18.0,0.026945479214191437
20.0,0.024237951263785362
22.0,0.021909188479185104
24.0,0.019817950204014778
26.0,0.017884835600852966
28.0,0.015986382961273193
30.0,0.013808831572532654
32.0,0.012077411636710167
36.0,0.009118380025029182
40.0,0.006251717451959848
44.0,0.004015893209725618
48.0,0.0027693375013768673
52.0,0.002343972912058234
56.0,0.0016200902173295617
60.0,0.001283428748138249
64.0,0.0008598144631832838
72.0,-0.001891241641715169
80.0,-0.0014809322310611606
88.0,0.00042684070649556816
96.0,0.0004455782473087311
104.0,-0.00011290112161077559
112.0,0.00010707150795497
120.0,0.0016745304455980659
128.0,0.0024380418471992016
144.0,0.0007935567409731448
160.0,-0.0001221043785335496
176.0,0.0008973469957709312
192.0,-0.00042024036520160735
208.0,-0.0008253626874648035
224.0,0.002105886349454522
240.0,0.0019964228849858046
256.0,-0.0005159826832823455
288.0,-0.002395839663222432
320.0,-0.0035908608697354794
352.0,-0.0010724652092903852
384.0,-0.0007226704037748277
416.0,-0.0032670910004526377
448.0,-0.0038508696015924215
480.0,-0.0012351536424830556
512.0,0.00416473438963294
576.0,-0.000415407499531284
640.0,-0.0028686055447906256
704.0,0.0014690289972350001
768.0,0.0017799345077946782
832.0,-0.003207380883395672
896.0,0.00017068990564439446
960.0,0.00048809079453349113
1024.0,-0.0018525499617680907
1152.0,5.704447903553955e-05
1280.0,0.0022667821031063795
1408.0,0.0016042891656979918
1536.0,-0.0020455457270145416
1664.0,-0.0008187213097698987
1792.0,0.00043633655877783895
1920.0,0.0009045508340932429
2048.0,0.0010864782379940152
2304.0,-0.0009411577484570444
2560.0,0.0007755594560876489
2816.0,-0.001516578602604568
3072.0,-0.0024754549376666546
3328.0,0.0008585966425016522
3584.0,7.485406968044117e-05
3840.0,0.00034252917976118624
4096.0,0.0021973715629428625
4608.0,-0.0005785035900771618
5120.0,-0.0006517856963910162
5632.0,-0.00140545389149338
6144.0,0.0009331880719400942
6656.0,-0.0009331489563919604
7168.0,-4.8800102376844734e-05
7680.0,0.0010686249006539583
8192.0,0.0025437537115067244
9216.0,-0.0006966116488911211
10240.0,6.476817361544818e-06
11264.0,-0.00144864188041538
12288.0,-7.712285150773823e-05
13312.0,0.00021928090427536517
14336.0,-0.0014511262997984886
end
