version,3.0
numOfCh,1
type,point
parent_name,484af_10dot0-0dot01
ch_type,1_1
kcount,1
numberNandB,1
brightnessNandB,1
carpet pos,0
pc,0
Time (ms),CH1 Auto-Correlation
1.0,0.05614067614078522
2.0,0.047168370336294174
3.0,0.04192008078098297
4.0,0.03835885599255562
5.0,0.03513812646269798
6.0,0.03307626396417618
7.0,0.03083658218383789
8.0,0.028973247855901718
9.0,0.027032168582081795
10.0,0.025051604956388474
11.0,0.023148514330387115
12.0,0.02156369760632515
13.0,0.019972747191786766
14.0,0.01842932030558586
15.0,0.016183841973543167
16.0,0.01465742476284504
18.0,0.011161092668771744
20.0,0.00895153172314167
22.0,0.006672517862170935
24.0,0.0038152136839926243
26.0,0.001336055458523333
28.0,0.001425344031304121
30.0,0.0012976936995983124
32.0,0.001557951676659286
36.0,0.0012600489426404238
40.0,0.001482912921346724
44.0,0.0016449395334348083
48.0,0.0010126142296940088
52.0,0.0011353901354596019
56.0,0.00046632083831354976
60.0,0.0008882387191988528
64.0,7.656784146092832e-05
72.0,-9.687284182291478e-05
80.0,-1.7972846762859263e-05
88.0,0.0008075431687757373
96.0,0.0007561900420114398
104.0,0.00020191546354908496
112.0,-0.0008037897641770542
120.0,-0.0015649606939405203
128.0,-0.0005925649893470109
144.0,0.000459775939816609
160.0,-0.00016841526667121798
176.0,0.0003086213837377727
192.0,0.0004250265483278781
208.0,-0.0002986859472002834
224.0,-6.336632941383868e-05
240.0,0.00024122011382132769
256.0,0.0003301131655462086
288.0,-0.0005502138519659638
320.0,-1.53578475874383e-05
352.0,-0.00031148589914664626
384.0,-0.00011255730350967497
416.0,-1.2935921404277906e-05
448.0,-0.0006750987959094346
480.0,-0.0005244340281933546
512.0,0.0006748262676410377
576.0,0.000507395772729069
640.0,0.00038171623600646853
704.0,-0.0007429151446558535
768.0,-0.00046141218626871705
832.0,-0.00019901937048416585
896.0,0.00048471553600393236
960.0,-0.00017042570107150823
1024.0,0.00019916320161428303
1152.0,7.564840780105442e-05
1280.0,-0.0004656048840843141
1408.0,-3.094599014730193e-05
1536.0,0.00029766259831376374
1664.0,-0.0004035038873553276
1792.0,-0.00012085853086318821
1920.0,0.00019601972599048167
2048.0,0.00040823486051522195
2304.0,-0.0001432273129466921
2560.0,-0.00024099566508084536
2816.0,-0.00010228441533399746
3072.0,0.00041660183342173696
3328.0,0.00026512076146900654
3584.0,-0.0003212474985048175
3840.0,-0.00033416692167520523
4096.0,-5.857425639987923e-05
4608.0,-1.611677544133272e-05
5120.0,0.00015051256923470646
5632.0,-0.0003052993561141193
6144.0,0.0005135613027960062
6656.0,-4.260268542566337e-05
7168.0,3.2808384275995195e-05
7680.0,-0.0003180420317221433
8192.0,-1.5290432202164084e-05
end
