version,3.0
numOfCh,1
type,point
parent_name,484af_10dot0-0dot01
ch_type,1_1
kcount,1
numberNandB,1
brightnessNandB,1
carpet pos,0
pc,0
Time (ms),CH1 Auto-Correlation
1.0,0.4338351786136627
2.0,0.42909476161003113
3.0,0.4256550371646881
4.0,0.42346805334091187
5.0,0.42065393924713135
6.0,0.41851329803466797
7.0,0.4165705740451813
8.0,0.41458263993263245
9.0,0.4125998914241791
10.0,0.41122493147850037
11.0,0.4097576439380646
12.0,0.4085487425327301
13.0,0.40732184052467346
14.0,0.4066452085971832
15.0,0.4050924479961395
16.0,0.4037795662879944
18.0,0.40080657601356506
20.0,0.3986556828022003
22.0,0.3957916796207428
24.0,0.3926803767681122
26.0,0.3890816569328308
28.0,0.38511183857917786
30.0,0.3816159963607788
32.0,0.3784104883670807
36.0,0.3720851242542267
40.0,0.365773469209671
44.0,0.3585977852344513
48.0,0.3500766158103943
52.0,0.342011421918869
56.0,0.33240318298339844
60.0,0.32118239998817444
64.0,0.3096543848514557
72.0,0.2861034572124481
80.0,0.2640717923641205
88.0,0.24661388993263245
96.0,0.22607126832008362
104.0,0.2047758400440216
112.0,0.18388408422470093
120.0,0.16024324297904968
128.0,0.13995400071144104
144.0,0.10131813585758209
160.0,0.070550337433815
176.0,0.049543559551239014
192.0,0.03505891188979149
208.0,0.02795148454606533
224.0,0.01793510839343071
240.0,0.015676025301218033
256.0,0.01612231880426407
288.0,0.01623300462961197
320.0,0.01643454283475876
352.0,0.006448287051171064
384.0,-0.00840076431632042
416.0,-0.018187304958701134
448.0,-0.021358225494623184
480.0,-0.015849769115447998
512.0,-0.004117013420909643
576.0,0.025962255895137787
640.0,0.027917221188545227
704.0,-0.0029095157515257597
768.0,-0.012096871621906757
832.0,-0.023316575214266777
896.0,-0.031169814988970757
960.0,-0.023708010092377663
1024.0,-0.0241486094892025
1152.0,-0.07796315848827362
1280.0,-0.07763755321502686
1408.0,-0.08252086490392685
1536.0,-0.0679507702589035
1664.0,-0.11485829949378967
1792.0,-0.16245652735233307
1920.0,-0.11253897100687027
2048.0,-0.1260816901922226
end
