version,3.0
numOfCh,1
type,point
parent_name,fe81d_0dot2-1dot0
ch_type,1_1
kcount,1
numberNandB,1
brightnessNandB,1
carpet pos,0
pc,0
Time (ms),CH1 Auto-Correlation
1.0,0.0246847253292799
2.0,0.024226443842053413
3.0,0.0238353181630373
4.0,0.023457461968064308
5.0,0.023082222789525986
6.0,0.022725827991962433
7.0,0.02238520421087742
8.0,0.02203257568180561
9.0,0.02168528363108635
10.0,0.02134845033288002
11.0,0.021028362214565277
12.0,0.020707018673419952
13.0,0.020394299179315567
14.0,0.020089026540517807
15.0,0.01979810744524002
16.0,0.019508112221956253
18.0,0.018969690427184105
20.0,0.018482578918337822
22.0,0.018043234944343567
24.0,0.017624303698539734
26.0,0.017221471294760704
28.0,0.016823727637529373
30.0,0.016452714800834656
32.0,0.016100607812404633
36.0,0.015416447073221207
40.0,0.014723626896739006
44.0,0.01410945039242506
48.0,0.013573667034506798
52.0,0.013095924630761147
56.0,0.012687206268310547
60.0,0.01234201155602932
64.0,0.01202429924160242
72.0,0.011384036391973495
80.0,0.010647887364029884
88.0,0.00992893148213625
96.0,0.009290535934269428
104.0,0.008752533234655857
112.0,0.008145131170749664
120.0,0.007564152125269175
128.0,0.0070161414332687855
144.0,0.006339182145893574
160.0,0.0058874040842056274
176.0,0.005755212623625994
192.0,0.005438358057290316
208.0,0.004870760254561901
224.0,0.004226319957524538
240.0,0.0039397613145411015
256.0,0.0039328960701823235
288.0,0.00411281967535615
320.0,0.0037964661605656147
352.0,0.0038914186879992485
384.0,0.00384591449983418
416.0,0.003810780355706811
448.0,0.0037453232798725367
480.0,0.002717447467148304
512.0,0.0018394740764051676
576.0,0.0005569991772063076
640.0,-0.000331160583300516
704.0,-0.0002348118432564661
768.0,-0.0007952153100632131
832.0,-0.00024807016598060727
896.0,0.0001449959381716326
960.0,-0.0012828920735046268
1024.0,-0.002550452249124646
1152.0,-0.003012737724930048
1280.0,-0.0031292573548853397
1408.0,-0.0016954266466200352
1536.0,-0.00199965201318264
1664.0,-0.0014881176175549626
1792.0,-0.0025740296114236116
1920.0,-0.0008685768698342144
2048.0,-0.001518264994956553
2304.0,-0.001293417182751
2560.0,-0.002610924420878291
2816.0,0.0009089006343856454
3072.0,0.0015639793127775192
3328.0,0.0008864817791618407
3584.0,0.0009790783515200019
3840.0,0.0015824541915208101
4096.0,-0.0020119783002883196
4608.0,-0.0020877511706203222
5120.0,-0.00044176162919029593
5632.0,-0.0008146995678544044
6144.0,-0.001395822037011385
6656.0,0.00041688315104693174
7168.0,0.0029062454123049974
7680.0,0.00018514276598580182
8192.0,0.002503590891137719
end
