version,3.0
numOfCh,1
type,point
parent_name,fe81d_0dot2-1dot0
ch_type,1_1
kcount,1
numberNandB,1
brightnessNandB,1
carpet pos,0
pc,0
Time (ms),CH1 Auto-Correlation
1.0,0.019545938819646835
2.0,0.019138507544994354
3.0,0.01876208744943142
4.0,0.018392859026789665
5.0,0.018040945753455162
6.0,0.017689287662506104
7.0,0.017352718859910965
8.0,0.01703731343150139
9.0,0.016734309494495392
10.0,0.016446933150291443
11.0,0.016163963824510574
12.0,0.01589149609208107
13.0,0.015635158866643906
14.0,0.015372011810541153
15.0,0.015119872987270355
16.0,0.014882192015647888
18.0,0.01441339310258627
20.0,0.013973722234368324
22.0,0.013567759655416012
24.0,0.013178321532905102
26.0,0.012813162058591843
28.0,0.012476712465286255
30.0,0.012158680707216263
32.0,0.011835296638309956
36.0,0.01119667012244463
40.0,0.010593782179057598
44.0,0.010071074590086937
48.0,0.009564817883074284
52.0,0.00910426676273346
56.0,0.008705910295248032
60.0,0.008365552872419357
64.0,0.008055479265749454
72.0,0.007519173435866833
80.0,0.007101965136826038
88.0,0.006725212559103966
96.0,0.006361240986734629
104.0,0.006144040729850531
112.0,0.005947050638496876
120.0,0.0056115104816854
128.0,0.005161875393241644
144.0,0.004494238179177046
160.0,0.00429623993113637
176.0,0.0043731313198804855
192.0,0.004416079726070166
208.0,0.004349671769887209
224.0,0.004667206667363644
240.0,0.004930836148560047
256.0,0.005106604658067226
288.0,0.004412959795445204
320.0,0.0033797998912632465
352.0,0.0028090740088373423
384.0,0.0019937115721404552
416.0,0.000993757857941091
448.0,0.000993686611764133
480.0,0.0012905955081805587
512.0,0.0008370903669856489
576.0,-0.0008820880902931094
640.0,-0.001557018724270165
704.0,-0.0013132139574736357
768.0,-0.0004924116074107587
832.0,-0.0015209983102977276
896.0,-0.0020352534484118223
960.0,-0.0016925245290622115
1024.0,-0.0004893168224953115
1152.0,-0.00035334049607627094
1280.0,-0.0006066568312235177
1408.0,-0.0006795026711188257
1536.0,0.00012024649913655594
1664.0,0.00047602414269931614
1792.0,0.00015002459986135364
1920.0,0.0010871919803321362
2048.0,0.0005172278033569455
2304.0,0.0002024103596340865
2560.0,0.00016914041771087795
2816.0,0.00048563029849901795
3072.0,-0.0001425041409675032
3328.0,-0.00010479638876859099
3584.0,-0.001532534952275455
3840.0,-0.003839970100671053
4096.0,-0.0045877546072006226
4608.0,-0.0006290441961027682
5120.0,0.0018316945061087608
5632.0,-0.0015857891412451863
6144.0,0.00028465117793530226
6656.0,0.00029227297636680305
7168.0,-0.00032902692328207195
7680.0,0.00017776865570340306
8192.0,0.003197993617504835
end
