version,3.0
numOfCh,1
type,point
parent_name,fe81d_0dot2-1dot0
ch_type,1_1
kcount,1
numberNandB,1
brightnessNandB,1
carpet pos,0
pc,0
Time (ms),CH1 Auto-Correlation
1.0,0.023900074884295464
2.0,0.02345050685107708
3.0,0.023041630163788795
4.0,0.022642599418759346
5.0,0.022277988493442535
6.0,0.02193712443113327
7.0,0.021607792004942894
8.0,0.021269764751195908
9.0,0.020953917875885963
10.0,0.020653514191508293
11.0,0.020365530624985695
12.0,0.0200513806194067
13.0,0.01975494623184204
14.0,0.01946650631725788
15.0,0.01919778808951378
16.0,0.01893296092748642
18.0,0.01840515248477459
20.0,0.017889924347400665
22.0,0.017365483567118645
24.0,0.016849903389811516
26.0,0.016374671831727028
28.0,0.015914779156446457
30.0,0.01545353140681982
32.0,0.015028526075184345
36.0,0.0142797427251935
40.0,0.01363410148769617
44.0,0.013066976331174374
48.0,0.012526358477771282
52.0,0.012014645151793957
56.0,0.011544198729097843
60.0,0.011124331504106522
64.0,0.010752634145319462
72.0,0.01006398256868124
80.0,0.009464319795370102
88.0,0.009049391373991966
96.0,0.008659714832901955
104.0,0.008355940692126751
112.0,0.008091423660516739
120.0,0.007705919444561005
128.0,0.007340483367443085
144.0,0.0066748871468007565
160.0,0.0061999838799238205
176.0,0.005932254251092672
192.0,0.005492681637406349
208.0,0.004665105137974024
224.0,0.00391630781814456
240.0,0.003383856499567628
256.0,0.003531103953719139
288.0,0.0036600700113922358
320.0,0.003339879447594285
352.0,0.0020768283866345882
384.0,0.0009892575908452272
416.0,0.0005918903625570238
448.0,0.00037749114562757313
480.0,0.00036612237454392016
512.0,0.0008686187211424112
576.0,0.00036286463728174567
640.0,-0.001525449799373746
704.0,-0.0023486940190196037
768.0,-0.001990987453609705
832.0,-0.0018884489545598626
896.0,-0.000948605127632618
960.0,-0.00047338445438072085
1024.0,-0.0008691175607964396
1152.0,-0.002880917629227042
1280.0,-0.0031263488344848156
1408.0,-0.002225227188318968
1536.0,-0.0010995337506756186
1664.0,0.00014760484918951988
1792.0,-0.0011708663078024983
1920.0,-0.0012480691075325012
2048.0,-0.001572389155626297
2304.0,0.0020922678522765636
2560.0,0.003973295912146568
2816.0,0.002012560609728098
3072.0,-0.002329023089259863
3328.0,-0.001855317736044526
3584.0,-0.001186948036774993
3840.0,-0.0007977174827829003
4096.0,-0.0014765041414648294
4608.0,-0.0020422886591404676
5120.0,0.0006999982288107276
5632.0,0.0011382175143808126
6144.0,-0.0005694283754564822
6656.0,-0.0022557771299034357
7168.0,-0.0017343724612146616
7680.0,0.0012816982343792915
8192.0,0.003932558931410313
end
