version,3.0
numOfCh,1
type,point
parent_name,fe81d_0dot2-1dot0
ch_type,1_1
kcount,1
numberNandB,1
brightnessNandB,1
carpet pos,0
pc,0
Time (ms),CH1 Auto-Correlation
1.0,0.021874407306313515
2.0,0.021440204232931137
3.0,0.02102823741734028
4.0,0.020630458369851112
5.0,0.02023112215101719
6.0,0.019851956516504288
7.0,0.019471680745482445
8.0,0.01911339908838272
9.0,0.01877811923623085
10.0,0.018449408933520317
11.0,0.018132919445633888
12.0,0.01783309318125248
13.0,0.017535317689180374
14.0,0.017230629920959473
15.0,0.016931189224123955
16.0,0.0166309904307127
18.0,0.01603664644062519
20.0,0.01546638086438179
22.0,0.014936559833586216
24.0,0.014431429095566273
26.0,0.013928037136793137
28.0,0.013418632559478283
30.0,0.012934348545968533
32.0,0.012449666857719421
36.0,0.011566040106117725
40.0,0.010733109898865223
44.0,0.009957061149179935
48.0,0.009264313615858555
52.0,0.00867934338748455
56.0,0.008220046758651733
60.0,0.00777450343593955
64.0,0.007361740339547396
72.0,0.006886924616992474
80.0,0.00669188192114234
88.0,0.006469219457358122
96.0,0.0063057225197553635
104.0,0.006120107602328062
112.0,0.005960807669907808
120.0,0.0059051779098808765
128.0,0.0058525921776890755
144.0,0.005622318480163813
160.0,0.005150877870619297
176.0,0.0045664687640964985
192.0,0.0038380147889256477
208.0,0.0035691929515451193
224.0,0.0034952349960803986
240.0,0.0035497373901307583
256.0,0.003423477988690138
288.0,0.002576202154159546
320.0,0.0018239840865135193
352.0,0.0010029395343735814
384.0,0.0010100279469043016
416.0,0.0008787785191088915
448.0,2.7711404982255772e-05
480.0,-0.0003682275419123471
512.0,2.190709528804291e-05
576.0,0.0006742365658283234
640.0,0.0012119623133912683
704.0,-0.00032380427001044154
768.0,-0.0007926928228698671
832.0,-0.00015446032921317965
896.0,0.0007006090017966926
960.0,0.0014481351245194674
1024.0,0.0005851067253388464
1152.0,0.0007559492951259017
1280.0,0.00010491377906873822
1408.0,-0.0004260208224877715
1536.0,-0.0007374465931206942
1664.0,0.0004437760217115283
1792.0,6.218605994945392e-05
1920.0,-0.0006679242942482233
2048.0,-0.001158616621978581
2304.0,-0.0010729542700573802
2560.0,0.0014926053117960691
2816.0,0.0013093334855511785
3072.0,-0.00033393510966561735
3328.0,-0.0008410084992647171
3584.0,8.018568041734397e-05
3840.0,0.0007982330280356109
4096.0,0.0007721904548816383
4608.0,0.00023687188513576984
5120.0,-0.0005741713684983552
5632.0,-0.00087886699475348
6144.0,-0.0032920693047344685
6656.0,-0.0009508520015515387
7168.0,-0.0005704465438611805
7680.0,-0.0004768824437633157
8192.0,1.3769393262919039e-05
end
