version,3.0
numOfCh,1
type,point
parent_name,fe81d_0dot2-1dot0
ch_type,1_1
kcount,1
numberNandB,1
brightnessNandB,1
carpet pos,0
pc,0
Time (ms),CH1 Auto-Correlation
1.0,0.021653249859809875
2.0,0.021203938871622086
3.0,0.020787479355931282
4.0,0.02040141075849533
5.0,0.02002149447798729
6.0,0.019649719819426537
7.0,0.01929912157356739
8.0,0.018961774185299873
9.0,0.01862279884517193
10.0,0.01830224320292473
11.0,0.017987238243222237
12.0,0.01768207736313343
13.0,0.017398662865161896
14.0,0.017126647755503654
15.0,0.016861194744706154
16.0,0.01660066470503807
18.0,0.016119087114930153
20.0,0.0156780444085598
22.0,0.015251541510224342
24.0,0.014836850576102734
26.0,0.014414630830287933
28.0,0.014024422504007816
30.0,0.013644310645759106
32.0,0.013275370933115482
36.0,0.012614572420716286
40.0,0.012028695084154606
44.0,0.011523540131747723
48.0,0.011045388877391815
52.0,0.010680238716304302
56.0,0.010431661270558834
60.0,0.01020598690956831
64.0,0.00996057502925396
72.0,0.00940282829105854
80.0,0.008947232738137245
88.0,0.008481744676828384
96.0,0.008046072907745838
104.0,0.007527730893343687
112.0,0.007010911591351032
120.0,0.006477665156126022
128.0,0.005969711113721132
144.0,0.005101291462779045
160.0,0.004795525688678026
176.0,0.004544941708445549
192.0,0.0043754843063652515
208.0,0.004014752339571714
224.0,0.004011032171547413
240.0,0.003990257624536753
256.0,0.00397974019870162
288.0,0.004217313136905432
320.0,0.003926183562725782
352.0,0.003117201616987586
384.0,0.0024580801837146282
416.0,0.0017710755346342921
448.0,0.000841377885080874
480.0,0.0006466482882387936
512.0,0.0006346444715745747
576.0,-0.0007922868244349957
640.0,-0.0012422393774613738
704.0,-0.0018013842636719346
768.0,-0.0020453673787415028
832.0,-0.001530368928797543
896.0,-0.0022383660543709993
960.0,-0.0025869032833725214
1024.0,-0.003103278111666441
1152.0,-0.002813318045809865
1280.0,-0.0013444548239931464
1408.0,-0.001946176285855472
1536.0,-0.0008176781120710075
1664.0,0.00014271172403823584
1792.0,-0.00010715643293224275
1920.0,0.0006886252085678279
2048.0,0.0014321451308205724
2304.0,0.0004920551436953247
2560.0,0.00014930898032616824
2816.0,-0.0024565921630710363
3072.0,-0.0024427962489426136
3328.0,-0.001070951810106635
3584.0,-0.0007804943015798926
3840.0,0.0005723607609979808
4096.0,6.720624514855444e-05
4608.0,-0.00021193240536376834
5120.0,0.001630567479878664
5632.0,-0.0006400402635335922
6144.0,-0.001975600840523839
6656.0,-0.0020525967702269554
7168.0,0.00194323412142694
7680.0,0.0035697720013558865
8192.0,-0.0032734235282987356
end
