version,3.0
numOfCh,1
type,point
parent_name,fe81d_0dot2-1dot0
ch_type,1_1
kcount,1
numberNandB,1
brightnessNandB,1
carpet pos,0
pc,0
Time (ms),CH1 Auto-Correlation
1.0,0.020306600257754326
2.0,0.019888583570718765
3.0,0.01947271078824997
4.0,0.019090820103883743
5.0,0.0187252014875412
6.0,0.01838434860110283
7.0,0.018076684325933456
8.0,0.017783230170607567
9.0,0.017473777756094933
10.0,0.01717289537191391
11.0,0.016889486461877823
12.0,0.01662030629813671
13.0,0.016354858875274658
14.0,0.016088608652353287
15.0,0.01582694612443447
16.0,0.015562154352664948
18.0,0.015082545578479767
20.0,0.014628282748162746
22.0,0.014201880432665348
24.0,0.01379136461764574
26.0,0.013390929438173771
28.0,0.013007571920752525
30.0,0.012662378139793873
32.0,0.012355943210422993
36.0,0.011786656454205513
40.0,0.011251505464315414
44.0,0.01078297384083271
48.0,0.010357248596847057
52.0,0.009922303259372711
56.0,0.009536406956613064
60.0,0.009261521510779858
64.0,0.009011948481202126
72.0,0.008466855622828007
80.0,0.007821331731975079
88.0,0.0071218074299395084
96.0,0.006497513502836227
104.0,0.006000888533890247
112.0,0.005633300635963678
120.0,0.005131219979375601
128.0,0.004808166995644569
144.0,0.004146848805248737
160.0,0.0037324887234717607
176.0,0.003270443994551897
192.0,0.0028461958281695843
208.0,0.0024764039553701878
224.0,0.0019987511914223433
240.0,0.0013001307379454374
256.0,0.0007576049538329244
288.0,0.0006742450059391558
320.0,0.0008017414947971702
352.0,0.00040886373608373106
384.0,0.000590113049838692
416.0,0.0008333579171448946
448.0,0.00010990879673045129
480.0,-0.00042471307097002864
512.0,-0.000705433078110218
576.0,-0.0006670138682238758
640.0,-0.000515608349815011
704.0,-0.000647052947897464
768.0,0.0006961791077628732
832.0,0.001478066435083747
896.0,0.0005086869932711124
960.0,-0.0008443488040938973
1024.0,-0.0013664819998666644
1152.0,0.0006862732116132975
1280.0,0.0011531346244737506
1408.0,0.001818487886339426
1536.0,0.0017154631204903126
1664.0,0.001217552344314754
1792.0,0.0002662006299942732
1920.0,0.0006144179496914148
2048.0,0.0005592614179477096
2304.0,0.0007896923343650997
2560.0,0.0011980744311586022
2816.0,0.0015838630497455597
3072.0,0.0011397412745282054
3328.0,-5.879360469407402e-05
3584.0,-0.0014446692075580359
3840.0,-0.0025766000617295504
4096.0,0.00023803309886716306
4608.0,-0.00048506175517104566
5120.0,0.0011430018348619342
5632.0,-0.001630822429433465
6144.0,-0.0021020444110035896
6656.0,-0.0006510081584565341
7168.0,-0.0008001127862371504
7680.0,0.000350961578078568
8192.0,-0.0015104732010513544
end
