version,3.0
numOfCh,1
type,point
parent_name,fe81d_0dot2-1dot0
ch_type,1_1
kcount,1
numberNandB,1
brightnessNandB,1
carpet pos,0
pc,0
Time (ms),CH1 Auto-Correlation
1.0,0.022674478590488434
2.0,0.022257810458540916
3.0,0.021855033934116364
4.0,0.021472780033946037
5.0,0.021101001650094986
6.0,0.020734407007694244
7.0,0.020382985472679138
8.0,0.02004510723054409
9.0,0.01972173899412155
10.0,0.019401894882321358
11.0,0.019090265035629272
12.0,0.018789764493703842
13.0,0.018484434112906456
14.0,0.018183499574661255
15.0,0.01787765510380268
16.0,0.01758759096264839
18.0,0.017044929787516594
20.0,0.016533439978957176
22.0,0.01602269522845745
24.0,0.015539146028459072
26.0,0.015091918408870697
28.0,0.01463409885764122
30.0,0.01419768389314413
32.0,0.013764193281531334
36.0,0.012964839115738869
40.0,0.012240876443684101
44.0,0.011590621434152126
48.0,0.01098234299570322
52.0,0.010381774976849556
56.0,0.009777194820344448
60.0,0.009224682115018368
64.0,0.008778173476457596
72.0,0.00801259558647871
80.0,0.007261838763952255
88.0,0.006642879918217659
96.0,0.006112672388553619
104.0,0.005872550420463085
112.0,0.005552342161536217
120.0,0.005166835151612759
128.0,0.0047875214368104935
144.0,0.004136286675930023
160.0,0.0034707416780292988
176.0,0.003112433012574911
192.0,0.0028047501109540462
208.0,0.00260990671813488
224.0,0.0023854258470237255
240.0,0.0019668673630803823
256.0,0.0018260820070281625
288.0,0.0013736054534092546
320.0,0.0007164963753893971
352.0,0.0003756306250579655
384.0,0.0007842971826903522
416.0,0.001310903113335371
448.0,0.0017466952558606863
480.0,0.0023375607561320066
512.0,0.001980809960514307
576.0,0.001989518292248249
640.0,0.0008351088035851717
704.0,-0.00036628314410336316
768.0,0.00011247985094087198
832.0,-0.0006028077332302928
896.0,-0.0014701966429129243
960.0,-0.0017626768676564097
1024.0,-0.0012825538869947195
1152.0,0.00036218410241417587
1280.0,-0.0005749313277192414
1408.0,-0.0016664882423356175
1536.0,-0.0011144366580992937
1664.0,-0.0003724490525200963
1792.0,0.00015692941087763757
1920.0,-0.000199972273549065
2048.0,-0.003356784814968705
2304.0,-0.0014210203662514687
2560.0,-0.0011013381881639361
2816.0,0.0003139824257232249
3072.0,0.0016602394171059132
3328.0,0.0014812990557402372
3584.0,0.0010395837016403675
3840.0,-0.00017617232515476644
4096.0,0.001226495485752821
4608.0,-0.00023562238493468612
5120.0,-0.0012932211393490434
5632.0,-0.002593538723886013
6144.0,-0.002292503137141466
6656.0,0.00019541798974387348
7168.0,0.0029078233055770397
7680.0,0.0008911995682865381
8192.0,-0.0006330996402539313
end
