version,3.0
numOfCh,1
type,point
parent_name,fe81d_0dot2-1dot0
ch_type,1_1
kcount,1
numberNandB,1
brightnessNandB,1
carpet pos,0
pc,0
Time (ms),CH1 Auto-Correlation
1.0,0.01936141774058342
2.0,0.018948540091514587
3.0,0.018555941060185432
4.0,0.018176592886447906
5.0,0.017818592488765717
6.0,0.017477327957749367
7.0,0.017141835764050484
8.0,0.01681245118379593
9.0,0.01649104245007038
10.0,0.016185954213142395
11.0,0.01590104214847088
12.0,0.01562938094139099
13.0,0.015356856398284435
14.0,0.015108068473637104
15.0,0.014867094345390797
16.0,0.014625579118728638
18.0,0.014183210209012032
20.0,0.013747056946158409
22.0,0.013319106772542
24.0,0.012915368191897869
26.0,0.012536203488707542
28.0,0.012189704924821854
30.0,0.011876237578690052
32.0,0.011585479602217674
36.0,0.010983613319694996
40.0,0.010405258275568485
44.0,0.00992049090564251
48.0,0.009471246972680092
52.0,0.009054611437022686
56.0,0.008639627136290073
60.0,0.008229237049818039
64.0,0.007883434183895588
72.0,0.007274381350725889
80.0,0.006811080500483513
88.0,0.006410925183445215
96.0,0.005868685431778431
104.0,0.0053704832680523396
112.0,0.005082865245640278
120.0,0.004869179800152779
128.0,0.0047344062477350235
144.0,0.004687035456299782
160.0,0.0046122088097035885
176.0,0.004419418983161449
192.0,0.0038008876144886017
208.0,0.003063854295760393
224.0,0.0024283567909151316
240.0,0.001864209189079702
256.0,0.0012887819902971387
288.0,0.00023250121739692986
320.0,0.0003963421913795173
352.0,0.0004262493457645178
384.0,0.0008121499558910728
416.0,0.0009855738608166575
448.0,0.0006321242544800043
480.0,0.0004091086739208549
512.0,0.00011789491691160947
576.0,0.0007228275644592941
640.0,0.0014587680343538523
704.0,0.0011222627945244312
768.0,0.001344751683063805
832.0,0.002095396863296628
896.0,0.001476952456869185
960.0,0.0001658867986407131
1024.0,0.00012691585288848728
1152.0,-0.0007116033812053502
1280.0,8.682352199684829e-05
1408.0,-8.339705527760088e-05
1536.0,-5.887663064640947e-05
1664.0,0.0011746743693947792
1792.0,0.0005923205171711743
1920.0,0.0008323429501615465
2048.0,-1.7643820683588274e-05
2304.0,5.3522402595262975e-05
2560.0,-0.0013767002383247018
2816.0,-0.002020027255639434
3072.0,-0.000977856107056141
3328.0,-0.0028441420290619135
3584.0,-0.0035675601102411747
3840.0,0.0004020957858301699
4096.0,0.001060118549503386
4608.0,0.0012441379949450493
5120.0,0.000814573431853205
5632.0,0.0004215390363242477
6144.0,0.002360486425459385
6656.0,0.0016385819762945175
7168.0,-0.001524364692158997
7680.0,-0.0010049710981547832
8192.0,-0.00012594289728440344
end
