version,3.0
numOfCh,1
type,point
parent_name,fe81d_0dot2-1dot0
ch_type,1_1
kcount,1
numberNandB,1
brightnessNandB,1
carpet pos,0
pc,0
Time (ms),CH1 Auto-Correlation
1.0,0.02711446024477482
2.0,0.026646113023161888
3.0,0.026237893849611282
4.0,0.025826971977949142
5.0,0.025444019585847855
6.0,0.025091251358389854
7.0,0.024751989170908928
8.0,0.024419663473963737
9.0,0.024111701175570488
10.0,0.023806322365999222
11.0,0.02351999282836914
12.0,0.023242376744747162
13.0,0.022965842857956886
14.0,0.02269974909722805
15.0,0.022441932931542397
16.0,0.02219259738922119
18.0,0.021687891334295273
20.0,0.021174561232328415
22.0,0.020695336163043976
24.0,0.020244251936674118
26.0,0.019827397540211678
28.0,0.019440405070781708
30.0,0.019069040194153786
32.0,0.01871536858379841
36.0,0.018006544560194016
40.0,0.017383350059390068
44.0,0.016683656722307205
48.0,0.016081228852272034
52.0,0.015487794764339924
56.0,0.01494139339774847
60.0,0.014391301199793816
64.0,0.01386629045009613
72.0,0.013006108812987804
80.0,0.012283852323889732
88.0,0.011670408770442009
96.0,0.011267492547631264
104.0,0.010972853749990463
112.0,0.010659806430339813
120.0,0.01045143697410822
128.0,0.010340319946408272
144.0,0.01000717468559742
160.0,0.00938505306839943
176.0,0.008625433780252934
192.0,0.00791112706065178
208.0,0.007374069653451443
224.0,0.006893320940434933
240.0,0.006365253124386072
256.0,0.006045055575668812
288.0,0.006132901180535555
320.0,0.0057991971261799335
352.0,0.005100716836750507
384.0,0.004300929605960846
416.0,0.004048511385917664
448.0,0.0034646352287381887
480.0,0.0024719873908907175
512.0,0.001984585542231798
576.0,0.0008273335988633335
640.0,-0.0006806666497141123
704.0,-0.00219369656406343
768.0,-0.002373871859163046
832.0,-0.0024402698036283255
896.0,-0.002738973591476679
960.0,-0.002172690350562334
1024.0,-0.002473002765327692
1152.0,-0.0020455252379179
1280.0,-0.0022272851783782244
1408.0,-0.0015536211431026459
1536.0,-0.0021111834794282913
1664.0,-0.0030222891364246607
1792.0,-0.002175514120608568
1920.0,-0.0026807375252246857
2048.0,-0.000930234557017684
2304.0,-0.0007431121775880456
2560.0,0.0011961786076426506
2816.0,-8.469582826364785e-05
3072.0,-0.002231178106740117
3328.0,-0.004000311251729727
3584.0,-0.0009504591580480337
3840.0,-0.0007434972212649882
4096.0,-0.0013481987407431006
4608.0,-0.000964559440035373
5120.0,-0.0004762781027238816
5632.0,0.0001524961116956547
6144.0,0.003315227571874857
6656.0,0.005710503086447716
7168.0,-0.0025274688377976418
7680.0,-0.0006045477348379791
8192.0,0.0008031424949876964
end
