version,3.0
numOfCh,1
type,point
parent_name,fe81d_0dot2-1dot0
ch_type,1_1
kcount,1
numberNandB,1
brightnessNandB,1
carpet pos,0
pc,0
Time (ms),CH1 Auto-Correlation
1.0,0.021531593054533005
2.0,0.021112367510795593
3.0,0.020697584375739098
4.0,0.020314861088991165
5.0,0.0199554692953825
6.0,0.019602205604314804
7.0,0.019284524023532867
8.0,0.018974669277668
9.0,0.01867527887225151
10.0,0.018370475620031357
11.0,0.01809023506939411
12.0,0.017813732847571373
13.0,0.01755131036043167
14.0,0.017299233004450798
15.0,0.017043065279722214
16.0,0.016807476058602333
18.0,0.016346506774425507
20.0,0.015926891937851906
22.0,0.015545329079031944
24.0,0.01517476700246334
26.0,0.014822949655354023
28.0,0.014472565613687038
30.0,0.014139726758003235
32.0,0.01382577046751976
36.0,0.013288306072354317
40.0,0.012785141356289387
44.0,0.012260360643267632
48.0,0.01178613118827343
52.0,0.011356341652572155
56.0,0.010953076183795929
60.0,0.010567896068096161
64.0,0.010240665636956692
72.0,0.00969899445772171
80.0,0.009211842902004719
88.0,0.008612919598817825
96.0,0.008059225976467133
104.0,0.007600047159940004
112.0,0.007248071022331715
120.0,0.006896632257848978
128.0,0.006564927287399769
144.0,0.005906865932047367
160.0,0.00527655566111207
176.0,0.0048567503690719604
192.0,0.004704006016254425
208.0,0.004379154182970524
224.0,0.004012003540992737
240.0,0.0035342411138117313
256.0,0.002869230695068836
288.0,0.0017953122733160853
320.0,0.0009848028421401978
352.0,0.00044767060899175704
384.0,-3.964117786381394e-05
416.0,-0.00017625052714720368
448.0,7.20118623576127e-05
480.0,0.0006126620573922992
512.0,0.0015451152576133609
576.0,0.0031841807067394257
640.0,0.0026625217869877815
704.0,0.002400639234110713
768.0,0.0024783643893897533
832.0,0.0013505626702681184
896.0,0.00126380764413625
960.0,0.0014478167286142707
1024.0,0.0012150052934885025
1152.0,0.0014878460206091404
1280.0,0.002452820772305131
1408.0,0.0023128825705498457
1536.0,0.0023517520166933537
1664.0,0.0006876973784528673
1792.0,0.0007521332008764148
1920.0,-0.0002994289970956743
2048.0,0.00024387254961766303
2304.0,-0.0016050783451646566
2560.0,0.0027463536243885756
2816.0,0.0016138273058459163
3072.0,-0.0017841561930254102
3328.0,-0.001957471715286374
3584.0,-0.001779907033778727
3840.0,-0.0016578767681494355
4096.0,0.00011362847726559266
4608.0,-0.0020112297497689724
5120.0,-0.0006295112543739378
5632.0,-0.001822271617129445
6144.0,-0.0030827720183879137
6656.0,-0.0011029451852664351
7168.0,-9.19399899430573e-05
7680.0,-0.002097985241562128
8192.0,-0.0022164087276905775
end
