version,3.0
numOfCh,1
type,point
parent_name,fe81d_0dot2-1dot0
ch_type,1_1
kcount,1
numberNandB,1
brightnessNandB,1
carpet pos,0
pc,0
Time (ms),CH1 Auto-Correlation
1.0,0.023740239441394806
2.0,0.023322081193327904
3.0,0.02292609214782715
4.0,0.02253255434334278
5.0,0.02214783988893032
6.0,0.021787995472550392
7.0,0.021440880373120308
8.0,0.021100478246808052
9.0,0.020763365551829338
10.0,0.02042732574045658
11.0,0.02010626532137394
12.0,0.019796984270215034
13.0,0.019498782232403755
14.0,0.019223934039473534
15.0,0.018955564126372337
16.0,0.018700914457440376
18.0,0.018195172771811485
20.0,0.017719972878694534
22.0,0.01728653721511364
24.0,0.016902294009923935
26.0,0.016507940366864204
28.0,0.01612645760178566
30.0,0.015756361186504364
32.0,0.015418749302625656
36.0,0.014819329604506493
40.0,0.014296364039182663
44.0,0.013820027932524681
48.0,0.013393064960837364
52.0,0.013028295710682869
56.0,0.012720786035060883
60.0,0.012423478066921234
64.0,0.012140637263655663
72.0,0.011598785407841206
80.0,0.01108623668551445
88.0,0.010392492637038231
96.0,0.009717072360217571
104.0,0.009162887930870056
112.0,0.00870771799236536
120.0,0.008364614099264145
128.0,0.007923205383121967
144.0,0.0072073317132890224
160.0,0.006689250003546476
176.0,0.00647073844447732
192.0,0.006364867091178894
208.0,0.006114756688475609
224.0,0.00556166609749198
240.0,0.005176953971385956
256.0,0.005005628801882267
288.0,0.0047426726669073105
320.0,0.004561103880405426
352.0,0.004455419257283211
384.0,0.004358423873782158
416.0,0.00409796554595232
448.0,0.003805604064837098
480.0,0.0039793322794139385
512.0,0.0035707575734704733
576.0,0.0038737296126782894
640.0,0.00399019056931138
704.0,0.003923790063709021
768.0,0.0036202215123921633
832.0,0.0017135008238255978
896.0,-7.745546463411301e-05
960.0,-0.0009457318810746074
1024.0,-0.001746040885336697
1152.0,-0.002540784189477563
1280.0,-0.0005149016506038606
1408.0,8.607322524767369e-05
1536.0,-0.0003429944335948676
1664.0,-0.0006869696080684662
1792.0,-0.0023577697575092316
1920.0,-0.002135741990059614
2048.0,-0.0013298516860231757
2304.0,0.00042480812408030033
2560.0,-0.002497225534170866
2816.0,-0.000436083268141374
3072.0,0.0006677251658402383
3328.0,0.0004100690712220967
3584.0,0.003579854965209961
3840.0,0.004364135675132275
4096.0,0.002067002933472395
4608.0,-0.00010872345592360944
5120.0,-0.0029771639965474606
5632.0,-0.004419328179210424
6144.0,-0.002862909808754921
6656.0,-0.002586191287264228
7168.0,-0.0040381294675171375
7680.0,-0.00244138459675014
8192.0,0.0005738718900829554
end
