version,3.0
numOfCh,1
type,point
parent_name,fe81d_0dot2-1dot0
ch_type,1_1
kcount,1
numberNandB,1
brightnessNandB,1
carpet pos,0
pc,0
Time (ms),CH1 Auto-Correlation
1.0,0.022572899237275124
2.0,0.022181237116456032
3.0,0.021805480122566223
4.0,0.02143317461013794
5.0,0.02107390947639942
6.0,0.020740749314427376
7.0,0.020413007587194443
8.0,0.020102953538298607
9.0,0.01979576237499714
10.0,0.01949477009475231
11.0,0.01920354925096035
12.0,0.01892523653805256
13.0,0.018665142357349396
14.0,0.01841738075017929
15.0,0.01817135512828827
16.0,0.017937442287802696
18.0,0.017523936927318573
20.0,0.017144877463579178
22.0,0.016781622543931007
24.0,0.016443055123090744
26.0,0.016120649874210358
28.0,0.015851670876145363
30.0,0.015624194405972958
32.0,0.015423448756337166
36.0,0.015034959651529789
40.0,0.014581548981368542
44.0,0.014106961898505688
48.0,0.013624552637338638
52.0,0.01321371365338564
56.0,0.012841281481087208
60.0,0.01247392874211073
64.0,0.01207876019179821
72.0,0.011364776641130447
80.0,0.010849924758076668
88.0,0.010319001041352749
96.0,0.009723464958369732
104.0,0.009162823669612408
112.0,0.008634529076516628
120.0,0.008179223164916039
128.0,0.007812153548002243
144.0,0.007152024656534195
160.0,0.006738439667969942
176.0,0.006244156043976545
192.0,0.005648916587233543
208.0,0.005099818110466003
224.0,0.004868038929998875
240.0,0.004743501078337431
256.0,0.0046797809191048145
288.0,0.004341328050941229
320.0,0.0036135094705969095
352.0,0.0027804828714579344
384.0,0.0021601987536996603
416.0,0.0018094024853780866
448.0,0.0015254694735631347
480.0,0.0012966147623956203
512.0,0.0010501296492293477
576.0,0.0014167281333357096
640.0,0.0027206894010305405
704.0,0.00342286704108119
768.0,0.003741390071809292
832.0,0.0036006891168653965
896.0,0.0031074844300746918
960.0,0.001915046595968306
1024.0,0.0005654029664583504
1152.0,-0.00028758440748788416
1280.0,0.0009978984016925097
1408.0,0.0014030886813998222
1536.0,0.0018636486493051052
1664.0,7.1159306571644265e-06
1792.0,-0.0006148567190393806
1920.0,-0.0014861467061564326
2048.0,-0.0012230132706463337
2304.0,-0.0013293129159137607
2560.0,-0.003956481348723173
2816.0,-0.0021609142422676086
3072.0,-0.0019763263408094645
3328.0,-0.003362201387062669
3584.0,-0.0041902572847902775
3840.0,-0.0040521686896681786
4096.0,-0.002799269976094365
4608.0,-0.003478404600173235
5120.0,-0.001266182167455554
5632.0,-0.0007881388301029801
6144.0,0.0002424841222818941
6656.0,0.002415955299511552
7168.0,0.002263809787109494
7680.0,0.003101177979260683
8192.0,0.006272999569773674
end
