version,3.0
numOfCh,1
type,point
parent_name,fe81d_0dot2-1dot0
ch_type,1_1
kcount,1
numberNandB,1
brightnessNandB,1
carpet pos,0
pc,0
Time (ms),CH1 Auto-Correlation
1.0,0.02547577954828739
2.0,0.02506830170750618
3.0,0.024688037112355232
4.0,0.024321530014276505
5.0,0.02396177500486374
6.0,0.023614712059497833
7.0,0.0232866108417511
8.0,0.022975150495767593
9.0,0.022690387442708015
10.0,0.0224127359688282
11.0,0.022148415446281433
12.0,0.021880658343434334
13.0,0.02162645384669304
14.0,0.021373242139816284
15.0,0.021126115694642067
16.0,0.02088039554655552
18.0,0.020397230982780457
20.0,0.019939832389354706
22.0,0.0195197481662035
24.0,0.019117094576358795
26.0,0.018743110820651054
28.0,0.018379151821136475
30.0,0.018013151362538338
32.0,0.0176570862531662
36.0,0.0169838797301054
40.0,0.01635836623609066
44.0,0.0158084724098444
48.0,0.015266669914126396
52.0,0.01478956826031208
56.0,0.014319821260869503
60.0,0.0138626703992486
64.0,0.01343554351478815
72.0,0.012718390673398972
80.0,0.012105300091207027
88.0,0.011560739018023014
96.0,0.011153019964694977
104.0,0.010892118327319622
112.0,0.010523775592446327
120.0,0.010185482911765575
128.0,0.009895676746964455
144.0,0.009338383562862873
160.0,0.00907219760119915
176.0,0.008833610452711582
192.0,0.008564554154872894
208.0,0.008179827593266964
224.0,0.008023662492632866
240.0,0.008261468261480331
256.0,0.00860113650560379
288.0,0.008419152349233627
320.0,0.007818320766091347
352.0,0.00748400017619133
384.0,0.006773174740374088
416.0,0.005547644570469856
448.0,0.004078294150531292
480.0,0.0031824407633394003
512.0,0.002891342155635357
576.0,0.0020028736907988787
640.0,0.0008664016495458782
704.0,0.0010813007829710841
768.0,0.0012820836855098605
832.0,0.00040974628063850105
896.0,0.000482299568830058
960.0,0.0006777596427127719
1024.0,-0.000164251439855434
1152.0,0.0013619305100291967
1280.0,0.0013188231969252229
1408.0,0.0015191561542451382
1536.0,0.0033187787048518658
1664.0,0.003377813147380948
1792.0,0.0015836249804124236
1920.0,-3.7225090636638924e-05
2048.0,-0.0014529088512063026
2304.0,-0.0037418282590806484
2560.0,-0.005594863090664148
2816.0,-0.00468084029853344
3072.0,-0.002642022678628564
3328.0,-0.0006959294551052153
3584.0,-0.00034247650182805955
3840.0,-0.0025887100491672754
4096.0,-0.0030609332025051117
4608.0,-0.0015859634149819613
5120.0,0.0014649324584752321
5632.0,-0.0021471879445016384
6144.0,-0.0031334501691162586
6656.0,-0.0011869230074808002
7168.0,-0.0015908428467810154
7680.0,-0.0021526061464101076
8192.0,-0.00041393321589566767
end
