version,3.0
numOfCh,1
type,point
parent_name,fe81d_0dot2-1dot0
ch_type,1_1
kcount,1
numberNandB,1
brightnessNandB,1
carpet pos,0
pc,0
Time (ms),CH1 Auto-Correlation
1.0,0.021029401570558548
2.0,0.020627543330192566
3.0,0.02025729790329933
4.0,0.01989116333425045
5.0,0.019534174352884293
6.0,0.019174566492438316
7.0,0.01882653310894966
8.0,0.018468521535396576
9.0,0.018127627670764923
10.0,0.017800118774175644
11.0,0.01749187335371971
12.0,0.017193250358104706
13.0,0.016905033960938454
14.0,0.016626909375190735
15.0,0.016355594620108604
16.0,0.016092179343104362
18.0,0.01561059057712555
20.0,0.01514711044728756
22.0,0.014735270291566849
24.0,0.01435805857181549
26.0,0.013997083529829979
28.0,0.013676287606358528
30.0,0.013338153250515461
32.0,0.013004162348806858
36.0,0.012361887842416763
40.0,0.011741148307919502
44.0,0.011234992183744907
48.0,0.010786529630422592
52.0,0.010388405993580818
56.0,0.010067552328109741
60.0,0.009794710204005241
64.0,0.009507558308541775
72.0,0.009101246483623981
80.0,0.00879956316202879
88.0,0.00843888707458973
96.0,0.008037351071834564
104.0,0.007711606100201607
112.0,0.0073290723375976086
120.0,0.00693538086488843
128.0,0.0065791127271950245
144.0,0.00578669086098671
160.0,0.005293031223118305
176.0,0.005039568059146404
192.0,0.004685947205871344
208.0,0.00439042691141367
224.0,0.004447555635124445
240.0,0.004523538518697023
256.0,0.004559279419481754
288.0,0.003561765421181917
320.0,0.0023394564632326365
352.0,0.002095603384077549
384.0,0.0018948387587442994
416.0,0.0020746560767292976
448.0,0.002053585834801197
480.0,0.0025245794095098972
512.0,0.003064096439629793
576.0,0.002106811385601759
640.0,0.0008415650809183717
704.0,-0.00035614348598755896
768.0,0.0007553412578999996
832.0,0.001664862153120339
896.0,0.0007752354140393436
960.0,0.001408285810612142
1024.0,0.002970346249639988
1152.0,0.002155487658455968
1280.0,0.002471305662766099
1408.0,0.002580615459010005
1536.0,0.0025017927400767803
1664.0,0.0013871300034224987
1792.0,0.001905662938952446
1920.0,0.0021273724269121885
2048.0,0.0012335702776908875
2304.0,-0.0020928760059177876
2560.0,-0.0003742104163393378
2816.0,0.00035058995126746595
3072.0,0.0012201244244351983
3328.0,-0.0011757779866456985
3584.0,0.00034966415842063725
3840.0,7.470430864486843e-05
4096.0,-4.837448796024546e-05
4608.0,-9.266709821531549e-05
5120.0,5.734847582061775e-05
5632.0,9.403861622558907e-05
6144.0,0.0007695703534409404
6656.0,0.0011107338359579444
7168.0,-0.001769332797266543
7680.0,-0.00016018375754356384
8192.0,3.453056706348434e-05
end
