version,3.0
numOfCh,1
type,point
parent_name,fe81d_0dot2-1dot0
ch_type,1_1
kcount,1
numberNandB,1
brightnessNandB,1
carpet pos,0
pc,0
Time (ms),CH1 Auto-Correlation
1.0,0.018281657248735428
2.0,0.01786777377128601
3.0,0.017475105822086334
4.0,0.0170965027064085
5.0,0.01673048920929432
6.0,0.01636437699198723
7.0,0.016009941697120667
8.0,0.015669172629714012
9.0,0.015345550142228603
10.0,0.015035241842269897
11.0,0.014725187793374062
12.0,0.014426608569920063
13.0,0.014146856963634491
14.0,0.013864174485206604
15.0,0.01359711866825819
16.0,0.013352101668715477
18.0,0.01287517137825489
20.0,0.01242467574775219
22.0,0.011979267001152039
24.0,0.01155468076467514
26.0,0.011146515607833862
28.0,0.010768272913992405
30.0,0.010400950908660889
32.0,0.010059830732643604
36.0,0.009427075274288654
40.0,0.008817591704428196
44.0,0.008205387741327286
48.0,0.007641656324267387
52.0,0.0071482546627521515
56.0,0.006723294034600258
60.0,0.006317136809229851
64.0,0.005951140075922012
72.0,0.005299407057464123
80.0,0.004744046833366156
88.0,0.00427183136343956
96.0,0.0038962282706052065
104.0,0.003580659395083785
112.0,0.0034078173339366913
120.0,0.0033371069002896547
128.0,0.0032207858748733997
144.0,0.0028064365033060312
160.0,0.00222248793579638
176.0,0.0015183956129476428
192.0,0.0012805804144591093
208.0,0.0013757544802501798
224.0,0.0015867010224610567
240.0,0.0018111288081854582
256.0,0.001822664518840611
288.0,0.00170457165222615
320.0,0.0013503661612048745
352.0,0.0007718225242570043
384.0,0.00023878061620052904
416.0,0.00011504900612635538
448.0,0.0002913712232839316
480.0,0.0003116129373665899
512.0,-1.2431098184606526e-05
576.0,-0.0005203851615078747
640.0,-0.00011546065070433542
704.0,0.00022222411644179374
768.0,-0.00077760562999174
832.0,-0.001448538969270885
896.0,-0.00198146584443748
960.0,-0.0004264563322067261
1024.0,0.0008608353673480451
1152.0,0.0008724047802388668
1280.0,-0.0007032392895780504
1408.0,-0.001449410803616047
1536.0,-0.0018513933755457401
1664.0,-0.001092234393581748
1792.0,0.00012876879191026092
1920.0,-0.0014900100650265813
2048.0,-0.001656328677199781
2304.0,-0.0004186923906672746
2560.0,-0.00036398967495188117
2816.0,9.59700410021469e-05
3072.0,-0.0005314280278980732
3328.0,-0.00034249460441060364
3584.0,0.0018427094910293818
3840.0,0.0022188862785696983
4096.0,0.0013284903252497315
4608.0,-0.0008505496080033481
5120.0,-0.00040000409353524446
5632.0,-0.0007182881236076355
6144.0,-1.0847178600670304e-05
6656.0,0.0004901366773992777
7168.0,-0.00021508560166694224
7680.0,0.0017957985401153564
8192.0,-0.0012815733207389712
end
