version,3.0
numOfCh,1
type,point
parent_name,fe81d_0dot2-1dot0
ch_type,1_1
kcount,1
numberNandB,1
brightnessNandB,1
carpet pos,0
pc,0
Time (ms),CH1 Auto-Correlation
1.0,0.02314029261469841
2.0,0.022713519632816315
3.0,0.022314099594950676
4.0,0.02192956954240799
5.0,0.02157202549278736
6.0,0.021221747621893883
7.0,0.0208644587546587
8.0,0.0205084178596735
9.0,0.0201515294611454
10.0,0.019812867045402527
11.0,0.019488001242280006
12.0,0.01916429027915001
13.0,0.018859921023249626
14.0,0.01856730878353119
15.0,0.018278002738952637
16.0,0.01798904687166214
18.0,0.01744699850678444
20.0,0.01694740541279316
22.0,0.01647084765136242
24.0,0.01603463478386402
26.0,0.015621095895767212
28.0,0.015218793414533138
30.0,0.014844081364572048
32.0,0.014514789916574955
36.0,0.01389126107096672
40.0,0.013290430419147015
44.0,0.012727059423923492
48.0,0.012201010249555111
52.0,0.011694008484482765
56.0,0.011157354339957237
60.0,0.010641513392329216
64.0,0.010171864181756973
72.0,0.009265848435461521
80.0,0.00856479536741972
88.0,0.007915780879557133
96.0,0.007453746162354946
104.0,0.007049113977700472
112.0,0.006635277532041073
120.0,0.00626843236386776
128.0,0.005889120977371931
144.0,0.005291759502142668
160.0,0.0047790068201720715
176.0,0.004221819341182709
192.0,0.003755053738132119
208.0,0.003436403814703226
224.0,0.003399181878194213
240.0,0.003400595858693123
256.0,0.0032808224204927683
288.0,0.0025697716046124697
320.0,0.001558010932058096
352.0,0.0013034550938755274
384.0,0.000995826325379312
416.0,0.0012028596829622984
448.0,0.0012945710914209485
480.0,0.0017654862022027373
512.0,0.00180810724850744
576.0,0.0005126743926666677
640.0,0.00020386552205309272
704.0,1.9745069948839955e-05
768.0,0.0002343079395359382
832.0,0.0007172683253884315
896.0,0.0009356893715448678
960.0,0.001288495259359479
1024.0,0.0020282152108848095
1152.0,0.0003158775216434151
1280.0,-0.0014792848378419876
1408.0,-0.002053401665762067
1536.0,-0.0022037592716515064
1664.0,-0.0022394773550331593
1792.0,-0.0014511400368064642
1920.0,-0.0008360426290892065
2048.0,0.0007678120746277273
2304.0,0.0001750958908814937
2560.0,-0.0006739644450135529
2816.0,0.00037022269680164754
3072.0,0.0009835351957008243
3328.0,0.0018942983588203788
3584.0,0.0005986841861158609
3840.0,0.0010198550298810005
4096.0,-0.0008227654616348445
4608.0,-0.0013365363702178001
5120.0,0.00024137624131981283
5632.0,-0.0011624987237155437
6144.0,0.0008106083259917796
6656.0,-0.0007020516786724329
7168.0,-0.0033038544934242964
7680.0,-0.003159549552947283
8192.0,-0.001666177180595696
end
