version,3.0
numOfCh,1
type,point
parent_name,fe81d_0dot2-1dot0
ch_type,1_1
kcount,1
numberNandB,1
brightnessNandB,1
carpet pos,0
pc,0
Time (ms),CH1 Auto-Correlation
1.0,0.021962743252515793
2.0,0.021539371460676193
3.0,0.021136106923222542
4.0,0.020756298676133156
5.0,0.02039770595729351
6.0,0.02005459927022457
7.0,0.019724400714039803
8.0,0.01941300556063652
9.0,0.019108537584543228
10.0,0.01881965436041355
11.0,0.018539465963840485
12.0,0.018268371000885963
13.0,0.018014028668403625
14.0,0.017752062529325485
15.0,0.017480963841080666
16.0,0.017225265502929688
18.0,0.016716796904802322
20.0,0.016216017305850983
22.0,0.01573942042887211
24.0,0.015287964604794979
26.0,0.014866284094750881
28.0,0.01446901448071003
30.0,0.014101224020123482
32.0,0.013738960027694702
36.0,0.01304640807211399
40.0,0.012393070384860039
44.0,0.011750960722565651
48.0,0.011129182763397694
52.0,0.010517176240682602
56.0,0.009983095340430737
60.0,0.00949703250080347
64.0,0.009130021557211876
72.0,0.008627288974821568
80.0,0.008122366853058338
88.0,0.007574490271508694
96.0,0.007160848472267389
104.0,0.006659604609012604
112.0,0.006257159635424614
120.0,0.005874020513147116
128.0,0.005477714817970991
144.0,0.004641390405595303
160.0,0.004098116885870695
176.0,0.003672320395708084
192.0,0.003192596836015582
208.0,0.0028002518229186535
224.0,0.0023122208658605814
240.0,0.0019492929568514228
256.0,0.002070845104753971
288.0,0.0021882248111069202
320.0,0.0018516655545681715
352.0,0.001710309530608356
384.0,0.0019321208819746971
416.0,0.0015359412645921111
448.0,0.0013540226500481367
480.0,0.0007199191022664309
512.0,-0.00036986448685638607
576.0,-0.0015049924841150641
640.0,-0.0015706857666373253
704.0,-0.0007201047264970839
768.0,-0.0003043820906896144
832.0,-0.0005488659371621907
896.0,-0.0005675211432389915
960.0,-0.0005480098188854754
1024.0,-2.2758835257263854e-05
1152.0,5.193875404074788e-05
1280.0,0.00018674229795578867
1408.0,9.738439257489517e-05
1536.0,-0.0007418976165354252
1664.0,-0.0006937074358575046
1792.0,0.001792736235074699
1920.0,0.0032663950696587563
2048.0,0.00025753091904334724
2304.0,-0.0014391466975212097
2560.0,-0.0021570029202848673
2816.0,-0.0009962092153728008
3072.0,0.00011223269393667579
3328.0,-0.0015764877898618579
3584.0,-0.002313690958544612
3840.0,-0.0017147468170151114
4096.0,-0.002865118207409978
4608.0,0.001166071160696447
5120.0,0.0008637274731881917
5632.0,-0.002861512592062354
6144.0,-0.0011968829203397036
6656.0,0.0023429589346051216
7168.0,0.0017507813172414899
7680.0,0.0012893578968942165
8192.0,0.000952722504734993
end
