version,3.0
numOfCh,1
type,point
parent_name,fe81d_0dot2-1dot0
ch_type,1_1
kcount,1
numberNandB,1
brightnessNandB,1
carpet pos,0
pc,0
Time (ms),CH1 Auto-Correlation
1.0,0.02360270544886589
2.0,0.023179588839411736
3.0,0.02276451885700226
4.0,0.022360512986779213
5.0,0.021972645074129105
6.0,0.02158200368285179
7.0,0.021217918023467064
8.0,0.020877469331026077
9.0,0.020540477707982063
10.0,0.020217450335621834
11.0,0.019904516637325287
12.0,0.0196062084287405
13.0,0.019302353262901306
14.0,0.019015062600374222
15.0,0.018744444474577904
16.0,0.0184851735830307
18.0,0.01798831671476364
20.0,0.017536332830786705
22.0,0.017130956053733826
24.0,0.016745148226618767
26.0,0.01639440283179283
28.0,0.01604289747774601
30.0,0.015700172632932663
32.0,0.015348812565207481
36.0,0.014712385833263397
40.0,0.014128971844911575
44.0,0.01359044760465622
48.0,0.013102773576974869
52.0,0.01273481547832489
56.0,0.012439957819879055
60.0,0.012179391458630562
64.0,0.011935836635529995
72.0,0.011491049081087112
80.0,0.01113241259008646
88.0,0.01074464526027441
96.0,0.010364322923123837
104.0,0.01009046658873558
112.0,0.009843382984399796
120.0,0.00941571407020092
128.0,0.008927956223487854
144.0,0.008012525737285614
160.0,0.007303433958441019
176.0,0.006895706057548523
192.0,0.006637711077928543
208.0,0.006337596569210291
224.0,0.006143537815660238
240.0,0.005889376159757376
256.0,0.005698826164007187
288.0,0.0048813242465257645
320.0,0.004318487364798784
352.0,0.0037848041392862797
384.0,0.0033728289417922497
416.0,0.002915078541263938
448.0,0.0020224428735673428
480.0,0.0017756455345079303
512.0,0.001193096861243248
576.0,-0.0005098136607557535
640.0,-0.0010921997018158436
704.0,-0.0014224140904843807
768.0,-0.0016405371716246009
832.0,-0.001702607492916286
896.0,-0.0020776535384356976
960.0,-0.0010020775953307748
1024.0,0.00022907058882992715
1152.0,0.0001272445369977504
1280.0,0.0008630802622064948
1408.0,0.00162333098705858
1536.0,0.0014456764329224825
1664.0,0.00039747831760905683
1792.0,0.00022798955615144223
1920.0,0.000531960919033736
2048.0,0.0007997617358341813
2304.0,0.0008498717215843499
2560.0,-0.00020967097952961922
2816.0,-0.0018615963635966182
3072.0,-0.0026730727404356003
3328.0,-0.0032972129993140697
3584.0,-0.0025998938363045454
3840.0,0.0010900787310674787
4096.0,0.001783058512955904
4608.0,0.0009622530196793377
5120.0,-0.0011767972027882934
5632.0,4.176326547167264e-05
6144.0,0.0012992913834750652
6656.0,0.0021659869235008955
7168.0,-0.0006554627907462418
7680.0,-0.0011731551494449377
8192.0,0.00044194702059030533
end
