version,3.0
numOfCh,1
type,point
parent_name,fe81d_0dot2-1dot0
ch_type,1_1
kcount,1
numberNandB,1
brightnessNandB,1
carpet pos,0
pc,0
Time (ms),CH1 Auto-Correlation
1.0,0.02113739773631096
2.0,0.0206817127764225
3.0,0.020267609506845474
4.0,0.019873881712555885
5.0,0.019490061327815056
6.0,0.019110584631562233
7.0,0.018730923533439636
8.0,0.0183809045702219
9.0,0.01805039867758751
10.0,0.017733756452798843
11.0,0.01743280701339245
12.0,0.017144035547971725
13.0,0.01687469147145748
14.0,0.016618503257632256
15.0,0.016377683728933334
16.0,0.016135774552822113
18.0,0.015661822631955147
20.0,0.015207016840577126
22.0,0.01475994661450386
24.0,0.014349824748933315
26.0,0.013951756991446018
28.0,0.01356207113713026
30.0,0.01315901055932045
32.0,0.012744434177875519
36.0,0.011996370740234852
40.0,0.011371768079698086
44.0,0.010838283225893974
48.0,0.010341164655983448
52.0,0.009871137328445911
56.0,0.009464440867304802
60.0,0.009093155153095722
64.0,0.008712799288332462
72.0,0.008019362576305866
80.0,0.007495592348277569
88.0,0.007078823167830706
96.0,0.006641905754804611
104.0,0.006191646680235863
112.0,0.005710788071155548
120.0,0.005331757944077253
128.0,0.00501489732414484
144.0,0.004688190761953592
160.0,0.004337990656495094
176.0,0.004035208374261856
192.0,0.0039625754579901695
208.0,0.0038494858890771866
224.0,0.003625533077865839
240.0,0.003364748554304242
256.0,0.0029128151945769787
288.0,0.002129223896190524
320.0,0.0016285426681861281
352.0,0.00117185537237674
384.0,0.0002952464565169066
416.0,-0.0011926806764677167
448.0,-0.0015427115140482783
480.0,-0.0013870731927454472
512.0,-0.001965356757864356
576.0,-0.003180722938850522
640.0,-0.0038542691618204117
704.0,-0.004820706322789192
768.0,-0.004410923458635807
832.0,-0.0032814121805131435
896.0,-0.0022885622456669807
960.0,-0.0009769729804247618
1024.0,-3.061956522287801e-05
1152.0,0.0007107580313459039
1280.0,1.5532976249232888e-05
1408.0,0.00014453812036663294
1536.0,0.0009225553367286921
1664.0,0.0015478041023015976
1792.0,0.002165861427783966
1920.0,0.0010801485041156411
2048.0,0.0004286793409846723
2304.0,-0.002413293346762657
2560.0,-0.002185064135119319
2816.0,-1.1357730727468152e-05
3072.0,0.0017207292839884758
3328.0,0.0015167294768616557
3584.0,-8.802185766398907e-05
3840.0,-0.0008401419036090374
4096.0,-0.00036297645419836044
4608.0,0.0007638274109922349
5120.0,-0.0003671811427921057
5632.0,-0.0006532568950206041
6144.0,-0.0007688773912377656
6656.0,0.0034065942745655775
7168.0,-0.0026181554421782494
7680.0,-0.0007716869004070759
8192.0,0.0009794969810172915
end
