version,3.0
numOfCh,1
type,point
parent_name,fe81d_0dot2-1dot0
ch_type,1_1
kcount,1
numberNandB,1
brightnessNandB,1
carpet pos,0
pc,0
Time (ms),CH1 Auto-Correlation
1.0,0.0188506580889225
2.0,0.018394632264971733
3.0,0.017965538427233696
4.0,0.017576493322849274
5.0,0.017182914540171623
6.0,0.016804218292236328
7.0,0.01644100993871689
8.0,0.016076114028692245
9.0,0.015730051323771477
10.0,0.015388022176921368
11.0,0.015054270625114441
12.0,0.014738614670932293
13.0,0.014427307061851025
14.0,0.014138000085949898
15.0,0.013860674574971199
16.0,0.013602815568447113
18.0,0.013111124746501446
20.0,0.01264512911438942
22.0,0.01220614556223154
24.0,0.011786045506596565
26.0,0.011374039575457573
28.0,0.010987257584929466
30.0,0.010629311203956604
32.0,0.010302729904651642
36.0,0.009675123728811741
40.0,0.009088165126740932
44.0,0.00854603759944439
48.0,0.008087512105703354
52.0,0.007700096815824509
56.0,0.007326897699385881
60.0,0.006962483748793602
64.0,0.006665300112217665
72.0,0.006338148377835751
80.0,0.006209977436810732
88.0,0.006069658324122429
96.0,0.005866698920726776
104.0,0.0056227752938866615
112.0,0.0054123722948133945
120.0,0.0051704575307667255
128.0,0.004896999802440405
144.0,0.0041275485418736935
160.0,0.0033867480233311653
176.0,0.002622346393764019
192.0,0.002397125121206045
208.0,0.001946155447512865
224.0,0.0010524357203394175
240.0,0.00033791371970437467
256.0,-0.00022133885067887604
288.0,-0.00027273292653262615
320.0,-0.0003783036081586033
352.0,-0.00119782832916826
384.0,-0.0011557408142834902
416.0,-0.001178842387162149
448.0,-0.001331808976829052
480.0,-0.0011939164251089096
512.0,-0.0003243859391659498
576.0,0.0003019020368810743
640.0,0.0009426850592717528
704.0,0.0004035047022625804
768.0,-0.0003213603049516678
832.0,-0.0005200417945161462
896.0,-0.000648343120701611
960.0,0.0002684591163415462
1024.0,0.00036989038926549256
1152.0,0.00012632846483029425
1280.0,0.0007674052030779421
1408.0,0.0005418448126874864
1536.0,0.0013114657485857606
1664.0,0.0006585660157725215
1792.0,-0.0013572152238339186
1920.0,-0.0018012278014793992
2048.0,0.00034730121842585504
2304.0,0.001046643010340631
2560.0,0.0013454194413498044
2816.0,0.0009706604760140181
3072.0,0.0003994459693785757
3328.0,-0.0005784975946880877
3584.0,-0.0015944550978019834
3840.0,0.0005513340001925826
4096.0,-0.00033105420880019665
4608.0,-0.0008966628229245543
5120.0,-0.00026185374008491635
5632.0,-7.427082164213061e-05
6144.0,-0.000716018199454993
6656.0,-0.0005672702100127935
7168.0,0.00030425217119045556
7680.0,0.0001050152859534137
8192.0,0.000929017667658627
end
