version,3.0
numOfCh,1
type,point
parent_name,fe81d_0dot2-1dot0
ch_type,1_1
kcount,1
numberNandB,1
brightnessNandB,1
carpet pos,0
pc,0
Time (ms),CH1 Auto-Correlation
1.0,0.01998472958803177
2.0,0.019568558782339096
3.0,0.019172828644514084
4.0,0.018799975514411926
5.0,0.018443766981363297
6.0,0.01810557208955288
7.0,0.01778329722583294
8.0,0.017484424635767937
9.0,0.01718783937394619
10.0,0.016900286078453064
11.0,0.016625212505459785
12.0,0.01636086404323578
13.0,0.01610306091606617
14.0,0.015842707827687263
15.0,0.015588195063173771
16.0,0.015345623716711998
18.0,0.014890827238559723
20.0,0.014478729106485844
22.0,0.014080128632485867
24.0,0.013690774329006672
26.0,0.01331800315529108
28.0,0.012989459559321404
30.0,0.012678099796175957
32.0,0.012375247664749622
36.0,0.011738870292901993
40.0,0.01116469781845808
44.0,0.01063701044768095
48.0,0.01014078687876463
52.0,0.00966251827776432
56.0,0.009210009127855301
60.0,0.008828265592455864
64.0,0.008458822034299374
72.0,0.007688697427511215
80.0,0.006890180986374617
88.0,0.006292412057518959
96.0,0.00582820875570178
104.0,0.005354226566851139
112.0,0.004925204906612635
120.0,0.004594694823026657
128.0,0.004370470531284809
144.0,0.00395243801176548
160.0,0.0035277907736599445
176.0,0.0031606846023350954
192.0,0.00321568944491446
208.0,0.002960470039397478
224.0,0.002526237163692713
240.0,0.001835913979448378
256.0,0.0012397345853969455
288.0,0.00038354634307324886
320.0,-0.00014648497744929045
352.0,0.0002976403047796339
384.0,0.0011785120004788041
416.0,0.0019569091964513063
448.0,0.0025578804779797792
480.0,0.0027167729567736387
512.0,0.0026925222482532263
576.0,0.0020875646732747555
640.0,0.0007120812078937888
704.0,-0.00023721384059172124
768.0,-0.0011749676195904613
832.0,-0.0011201298329979181
896.0,0.00017734589346218854
960.0,0.0011368254199624062
1024.0,0.0009885290637612343
1152.0,0.0005895689246244729
1280.0,-0.0004787161306012422
1408.0,-0.0015537366271018982
1536.0,-0.00016061200585681945
1664.0,-0.0004951459704898298
1792.0,-0.0013384739868342876
1920.0,-0.001721711945720017
2048.0,-0.0011798054911196232
2304.0,-0.0008160205325111747
2560.0,-0.0009008585475385189
2816.0,-0.00016835932910908014
3072.0,-0.0020321975462138653
3328.0,0.0006229488062672317
3584.0,0.0001540040975669399
3840.0,0.0004551775346044451
4096.0,-0.0011164728784933686
4608.0,-0.0003976265143137425
5120.0,0.00021967549400869757
5632.0,0.0003638048656284809
6144.0,-0.00038820033660158515
6656.0,-0.0006846309406682849
7168.0,-0.0010191116016358137
7680.0,-0.0007392591214738786
8192.0,-0.00040460925083607435
end
