version,3.0
numOfCh,1
type,point
parent_name,clean
ch_type,1_1
kcount,1
numberNandB,1
brightnessNandB,1
carpet pos,0
pc,0
Time (ms),CH1 Auto-Correlation
1.0,0.0397624634206295
2.0,0.039161618798971176
3.0,0.038572199642658234
4.0,0.038009148091077805
5.0,0.03745478019118309
6.0,0.036918964236974716
7.0,0.03639710694551468
8.0,0.03589499741792679
9.0,0.03541354089975357
10.0,0.03494836762547493
11.0,0.034496013075113297
12.0,0.03406452760100365
13.0,0.03364412859082222
14.0,0.0332290381193161
15.0,0.03281458839774132
16.0,0.03241029754281044
18.0,0.03166327625513077
20.0,0.03093673661351204
22.0,0.030237391591072083
24.0,0.029571451246738434
26.0,0.028929797932505608
28.0,0.028355946764349937
30.0,0.027848895639181137
32.0,0.02735728584229946
36.0,0.026356400921940804
40.0,0.02538602240383625
44.0,0.02449570782482624
48.0,0.023620417341589928
52.0,0.02279643900692463
56.0,0.022115889936685562
60.0,0.021413816139101982
64.0,0.020625075325369835
72.0,0.019190488383173943
80.0,0.018015805631875992
88.0,0.016942495480179787
96.0,0.015989428386092186
104.0,0.015220819041132927
112.0,0.014616291038691998
120.0,0.014203706756234169
128.0,0.013758225366473198
144.0,0.012604051269590855
160.0,0.011344948783516884
176.0,0.01039148773998022
192.0,0.009833307936787605
208.0,0.009447715245187283
224.0,0.009740439243614674
240.0,0.00977871473878622
256.0,0.008926873095333576
288.0,0.0072967056185007095
320.0,0.005935224238783121
352.0,0.003961930982768536
384.0,0.0034200765658169985
416.0,0.0027123456820845604
448.0,0.002337487880140543
480.0,0.0019898805767297745
512.0,0.0015989099629223347
576.0,-0.0006819618283770978
640.0,-0.0019725889433175325
704.0,-0.0028396148700267076
768.0,-0.0011833830503746867
832.0,-0.0015843166038393974
896.0,-0.0025481542106717825
960.0,-0.001966997282579541
1024.0,2.575316102593206e-05
1152.0,-0.0007288541528396308
1280.0,-0.00032737929723225534
1408.0,-0.0003242535167373717
1536.0,0.0008786114631220698
1664.0,0.0021460221614688635
1792.0,0.006182024721056223
1920.0,0.007780273444950581
2048.0,0.003731188829988241
2304.0,-0.001102885347791016
2560.0,-0.005894084461033344
2816.0,-0.006411246955394745
3072.0,-0.004259984474629164
3328.0,-0.0026341313496232033
3584.0,0.0019707209430634975
3840.0,0.0030839843675494194
4096.0,0.0015007982729002833
4608.0,-0.003128307405859232
5120.0,0.001842203550040722
5632.0,-0.0005011111497879028
6144.0,0.0032498810905963182
6656.0,0.0010466303210705519
7168.0,0.0027196346782147884
7680.0,-0.004022687673568726
8192.0,-0.0030710522551089525
9216.0,-0.005314958281815052
10240.0,-0.0011137918336316943
11264.0,0.0021681308280676603
12288.0,-0.0015354391653090715
13312.0,-0.00639607897028327
14336.0,0.002631761832162738
end
