version,3.0
numOfCh,1
type,point
parent_name,clean
ch_type,1_1
kcount,1
numberNandB,1
brightnessNandB,1
carpet pos,0
pc,0
Time (ms),CH1 Auto-Correlation
1.0,0.062200967222452164
2.0,0.06098499149084091
3.0,0.05978858098387718
4.0,0.058659300208091736
5.0,0.057551268488168716
6.0,0.0565108060836792
7.0,0.055478792637586594
8.0,0.054477568715810776
9.0,0.053498774766922
10.0,0.052570343017578125
11.0,0.05167057365179062
12.0,0.05078531429171562
13.0,0.04991430789232254
14.0,0.04908820241689682
15.0,0.0482819490134716
16.0,0.04749713093042374
18.0,0.04596416652202606
20.0,0.04446285218000412
22.0,0.04297073930501938
24.0,0.04160887002944946
26.0,0.04033629968762398
28.0,0.03916449099779129
30.0,0.0380050465464592
32.0,0.0368618480861187
36.0,0.03465580195188522
40.0,0.03263314813375473
44.0,0.030764082446694374
48.0,0.029118744656443596
52.0,0.027638791128993034
56.0,0.02637743018567562
60.0,0.02522791549563408
64.0,0.024277621880173683
72.0,0.022768273949623108
80.0,0.02102574333548546
88.0,0.019308101385831833
96.0,0.017457248643040657
104.0,0.015608592890202999
112.0,0.014256451278924942
120.0,0.013145685195922852
128.0,0.01213097758591175
144.0,0.01003627572208643
160.0,0.007687285542488098
176.0,0.006350263021886349
192.0,0.006178553216159344
208.0,0.006355176214128733
224.0,0.006654559634625912
240.0,0.005971342790871859
256.0,0.004517911933362484
288.0,0.0005304344813339412
320.0,-0.001792295603081584
352.0,-0.002859359374269843
384.0,-0.0010328891221433878
416.0,-0.0001131677781813778
448.0,-0.00010735346586443484
480.0,0.0018492058152332902
512.0,0.002608013339340687
576.0,0.002418649848550558
640.0,0.0006398822297342122
704.0,-0.00036864355206489563
768.0,-0.0004129470034968108
832.0,-0.0014173652743920684
896.0,-0.0005500037223100662
960.0,-0.0013356980634853244
1024.0,-0.0024631412234157324
1152.0,0.00024229541304521263
1280.0,-0.0008741506026126444
1408.0,-1.3986908925289754e-05
1536.0,-0.003495702752843499
1664.0,-0.0011513745412230492
1792.0,-0.003772763768211007
1920.0,-0.005243990104645491
2048.0,-0.005885872524231672
2304.0,-0.0039003423880785704
2560.0,0.003615046152845025
2816.0,-0.0007269507041200995
3072.0,-0.0028475027065724134
3328.0,-7.265235763043165e-05
3584.0,-0.0020854275207966566
3840.0,-0.006155416835099459
4096.0,-0.003226438071578741
4608.0,0.002617167541757226
5120.0,0.002223098883405328
5632.0,0.002196277491748333
6144.0,-0.001729163690470159
6656.0,-0.0009612807189114392
7168.0,0.0019435174763202667
7680.0,0.0031173545867204666
8192.0,-0.0002751225547399372
9216.0,0.0026901643723249435
10240.0,-0.0013709060149267316
11264.0,-0.005314911250025034
12288.0,0.0029162296559661627
13312.0,-0.0019844393245875835
14336.0,-0.002716977847740054
end
