version,3.0
numOfCh,1
type,point
parent_name,clean
ch_type,1_1
kcount,1
numberNandB,1
brightnessNandB,1
carpet pos,0
pc,0
Time (ms),CH1 Auto-Correlation
1.0,0.07190987467765808
2.0,0.0708305686712265
3.0,0.06976061314344406
4.0,0.06872385740280151
5.0,0.06773292273283005
6.0,0.06677674502134323
7.0,0.06584113836288452
8.0,0.06493985652923584
9.0,0.06404241174459457
10.0,0.06315477937459946
11.0,0.06228826940059662
12.0,0.061433255672454834
13.0,0.06059657037258148
14.0,0.059767529368400574
15.0,0.058926697820425034
16.0,0.05813060328364372
18.0,0.05661788582801819
20.0,0.05516282469034195
22.0,0.053722281008958817
24.0,0.0523323193192482
26.0,0.05094505473971367
28.0,0.049602359533309937
30.0,0.04830503463745117
32.0,0.04707586020231247
36.0,0.044861674308776855
40.0,0.04289624094963074
44.0,0.041081421077251434
48.0,0.039389368146657944
52.0,0.03779762238264084
56.0,0.036407265812158585
60.0,0.035185832530260086
64.0,0.03409196436405182
72.0,0.03171536326408386
80.0,0.02956603467464447
88.0,0.027558494359254837
96.0,0.02516334503889084
104.0,0.02275225520133972
112.0,0.020942825824022293
120.0,0.019565660506486893
128.0,0.018218237906694412
144.0,0.016341542825102806
160.0,0.01427889708429575
176.0,0.011829271912574768
192.0,0.009743600152432919
208.0,0.0076536196283996105
224.0,0.006382168270647526
240.0,0.00638949777930975
256.0,0.006002106238156557
288.0,0.006807864643633366
320.0,0.008316007442772388
352.0,0.009401223622262478
384.0,0.00900205783545971
416.0,0.007534487638622522
448.0,0.004284311551600695
480.0,0.0016217019874602556
512.0,0.0010800480376929045
576.0,-0.0033381280954927206
640.0,-0.006519533693790436
704.0,-0.007669931743294001
768.0,-0.007784258108586073
832.0,-0.006358121521770954
896.0,-0.0063178143464028835
960.0,-0.006820365786552429
1024.0,-0.009330333210527897
1152.0,-0.009926781989634037
1280.0,-0.0025240331888198853
1408.0,-0.0029555039945989847
1536.0,-0.004699748009443283
1664.0,-0.0004720075521618128
1792.0,0.006926783826202154
1920.0,0.0004187966405879706
2048.0,-0.0006905110203661025
2304.0,0.0007292095688171685
2560.0,-0.001879480085335672
2816.0,-0.008877442218363285
3072.0,0.0014844987308606505
3328.0,0.000188742924365215
3584.0,0.007171781733632088
3840.0,0.00426775636151433
4096.0,0.005206739529967308
4608.0,-0.0036472040228545666
5120.0,0.006910847965627909
5632.0,-0.0001801743492251262
6144.0,-0.013595853000879288
6656.0,0.0026375434827059507
7168.0,0.009332042187452316
7680.0,0.0023208619095385075
8192.0,-0.0016146478010341525
9216.0,-0.007138410583138466
10240.0,-0.0018569264793768525
11264.0,0.0015199659392237663
12288.0,0.0032157308887690306
13312.0,-0.005434832070022821
14336.0,-0.004812697414308786
end
