version,3.0
numOfCh,1
type,point
parent_name,clean
ch_type,1_1
kcount,1
numberNandB,1
brightnessNandB,1
carpet pos,0
pc,0
Time (ms),CH1 Auto-Correlation
1.0,0.08165141195058823
2.0,0.08036188781261444
3.0,0.07913775742053986
4.0,0.07791423052549362
5.0,0.07671710848808289
6.0,0.07557076215744019
7.0,0.0744732916355133
8.0,0.07340796291828156
9.0,0.07237236201763153
10.0,0.07136927545070648
11.0,0.07035793364048004
12.0,0.06939028203487396
13.0,0.06843238323926926
14.0,0.06750897318124771
15.0,0.06661967188119888
16.0,0.06573071330785751
18.0,0.06401816010475159
20.0,0.06245121732354164
22.0,0.06091779097914696
24.0,0.05950460210442543
26.0,0.05815475806593895
28.0,0.05678078904747963
30.0,0.055373549461364746
32.0,0.05400979891419411
36.0,0.05153364688158035
40.0,0.04929812625050545
44.0,0.04724511504173279
48.0,0.04541167616844177
52.0,0.04364975914359093
56.0,0.04192705452442169
60.0,0.040168263018131256
64.0,0.03846380114555359
72.0,0.03608844429254532
80.0,0.0346258282661438
88.0,0.03301980718970299
96.0,0.03158484399318695
104.0,0.030027534812688828
112.0,0.028720099478960037
120.0,0.027578579261898994
128.0,0.026347123086452484
144.0,0.023110440000891685
160.0,0.020058313384652138
176.0,0.017834870144724846
192.0,0.016768580302596092
208.0,0.015346883796155453
224.0,0.013990821316838264
240.0,0.012871724553406239
256.0,0.011474988423287868
288.0,0.01037766132503748
320.0,0.00930153951048851
352.0,0.007290964014828205
384.0,0.005387544631958008
416.0,0.004001860972493887
448.0,0.004645625129342079
480.0,0.0038072029128670692
512.0,0.0020105147268623114
576.0,0.00018536587595008314
640.0,-0.0011096078669652343
704.0,-0.004611163400113583
768.0,-0.003933847416192293
832.0,-0.006134732160717249
896.0,-0.006355440244078636
960.0,-0.010301652364432812
1024.0,-0.012186286970973015
1152.0,-0.0048414901830255985
1280.0,-0.007077403366565704
1408.0,-0.009549696929752827
1536.0,-0.0064910706132650375
1664.0,0.0006083553307689726
1792.0,0.004476972855627537
1920.0,0.0010880607878789306
2048.0,0.0016952769365161657
2304.0,-0.004556470084935427
2560.0,-0.002900979481637478
2816.0,0.00576690211892128
3072.0,0.010469254106283188
3328.0,0.00968917552381754
3584.0,0.00984843261539936
3840.0,0.004108253866434097
4096.0,-0.006276015657931566
4608.0,-0.0015936839627102017
5120.0,-0.0008216509595513344
5632.0,-0.00895838811993599
6144.0,0.00712925661355257
6656.0,0.005009645130485296
7168.0,-0.0021601752378046513
7680.0,-0.00961823295801878
8192.0,-0.009935586713254452
9216.0,-8.923280984163284e-05
10240.0,0.002162463264539838
11264.0,-0.011196443811058998
12288.0,0.00605676369741559
13312.0,0.0029851116705685854
14336.0,-0.009426594711840153
end
