version,3.0
numOfCh,1
type,point
parent_name,clean
ch_type,1_1
kcount,1
numberNandB,1
brightnessNandB,1
carpet pos,0
pc,0
Time (ms),CH1 Auto-Correlation
1.0,0.06647753715515137
2.0,0.06532184034585953
3.0,0.06421703845262527
4.0,0.06314435601234436
5.0,0.06207098811864853
6.0,0.061009105294942856
7.0,0.0600009523332119
8.0,0.05901794135570526
9.0,0.058055270463228226
10.0,0.057097118347883224
11.0,0.05615828186273575
12.0,0.05526606738567352
13.0,0.05442389100790024
14.0,0.05360917001962662
15.0,0.052850548177957535
16.0,0.05211089923977852
18.0,0.05064686760306358
20.0,0.0491897277534008
22.0,0.047774869948625565
24.0,0.04641977697610855
26.0,0.045162495225667953
28.0,0.044000476598739624
30.0,0.04284846782684326
32.0,0.041773006319999695
36.0,0.039701223373413086
40.0,0.03762229159474373
44.0,0.03553811460733414
48.0,0.033505793660879135
52.0,0.031543292105197906
56.0,0.02970169670879841
60.0,0.028076503425836563
64.0,0.02664169855415821
72.0,0.024175597354769707
80.0,0.021970808506011963
88.0,0.019527386873960495
96.0,0.01776679791510105
104.0,0.016254376620054245
112.0,0.0152651472017169
120.0,0.014486083760857582
128.0,0.013650288805365562
144.0,0.011610379442572594
160.0,0.009546094574034214
176.0,0.008325545117259026
192.0,0.0073090349324047565
208.0,0.006535652559250593
224.0,0.0056597162038087845
240.0,0.004824576899409294
256.0,0.003927911631762981
288.0,0.001983870519325137
320.0,0.0011003224644809961
352.0,0.002049533184617758
384.0,0.0015238975174725056
416.0,0.0006073380936868489
448.0,-0.002393977949395776
480.0,-0.0028345435857772827
512.0,-0.002800484886392951
576.0,-0.004681114573031664
640.0,-0.001706997281871736
704.0,-0.0005598564748652279
768.0,-0.002925368258729577
832.0,-0.007514975965023041
896.0,-0.007282639387995005
960.0,-0.007056945003569126
1024.0,-0.004189230501651764
1152.0,-0.005694292951375246
1280.0,-0.00039376827771775424
1408.0,0.0026946659199893475
1536.0,0.0003192983567714691
1664.0,-0.00015948957297950983
1792.0,-0.004136846400797367
1920.0,-0.00643001077696681
2048.0,0.0013552227756008506
2304.0,-0.0036922770086675882
2560.0,-0.002993163885548711
2816.0,-0.0020747322123497725
3072.0,0.004787788260728121
3328.0,0.004539418499916792
3584.0,0.0005331167485564947
3840.0,0.005096323322504759
4096.0,-0.0022068072576075792
4608.0,-0.0025461562909185886
5120.0,-0.0033433109056204557
5632.0,0.0016461809864267707
6144.0,-0.004844066686928272
6656.0,0.00012928555952385068
7168.0,0.0077522508800029755
7680.0,-0.0023780970368534327
8192.0,-0.0011956311063840985
9216.0,-0.00349606666713953
10240.0,-5.7387784181628376e-05
11264.0,0.00026325564249418676
12288.0,-0.0014092943165451288
13312.0,-0.001672167214564979
14336.0,-0.0003175171441398561
end
