version,3.0
numOfCh,1
type,point
parent_name,clean
ch_type,1_1
kcount,1
numberNandB,1
brightnessNandB,1
carpet pos,0
pc,0
Time (ms),CH1 Auto-Correlation
1.0,0.03636650741100311
2.0,0.0358302965760231
3.0,0.03531910851597786
4.0,0.03481133654713631
5.0,0.034319713711738586
6.0,0.03383063152432442
7.0,0.03336433693766594
8.0,0.03290853276848793
9.0,0.03247092664241791
10.0,0.03203505650162697
11.0,0.031611453741788864
12.0,0.03118702955543995
13.0,0.030782699584960938
14.0,0.030406605452299118
15.0,0.030045004561543465
16.0,0.029689649119973183
18.0,0.029035739600658417
20.0,0.02840973436832428
22.0,0.027821198105812073
24.0,0.02726864255964756
26.0,0.02672736346721649
28.0,0.026207083836197853
30.0,0.02569463662803173
32.0,0.025230424478650093
36.0,0.02443622797727585
40.0,0.023722872138023376
44.0,0.02305915579199791
48.0,0.022440535947680473
52.0,0.02190050296485424
56.0,0.02136991173028946
60.0,0.020795011892914772
64.0,0.020253166556358337
72.0,0.01910410076379776
80.0,0.01780024729669094
88.0,0.016703272238373756
96.0,0.015894392505288124
104.0,0.015345410443842411
112.0,0.014838110655546188
120.0,0.014377991668879986
128.0,0.014142366126179695
144.0,0.013857424259185791
160.0,0.013712135143578053
176.0,0.013486556708812714
192.0,0.013363747857511044
208.0,0.013072744011878967
224.0,0.012481633573770523
240.0,0.011701415292918682
256.0,0.010743165388703346
288.0,0.009081714786589146
320.0,0.007613322231918573
352.0,0.0068953256122767925
384.0,0.00666095269843936
416.0,0.006818183697760105
448.0,0.00751264113932848
480.0,0.007044757716357708
512.0,0.006383297499269247
576.0,0.005910723935812712
640.0,0.006201494950801134
704.0,0.0051791127771139145
768.0,0.0042988620698452
832.0,0.0054258499294519424
896.0,0.005383101757615805
960.0,0.004608028568327427
1024.0,0.004370176699012518
1152.0,0.004322577267885208
1280.0,0.0025016493164002895
1408.0,0.0017233591061085463
1536.0,-0.0014660722808912396
1664.0,-0.003244278021156788
1792.0,-0.005498701240867376
1920.0,-0.004258279222995043
2048.0,-0.005543549545109272
2304.0,-0.003972575534135103
2560.0,-0.005630804225802422
2816.0,-0.0069565423764288425
3072.0,-0.0036748757120221853
3328.0,-0.004018401727080345
3584.0,-0.0038749936502426863
3840.0,-0.0011962458956986666
4096.0,0.0029399937484413385
4608.0,0.0033681297209113836
5120.0,0.004420384299010038
5632.0,0.0028732377104461193
6144.0,0.0008865810232236981
6656.0,-0.0032300534658133984
7168.0,-0.0072239297442138195
7680.0,-0.008244901895523071
8192.0,-0.00786453764885664
9216.0,0.0019343247404322028
10240.0,0.0023636547848582268
11264.0,-0.0016433412674814463
12288.0,-0.0022364184260368347
13312.0,-0.0008688440429978073
14336.0,0.0047388202510774136
end
