version,3.0
numOfCh,1
type,point
parent_name,clean
ch_type,1_1
kcount,1
numberNandB,1
brightnessNandB,1
carpet pos,0
pc,0
Time (ms),CH1 Auto-Correlation
1.0,0.020996885374188423
2.0,0.020614834502339363
3.0,0.020243624225258827
4.0,0.019872423261404037
5.0,0.019513895735144615
6.0,0.01916109398007393
7.0,0.018817460164427757
8.0,0.01848123036324978
9.0,0.01816108264029026
10.0,0.017857138067483902
11.0,0.017563311383128166
12.0,0.01727917231619358
13.0,0.01700408384203911
14.0,0.0167335607111454
15.0,0.0164667759090662
16.0,0.016213268041610718
18.0,0.015728339552879333
20.0,0.015266668982803822
22.0,0.014860820025205612
24.0,0.014505570754408836
26.0,0.014162581413984299
28.0,0.013859034515917301
30.0,0.013573242351412773
32.0,0.013289881870150566
36.0,0.012707418762147427
40.0,0.01211470551788807
44.0,0.011564716696739197
48.0,0.011063054203987122
52.0,0.010629598051309586
56.0,0.010271343402564526
60.0,0.009986046701669693
64.0,0.009740819223225117
72.0,0.009252495132386684
80.0,0.008779020048677921
88.0,0.008246343582868576
96.0,0.007795667741447687
104.0,0.007327827624976635
112.0,0.006913385819643736
120.0,0.006508460268378258
128.0,0.006262837443500757
144.0,0.005883718375116587
160.0,0.005692009814083576
176.0,0.0053656515665352345
192.0,0.004923684988170862
208.0,0.004296725150197744
224.0,0.004077591933310032
240.0,0.0037890023086220026
256.0,0.003499591490253806
288.0,0.0028957598842680454
320.0,0.0026917720679193735
352.0,0.0024520852603018284
384.0,0.0018316954374313354
416.0,0.0011158707784488797
448.0,0.0007128914003260434
480.0,0.0004078611673321575
512.0,0.0003124946670141071
576.0,0.000866890128236264
640.0,0.0010387167567387223
704.0,0.0007072606240399182
768.0,0.001195059739984572
832.0,0.0004442271892912686
896.0,-0.0005672452971339226
960.0,-0.00047913313028402627
1024.0,0.0001022772557917051
1152.0,0.0007508271955884993
1280.0,0.0006214927416294813
1408.0,0.001271447166800499
1536.0,0.002251946832984686
1664.0,0.002449137158691883
1792.0,0.0015729485312476754
1920.0,0.0009342639823444188
2048.0,-0.00048455281648784876
2304.0,0.0016003968194127083
2560.0,-5.846091153216548e-05
2816.0,-0.00017155800014734268
3072.0,-0.0014824976678937674
3328.0,-0.003066334640607238
3584.0,-0.0028097231406718493
3840.0,-0.002482685958966613
4096.0,-0.0012220949865877628
4608.0,-0.0011589499190449715
5120.0,-0.0023545073345303535
5632.0,-0.0022736371029168367
6144.0,-0.0026119539979845285
6656.0,-5.630509622278623e-05
7168.0,0.00016774663527030498
7680.0,-0.001973934704437852
8192.0,0.0027250018902122974
9216.0,0.0018326258286833763
10240.0,0.0005995504907332361
11264.0,0.0007022010977379978
12288.0,-0.000692090077791363
13312.0,-0.0007094158791005611
14336.0,-0.0009326973231509328
end
