version,3.0
numOfCh,1
type,point
parent_name,clean
ch_type,1_1
kcount,1
numberNandB,1
brightnessNandB,1
carpet pos,0
pc,0
Time (ms),CH1 Auto-Correlation
1.0,0.042546022683382034
2.0,0.041962798684835434
3.0,0.0413985513150692
4.0,0.04085886850953102
5.0,0.040349919348955154
6.0,0.039844200015068054
7.0,0.03935074806213379
8.0,0.038859087973833084
9.0,0.03838612511754036
10.0,0.03792916610836983
11.0,0.037506066262722015
12.0,0.03710145130753517
13.0,0.036698948591947556
14.0,0.03630799800157547
15.0,0.035925690084695816
16.0,0.03555158153176308
18.0,0.034849174320697784
20.0,0.03418062999844551
22.0,0.03355924040079117
24.0,0.03295750543475151
26.0,0.0323915034532547
28.0,0.031866107136011124
30.0,0.031396716833114624
32.0,0.03096257895231247
36.0,0.030110392719507217
40.0,0.029281800612807274
44.0,0.02843319997191429
48.0,0.0275714173913002
52.0,0.026790956035256386
56.0,0.02611149474978447
60.0,0.025474322959780693
64.0,0.024873167276382446
72.0,0.023709286004304886
80.0,0.02269173040986061
88.0,0.02175173908472061
96.0,0.021001264452934265
104.0,0.020468149334192276
112.0,0.019967421889305115
120.0,0.019467324018478394
128.0,0.018980911001563072
144.0,0.017970655113458633
160.0,0.01693173684179783
176.0,0.016003072261810303
192.0,0.015862682834267616
208.0,0.015513438731431961
224.0,0.015097511932253838
240.0,0.0148777449503541
256.0,0.014617141336202621
288.0,0.014900936745107174
320.0,0.015034583397209644
352.0,0.015074319206178188
384.0,0.015322024933993816
416.0,0.014721155166625977
448.0,0.013093225657939911
480.0,0.012026224285364151
512.0,0.011465724557638168
576.0,0.009894942864775658
640.0,0.008207219652831554
704.0,0.007106625474989414
768.0,0.007126941345632076
832.0,0.008158085867762566
896.0,0.008670022711157799
960.0,0.007474660873413086
1024.0,0.005089716985821724
1152.0,0.0018609437393024564
1280.0,0.0034502900671213865
1408.0,0.002356946002691984
1536.0,0.002750446554273367
1664.0,0.0025496515445411205
1792.0,0.003819447010755539
1920.0,0.0049295928329229355
2048.0,0.00394087191671133
2304.0,0.003500321414321661
2560.0,0.0032835344318300486
2816.0,0.0020326871890574694
3072.0,-0.0003833931405097246
3328.0,-0.0048222728073596954
3584.0,-0.008962303400039673
3840.0,-0.010850257240235806
4096.0,-0.010191664099693298
4608.0,-0.0035180342383682728
5120.0,-0.0005207909853197634
5632.0,-0.006291989702731371
6144.0,-0.008375981822609901
6656.0,-0.004909640643745661
7168.0,-0.002610529074445367
7680.0,-0.003299032337963581
8192.0,-0.005037404131144285
9216.0,-0.005732472520321608
10240.0,0.0020406285766512156
11264.0,-0.002199053531512618
12288.0,0.003684916300699115
13312.0,0.00023705020430497825
14336.0,0.0006726824212819338
end
