version,3.0
numOfCh,1
type,point
parent_name,clean
ch_type,1_1
kcount,1
numberNandB,1
brightnessNandB,1
carpet pos,0
pc,0
Time (ms),CH1 Auto-Correlation
1.0,0.02942763827741146
2.0,0.028865646570920944
3.0,0.02832161635160446
4.0,0.027787569910287857
5.0,0.027277100831270218
6.0,0.026787716895341873
7.0,0.02629937417805195
8.0,0.025820134207606316
9.0,0.02535376325249672
10.0,0.024898162111639977
11.0,0.024429334327578545
12.0,0.023977387696504593
13.0,0.023536676540970802
14.0,0.02310878224670887
15.0,0.02270648069679737
16.0,0.022322168573737144
18.0,0.021583788096904755
20.0,0.02088298462331295
22.0,0.02024189569056034
24.0,0.01964551769196987
26.0,0.01907322369515896
28.0,0.01852833852171898
30.0,0.01801280677318573
32.0,0.017525460571050644
36.0,0.016548583284020424
40.0,0.015706729143857956
44.0,0.014875967055559158
48.0,0.014057006686925888
52.0,0.013249619863927364
56.0,0.012534159235656261
60.0,0.011872205883264542
64.0,0.011256767436861992
72.0,0.010204395279288292
80.0,0.009252592921257019
88.0,0.008382497355341911
96.0,0.0076847863383591175
104.0,0.007084375247359276
112.0,0.0064409817568957806
120.0,0.0060846153646707535
128.0,0.005813098046928644
144.0,0.004742590244859457
160.0,0.0036988554056733847
176.0,0.0029763432685285807
192.0,0.0028166749980300665
208.0,0.002656689379364252
224.0,0.0022127493284642696
240.0,0.0018269692081958055
256.0,0.0020108376629650593
288.0,0.0019182537216693163
320.0,0.0019637623336166143
352.0,0.0018044868484139442
384.0,0.001503670122474432
416.0,0.0018343845149502158
448.0,0.0023831152357161045
480.0,0.0027776984497904778
512.0,0.0029451604932546616
576.0,0.0028169217985123396
640.0,0.001298888586461544
704.0,0.00032444766839034855
768.0,0.0005477810045704246
832.0,0.0009233840391971171
896.0,0.0004617397498805076
960.0,-0.0014719268074259162
1024.0,-0.002342011546716094
1152.0,-0.0006112749106250703
1280.0,0.00043060907046310604
1408.0,-0.0019289064221084118
1536.0,-0.0019404652994126081
1664.0,-4.096721750102006e-05
1792.0,0.0018310985760763288
1920.0,0.0017513696802780032
2048.0,-0.0016646296717226505
2304.0,-0.0008994686650112271
2560.0,-0.002852907869964838
2816.0,-0.0026656752452254295
3072.0,-0.0020401107612997293
3328.0,-0.0015152430860325694
3584.0,1.4133979675534647e-05
3840.0,0.0019169466104358435
4096.0,0.0007996777421794832
4608.0,-0.0010663071880117059
5120.0,-0.0008791583823040128
5632.0,0.0010219891555607319
6144.0,0.0013550306903198361
6656.0,-0.0020477038342505693
7168.0,-0.0023195836693048477
7680.0,-0.00199905876070261
8192.0,-0.000153489425429143
9216.0,0.00038400714402087033
10240.0,0.0011633798712864518
11264.0,0.0012349601602181792
12288.0,0.00033810301101766527
13312.0,0.00039375992491841316
14336.0,-0.00037756236270070076
end
