version,3.0
numOfCh,1
type,point
parent_name,clean
ch_type,1_1
kcount,1
numberNandB,1
brightnessNandB,1
carpet pos,0
pc,0
Time (ms),CH1 Auto-Correlation
1.0,0.023031653836369514
2.0,0.022628970444202423
3.0,0.022229116410017014
4.0,0.02184460125863552
5.0,0.021460803225636482
6.0,0.021086879074573517
7.0,0.020730165764689445
8.0,0.020385438576340675
9.0,0.020049944519996643
10.0,0.019721299409866333
11.0,0.019395586103200912
12.0,0.01906460151076317
13.0,0.01874694973230362
14.0,0.018438173457980156
15.0,0.018131066113710403
16.0,0.01783601939678192
18.0,0.017244869843125343
20.0,0.016711127012968063
22.0,0.016215333715081215
24.0,0.01573462411761284
26.0,0.01527069229632616
28.0,0.014822438359260559
30.0,0.014395543374121189
32.0,0.01398477889597416
36.0,0.01318274438381195
40.0,0.012461104430258274
44.0,0.01181996800005436
48.0,0.01120922714471817
52.0,0.010572449304163456
56.0,0.010014939121901989
60.0,0.009515486657619476
64.0,0.00901909451931715
72.0,0.008212734945118427
80.0,0.007426329888403416
88.0,0.006743870675563812
96.0,0.006080138962715864
104.0,0.005444538779556751
112.0,0.004851075354963541
120.0,0.004121295176446438
128.0,0.003496852470561862
144.0,0.0028909179382026196
160.0,0.0025104572996497154
176.0,0.0023187038023024797
192.0,0.002347796456888318
208.0,0.002349696820601821
224.0,0.0019884882494807243
240.0,0.0017310533439740539
256.0,0.001805067528039217
288.0,0.0021028080955147743
320.0,0.002032599179074168
352.0,0.0005634455592371523
384.0,-0.0005946893943473697
416.0,-0.00100982328876853
448.0,-0.0016330978833138943
480.0,-0.0027689277194440365
512.0,-0.0032792005222290754
576.0,-0.0029961310792714357
640.0,-0.0015496419509872794
704.0,-0.002453448250889778
768.0,-0.0030819529201835394
832.0,-0.0017104784492403269
896.0,3.781238046940416e-05
960.0,0.0014429595321416855
1024.0,0.0014749184483662248
1152.0,0.001987200928851962
1280.0,0.0007978309877216816
1408.0,-0.0007350566447712481
1536.0,-0.0010989647125825286
1664.0,-0.0021815462969243526
1792.0,-0.001930070691742003
1920.0,-0.0008011207683011889
2048.0,0.000881923537235707
2304.0,0.0022058242466300726
2560.0,0.00014066360017750412
2816.0,-0.002801015041768551
3072.0,-0.00242490042001009
3328.0,-0.0013640596298500896
3584.0,-1.927818993863184e-05
3840.0,-0.0012739496305584908
4096.0,-0.0007403746712952852
4608.0,0.0010718684643507004
5120.0,-0.001694637699984014
5632.0,0.0013959645293653011
6144.0,0.00030533832614310086
6656.0,0.0017293752171099186
7168.0,-0.001392180216498673
7680.0,-0.0002605938643682748
8192.0,0.001122402143664658
9216.0,-0.00040981214260682464
10240.0,1.533898466732353e-05
11264.0,0.000948240514844656
12288.0,-0.0004421939665917307
13312.0,-0.000287033268250525
14336.0,-5.00603491673246e-05
end
