version,3.0
numOfCh,1
type,point
parent_name,clean
ch_type,1_1
kcount,1
numberNandB,1
brightnessNandB,1
carpet pos,0
pc,0
Time (ms),CH1 Auto-Correlation
1.0,0.06930390000343323
2.0,0.06808135658502579
3.0,0.06689736247062683
4.0,0.06574954092502594
5.0,0.06465568393468857
6.0,0.0635962262749672
7.0,0.06258109211921692
8.0,0.06159041076898575
9.0,0.060637541115283966
10.0,0.059698473662137985
11.0,0.058773595839738846
12.0,0.05788023769855499
13.0,0.05701279640197754
14.0,0.05616443231701851
15.0,0.05532008409500122
16.0,0.0544748492538929
18.0,0.052763648331165314
20.0,0.05110641568899155
22.0,0.04960315674543381
24.0,0.048182353377342224
26.0,0.04683566465973854
28.0,0.0455886572599411
30.0,0.04441893845796585
32.0,0.04325051233172417
36.0,0.04100798815488815
40.0,0.038815226405858994
44.0,0.0366874560713768
48.0,0.03479664400219917
52.0,0.03289664164185524
56.0,0.0311815794557333
60.0,0.02965693175792694
64.0,0.028258994221687317
72.0,0.025776853784918785
80.0,0.02381937950849533
88.0,0.022313153371214867
96.0,0.021450215950608253
104.0,0.020897509530186653
112.0,0.020291117951273918
120.0,0.019807469099760056
128.0,0.019219331443309784
144.0,0.01737477444112301
160.0,0.015206153504550457
176.0,0.01383143849670887
192.0,0.013216075487434864
208.0,0.013077061623334885
224.0,0.01268509216606617
240.0,0.012975167483091354
256.0,0.01322285644710064
288.0,0.012915761210024357
320.0,0.012753522954881191
352.0,0.011826048605144024
384.0,0.007589579094201326
416.0,0.004643626511096954
448.0,0.0027165592182427645
480.0,0.0008642711327411234
512.0,0.0008928861934691668
576.0,0.0021146920043975115
640.0,0.002499292604625225
704.0,0.0005446614813990891
768.0,-0.003997126594185829
832.0,-0.0018745593260973692
896.0,0.0002344721433473751
960.0,0.0034158139023929834
1024.0,0.0032459597568958998
1152.0,0.0013954807072877884
1280.0,-0.004258773755282164
1408.0,-0.008614792488515377
1536.0,-0.007264009676873684
1664.0,-0.008739612065255642
1792.0,-0.008988692425191402
1920.0,-0.005160534288734198
2048.0,-0.008737726137042046
2304.0,-0.0035454477183520794
2560.0,-0.0030859534163028
2816.0,-0.0015382443089038134
3072.0,0.0022930502891540527
3328.0,0.007589686196297407
3584.0,0.005420606583356857
3840.0,0.005270035937428474
4096.0,0.004343018401414156
4608.0,0.0039305659011006355
5120.0,-0.0008318814798258245
5632.0,0.0006857943953946233
6144.0,-0.0022556567564606667
6656.0,-0.00043979159090667963
7168.0,-0.0036668293178081512
7680.0,-0.004282635636627674
8192.0,-0.004340654239058495
9216.0,0.005004904232919216
10240.0,0.00040906431968323886
11264.0,-0.014923060312867165
12288.0,0.0025070577394217253
13312.0,-0.0019306038739159703
14336.0,-0.008617262355983257
end
