version,3.0
numOfCh,1
type,point
parent_name,clean
ch_type,1_1
kcount,1
numberNandB,1
brightnessNandB,1
carpet pos,0
pc,0
Time (ms),CH1 Auto-Correlation
1.0,0.02321610413491726
2.0,0.022828316316008568
3.0,0.022453516721725464
4.0,0.022097887471318245
5.0,0.021743111312389374
6.0,0.021398479118943214
7.0,0.02107667550444603
8.0,0.02076263725757599
9.0,0.02046254277229309
10.0,0.020177647471427917
11.0,0.019908906891942024
12.0,0.019648713991045952
13.0,0.01939343847334385
14.0,0.019145365804433823
15.0,0.01889786496758461
16.0,0.01865335926413536
18.0,0.01818018965423107
20.0,0.0177112128585577
22.0,0.017282914370298386
24.0,0.016894906759262085
26.0,0.016528191044926643
28.0,0.016159022226929665
30.0,0.015799477696418762
32.0,0.01543852873146534
36.0,0.014747174456715584
40.0,0.01414251048117876
44.0,0.013608860783278942
48.0,0.013125169090926647
52.0,0.01266102772206068
56.0,0.012273280881345272
60.0,0.01194467768073082
64.0,0.011633972637355328
72.0,0.010911338962614536
80.0,0.01021847128868103
88.0,0.009754949249327183
96.0,0.009245408698916435
104.0,0.008644680492579937
112.0,0.008056229911744595
120.0,0.0075490353628993034
128.0,0.007234193850308657
144.0,0.006434711627662182
160.0,0.00564190186560154
176.0,0.00522201182320714
192.0,0.0050624399445950985
208.0,0.004857182502746582
224.0,0.00434963358566165
240.0,0.0039013877976685762
256.0,0.0033130915835499763
288.0,0.0022508061956614256
320.0,0.0017895745113492012
352.0,0.0016318685375154018
384.0,0.0014738313620910048
416.0,0.0012618704931810498
448.0,0.0012949336087331176
480.0,0.0013522680383175611
512.0,0.0016986720729619265
576.0,0.002342645777389407
640.0,0.0028915307484567165
704.0,0.0030196700245141983
768.0,0.004515399690717459
832.0,0.005147339776158333
896.0,0.00575811555609107
960.0,0.005484949331730604
1024.0,0.004279485438019037
1152.0,0.0008870025048963726
1280.0,0.001231929287314415
1408.0,0.0033859522081911564
1536.0,0.004371836315840483
1664.0,0.004706034902483225
1792.0,0.0035408877301961184
1920.0,0.0012058812426403165
2048.0,0.00039257921162061393
2304.0,0.0012899343855679035
2560.0,0.0009052553796209395
2816.0,-0.0007854571449570358
3072.0,-0.0010501177748665214
3328.0,0.0007044756202958524
3584.0,-0.0007254963275045156
3840.0,-0.002225222298875451
4096.0,-0.0014732811832800508
4608.0,-0.0036076679825782776
5120.0,0.0005231764516793191
5632.0,-0.004595319740474224
6144.0,0.00017329295224044472
6656.0,-0.0014531766064465046
7168.0,-0.0022533719893544912
7680.0,0.0003149207914248109
8192.0,-0.0007134426268748939
9216.0,-0.00019495852757245302
10240.0,0.0005156979314051569
11264.0,0.0009042087476700544
12288.0,-0.0025143239181488752
13312.0,-0.005578490439802408
14336.0,-0.00493087200447917
end
