version,3.0
numOfCh,1
type,point
parent_name,clean
ch_type,1_1
kcount,1
numberNandB,1
brightnessNandB,1
carpet pos,0
pc,0
Time (ms),CH1 Auto-Correlation
1.0,0.026845943182706833
2.0,0.026454070582985878
3.0,0.02606501430273056
4.0,0.025693675503134727
5.0,0.025337323546409607
6.0,0.024987315759062767
7.0,0.024641145020723343
8.0,0.024304525926709175
9.0,0.02398175746202469
10.0,0.023658782243728638
11.0,0.023337410762906075
12.0,0.02304074913263321
13.0,0.02275148034095764
14.0,0.022477678954601288
15.0,0.022209089249372482
16.0,0.021958516910672188
18.0,0.021474821493029594
20.0,0.02099899761378765
22.0,0.02053573727607727
24.0,0.020093385130167007
26.0,0.019648350775241852
28.0,0.01919172890484333
30.0,0.018747860565781593
32.0,0.018344935029745102
36.0,0.017646828666329384
40.0,0.017017224803566933
44.0,0.016461187973618507
48.0,0.015960589051246643
52.0,0.015488652512431145
56.0,0.015131976455450058
60.0,0.014849040657281876
64.0,0.014509497210383415
72.0,0.013742713257670403
80.0,0.013023517094552517
88.0,0.012489973567426205
96.0,0.01199955865740776
104.0,0.011477264575660229
112.0,0.01098912488669157
120.0,0.01043175719678402
128.0,0.009908310137689114
144.0,0.009327230043709278
160.0,0.008662605658173561
176.0,0.007742204237729311
192.0,0.00719706155359745
208.0,0.00712945032864809
224.0,0.006883114576339722
240.0,0.006325867027044296
256.0,0.005901613738387823
288.0,0.0054268683306872845
320.0,0.005894631613045931
352.0,0.00616375682875514
384.0,0.0063040656968951225
416.0,0.006535468623042107
448.0,0.006305973511189222
480.0,0.005264216102659702
512.0,0.003897750983014703
576.0,0.0017791512655094266
640.0,0.0010841272305697203
704.0,0.0016099868807941675
768.0,0.0016753177624195814
832.0,0.0015658402116969228
896.0,0.0017816514009609818
960.0,-0.0005233422853052616
1024.0,-0.0019224158022552729
1152.0,-0.0028601919766515493
1280.0,-0.002570720389485359
1408.0,-0.0022449546959251165
1536.0,-0.002795342355966568
1664.0,-0.003212873125448823
1792.0,-0.002581002889201045
1920.0,-0.0021655913442373276
2048.0,-0.002178734401240945
2304.0,-0.0018669768469408154
2560.0,-0.0030389155726879835
2816.0,-0.0005514210788533092
3072.0,-0.0008163685561157763
3328.0,0.0012885326286777854
3584.0,0.0002887975424528122
3840.0,-0.001088081393390894
4096.0,-0.0011329917469993234
4608.0,-0.001144247711636126
5120.0,-0.000966827676165849
5632.0,-0.0032874662429094315
6144.0,-0.0030444336589425802
6656.0,0.0016604344127699733
7168.0,0.0027799992822110653
7680.0,0.0009542740299366415
8192.0,0.0012858251575380564
9216.0,-0.0007842794293537736
10240.0,0.00201728125102818
11264.0,0.002530005294829607
12288.0,-0.007309481967240572
13312.0,0.004122817888855934
14336.0,-0.0008695766446180642
end
