version,3.0
numOfCh,1
type,point
parent_name,clean
ch_type,1_1
kcount,1
numberNandB,1
brightnessNandB,1
carpet pos,0
pc,0
Time (ms),CH1 Auto-Correlation
1.0,0.06840215623378754
2.0,0.06720338016748428
3.0,0.06605920195579529
4.0,0.06495632976293564
5.0,0.0638885349035263
6.0,0.06286768615245819
7.0,0.06186775490641594
8.0,0.06089712306857109
9.0,0.0599743090569973
10.0,0.059078264981508255
11.0,0.05822062864899635
12.0,0.057371240109205246
13.0,0.05654003098607063
14.0,0.0557132214307785
15.0,0.054899509996175766
16.0,0.05411144718527794
18.0,0.052609674632549286
20.0,0.05118318274617195
22.0,0.049794312566518784
24.0,0.04843449592590332
26.0,0.04716140776872635
28.0,0.045979734510183334
30.0,0.04479462280869484
32.0,0.04365185648202896
36.0,0.04152483120560646
40.0,0.03968328237533569
44.0,0.03804983198642731
48.0,0.036683592945337296
52.0,0.03552676737308502
56.0,0.03470834717154503
60.0,0.033950936049222946
64.0,0.03330632299184799
72.0,0.03212378919124603
80.0,0.030414126813411713
88.0,0.02840970642864704
96.0,0.02657882310450077
104.0,0.024819353595376015
112.0,0.02297978661954403
120.0,0.021450208500027657
128.0,0.020303858444094658
144.0,0.01850149594247341
160.0,0.017771348357200623
176.0,0.01788325421512127
192.0,0.01805456355214119
208.0,0.017724821344017982
224.0,0.01706630550324917
240.0,0.01657850295305252
256.0,0.01670883223414421
288.0,0.01683809980750084
320.0,0.0176913533359766
352.0,0.018791435286402702
384.0,0.018666470423340797
416.0,0.018091000616550446
448.0,0.01758439466357231
480.0,0.014986271969974041
512.0,0.012426604516804218
576.0,0.008966307155787945
640.0,0.008472753688693047
704.0,0.010033449158072472
768.0,0.013090739957988262
832.0,0.01314737368375063
896.0,0.011766175739467144
960.0,0.009027048014104366
1024.0,0.005143142770975828
1152.0,0.007160109933465719
1280.0,0.0046346765011549
1408.0,-0.004724354948848486
1536.0,-0.0019487581448629498
1664.0,-0.0027107929345220327
1792.0,-0.008092458359897137
1920.0,-0.008410414680838585
2048.0,-0.007085246499627829
2304.0,-0.012404202483594418
2560.0,-0.010012209415435791
2816.0,-0.005895547103136778
3072.0,-0.00643905671313405
3328.0,-0.009798849932849407
3584.0,-0.003006851067766547
3840.0,-0.0042282952927052975
4096.0,0.0013061037752777338
4608.0,0.004336314741522074
5120.0,0.004033831879496574
5632.0,0.0016436743317171931
6144.0,-0.0008629579097032547
6656.0,-0.00550320278853178
7168.0,-0.009912879206240177
7680.0,-0.005737846717238426
8192.0,-0.0018092644168063998
9216.0,0.012305006384849548
10240.0,0.014412352815270424
11264.0,0.005337171256542206
12288.0,-0.02253221720457077
13312.0,-0.030121255666017532
14336.0,-0.0062159146182239056
end
