version,3.0
numOfCh,1
type,point
parent_name,clean
ch_type,1_1
kcount,1
numberNandB,1
brightnessNandB,1
carpet pos,0
pc,0
Time (ms),CH1 Auto-Correlation
1.0,0.03755265101790428
2.0,0.03697369620203972
3.0,0.03641851618885994
4.0,0.03587557375431061
5.0,0.03535068407654762
6.0,0.03482823073863983
7.0,0.0343148410320282
8.0,0.03379178047180176
9.0,0.03328380733728409
10.0,0.03279341384768486
11.0,0.03233322128653526
12.0,0.03189163655042648
13.0,0.03146503120660782
14.0,0.031027846038341522
15.0,0.030600545927882195
16.0,0.030179142951965332
18.0,0.029369384050369263
20.0,0.028617417439818382
22.0,0.027915993705391884
24.0,0.027241019532084465
26.0,0.026615550741553307
28.0,0.026011873036623
30.0,0.025430722162127495
32.0,0.024873793125152588
36.0,0.023863203823566437
40.0,0.02297872118651867
44.0,0.022212369367480278
48.0,0.02154485695064068
52.0,0.02091139554977417
56.0,0.02034451626241207
60.0,0.019809186458587646
64.0,0.01927967555820942
72.0,0.0182754248380661
80.0,0.017381545156240463
88.0,0.01673615537583828
96.0,0.01631692238152027
104.0,0.015892047435045242
112.0,0.01542041264474392
120.0,0.01480321865528822
128.0,0.014182883314788342
144.0,0.013181203976273537
160.0,0.012533056549727917
176.0,0.011730196885764599
192.0,0.010557785630226135
208.0,0.009661881253123283
224.0,0.009611038491129875
240.0,0.009357362985610962
256.0,0.008905771188437939
288.0,0.008464272134006023
320.0,0.007210589479655027
352.0,0.006873602047562599
384.0,0.006131353322416544
416.0,0.0057223145850002766
448.0,0.004755910020321608
480.0,0.0044589960016310215
512.0,0.0049254680052399635
576.0,0.004744613543152809
640.0,0.0037299632094800472
704.0,0.0015767462318763137
768.0,-0.00020440480147954077
832.0,-0.00034819700522348285
896.0,0.00018842726422008127
960.0,0.0005551714566536248
1024.0,0.0015409380430355668
1152.0,-0.001253780210390687
1280.0,-0.002276532119140029
1408.0,-0.0033590293023735285
1536.0,-0.001632541068829596
1664.0,-0.0029941252432763577
1792.0,-0.0015711155720055103
1920.0,0.0005690816324204206
2048.0,0.0009033703827299178
2304.0,0.0002436809299979359
2560.0,0.0005770131829194725
2816.0,0.0006153922877274454
3072.0,0.0008542377036064863
3328.0,0.0014971107011660933
3584.0,-0.0032554580830037594
3840.0,-0.004421994090080261
4096.0,-0.004778388887643814
4608.0,-0.0008025353890843689
5120.0,0.002095737960189581
5632.0,0.0011487612500786781
6144.0,0.0013443956850096583
6656.0,-8.922001870814711e-05
7168.0,0.0019523965893313289
7680.0,0.003313359571620822
8192.0,-2.0228855646564625e-05
9216.0,-0.0033449330367147923
10240.0,-0.0003887140192091465
11264.0,-0.006600165273994207
12288.0,-0.006149913650006056
13312.0,1.797951881599147e-05
14336.0,-0.006787098944187164
end
