version,3.0
numOfCh,1
type,point
parent_name,clean
ch_type,1_1
kcount,1
numberNandB,1
brightnessNandB,1
carpet pos,0
pc,0
Time (ms),CH1 Auto-Correlation
1.0,0.06123551353812218
2.0,0.06010051444172859
3.0,0.058997202664613724
4.0,0.05790242925286293
5.0,0.05681798979640007
6.0,0.055768392980098724
7.0,0.05472590774297714
8.0,0.05369896814227104
9.0,0.05273021012544632
10.0,0.051795411854982376
11.0,0.05089134722948074
12.0,0.05001068487763405
13.0,0.0491577684879303
14.0,0.04831463471055031
15.0,0.04755239188671112
16.0,0.04685905575752258
18.0,0.04555636644363403
20.0,0.0443568155169487
22.0,0.043223779648542404
24.0,0.042144645005464554
26.0,0.04113699868321419
28.0,0.040233880281448364
30.0,0.03934827074408531
32.0,0.038504183292388916
36.0,0.03680563345551491
40.0,0.0350830964744091
44.0,0.03337034210562706
48.0,0.031819768249988556
52.0,0.030381876975297928
56.0,0.0290355384349823
60.0,0.027688179165124893
64.0,0.026456886902451515
72.0,0.024294571951031685
80.0,0.022552572190761566
88.0,0.021118948236107826
96.0,0.01979370042681694
104.0,0.018771933391690254
112.0,0.01801564171910286
120.0,0.01722964271903038
128.0,0.016150517389178276
144.0,0.014404214918613434
160.0,0.012248486280441284
176.0,0.009436802007257938
192.0,0.00670157466083765
208.0,0.005285808350890875
224.0,0.004223197232931852
240.0,0.0038016773760318756
256.0,0.0038410357665270567
288.0,0.005574062466621399
320.0,0.005667553748935461
352.0,0.005727125331759453
384.0,0.00766292167827487
416.0,0.01017933152616024
448.0,0.010371226817369461
480.0,0.010650107637047768
512.0,0.010534127242863178
576.0,0.009635028429329395
640.0,0.0040010870434343815
704.0,-0.0007497904589399695
768.0,-0.0023990273475646973
832.0,-0.001171122887171805
896.0,0.0019157290225848556
960.0,0.003925957717001438
1024.0,0.007381712086498737
1152.0,0.003891322761774063
1280.0,0.0046064527705311775
1408.0,0.005597424227744341
1536.0,0.004771944601088762
1664.0,0.006611015181988478
1792.0,0.0012127362424507737
1920.0,-0.0061004506424069405
2048.0,-0.0020764207001775503
2304.0,-0.006457117386162281
2560.0,-0.0011755513260141015
2816.0,-0.0046140276826918125
3072.0,-0.0028578639030456543
3328.0,-0.006915457081049681
3584.0,-0.004951788578182459
3840.0,-0.001084825024008751
4096.0,0.0007678215624764562
4608.0,-0.0026572428178042173
5120.0,-2.0537368982331827e-05
5632.0,0.005100948270410299
6144.0,0.00620379950851202
6656.0,0.007699203211814165
7168.0,0.003415715182200074
7680.0,-0.0002680525358300656
8192.0,-0.0016394613776355982
9216.0,-0.008355437777936459
10240.0,-0.00560940895229578
11264.0,-0.0070968447253108025
12288.0,-0.004816499073058367
13312.0,-0.0029521516989916563
14336.0,-0.0005499411490745842
end
