version,3.0
numOfCh,1
type,point
parent_name,clean
ch_type,1_1
kcount,1
numberNandB,1
brightnessNandB,1
carpet pos,0
pc,0
Time (ms),CH1 Auto-Correlation
1.0,0.027428200468420982
2.0,0.026835398748517036
3.0,0.026268625631928444
4.0,0.025711534544825554
5.0,0.025156928226351738
6.0,0.024628084152936935
7.0,0.02411169372498989
8.0,0.023598305881023407
9.0,0.02311922051012516
10.0,0.02265935204923153
11.0,0.022198740392923355
12.0,0.021744783967733383
13.0,0.021296504884958267
14.0,0.02085711807012558
15.0,0.020424578338861465
16.0,0.020005743950605392
18.0,0.019183224067091942
20.0,0.018407166004180908
22.0,0.017702847719192505
24.0,0.017042284831404686
26.0,0.01640927419066429
28.0,0.01579570770263672
30.0,0.01521604135632515
32.0,0.014688962139189243
36.0,0.013718483969569206
40.0,0.012885292060673237
44.0,0.012132841162383556
48.0,0.011405319906771183
52.0,0.010674115270376205
56.0,0.009996039792895317
60.0,0.009438522160053253
64.0,0.00893628690391779
72.0,0.008066640235483646
80.0,0.007406330201774836
88.0,0.0068517569452524185
96.0,0.0062591745518147945
104.0,0.005496335681527853
112.0,0.0048087723553180695
120.0,0.004342216067016125
128.0,0.003923300188034773
144.0,0.003498765407130122
160.0,0.0032400323543697596
176.0,0.002909810049459338
192.0,0.0024502770975232124
208.0,0.0020444283727556467
224.0,0.0021526345517486334
240.0,0.002262601861730218
256.0,0.0023813205771148205
288.0,0.0029644975438714027
320.0,0.002852814504876733
352.0,0.0009821094572544098
384.0,-0.0001775473792804405
416.0,3.716451828950085e-05
448.0,0.0012367102317512035
480.0,0.0021571286488324404
512.0,0.0025646088179200888
576.0,0.00038895418401807547
640.0,-0.0006362870335578918
704.0,-0.0005686103831976652
768.0,6.842678703833371e-05
832.0,-0.0005614324472844601
896.0,-0.0003149861586280167
960.0,-0.001121298992075026
1024.0,-0.0014270534738898277
1152.0,-0.0021013286896049976
1280.0,-0.0014073968632146716
1408.0,-0.0001706992188701406
1536.0,-0.0008351143915206194
1664.0,0.0010522507363930345
1792.0,8.883108239388093e-05
1920.0,-0.00048519368283450603
2048.0,-0.0018665660172700882
2304.0,-0.0016874485881999135
2560.0,-0.0017610910581424832
2816.0,-0.0005978691624477506
3072.0,-0.0015797351952642202
3328.0,-0.0004671576025430113
3584.0,-0.0008584926836192608
3840.0,-0.0007515125325880945
4096.0,0.0013456196757033467
4608.0,0.002838883316144347
5120.0,0.0011814507888630033
5632.0,-0.001559206284582615
6144.0,-0.0018573631532490253
6656.0,0.0008641437743790448
7168.0,-0.0028689356986433268
7680.0,7.299319258891046e-05
8192.0,0.00017567083705216646
9216.0,0.0027084476314485073
10240.0,-0.0017823041416704655
11264.0,5.485788642545231e-05
12288.0,-0.003406041767448187
13312.0,0.001579625066369772
14336.0,0.0017697475850582123
end
