version,3.0
numOfCh,1
type,point
parent_name,clean
ch_type,1_1
kcount,1
numberNandB,1
brightnessNandB,1
carpet pos,0
pc,0
Time (ms),CH1 Auto-Correlation
1.0,0.018517998978495598
2.0,0.01812981255352497
3.0,0.017762381583452225
4.0,0.017387771978974342
5.0,0.017019029706716537
6.0,0.016657717525959015
7.0,0.016309460625052452
8.0,0.01596827059984207
9.0,0.015643205493688583
10.0,0.015324573963880539
11.0,0.015025002881884575
12.0,0.014740761369466782
13.0,0.014461982995271683
14.0,0.01418317575007677
15.0,0.01390813384205103
16.0,0.0136481411755085
18.0,0.013158144429326057
20.0,0.012698929756879807
22.0,0.012273851782083511
24.0,0.011880319565534592
26.0,0.011509557254612446
28.0,0.011157617904245853
30.0,0.01082976721227169
32.0,0.010511822998523712
36.0,0.009982598945498466
40.0,0.009552174247801304
44.0,0.009163090027868748
48.0,0.00880915392190218
52.0,0.008481084369122982
56.0,0.008188731968402863
60.0,0.007836904376745224
64.0,0.007428199518471956
72.0,0.006673324387520552
80.0,0.006027133669704199
88.0,0.005443961825221777
96.0,0.004888779949396849
104.0,0.004396752454340458
112.0,0.004076711367815733
120.0,0.003856531111523509
128.0,0.003589554224163294
144.0,0.0028562992811203003
160.0,0.0021619186736643314
176.0,0.0018829728942364454
192.0,0.0016336371190845966
208.0,0.0013100792421028018
224.0,0.0008956858655437827
240.0,0.0007426153752021492
256.0,0.0006075340788811445
288.0,0.00028303408180363476
320.0,0.0002161765587516129
352.0,-0.0007413583807647228
384.0,-0.0005881061661057174
416.0,-0.00026844124658964574
448.0,-0.00017872688476927578
480.0,0.00026767796953208745
512.0,0.001075154636055231
576.0,0.0002393737086094916
640.0,0.00014313810970634222
704.0,-0.00018564028141554445
768.0,-0.0006236195913515985
832.0,-0.0005788925336673856
896.0,-0.001323433592915535
960.0,-0.00043240078957751393
1024.0,-0.0008459910750389099
1152.0,-0.0014303880743682384
1280.0,-0.0017222145106643438
1408.0,-8.03546208771877e-05
1536.0,-0.00012093438999727368
1664.0,-0.000424506637500599
1792.0,-0.0018002815777435899
1920.0,-0.0009627778199501336
2048.0,0.00037472997792065144
2304.0,1.5938863725750707e-05
2560.0,-0.0010759813012555242
2816.0,-0.0016042976640164852
3072.0,-9.073530964087695e-05
3328.0,0.001574180438183248
3584.0,0.0015016651013866067
3840.0,-5.138735650689341e-05
4096.0,0.0003887454222422093
4608.0,-0.00019081737264059484
5120.0,-0.000785797368735075
5632.0,0.00013706038589589298
6144.0,-0.00011916597577510402
6656.0,0.001383699127472937
7168.0,0.0018462523585185409
7680.0,-0.0013304974418133497
8192.0,-0.001618794398382306
9216.0,-0.0007181502878665924
10240.0,0.0011026165448129177
11264.0,0.0005944103468209505
12288.0,-0.0009670231374911964
13312.0,-0.00022215764329303056
14336.0,0.00022164767142385244
end
