version,3.0
numOfCh,1
type,point
parent_name,clean
ch_type,1_1
kcount,1
numberNandB,1
brightnessNandB,1
carpet pos,0
pc,0
Time (ms),CH1 Auto-Correlation
1.0,0.032217323780059814
2.0,0.03164646774530411
3.0,0.031088868156075478
4.0,0.030545832589268684
5.0,0.03001989796757698
6.0,0.029523830860853195
7.0,0.029045691713690758
8.0,0.028570344671607018
9.0,0.02809293195605278
10.0,0.02762666530907154
11.0,0.027175381779670715
12.0,0.026736021041870117
13.0,0.02630574256181717
14.0,0.02588861808180809
15.0,0.025483513250947
16.0,0.02509874291718006
18.0,0.02435494028031826
20.0,0.023632386699318886
22.0,0.02292453497648239
24.0,0.022222643718123436
26.0,0.021573500707745552
28.0,0.020969703793525696
30.0,0.020391173660755157
32.0,0.019804444164037704
36.0,0.018723176792263985
40.0,0.01771347038447857
44.0,0.016748666763305664
48.0,0.01583058200776577
52.0,0.01493424829095602
56.0,0.01407388225197792
60.0,0.01332187931984663
64.0,0.012654129415750504
72.0,0.011631565168499947
80.0,0.010902897454798222
88.0,0.010133582167327404
96.0,0.009518755599856377
104.0,0.00889002438634634
112.0,0.008188438601791859
120.0,0.007661547977477312
128.0,0.007349974010139704
144.0,0.007078684866428375
160.0,0.006660391576588154
176.0,0.006645951420068741
192.0,0.006419203244149685
208.0,0.005892178509384394
224.0,0.0055919224396348
240.0,0.005314852111041546
256.0,0.005065666977316141
288.0,0.004923107568174601
320.0,0.004252624232321978
352.0,0.002777468878775835
384.0,0.0013614692725241184
416.0,0.0009788691531866789
448.0,0.0005321289645507932
480.0,0.00023388770932797343
512.0,0.00025767917395569384
576.0,-0.0008932009804993868
640.0,-0.0002258021995658055
704.0,-0.0010495223104953766
768.0,-0.0031135512981563807
832.0,-0.003394610946998
896.0,-0.0023663595784455538
960.0,-0.0017036197241395712
1024.0,-0.0022099826019257307
1152.0,-0.0035018189810216427
1280.0,-0.0023774520959705114
1408.0,-0.0011282052146270871
1536.0,-0.00024433096405118704
1664.0,-0.0014942697016522288
1792.0,-0.00022825943597126752
1920.0,0.0016337856650352478
2048.0,0.002543209819123149
2304.0,0.0019233523635193706
2560.0,0.0015848939074203372
2816.0,-0.0012749118031933904
3072.0,-0.004580678418278694
3328.0,-0.003727548522874713
3584.0,-0.00247915368527174
3840.0,-0.0014459231169894338
4096.0,-0.004438177216798067
4608.0,0.001552150584757328
5120.0,-0.0012840398121625185
5632.0,-0.0033155621495097876
6144.0,0.0019416938303038478
6656.0,0.0048646400682628155
7168.0,0.0007100144866853952
7680.0,-0.0005695974105037749
8192.0,0.0012651681900024414
9216.0,-0.0011952925706282258
10240.0,0.0006159321637824178
11264.0,-0.0003863130696117878
12288.0,-0.001585505553521216
13312.0,-3.0770552257308736e-05
14336.0,-0.00048821375821717083
end
