version,3.0
numOfCh,1
type,point
parent_name,clean
ch_type,1_1
kcount,1
numberNandB,1
brightnessNandB,1
carpet pos,0
pc,0
Time (ms),CH1 Auto-Correlation
1.0,0.06492558866739273
2.0,0.06372039765119553
3.0,0.06253743916749954
4.0,0.06142100319266319
5.0,0.06034361943602562
6.0,0.0593140684068203
7.0,0.05832268297672272
8.0,0.05739111825823784
9.0,0.0564892403781414
10.0,0.05558997765183449
11.0,0.05470854789018631
12.0,0.05382852256298065
13.0,0.0529855377972126
14.0,0.052169423550367355
15.0,0.051381539553403854
16.0,0.05062573775649071
18.0,0.04915732890367508
20.0,0.04776027426123619
22.0,0.046471260488033295
24.0,0.04526280611753464
26.0,0.04410180449485779
28.0,0.042976707220077515
30.0,0.041888486593961716
32.0,0.040861841291189194
36.0,0.03892751783132553
40.0,0.03710838034749031
44.0,0.03544347733259201
48.0,0.03400561586022377
52.0,0.032916050404310226
56.0,0.031779609620571136
60.0,0.030512159690260887
64.0,0.02935253083705902
72.0,0.027626316994428635
80.0,0.026056623086333275
88.0,0.024382978677749634
96.0,0.022659311071038246
104.0,0.020663900300860405
112.0,0.0190525334328413
120.0,0.017610909417271614
128.0,0.016671577468514442
144.0,0.016246693208813667
160.0,0.0165083184838295
176.0,0.016012636944651604
192.0,0.01523338258266449
208.0,0.013773021288216114
224.0,0.012021609582006931
240.0,0.011285506188869476
256.0,0.010902844369411469
288.0,0.010248305276036263
320.0,0.008701559156179428
352.0,0.007805928122252226
384.0,0.005118234548717737
416.0,0.003865296021103859
448.0,0.004804420284926891
480.0,0.003853197442367673
512.0,0.0025648975279182196
576.0,0.003398862900212407
640.0,0.006696928292512894
704.0,0.0036841256078332663
768.0,0.0031350627541542053
832.0,0.004287736490368843
896.0,0.003036150010302663
960.0,0.0033602286130189896
1024.0,0.00519402464851737
1152.0,0.003997049760073423
1280.0,-0.001443705870769918
1408.0,-0.004298020154237747
1536.0,-0.005069127306342125
1664.0,-0.003897900227457285
1792.0,0.00036155947600491345
1920.0,0.001169804367236793
2048.0,-0.0016247716266661882
2304.0,-0.0023287234362214804
2560.0,-0.005561552941799164
2816.0,-0.005940990522503853
3072.0,-0.0013412614353001118
3328.0,-0.0037044479977339506
3584.0,-0.00733314361423254
3840.0,-0.003678108798339963
4096.0,0.0005528423935174942
4608.0,-0.0031402462627738714
5120.0,0.001040314557030797
5632.0,-0.003944397438317537
6144.0,0.0008847694261930883
6656.0,0.003679198445752263
7168.0,0.007324073929339647
7680.0,0.0012514138361439109
8192.0,-0.0062224529683589935
9216.0,-0.0040244595147669315
10240.0,0.0001537498174002394
11264.0,0.0022298083640635014
12288.0,0.00018286486738361418
13312.0,-0.008548710495233536
14336.0,0.012159395031630993
end
