version,3.0
numOfCh,1
type,point
parent_name,484af_0dot6-0dot1
ch_type,1_1
kcount,1
numberNandB,1
brightnessNandB,1
carpet pos,0
pc,0
Time (ms),CH1 Auto-Correlation
1.0,0.023814843967556953
2.0,0.022585798054933548
3.0,0.021510889753699303
4.0,0.020483624190092087
5.0,0.019560713320970535
6.0,0.01874985359609127
7.0,0.01800655573606491
8.0,0.017335280776023865
9.0,0.016697950661182404
10.0,0.01611080765724182
11.0,0.01559144165366888
12.0,0.015125280246138573
13.0,0.014693350531160831
14.0,0.014218637719750404
15.0,0.013787493109703064
16.0,0.013354347087442875
18.0,0.012515148147940636
20.0,0.011838184669613838
22.0,0.011316011659801006
24.0,0.010713058523833752
26.0,0.010134490206837654
28.0,0.009622196666896343
30.0,0.009143682196736336
32.0,0.008758435025811195
36.0,0.008140329271554947
40.0,0.007726891431957483
44.0,0.007525711320340633
48.0,0.007290225476026535
52.0,0.006823331583291292
56.0,0.006325752008706331
60.0,0.005708532873541117
64.0,0.005209621042013168
72.0,0.004340848885476589
80.0,0.003991278819739819
88.0,0.00378936855122447
96.0,0.0034670657478272915
104.0,0.0030154408887028694
112.0,0.0025291128549724817
120.0,0.0022770597133785486
128.0,0.0019624284468591213
144.0,0.0015548852970823646
160.0,0.0011912652989849448
176.0,0.001113004283979535
192.0,0.0014599114656448364
208.0,0.001686609466560185
224.0,0.0024143829941749573
240.0,0.0031610687728971243
256.0,0.002994425594806671
288.0,0.002774617401883006
320.0,0.002746228827163577
352.0,0.0026098848320543766
384.0,0.0023179722484201193
416.0,0.0014616918051615357
448.0,0.0009062926401384175
480.0,0.0006728867301717401
512.0,0.00029474354232661426
576.0,0.0010642397683113813
640.0,0.0026885592378675938
704.0,0.0027836847584694624
768.0,8.01559945102781e-05
832.0,-0.0008353996672667563
896.0,0.00016486742242705077
960.0,0.0009264142136089504
1024.0,0.0010906835086643696
1152.0,-7.813196862116456e-05
1280.0,0.000308225309709087
1408.0,0.00033180686295963824
1536.0,0.0003931043320335448
1664.0,0.0006199066410772502
1792.0,0.0012250583386048675
1920.0,0.0013457693858072162
2048.0,0.00034802439040504396
2304.0,0.0010519609786570072
2560.0,-0.0004289679927751422
2816.0,0.0001970721350517124
3072.0,-0.0002225120406365022
3328.0,-0.00016879316535778344
3584.0,0.0006839893176220357
3840.0,-0.00020137708634138107
4096.0,0.0005955164670012891
4608.0,0.0003707038704305887
5120.0,-0.0007401906768791378
5632.0,-0.0024457343388348818
6144.0,-0.0013001511106267571
6656.0,-0.0030692662112414837
7168.0,-0.0013168513542041183
7680.0,-3.740228567039594e-05
8192.0,0.0007140971138142049
end
