version,3.0
numOfCh,1
type,point
parent_name,484af_0dot6-0dot1
ch_type,1_1
kcount,1
numberNandB,1
brightnessNandB,1
carpet pos,0
pc,0
Time (ms),CH1 Auto-Correlation
1.0,0.022993650287389755
2.0,0.021826554089784622
3.0,0.020814284682273865
4.0,0.01991596631705761
5.0,0.019100768491625786
6.0,0.018329504877328873
7.0,0.017611797899007797
8.0,0.016936542466282845
9.0,0.016321128234267235
10.0,0.015731412917375565
11.0,0.015156028792262077
12.0,0.01462263148277998
13.0,0.014148775488138199
14.0,0.013727689161896706
15.0,0.013339400291442871
16.0,0.013013988733291626
18.0,0.01234487071633339
20.0,0.011725667864084244
22.0,0.011174135841429234
24.0,0.010716513730585575
26.0,0.010210433974862099
28.0,0.009753265418112278
30.0,0.009408277459442616
32.0,0.00909547507762909
36.0,0.008553056046366692
40.0,0.008088561706244946
44.0,0.00766788749024272
48.0,0.007455090060830116
52.0,0.007240968756377697
56.0,0.006986587308347225
60.0,0.006613785866647959
64.0,0.00612945482134819
72.0,0.005427945405244827
80.0,0.005167186260223389
88.0,0.0050763897597789764
96.0,0.005005346145480871
104.0,0.004782551433891058
112.0,0.004773762542754412
120.0,0.0045355758629739285
128.0,0.004224231466650963
144.0,0.004273818340152502
160.0,0.003873668611049652
176.0,0.00277571938931942
192.0,0.002076649572700262
208.0,0.002298876643180847
224.0,0.0019832004327327013
240.0,0.0016526940744370222
256.0,0.002126981969922781
288.0,0.0019379807636141777
320.0,0.001726598828099668
352.0,0.0009425230091437697
384.0,0.0006808748003095388
416.0,0.0008598956628702581
448.0,0.0013014108408242464
480.0,0.0006544147036038339
512.0,-6.78629512549378e-05
576.0,-0.0009169869008474052
640.0,-0.0015807920135557652
704.0,-0.002055451739579439
768.0,-0.0013817902654409409
832.0,-0.0014492415357381105
896.0,-0.0008056386141106486
960.0,-0.0006036364356987178
1024.0,-2.8697573725366965e-05
1152.0,0.0005590019864030182
1280.0,0.0018073793035000563
1408.0,0.0016960030188784003
1536.0,0.0008858214714564383
1664.0,0.0001733412209432572
1792.0,-0.000881427782587707
1920.0,-0.00039944451418705285
2048.0,0.00017465854762122035
2304.0,-0.001268937368877232
2560.0,-0.0005528961773961782
2816.0,-4.023961810162291e-05
3072.0,-0.0009199070045724511
3328.0,0.00030393298948183656
3584.0,-0.0002486284647602588
3840.0,-0.001198744517751038
4096.0,-0.0020901644602417946
4608.0,-0.00045759000931866467
5120.0,-0.0006832624203525484
5632.0,0.000842665380332619
6144.0,0.001412468496710062
6656.0,-0.0011038286611437798
7168.0,0.002536364598199725
7680.0,0.001475311117246747
8192.0,-0.0004852745623793453
end
