version,3.0
numOfCh,1
type,point
parent_name,484af_0dot6-0dot1
ch_type,1_1
kcount,1
numberNandB,1
brightnessNandB,1
carpet pos,0
pc,0
Time (ms),CH1 Auto-Correlation
1.0,0.024904195219278336
2.0,0.023730259388685226
3.0,0.022649656981229782
4.0,0.02166232466697693
5.0,0.020760903134942055
6.0,0.019932052120566368
7.0,0.01913001388311386
8.0,0.018421554937958717
9.0,0.017760196700692177
10.0,0.01713641546666622
11.0,0.01655980572104454
12.0,0.016007060185074806
13.0,0.015493771061301231
14.0,0.01497139036655426
15.0,0.0144222192466259
16.0,0.01396835409104824
18.0,0.013226422481238842
20.0,0.012523233890533447
22.0,0.01192634366452694
24.0,0.011389161460101604
26.0,0.010885742492973804
28.0,0.010383120737969875
30.0,0.009946241043508053
32.0,0.0096129160374403
36.0,0.009060794487595558
40.0,0.008488009683787823
44.0,0.008011724799871445
48.0,0.007464688736945391
52.0,0.0070174322463572025
56.0,0.006701899226754904
60.0,0.006493164226412773
64.0,0.006195059511810541
72.0,0.005138453096151352
80.0,0.004524733405560255
88.0,0.004247426986694336
96.0,0.004286707378923893
104.0,0.004156030248850584
112.0,0.0040115066803991795
120.0,0.0037087167147547007
128.0,0.003407116513699293
144.0,0.003127818927168846
160.0,0.0029228883795440197
176.0,0.0028506170492619276
192.0,0.002922822954133153
208.0,0.0034374911338090897
224.0,0.0037152196746319532
240.0,0.0029742498882114887
256.0,0.0027924790047109127
288.0,0.0022685329895466566
320.0,0.0005336654139682651
352.0,-8.075596997514367e-05
384.0,-0.0008763665100559592
416.0,-0.00019588023133110255
448.0,-0.00018284106045030057
480.0,-0.0007419045432470739
512.0,-0.0012207884574308991
576.0,-0.0025101923383772373
640.0,-0.0019081456121057272
704.0,-0.002548164688050747
768.0,-0.0019232499180361629
832.0,-0.0012629810953512788
896.0,0.00027573166880756617
960.0,5.449643867905252e-05
1024.0,-6.131642294349149e-05
1152.0,-0.0006627292023040354
1280.0,-0.0005129542551003397
1408.0,-0.0010723271407186985
1536.0,-0.0007497036713175476
1664.0,-0.0007463661604560912
1792.0,-0.0010243142023682594
1920.0,-0.00034997856710106134
2048.0,6.774652138119563e-05
2304.0,0.00149232626426965
2560.0,0.0006588046671822667
2816.0,-0.001211912021972239
3072.0,-0.001067297882400453
3328.0,5.098350447951816e-05
3584.0,0.00033813947811722755
3840.0,0.00033186067594215274
4096.0,-6.738867341482546e-06
4608.0,-0.0004147710860706866
5120.0,-0.0012109869858250022
5632.0,0.000723400095012039
6144.0,0.0001801589096430689
6656.0,0.0011595377000048757
7168.0,-0.0009844152955338359
7680.0,-0.0005904685822315514
8192.0,0.0014637514250352979
end
