version,3.0
numOfCh,1
type,point
parent_name,484af_0dot6-0dot1
ch_type,1_1
kcount,1
numberNandB,1
brightnessNandB,1
carpet pos,0
pc,0
Time (ms),CH1 Auto-Correlation
1.0,0.02126443199813366
2.0,0.020102405920624733
3.0,0.019057562574744225
4.0,0.018092665821313858
5.0,0.01724899746477604
6.0,0.016456635668873787
7.0,0.015720000490546227
8.0,0.015027191489934921
9.0,0.014358735643327236
10.0,0.013728754594922066
11.0,0.013165782205760479
12.0,0.012642685323953629
13.0,0.012159674428403378
14.0,0.011718595400452614
15.0,0.011296973563730717
16.0,0.010892177931964397
18.0,0.010179932229220867
20.0,0.009570208378136158
22.0,0.009044713340699673
24.0,0.008535261265933514
26.0,0.008028077892959118
28.0,0.007568112574517727
30.0,0.007118542678654194
32.0,0.0066812001168727875
36.0,0.006112323608249426
40.0,0.005590758286416531
44.0,0.0050950367003679276
48.0,0.0046899570152163506
52.0,0.004334915895015001
56.0,0.004027951508760452
60.0,0.0038018194027245045
64.0,0.003562174504622817
72.0,0.0029571685008704662
80.0,0.0028361680451780558
88.0,0.003014315851032734
96.0,0.0027937169652432203
104.0,0.002362934174016118
112.0,0.0019370499067008495
120.0,0.0017507242737337947
128.0,0.0016273363726213574
144.0,0.0013222928391769528
160.0,0.0007348754443228245
176.0,0.0005277338786982
192.0,0.0002653418923728168
208.0,-7.393114356091246e-05
224.0,0.00012178353790659457
240.0,0.0004610687028616667
256.0,0.0007841939222998917
288.0,0.001133541576564312
320.0,0.00040710222674533725
352.0,0.0012346698204055429
384.0,0.0010296478867530823
416.0,9.3177986855153e-06
448.0,-0.0006473473040387034
480.0,-0.0013759019784629345
512.0,-0.0011609066277742386
576.0,-0.0006080534076318145
640.0,-4.1455750761087984e-05
704.0,0.00010625712457112968
768.0,-0.0006639002822339535
832.0,-0.00040779844857752323
896.0,0.00015095382696017623
960.0,-0.00029092037584632635
1024.0,-0.0005670409300364554
1152.0,-0.0006156641757115722
1280.0,-0.0004073654708918184
1408.0,-0.0014097945531830192
1536.0,-0.0007108344580046833
1664.0,-0.000879625033121556
1792.0,-0.000606466899625957
1920.0,0.00023430016881320626
2048.0,0.0008592942613177001
2304.0,0.001118862652219832
2560.0,-0.0004981552483513951
2816.0,-0.0010524471290409565
3072.0,0.00022657510999124497
3328.0,-0.00024755686172284186
3584.0,-0.00010974512406392023
3840.0,-0.00010175439092563465
4096.0,-0.00031820923322811723
4608.0,-0.0009335074573755264
5120.0,-7.004966755630448e-05
5632.0,-0.000538438034709543
6144.0,0.0008927083690650761
6656.0,-0.0006116846343502402
7168.0,0.0003844809834845364
7680.0,0.00013743230374529958
8192.0,0.000864969624672085
end
