version,3.0
numOfCh,1
type,point
parent_name,484af_0dot6-0dot1
ch_type,1_1
kcount,1
numberNandB,1
brightnessNandB,1
carpet pos,0
pc,0
Time (ms),CH1 Auto-Correlation
1.0,0.020615532994270325
2.0,0.01948940008878708
3.0,0.018530577421188354
4.0,0.017652476206421852
5.0,0.016854174435138702
6.0,0.016152668744325638
7.0,0.015544881112873554
8.0,0.01497240737080574
9.0,0.014464763924479485
10.0,0.013962768018245697
11.0,0.013478810898959637
12.0,0.012985561043024063
13.0,0.012542646378278732
14.0,0.012138617224991322
15.0,0.01173492893576622
16.0,0.011376379057765007
18.0,0.010642683133482933
20.0,0.00999171007424593
22.0,0.009343047626316547
24.0,0.008666392415761948
26.0,0.008073482662439346
28.0,0.007474528159946203
30.0,0.006896498147398233
32.0,0.006374784745275974
36.0,0.005639596842229366
40.0,0.004912208765745163
44.0,0.004286426119506359
48.0,0.0039149923250079155
52.0,0.003573987167328596
56.0,0.00332638924010098
60.0,0.0029261542949825525
64.0,0.0025671564508229494
72.0,0.0019884950015693903
80.0,0.0015110576059669256
88.0,0.00116287253331393
96.0,0.0009783346904441714
104.0,0.000750343082472682
112.0,0.0005229277303442359
120.0,0.0004499084025155753
128.0,0.0001808127126423642
144.0,0.00028015338466502726
160.0,-7.440584795403993e-06
176.0,-0.00037626901757903397
192.0,-0.0001431509299436584
208.0,-2.595886508061085e-05
224.0,-0.00030498174601234496
240.0,-0.0003715026250574738
256.0,-0.0005249948590062559
288.0,0.00052977743325755
320.0,0.0008065108559094369
352.0,0.0006282830727286637
384.0,-0.0001909978745970875
416.0,-0.00015180410991888493
448.0,-0.0011235453421249986
480.0,-0.0019781365990638733
512.0,-0.0017288060626015067
576.0,-1.927609264384955e-05
640.0,0.00033289138809777796
704.0,0.0013083735248073936
768.0,0.0014169849455356598
832.0,0.00035690455115400255
896.0,0.0007187534356489778
960.0,0.0007497837650589645
1024.0,0.0009476179257035255
1152.0,0.0009076559799723327
1280.0,8.205762424040586e-05
1408.0,-0.000806857249699533
1536.0,-0.0008688800735399127
1664.0,-0.0008980174316093326
1792.0,-0.00014938325330149382
1920.0,0.0010766844497993588
2048.0,0.0013587313005700707
2304.0,-0.0005003062542527914
2560.0,-0.0005404435796663165
2816.0,0.0006419792189262807
3072.0,6.473498797276989e-05
3328.0,-0.001404480542987585
3584.0,-0.0007833901327103376
3840.0,-0.0006671498995274305
4096.0,-0.00013815084821544588
4608.0,0.0006192651344463229
5120.0,0.00046926591312512755
5632.0,0.0008844428230077028
6144.0,-0.0003393791557755321
6656.0,0.00017438449140172452
7168.0,0.00019494550360832363
7680.0,-5.73455763515085e-05
8192.0,-0.00023260965826921165
end
