version,3.0
numOfCh,1
type,point
parent_name,484af_0dot6-0dot1
ch_type,1_1
kcount,1
numberNandB,1
brightnessNandB,1
carpet pos,0
pc,0
Time (ms),CH1 Auto-Correlation
1.0,0.024268057197332382
2.0,0.02310502715408802
3.0,0.02209738828241825
4.0,0.02118763141334057
5.0,0.020347649231553078
6.0,0.019577816128730774
7.0,0.018850356340408325
8.0,0.01818094588816166
9.0,0.01753709465265274
10.0,0.016924971714615822
11.0,0.01633254438638687
12.0,0.01576790027320385
13.0,0.015229424461722374
14.0,0.014671322889626026
15.0,0.014161361381411552
16.0,0.013697142712771893
18.0,0.01289375126361847
20.0,0.012170939706265926
22.0,0.011537818238139153
24.0,0.010978440754115582
26.0,0.010413887910544872
28.0,0.009823880158364773
30.0,0.009315108880400658
32.0,0.00884794071316719
36.0,0.008059977553784847
40.0,0.007420765236020088
44.0,0.006733853369951248
48.0,0.006075007375329733
52.0,0.005429538898169994
56.0,0.004929067101329565
60.0,0.0044883862137794495
64.0,0.004081761464476585
72.0,0.003855687566101551
80.0,0.00400288263335824
88.0,0.004238490015268326
96.0,0.004043988883495331
104.0,0.0037802597507834435
112.0,0.0035259451251477003
120.0,0.0031994343735277653
128.0,0.0032167485915124416
144.0,0.0034245301503688097
160.0,0.003158586099743843
176.0,0.0024318729992955923
192.0,0.001005862490274012
208.0,0.0005918052629567683
224.0,0.0006656678742729127
240.0,0.00037470218376256526
256.0,0.0004894069279544055
288.0,0.0013382823672145605
320.0,0.0023296319413930178
352.0,0.002575279911980033
384.0,0.0017487603472545743
416.0,0.000976689625531435
448.0,0.0007065686513669789
480.0,0.0005553229711949825
512.0,3.4476423024898395e-05
576.0,-0.0001793684932636097
640.0,0.000425553327659145
704.0,-0.0003113243728876114
768.0,-0.0012352403718978167
832.0,-0.0007820331957191229
896.0,-0.0002519992121960968
960.0,-0.0005814773612655699
1024.0,-0.0009655136964283884
1152.0,-0.0009080729214474559
1280.0,-1.787075052561704e-05
1408.0,-0.0001348269870504737
1536.0,-0.0005936615634709597
1664.0,-0.00016779008728917688
1792.0,-0.00019010376126971096
1920.0,-0.0002428445004625246
2048.0,-0.0006993438582867384
2304.0,-0.0007818223675712943
2560.0,-0.0006192325381562114
2816.0,-8.863722177920863e-05
3072.0,-0.0002407210267847404
3328.0,-0.001690026605501771
3584.0,-0.002049156930297613
3840.0,-0.003203354310244322
4096.0,0.0009410384227521718
4608.0,0.0014628154458478093
5120.0,1.7867439964902587e-05
5632.0,0.0012743108673021197
6144.0,-7.771413947921246e-05
6656.0,-0.0017514955252408981
7168.0,0.0006682630046270788
7680.0,-0.0005979388952255249
8192.0,-0.0013132119784131646
end
