version,3.0
numOfCh,1
type,point
parent_name,484af_0dot6-0dot1
ch_type,1_1
kcount,1
numberNandB,1
brightnessNandB,1
carpet pos,0
pc,0
Time (ms),CH1 Auto-Correlation
1.0,0.02087695710361004
2.0,0.019745243713259697
3.0,0.01870192214846611
4.0,0.01776798628270626
5.0,0.01690233312547207
6.0,0.01609938032925129
7.0,0.01537112332880497
8.0,0.014680949039757252
9.0,0.014054279774427414
10.0,0.013467375189065933
11.0,0.01290280744433403
12.0,0.012400507926940918
13.0,0.011933043599128723
14.0,0.011534897610545158
15.0,0.011136863380670547
16.0,0.010750324465334415
18.0,0.010008120909333229
20.0,0.00935399066656828
22.0,0.008802655152976513
24.0,0.008378440514206886
26.0,0.007950893603265285
28.0,0.007564718835055828
30.0,0.007227538153529167
32.0,0.006936469580978155
36.0,0.0062303319573402405
40.0,0.005493613891303539
44.0,0.004846823867410421
48.0,0.004349964205175638
52.0,0.004088307730853558
56.0,0.003945218864828348
60.0,0.003757072612643242
64.0,0.0035365207586437464
72.0,0.002777826739475131
80.0,0.002191010629758239
88.0,0.0020987254101783037
96.0,0.0024165555369108915
104.0,0.0025016232393682003
112.0,0.0022738371044397354
120.0,0.001927217235788703
128.0,0.001863519661128521
144.0,0.0017259513260796666
160.0,0.000997372204437852
176.0,0.0010592421749606729
192.0,0.0015655927127227187
208.0,0.0018293197499588132
224.0,0.0015704211546108127
240.0,0.0013020093319937587
256.0,0.0013429789105430245
288.0,0.0010807265061885118
320.0,0.0011420130031183362
352.0,0.0012674449244514108
384.0,0.001617478672415018
416.0,0.0016303780721500516
448.0,0.0011582107981666923
480.0,3.3828706364147365e-05
512.0,-0.000853349978569895
576.0,-0.0008894873317331076
640.0,0.0008125882013700902
704.0,0.0006555516738444567
768.0,-0.00010199759708484635
832.0,0.00016774924006313086
896.0,0.00048026489093899727
960.0,0.0012187606189399958
1024.0,0.0019203094998374581
1152.0,-0.000226722244406119
1280.0,0.0005390424048528075
1408.0,0.0006916843121871352
1536.0,-0.0009150574333034456
1664.0,-5.13625745952595e-05
1792.0,-0.0005754827870987356
1920.0,1.9824465198325925e-06
2048.0,-0.00040258740773424506
2304.0,-0.0011438237270340323
2560.0,-0.0007775229751132429
2816.0,0.000300461397273466
3072.0,-0.00010042629583040252
3328.0,4.103345418116078e-06
3584.0,0.0006482911994680762
3840.0,0.0010391591349616647
4096.0,-0.0005398360663093626
4608.0,-0.0008332692086696625
5120.0,-0.00013749139907304198
5632.0,-0.0012522588949650526
6144.0,-8.477021037833765e-05
6656.0,0.000970880500972271
7168.0,0.00014036886568646878
7680.0,0.00029132809140719473
8192.0,-0.00037995088496245444
end
