version,3.0
numOfCh,1
type,point
parent_name,484af_0dot6-0dot1
ch_type,1_1
kcount,1
numberNandB,1
brightnessNandB,1
carpet pos,0
pc,0
Time (ms),CH1 Auto-Correlation
1.0,0.022137479856610298
2.0,0.020982354879379272
3.0,0.0199474785476923
4.0,0.0189950130879879
5.0,0.01815553940832615
6.0,0.017374973744153976
7.0,0.016658993437886238
8.0,0.015948036685585976
9.0,0.015287705697119236
10.0,0.014672111719846725
11.0,0.014102567918598652
12.0,0.01358312088996172
13.0,0.013083846308290958
14.0,0.012586690485477448
15.0,0.012162604369223118
16.0,0.01173324417322874
18.0,0.011002728715538979
20.0,0.01034368947148323
22.0,0.009730151854455471
24.0,0.009192355908453465
26.0,0.00868435762822628
28.0,0.008137154392898083
30.0,0.007673109881579876
32.0,0.007256785407662392
36.0,0.006573796737939119
40.0,0.0061149634420871735
44.0,0.005739925429224968
48.0,0.005572122056037188
52.0,0.005562501028180122
56.0,0.005549619905650616
60.0,0.005401973146945238
64.0,0.005175377242267132
72.0,0.004558510147035122
80.0,0.0038638534024357796
88.0,0.0031413440592586994
96.0,0.0025822711177170277
104.0,0.0020948080345988274
112.0,0.0017560607520863414
120.0,0.0015949348453432322
128.0,0.001561974175274372
144.0,0.0012377037201076746
160.0,0.0011876651551574469
176.0,0.0009595698211342096
192.0,0.00045586665510199964
208.0,-0.0005905205034650862
224.0,-0.0005382392555475235
240.0,-4.329663352109492e-05
256.0,9.476685227127746e-05
288.0,-8.175017137546092e-05
320.0,0.00015868186892475933
352.0,0.00016375623818021268
384.0,0.0009329695021733642
416.0,0.0011582485167309642
448.0,0.0012994600692763925
480.0,0.0013001176994293928
512.0,0.001627843244932592
576.0,0.0006040830630809069
640.0,-0.0009463818278163671
704.0,-0.001063449657522142
768.0,-9.011700603878126e-05
832.0,-0.00043408613419160247
896.0,0.00042781521915458143
960.0,0.00015573504788335413
1024.0,0.0006945314817130566
1152.0,-0.0010975415352731943
1280.0,-0.0008274862775579095
1408.0,-0.000678481359500438
1536.0,0.0012391515774652362
1664.0,-0.0005909114261157811
1792.0,0.0002048102905973792
1920.0,1.1618624739639927e-05
2048.0,-0.0012605109950527549
2304.0,-0.0002806105767376721
2560.0,-0.0007135618361644447
2816.0,-0.0010434967698529363
3072.0,-0.0011435463093221188
3328.0,-0.000642277009319514
3584.0,0.0004713710804935545
3840.0,-0.0004806552024092525
4096.0,0.00018334340711589903
4608.0,0.0004514249740168452
5120.0,6.986632797634229e-05
5632.0,0.00044925574911758304
6144.0,0.00022874957357998937
6656.0,-0.0001932510785991326
7168.0,0.00037621211959049106
7680.0,-0.00042458155076019466
8192.0,-0.00011862975952681154
end
