version,3.0
numOfCh,1
type,point
parent_name,484af_0dot6-0dot1
ch_type,1_1
kcount,1
numberNandB,1
brightnessNandB,1
carpet pos,0
pc,0
Time (ms),CH1 Auto-Correlation
1.0,0.023230351507663727
2.0,0.022071173414587975
3.0,0.02102765440940857
4.0,0.020091865211725235
5.0,0.01924040913581848
6.0,0.018477484583854675
7.0,0.017768416553735733
8.0,0.01709682121872902
9.0,0.016499876976013184
10.0,0.01595292054116726
11.0,0.015423349104821682
12.0,0.014927186071872711
13.0,0.014460988342761993
14.0,0.014003205113112926
15.0,0.013565726578235626
16.0,0.01315243449062109
18.0,0.012367716059088707
20.0,0.011722317896783352
22.0,0.011245300062000751
24.0,0.01081105973571539
26.0,0.010276359505951405
28.0,0.009780912660062313
30.0,0.00931308139115572
32.0,0.008929097093641758
36.0,0.008314600214362144
40.0,0.007719670422375202
44.0,0.007203677669167519
48.0,0.006812228821218014
52.0,0.006485999096184969
56.0,0.006212217733263969
60.0,0.005989948287606239
64.0,0.005705353803932667
72.0,0.00521583529189229
80.0,0.004666789434850216
88.0,0.003982795402407646
96.0,0.0034198439680039883
104.0,0.003072440857067704
112.0,0.0028757620602846146
120.0,0.0025128161069005728
128.0,0.0026474182959645987
144.0,0.0020806018728762865
160.0,0.0015691062435507774
176.0,0.0015279467916116118
192.0,0.0014944506110623479
208.0,0.0008050933829508722
224.0,7.709271449130028e-05
240.0,1.5198828805296216e-05
256.0,-0.0004567644791677594
288.0,0.0002568807976786047
320.0,5.886803410248831e-05
352.0,0.00015973608242347836
384.0,5.7513338106218725e-05
416.0,-0.0005331132560968399
448.0,-0.0007421319605782628
480.0,-0.0008240286842919886
512.0,-0.0003752235206775367
576.0,-0.00017794773157220334
640.0,-0.0003924145130440593
704.0,-6.914343975950032e-05
768.0,0.0005394323379732668
832.0,8.066227019298822e-05
896.0,0.0004019310581497848
960.0,0.0015545838978141546
1024.0,-0.0006522335461340845
1152.0,-0.001869513071142137
1280.0,-0.0019115672912448645
1408.0,-0.0015786554431542754
1536.0,-0.0010883280774578452
1664.0,-0.000255516788456589
1792.0,5.598026473307982e-05
1920.0,-0.0002166852937079966
2048.0,-0.0019214451313018799
2304.0,-0.0006706526037305593
2560.0,0.0007252087816596031
2816.0,0.00015632803842891008
3072.0,-0.000893379095941782
3328.0,0.000706739432644099
3584.0,0.0013463328359648585
3840.0,0.0015840698033571243
4096.0,0.0006312750629149377
4608.0,0.00030009355396032333
5120.0,-0.0012402372667565942
5632.0,-0.001363562885671854
6144.0,-0.000970698893070221
6656.0,0.0003126840165350586
7168.0,0.001965426839888096
7680.0,0.00035376506275497377
8192.0,-0.0012471277732402086
end
