version,3.0
numOfCh,1
type,point
parent_name,484af_0dot6-0dot1
ch_type,1_1
kcount,1
numberNandB,1
brightnessNandB,1
carpet pos,0
pc,0
Time (ms),CH1 Auto-Correlation
1.0,0.022170422598719597
2.0,0.02102317288517952
3.0,0.019963599741458893
4.0,0.019040515646338463
5.0,0.018220778554677963
6.0,0.017512213438749313
7.0,0.016842275857925415
8.0,0.016176972538232803
9.0,0.015537193045020103
10.0,0.014895322732627392
11.0,0.01432083174586296
12.0,0.013772719539701939
13.0,0.013212816789746284
14.0,0.012709127739071846
15.0,0.012281551957130432
16.0,0.0119056086987257
18.0,0.0112635912373662
20.0,0.010670253075659275
22.0,0.010158244520425797
24.0,0.009699519723653793
26.0,0.009262923151254654
28.0,0.008748234249651432
30.0,0.00824213121086359
32.0,0.00785544328391552
36.0,0.007221403066068888
40.0,0.006732907146215439
44.0,0.006327018141746521
48.0,0.006007401272654533
52.0,0.005770361516624689
56.0,0.005531013011932373
60.0,0.005317040719091892
64.0,0.005144625902175903
72.0,0.0046758526004850864
80.0,0.00388012221083045
88.0,0.0031632031314074993
96.0,0.0027241494972258806
104.0,0.00234027998521924
112.0,0.0020653377287089825
120.0,0.002059257123619318
128.0,0.00205429270863533
144.0,0.0019692485220730305
160.0,0.001760127954185009
176.0,0.0016512369038537145
192.0,0.0015513908583670855
208.0,0.001411703764460981
224.0,0.0016724866582080722
240.0,0.0018227460095658898
256.0,0.0015775114297866821
288.0,0.001245285151526332
320.0,0.001045380486175418
352.0,0.0005565532483160496
384.0,0.00016126975242514163
416.0,-0.0007421275950036943
448.0,-0.0003885301703121513
480.0,-0.00018196844030171633
512.0,4.535509287961759e-05
576.0,-0.0001051748258760199
640.0,-0.0010046723764389753
704.0,-0.0024881234858185053
768.0,-0.0014857589267194271
832.0,-0.0007862668135203421
896.0,-0.0011106645688414574
960.0,-0.0013328641653060913
1024.0,-0.0007695791427977383
1152.0,0.0009741399553604424
1280.0,-0.0001857455790741369
1408.0,-0.0007254563388414681
1536.0,-0.001461131265386939
1664.0,0.0005250066169537604
1792.0,0.00024972858955152333
1920.0,0.00018260293290950358
2048.0,0.0003998940228484571
2304.0,0.0013843029737472534
2560.0,-0.00034050902468152344
2816.0,-0.0018694027094170451
3072.0,-0.0015273913741111755
3328.0,-0.000512903556227684
3584.0,-0.0016046225791797042
3840.0,-0.001364347292110324
4096.0,-0.000674585287924856
4608.0,0.0009885116014629602
5120.0,-0.0015517411520704627
5632.0,0.00045779524953104556
6144.0,-0.0003642140654847026
6656.0,0.0014480570098385215
7168.0,0.0004956192569807172
7680.0,-0.0005272290436550975
8192.0,-0.00045065986341796815
end
