version,3.0
numOfCh,1
type,point
parent_name,484af_0dot6-0dot1
ch_type,1_1
kcount,1
numberNandB,1
brightnessNandB,1
carpet pos,0
pc,0
Time (ms),CH1 Auto-Correlation
1.0,0.02857118286192417
2.0,0.02736503817141056
3.0,0.02623070403933525
4.0,0.025196412578225136
5.0,0.024263747036457062
6.0,0.023399777710437775
7.0,0.022620460018515587
8.0,0.02192741632461548
9.0,0.02129640243947506
10.0,0.020748568698763847
11.0,0.020271869376301765
12.0,0.019841361790895462
13.0,0.019429797306656837
14.0,0.019041206687688828
15.0,0.018667440861463547
16.0,0.018311038613319397
18.0,0.017615381628274918
20.0,0.016972890123724937
22.0,0.016384905204176903
24.0,0.015849415212869644
26.0,0.015395650640130043
28.0,0.014944618567824364
30.0,0.01437867060303688
32.0,0.013891125097870827
36.0,0.013212455436587334
40.0,0.012683392502367496
44.0,0.012223104014992714
48.0,0.011741838417947292
52.0,0.011213414371013641
56.0,0.010772403329610825
60.0,0.010469473898410797
64.0,0.010258031077682972
72.0,0.009632433764636517
80.0,0.009033815935254097
88.0,0.008452683687210083
96.0,0.007769185118377209
104.0,0.007074765861034393
112.0,0.006150631699711084
120.0,0.005487954709678888
128.0,0.004862616304308176
144.0,0.0037473230622708797
160.0,0.0032443630043417215
176.0,0.0036850415635854006
192.0,0.003965673502534628
208.0,0.0031454446725547314
224.0,0.0020199113059788942
240.0,0.0016105839749798179
256.0,0.0013791806995868683
288.0,0.001220863196067512
320.0,0.0014618048444390297
352.0,0.0010308977216482162
384.0,0.0004877078754361719
416.0,-0.0003719261148944497
448.0,-0.0007528763962909579
480.0,-0.0010710328351706266
512.0,-0.0008071751799434423
576.0,-0.0010955852922052145
640.0,-0.0014398172497749329
704.0,-0.0013083224184811115
768.0,-0.0035238887649029493
832.0,-0.0038019991479814053
896.0,-0.003633977612480521
960.0,-0.0024653756991028786
1024.0,-0.002010300289839506
1152.0,-0.0008916154620237648
1280.0,0.0012042421149089932
1408.0,0.0011578095145523548
1536.0,-0.00038913387106731534
1664.0,0.0009691543527878821
1792.0,0.0014585728058591485
1920.0,0.003107359167188406
2048.0,0.0009515361161902547
2304.0,-0.0028792470693588257
2560.0,-0.0010121357627213001
2816.0,-0.001729494659230113
3072.0,0.000228855773457326
3328.0,-6.12145522609353e-05
3584.0,-0.002752067754045129
3840.0,-0.0019510085694491863
4096.0,-0.0016056725289672613
4608.0,-0.0008394676842726767
5120.0,-0.00030490843346342444
5632.0,0.003025585087016225
6144.0,0.002182840369641781
6656.0,-0.0009043077006936073
7168.0,0.0013473937287926674
7680.0,0.002837065840139985
8192.0,0.0006685423431918025
end
