version,3.0
numOfCh,1
type,point
parent_name,484af_0dot6-0dot1
ch_type,1_1
kcount,1
numberNandB,1
brightnessNandB,1
carpet pos,0
pc,0
Time (ms),CH1 Auto-Correlation
1.0,0.021961456164717674
2.0,0.020794570446014404
3.0,0.01971537619829178
4.0,0.018745148554444313
5.0,0.01786668598651886
6.0,0.01702379435300827
7.0,0.01624983735382557
8.0,0.015521031804382801
9.0,0.01480154786258936
10.0,0.014128596521914005
11.0,0.013525910675525665
12.0,0.012959102168679237
13.0,0.012473119422793388
14.0,0.011999298818409443
15.0,0.011564699932932854
16.0,0.01119525171816349
18.0,0.010553517378866673
20.0,0.009947783313691616
22.0,0.009349871426820755
24.0,0.008829236961901188
26.0,0.00836971029639244
28.0,0.007917698472738266
30.0,0.007550026755779982
32.0,0.007245229557156563
36.0,0.006715224590152502
40.0,0.006202492862939835
44.0,0.005664508789777756
48.0,0.005194395314902067
52.0,0.004818555898964405
56.0,0.004401750862598419
60.0,0.003988714888691902
64.0,0.0037378070410341024
72.0,0.0033503102604299784
80.0,0.0028541199862957
88.0,0.0022830378729850054
96.0,0.0019985854160040617
104.0,0.0016301152063533664
112.0,0.001309162238612771
120.0,0.001210043323226273
128.0,0.0012190192937850952
144.0,0.0011063324054703116
160.0,0.0006328615709207952
176.0,0.0005244793137535453
192.0,0.0003506212669890374
208.0,0.0003368085599504411
224.0,0.00021426017337944359
240.0,0.00018193767755292356
256.0,1.6858719391166233e-05
288.0,-8.859279478201643e-05
320.0,-0.0005291380803100765
352.0,-0.0009810399496927857
384.0,-0.0005844731349498034
416.0,-0.000510822981595993
448.0,-0.0007262096623890102
480.0,-0.000187360099516809
512.0,0.0005546344327740371
576.0,0.0007806040230207145
640.0,0.0012759928358718753
704.0,0.0010197375668212771
768.0,0.0020111091434955597
832.0,0.0008780726348049939
896.0,0.0008216166170313954
960.0,0.0007609935128130019
1024.0,-0.0010867955861613154
1152.0,-0.0007668489124625921
1280.0,-0.0004387260996736586
1408.0,-0.0001272214576601982
1536.0,5.7873785408446565e-05
1664.0,-0.00040085322689265013
1792.0,-0.0008429219597019255
1920.0,-0.0009094131528399885
2048.0,-0.00030265862005762756
2304.0,8.288362732855603e-05
2560.0,-0.0011969992192462087
2816.0,-0.0007583391852676868
3072.0,0.0011420076480135322
3328.0,-0.0005581454024650156
3584.0,-3.668159115477465e-05
3840.0,8.277175220428035e-05
4096.0,-0.00045946514001116157
4608.0,-0.0010675395606085658
5120.0,-0.000830737582873553
5632.0,-0.0007858732715249062
6144.0,0.0007422200287692249
6656.0,0.001294278190471232
7168.0,5.1376442570472136e-05
7680.0,0.000956772593781352
8192.0,-0.0001197071178467013
end
