version,3.0
numOfCh,1
type,point
parent_name,484af_0dot6-0dot1
ch_type,1_1
kcount,1
numberNandB,1
brightnessNandB,1
carpet pos,0
pc,0
Time (ms),CH1 Auto-Correlation
1.0,0.021468227729201317
2.0,0.020305747166275978
3.0,0.01923177018761635
4.0,0.018272027373313904
5.0,0.017385853454470634
6.0,0.016599178314208984
7.0,0.015874333679676056
8.0,0.015196207910776138
9.0,0.014577146619558334
10.0,0.014003641903400421
11.0,0.013482297770678997
12.0,0.012979797087609768
13.0,0.012495270930230618
14.0,0.01203957386314869
15.0,0.011630457825958729
16.0,0.011276238597929478
18.0,0.010641857050359249
20.0,0.010087447240948677
22.0,0.009625711478292942
24.0,0.009227056987583637
26.0,0.008869046345353127
28.0,0.008522779680788517
30.0,0.008107038214802742
32.0,0.007745936047285795
36.0,0.0071306596510112286
40.0,0.0066454713232815266
44.0,0.006201674696058035
48.0,0.005904410965740681
52.0,0.005636478308588266
56.0,0.005246372893452644
60.0,0.0047215246595442295
64.0,0.0043238746002316475
72.0,0.0037527091335505247
80.0,0.0032673294190317392
88.0,0.002635739278048277
96.0,0.002259256551042199
104.0,0.001970565877854824
112.0,0.0019120634533464909
120.0,0.0019450136460363865
128.0,0.00173609156627208
144.0,0.0012810889165848494
160.0,0.0013000190956518054
176.0,0.001168950111605227
192.0,0.0009673976455815136
208.0,0.0009964186465367675
224.0,0.0004942273371852934
240.0,-0.00023590527416672558
256.0,-0.0008056383230723441
288.0,-0.0003920447488781065
320.0,-0.0003994039143435657
352.0,-0.0010513709858059883
384.0,-0.0015377665404230356
416.0,-0.0016906640958040953
448.0,-0.002011325443163514
480.0,-0.0020852903835475445
512.0,-0.002034494886174798
576.0,-0.0013918422628194094
640.0,-0.0009983968921005726
704.0,-0.0015116545837372541
768.0,-0.0005621942691504955
832.0,1.7431684682378545e-05
896.0,0.000945817562751472
960.0,0.0004848462122026831
1024.0,0.0002978911797981709
1152.0,9.343930287286639e-05
1280.0,-0.0005652369582094252
1408.0,0.0011965460143983364
1536.0,0.0012762605911120772
1664.0,0.0009262007661163807
1792.0,0.0001607902959221974
1920.0,-0.00018328432634007186
2048.0,-0.00029461405938491225
2304.0,-0.0015258293133229017
2560.0,-0.0003218759084120393
2816.0,-0.0004598506784532219
3072.0,0.00047960225492715836
3328.0,-0.00021399359684437513
3584.0,-0.0001382948103128001
3840.0,-0.0007538713398389518
4096.0,0.0003205002867616713
4608.0,0.0008191987872123718
5120.0,-0.0009000260033644736
5632.0,0.0006528666708618402
6144.0,-0.0006333268829621375
6656.0,-0.00021877123799640685
7168.0,0.0006905235350131989
7680.0,6.747381848981604e-05
8192.0,6.513683911180124e-05
end
