version,3.0
numOfCh,1
type,point
parent_name,484af_0dot6-0dot1
ch_type,1_1
kcount,1
numberNandB,1
brightnessNandB,1
carpet pos,0
pc,0
Time (ms),CH1 Auto-Correlation
1.0,0.022557144984602928
2.0,0.021424194797873497
3.0,0.02041809819638729
4.0,0.0195041261613369
5.0,0.018638476729393005
6.0,0.017859460785984993
7.0,0.01714801788330078
8.0,0.016499269753694534
9.0,0.015880439430475235
10.0,0.015318059362471104
11.0,0.014762956649065018
12.0,0.014231089502573013
13.0,0.013775878585875034
14.0,0.0133362403139472
15.0,0.0129038505256176
16.0,0.012475291267037392
18.0,0.011696813628077507
20.0,0.010973436757922173
22.0,0.010396968573331833
24.0,0.009892941452562809
26.0,0.00941674318164587
28.0,0.008917908184230328
30.0,0.008489086292684078
32.0,0.008140278048813343
36.0,0.007596572861075401
40.0,0.006966442335397005
44.0,0.006331927143037319
48.0,0.005783990025520325
52.0,0.005369627382606268
56.0,0.004924443084746599
60.0,0.004541375674307346
64.0,0.004317001439630985
72.0,0.003937066532671452
80.0,0.003455664264038205
88.0,0.003272762754932046
96.0,0.0031334420200437307
104.0,0.003012362401932478
112.0,0.0028487034142017365
120.0,0.0027393598575145006
128.0,0.0025980379432439804
144.0,0.002392027759924531
160.0,0.00250613852404058
176.0,0.0027249488048255444
192.0,0.0031137969344854355
208.0,0.0035341093316674232
224.0,0.004103539511561394
240.0,0.003873696317896247
256.0,0.0027115882840007544
288.0,0.002283498179167509
320.0,0.0015400717966258526
352.0,0.0013049407862126827
384.0,0.0018219572957605124
416.0,0.0020974043291062117
448.0,0.0015690865693613887
480.0,0.001192351570352912
512.0,0.0006451277295127511
576.0,0.0007700286223553121
640.0,0.0005549939814954996
704.0,0.00025344640016555786
768.0,0.0010253407526761293
832.0,0.0012622871436178684
896.0,0.0005535639938898385
960.0,-0.0007497180486097932
1024.0,-0.0006036046543158591
1152.0,-0.00024137180298566818
1280.0,-9.09156515263021e-05
1408.0,-0.0013436338631436229
1536.0,-0.0021751858294010162
1664.0,-0.0015739075606688857
1792.0,-0.0008641780586913228
1920.0,-0.0003266518178861588
2048.0,0.0005021899123676121
2304.0,0.0015079330187290907
2560.0,0.0014799825148656964
2816.0,0.0006258813664317131
3072.0,3.318664676044136e-05
3328.0,-0.0005766276735812426
3584.0,-0.0004752095555886626
3840.0,-0.001605898141860962
4096.0,-0.001842563389800489
4608.0,-0.001257853815332055
5120.0,-3.7165723369980697e-06
5632.0,-5.2755323849851266e-05
6144.0,0.0002575055696070194
6656.0,-0.001300669158808887
7168.0,-0.0032164740841835737
7680.0,-0.0012065490009263158
8192.0,-0.0014257344882935286
end
