version,3.0
numOfCh,1
type,point
parent_name,484af_0dot6-0dot1
ch_type,1_1
kcount,1
numberNandB,1
brightnessNandB,1
carpet pos,0
pc,0
Time (ms),CH1 Auto-Correlation
1.0,0.021917302161455154
2.0,0.020767685025930405
3.0,0.019698752090334892
4.0,0.018734075129032135
5.0,0.01785641722381115
6.0,0.017036518082022667
7.0,0.016305619850754738
8.0,0.01561699528247118
9.0,0.015017368830740452
10.0,0.014485688880085945
11.0,0.013967316597700119
12.0,0.013471386395394802
13.0,0.012998856604099274
14.0,0.012556836940348148
15.0,0.012133747339248657
16.0,0.011739118956029415
18.0,0.011061076074838638
20.0,0.01048021949827671
22.0,0.009967552497982979
24.0,0.009473511017858982
26.0,0.009013466536998749
28.0,0.008643301203846931
30.0,0.008318884298205376
32.0,0.007954379543662071
36.0,0.007263753097504377
40.0,0.006542708724737167
44.0,0.005930048879235983
48.0,0.00545631255954504
52.0,0.005230159964412451
56.0,0.004936874844133854
60.0,0.004725821781903505
64.0,0.004596590530127287
72.0,0.004235349595546722
80.0,0.0040495553985238075
88.0,0.003881921526044607
96.0,0.0037323450669646263
104.0,0.0034514523576945066
112.0,0.0033920181449502707
120.0,0.0036411136388778687
128.0,0.0038136248476803303
144.0,0.0038496651686728
160.0,0.0034117968752980232
176.0,0.0026477426290512085
192.0,0.00212155026383698
208.0,0.002242830116301775
224.0,0.002200876595452428
240.0,0.0017084894934669137
256.0,0.002133820904418826
288.0,0.0016711954958736897
320.0,0.0008239280432462692
352.0,-0.00021778019436169416
384.0,-0.0009145375224761665
416.0,-0.0006615044549107552
448.0,-0.000299219653243199
480.0,7.948031270643696e-05
512.0,-0.0009422491420991719
576.0,-0.0016269896877929568
640.0,-0.0010897393804043531
704.0,-0.0006955373100936413
768.0,-0.0008205905905924737
832.0,-0.001701666391454637
896.0,-0.0014035511994734406
960.0,-0.0017500272952020168
1024.0,-0.0012006682809442282
1152.0,-0.0003412968071643263
1280.0,-0.0006367602036334574
1408.0,-0.0002038482198258862
1536.0,0.0006135260919108987
1664.0,0.0018132815603166819
1792.0,0.0021300392691046
1920.0,0.002262653084471822
2048.0,0.0014141487190499902
2304.0,-0.0008902098052203655
2560.0,-0.0013552459422498941
2816.0,-0.0018889198545366526
3072.0,-0.001091091544367373
3328.0,0.0002027199079748243
3584.0,0.0006974205025471747
3840.0,0.0011962392600253224
4096.0,-5.353507731342688e-05
4608.0,-0.001567219034768641
5120.0,-0.0004966870183125138
5632.0,-0.0004825796640943736
6144.0,-0.00010951865988317877
6656.0,-0.0006865981267765164
7168.0,-0.0005925915320403874
7680.0,0.0007518625934608281
8192.0,8.965900633484125e-05
end
