version,3.0
numOfCh,1
type,point
parent_name,484af_0dot6-0dot1
ch_type,1_1
kcount,1
numberNandB,1
brightnessNandB,1
carpet pos,0
pc,0
Time (ms),CH1 Auto-Correlation
1.0,0.020008379593491554
2.0,0.018898939713835716
3.0,0.01791330985724926
4.0,0.0170504879206419
5.0,0.016270600259304047
6.0,0.015592079609632492
7.0,0.014957530423998833
8.0,0.01435113325715065
9.0,0.01378526259213686
10.0,0.01325942948460579
11.0,0.01274068746715784
12.0,0.012286117300391197
13.0,0.01186372246593237
14.0,0.011478416621685028
15.0,0.011092121712863445
16.0,0.010738052427768707
18.0,0.010120339691638947
20.0,0.00959356501698494
22.0,0.009133700281381607
24.0,0.008754686452448368
26.0,0.008420237340033054
28.0,0.008048545569181442
30.0,0.007697666995227337
32.0,0.007348274812102318
36.0,0.006583807058632374
40.0,0.005843447986990213
44.0,0.005307476967573166
48.0,0.004920876584947109
52.0,0.004629811272025108
56.0,0.004301200620830059
60.0,0.003950700629502535
64.0,0.003608935745432973
72.0,0.0026672864332795143
80.0,0.0021124896593391895
88.0,0.0020011295564472675
96.0,0.0017460637027397752
104.0,0.0014564450830221176
112.0,0.0012230626307427883
120.0,0.0009557895828038454
128.0,0.0007914506131783128
144.0,0.00036683224607259035
160.0,-0.00017598668637219816
176.0,-0.0004485090321395546
192.0,5.9189445892116055e-05
208.0,-0.000211169826798141
224.0,-0.0002820500230882317
240.0,-0.0003722023102454841
256.0,-0.0007140631205402315
288.0,-0.001218584948219359
320.0,-0.0010213322238996625
352.0,-4.846688170800917e-05
384.0,0.0005109464400447905
416.0,-1.697006700851489e-05
448.0,-0.0006747067091055214
480.0,-0.0004212025087326765
512.0,-0.00026716076536104083
576.0,0.00025895569706335664
640.0,-0.0005138763808645308
704.0,-0.0012767893495038152
768.0,-0.0012601609341800213
832.0,-0.001275024376809597
896.0,-0.0010232138447463512
960.0,-6.445621693274006e-05
1024.0,0.0006058241124264896
1152.0,0.0014693473931401968
1280.0,0.0006734307389706373
1408.0,-8.543463627574965e-05
1536.0,0.0008547359611839056
1664.0,0.0008652880205772817
1792.0,0.0008793059969320893
1920.0,3.1465318897971883e-05
2048.0,-0.0012843911536037922
2304.0,-0.00013746913464274257
2560.0,0.0019327363697811961
2816.0,-0.0003738937375601381
3072.0,1.4018788760949974e-06
3328.0,-0.0016311649233102798
3584.0,0.0008997491095215082
3840.0,0.00024030485656112432
4096.0,0.0007871906273066998
4608.0,-6.933439726708457e-05
5120.0,-0.00032426026882603765
5632.0,-0.0009472805541008711
6144.0,-0.00042669466347433627
6656.0,0.0003286409773863852
7168.0,2.1549913071794435e-05
7680.0,-1.7596932593733072e-05
8192.0,-0.0011106343008577824
end
