version,3.0
numOfCh,1
type,point
parent_name,484af_0dot6-0dot1
ch_type,1_1
kcount,1
numberNandB,1
brightnessNandB,1
carpet pos,0
pc,0
Time (ms),CH1 Auto-Correlation
1.0,0.02093013934791088
2.0,0.019645674154162407
3.0,0.018515773117542267
4.0,0.01752363331615925
5.0,0.01661330834031105
6.0,0.015764523297548294
7.0,0.014979789033532143
8.0,0.014250173233449459
9.0,0.013574440963566303
10.0,0.01291022077202797
11.0,0.012249687686562538
12.0,0.011661408469080925
13.0,0.011151417158544064
14.0,0.01063223835080862
15.0,0.010105680674314499
16.0,0.00964443851262331
18.0,0.008877844549715519
20.0,0.008213609457015991
22.0,0.007549230940639973
24.0,0.007040911354124546
26.0,0.006653364282101393
28.0,0.006336354184895754
30.0,0.006076567340642214
32.0,0.0059137591160833836
36.0,0.005549880210310221
40.0,0.005093717947602272
44.0,0.0046916441060602665
48.0,0.004170415457338095
52.0,0.003661170369014144
56.0,0.003276124130934477
60.0,0.0028363766614347696
64.0,0.002504486357793212
72.0,0.0022798748686909676
80.0,0.002385865431278944
88.0,0.002601191634312272
96.0,0.002197069115936756
104.0,0.0017411293229088187
112.0,0.0015175750013440847
120.0,0.0016205415595322847
128.0,0.00223913649097085
144.0,0.002407386666163802
160.0,0.0023356699384748936
176.0,0.0020745221991091967
192.0,0.0024632816202938557
208.0,0.0021107043139636517
224.0,0.0021682390943169594
240.0,0.002318166196346283
256.0,0.0019057682948186994
288.0,0.0016485046362504363
320.0,0.0009089029626920819
352.0,0.0013034000294283032
384.0,0.001221299171447754
416.0,0.0006016072584316134
448.0,-0.00011288136010989547
480.0,0.0005649644299410284
512.0,0.0006576410960406065
576.0,0.00023183041776064783
640.0,0.00031330049387179315
704.0,0.0005032305489294231
768.0,0.0003147258539684117
832.0,0.0005887681036256254
896.0,0.0008631617529317737
960.0,0.0026917008217424154
1024.0,0.0009419912821613252
1152.0,0.001382821355946362
1280.0,0.0005219927988946438
1408.0,0.0006106302607804537
1536.0,-0.0003067237848881632
1664.0,-0.0009938417933881283
1792.0,-0.0006153751746751368
1920.0,0.0002520836715120822
2048.0,0.0005047853337600827
2304.0,-0.00033833892666734755
2560.0,-0.002108454704284668
2816.0,-0.0009048936772160232
3072.0,0.0008199585136026144
3328.0,0.0003678323409985751
3584.0,-0.0014932284830138087
3840.0,-0.0017108302563428879
4096.0,0.0004256382817402482
4608.0,-0.0015636018943041563
5120.0,-0.0004623963322956115
5632.0,-0.0014870645245537162
6144.0,-0.0009352603810839355
6656.0,-0.0004507230769377202
7168.0,0.00116741715464741
7680.0,-7.912988075986505e-05
8192.0,0.0009629326523281634
end
