version,3.0
numOfCh,1
type,point
parent_name,484af_0dot6-0dot1
ch_type,1_1
kcount,1
numberNandB,1
brightnessNandB,1
carpet pos,0
pc,0
Time (ms),CH1 Auto-Correlation
1.0,0.025257974863052368
2.0,0.024113604798913002
3.0,0.02309458702802658
4.0,0.022172683849930763
5.0,0.021318232640624046
6.0,0.020509742200374603
7.0,0.019764691591262817
8.0,0.019125955179333687
9.0,0.018534090369939804
10.0,0.017976924777030945
11.0,0.017427364364266396
12.0,0.0168900229036808
13.0,0.01640033908188343
14.0,0.01594245620071888
15.0,0.01549915038049221
16.0,0.015097319148480892
18.0,0.014317858964204788
20.0,0.013594484888017178
22.0,0.012907573953270912
24.0,0.012296656146645546
26.0,0.011730433441698551
28.0,0.01121231634169817
30.0,0.010779228061437607
32.0,0.01037170086055994
36.0,0.00966576486825943
40.0,0.008982675150036812
44.0,0.008343660272657871
48.0,0.007739719934761524
52.0,0.007175447419285774
56.0,0.006648600567132235
60.0,0.006195812951773405
64.0,0.0058248345740139484
72.0,0.005073282402008772
80.0,0.00461602071300149
88.0,0.004063079133629799
96.0,0.0036601372994482517
104.0,0.0033669339027255774
112.0,0.0029618421103805304
120.0,0.002403756370767951
128.0,0.0018258250784128904
144.0,0.001280203927308321
160.0,0.0008148695924319327
176.0,0.00044531701132655144
192.0,6.560713518410921e-05
208.0,-0.0007258401601575315
224.0,-0.0010599213419482112
240.0,-0.001419642474502325
256.0,-0.001228505396284163
288.0,-0.0004780537565238774
320.0,-0.0007420476176775992
352.0,-0.0008126911707222462
384.0,-1.3984420547785703e-05
416.0,2.205809323641006e-05
448.0,0.0005227902438491583
480.0,0.0007041181670501828
512.0,0.00011190041550435126
576.0,-0.0015941757010295987
640.0,-0.00166242232080549
704.0,-0.0022505971137434244
768.0,-0.0009889898356050253
832.0,-0.0004181105468887836
896.0,-0.00014714730787090957
960.0,0.0004630617913790047
1024.0,-0.0006505364435724914
1152.0,-0.0019364708568900824
1280.0,-0.00012772543414030224
1408.0,0.000743277370929718
1536.0,-0.002156119327992201
1664.0,-0.0016546426340937614
1792.0,0.0017708118539303541
1920.0,0.0011784761445596814
2048.0,-7.58919632062316e-05
2304.0,0.00015574696590192616
2560.0,-0.0003593619039747864
2816.0,0.0007623465498909354
3072.0,0.0007929746061563492
3328.0,-0.000834086851682514
3584.0,-0.0006490437663160264
3840.0,-0.00030705067911185324
4096.0,0.0013981962110847235
4608.0,-0.0002059321413980797
5120.0,0.0005312611465342343
5632.0,-0.0008912326884455979
6144.0,-0.00032272987300530076
6656.0,0.000676915398798883
7168.0,0.00018564386118669063
7680.0,0.00043867723434232175
8192.0,0.0004733980167657137
end
