version,3.0
numOfCh,1
type,point
parent_name,484af_0dot6-0dot1
ch_type,1_1
kcount,1
numberNandB,1
brightnessNandB,1
carpet pos,0
pc,0
Time (ms),CH1 Auto-Correlation
1.0,0.025891268625855446
2.0,0.024699673056602478
3.0,0.023596150800585747
4.0,0.02260555513203144
5.0,0.02169657126069069
6.0,0.020859070122241974
7.0,0.020089587196707726
8.0,0.01938479207456112
9.0,0.018726924434304237
10.0,0.018119150772690773
11.0,0.017519721761345863
12.0,0.016982216387987137
13.0,0.016475828364491463
14.0,0.015985967591404915
15.0,0.015524951741099358
16.0,0.015077776275575161
18.0,0.014264634810388088
20.0,0.013577722012996674
22.0,0.012970926240086555
24.0,0.012411708943545818
26.0,0.011919623240828514
28.0,0.011469267308712006
30.0,0.011046931147575378
32.0,0.010667703114449978
36.0,0.009958409704267979
40.0,0.009500401094555855
44.0,0.009082548320293427
48.0,0.00858259666711092
52.0,0.008079063147306442
56.0,0.007618473377078772
60.0,0.0071643865667283535
64.0,0.0067442795261740685
72.0,0.00577772781252861
80.0,0.005047956015914679
88.0,0.004769042134284973
96.0,0.00488513195887208
104.0,0.004947383422404528
112.0,0.004287837538868189
120.0,0.003477324964478612
128.0,0.0029269319493323565
144.0,0.0022712182253599167
160.0,0.0021297677885740995
176.0,0.0021393110509961843
192.0,0.0015359659446403384
208.0,0.0007488925475627184
224.0,0.0006288570584729314
240.0,0.0007318677962757647
256.0,0.0003589177504181862
288.0,0.000699360971339047
320.0,0.00020647044584620744
352.0,-0.0004180496616754681
384.0,-0.0005371334264054894
416.0,-0.0005255950381979346
448.0,0.0003994990838691592
480.0,0.0013225727016106248
512.0,0.0014498155796900392
576.0,0.0009860332356765866
640.0,0.001988661242648959
704.0,0.0014133714139461517
768.0,3.4466364013496786e-05
832.0,-0.00023160106502473354
896.0,-0.00024295071489177644
960.0,0.00037802226142957807
1024.0,0.0008821908850222826
1152.0,0.0010876888409256935
1280.0,0.0013887615641579032
1408.0,0.001957349944859743
1536.0,0.000981692923232913
1664.0,0.0009664335520938039
1792.0,-0.0014349553966894746
1920.0,-0.0003415205283090472
2048.0,0.00022258691024035215
2304.0,-0.00048154848627746105
2560.0,0.00039095323882065713
2816.0,-9.216675971401855e-05
3072.0,0.00023322133347392082
3328.0,-0.0004266326723154634
3584.0,-0.0025506222154945135
3840.0,-0.0002691308909561485
4096.0,-0.0008510865154676139
4608.0,0.0004232692299410701
5120.0,-0.0019684694707393646
5632.0,0.0009937734575942159
6144.0,-0.0010655265068635345
6656.0,-0.0010480799246579409
7168.0,0.0011166282929480076
7680.0,0.0005971405189484358
8192.0,0.0004123426042497158
end
