version,3.0
numOfCh,1
type,point
parent_name,484af_0dot6-0dot1
ch_type,1_1
kcount,1
numberNandB,1
brightnessNandB,1
carpet pos,0
pc,0
Time (ms),CH1 Auto-Correlation
1.0,0.02295825257897377
2.0,0.021862084046006203
3.0,0.020846225321292877
4.0,0.019905025139451027
5.0,0.019067633897066116
6.0,0.018305137753486633
7.0,0.017595645040273666
8.0,0.01693899743258953
9.0,0.016325030475854874
10.0,0.01575770042836666
11.0,0.015226907096803188
12.0,0.014729485847055912
13.0,0.014287922531366348
14.0,0.013826821930706501
15.0,0.013374297879636288
16.0,0.012912865728139877
18.0,0.012061268091201782
20.0,0.011304371058940887
22.0,0.010660892352461815
24.0,0.010098131373524666
26.0,0.009580252692103386
28.0,0.00915569718927145
30.0,0.008786674588918686
32.0,0.008481328375637531
36.0,0.008101217448711395
40.0,0.007664211094379425
44.0,0.007256932090967894
48.0,0.007034153211861849
52.0,0.006760118529200554
56.0,0.0064191254787147045
60.0,0.006223280448466539
64.0,0.006018038373440504
72.0,0.005390501115471125
80.0,0.004693048540502787
88.0,0.003963032737374306
96.0,0.0038282042369246483
104.0,0.003566439962014556
112.0,0.003054859582334757
120.0,0.0029730310197919607
128.0,0.002993447706103325
144.0,0.0027606713119894266
160.0,0.0024836184456944466
176.0,0.002186741679906845
192.0,0.0023422427475452423
208.0,0.002369448309764266
224.0,0.001728267059661448
240.0,0.0012375193182379007
256.0,0.0015382837736979127
288.0,0.0009888444328680634
320.0,0.00044673943193629384
352.0,0.00024312087043654174
384.0,0.0007367377984337509
416.0,0.00045019318349659443
448.0,-0.00028317159740254283
480.0,-0.0008552935905754566
512.0,-0.0004516096960287541
576.0,0.0012323508271947503
640.0,0.0010935143800452352
704.0,0.0013103311648592353
768.0,0.0013821491738781333
832.0,0.0013275118544697762
896.0,0.00011768205149564892
960.0,0.0007561823586001992
1024.0,-0.0007637689705006778
1152.0,1.8541086319601163e-05
1280.0,0.0007670451304875314
1408.0,0.00033353696926496923
1536.0,0.00020559971744660288
1664.0,-0.00041176375816576183
1792.0,-0.0009080709423869848
1920.0,-0.0006470691878348589
2048.0,9.696675260784104e-05
2304.0,-0.0002635692071635276
2560.0,0.0002544595336075872
2816.0,-0.00012564640201162547
3072.0,-0.0022135693579912186
3328.0,-0.0011539770057424903
3584.0,-0.00013836023572366685
3840.0,-0.0009313987102359533
4096.0,-0.001607383950613439
4608.0,-0.000691101246047765
5120.0,0.001182630774565041
5632.0,0.0016181392129510641
6144.0,7.17943548806943e-05
6656.0,0.0006398281548172235
7168.0,0.0012595730368047953
7680.0,0.0002633747353684157
8192.0,-0.001677110092714429
end
