version,3.0
numOfCh,1
type,point
parent_name,484af_0dot6-0dot1
ch_type,1_1
kcount,1
numberNandB,1
brightnessNandB,1
carpet pos,0
pc,0
Time (ms),CH1 Auto-Correlation
1.0,0.02239297702908516
2.0,0.021201729774475098
3.0,0.020120229572057724
4.0,0.0191499013453722
5.0,0.018261441960930824
6.0,0.017462868243455887
7.0,0.016738342121243477
8.0,0.016040213406085968
9.0,0.015376565046608448
10.0,0.014782745391130447
11.0,0.014208810403943062
12.0,0.013684989884495735
13.0,0.013204650022089481
14.0,0.012746461667120457
15.0,0.012303142808377743
16.0,0.011853023432195187
18.0,0.01106951292604208
20.0,0.01024346612393856
22.0,0.009471217170357704
24.0,0.008765596896409988
26.0,0.008029754273593426
28.0,0.007333348039537668
30.0,0.0067838942632079124
32.0,0.006284501403570175
36.0,0.005412893835455179
40.0,0.00468789879232645
44.0,0.004208078142255545
48.0,0.003827329957857728
52.0,0.0034554689191281796
56.0,0.0030394920613616705
60.0,0.002577676670625806
64.0,0.002307518618181348
72.0,0.001951164798811078
80.0,0.001782977837137878
88.0,0.0017503685085102916
96.0,0.0018383919959887862
104.0,0.0020837835036218166
112.0,0.0018750105518847704
120.0,0.0015689443098381162
128.0,0.0011358661577105522
144.0,7.392245606752113e-05
160.0,-0.00026778457686305046
176.0,0.00027335656341165304
192.0,0.0004457564209587872
208.0,1.5939211152726784e-05
224.0,-0.0001610124163562432
240.0,0.00043229004950262606
256.0,0.0006946752546355128
288.0,-0.000131503795273602
320.0,-0.0009190516429953277
352.0,0.00027458465774543583
384.0,0.0007398489397019148
416.0,-0.00012561593030113727
448.0,0.00027275035972706974
480.0,0.0005819209618493915
512.0,0.00042118129204027355
576.0,0.0004345421039033681
640.0,0.0013959986390545964
704.0,-0.000178091402631253
768.0,-0.0012950380332767963
832.0,-0.0011265304638072848
896.0,-0.0004545202828012407
960.0,-0.0002528367913328111
1024.0,0.0003705976123455912
1152.0,0.00019089467241428792
1280.0,-0.00014205623301677406
1408.0,-1.0939249477814883e-05
1536.0,-0.0001226558379130438
1664.0,-0.0003752758784685284
1792.0,-0.00023693908588029444
1920.0,-0.0008827060810290277
2048.0,-0.0010465318337082863
2304.0,-0.000334776530507952
2560.0,-0.0005381956580094993
2816.0,0.0004913893062621355
3072.0,0.00010965982073685154
3328.0,0.0004218148533254862
3584.0,0.0007485396345146
3840.0,-8.191222150344402e-05
4096.0,0.0015532484976574779
4608.0,-0.00028698245296254754
5120.0,0.00011790514690801501
5632.0,2.34374929277692e-05
6144.0,0.0002506404125597328
6656.0,0.0007973667234182358
7168.0,-0.0004016438324470073
7680.0,-0.0010278987465426326
8192.0,-0.0009363998542539775
end
