version,3.0
numOfCh,1
type,point
parent_name,484af_0dot6-0dot1
ch_type,1_1
kcount,1
numberNandB,1
brightnessNandB,1
carpet pos,0
pc,0
Time (ms),CH1 Auto-Correlation
1.0,0.025630222633481026
2.0,0.02435370534658432
3.0,0.023206014186143875
4.0,0.022141771391034126
5.0,0.021187668666243553
6.0,0.020280910655856133
7.0,0.0194939486682415
8.0,0.01875726878643036
9.0,0.01806650683283806
10.0,0.017414385452866554
11.0,0.01682046614587307
12.0,0.01627272181212902
13.0,0.015786530449986458
14.0,0.015359582379460335
15.0,0.015006829053163528
16.0,0.014624081552028656
18.0,0.013942438177764416
20.0,0.0133176539093256
22.0,0.012650432996451855
24.0,0.012050309218466282
26.0,0.011466746218502522
28.0,0.010888566263020039
30.0,0.010231911204755306
32.0,0.009612674824893475
36.0,0.008671850897371769
40.0,0.008079398423433304
44.0,0.007660366129130125
48.0,0.007382330484688282
52.0,0.007274916861206293
56.0,0.007242660038173199
60.0,0.007068257313221693
64.0,0.0068939607590436935
72.0,0.006482522003352642
80.0,0.00569404661655426
88.0,0.00494284788146615
96.0,0.004527377430349588
104.0,0.004112188704311848
112.0,0.00398250063881278
120.0,0.0038786863442510366
128.0,0.0037256290670484304
144.0,0.003156484104692936
160.0,0.0017677746945992112
176.0,0.0013289183843880892
192.0,0.0015489747747778893
208.0,0.0016038167523220181
224.0,0.0008707728120498359
240.0,0.0006516402936540544
256.0,0.0008503948338329792
288.0,0.0022573729511350393
320.0,0.0021647457033395767
352.0,0.0014648267533630133
384.0,0.0007131262682378292
416.0,0.0008027747389860451
448.0,6.605656380997971e-05
480.0,-0.0007557407370768487
512.0,-0.0007004183134995401
576.0,0.0003547816595528275
640.0,0.0005505241570062935
704.0,0.00035912462044507265
768.0,-0.0003462057502474636
832.0,-0.0003152709687128663
896.0,-0.0006403522565960884
960.0,-0.0005585045437328517
1024.0,-0.00021624522923957556
1152.0,-0.0003917979192920029
1280.0,-0.000633728806860745
1408.0,-0.0002781488874461502
1536.0,-0.0011103276629000902
1664.0,-0.00200163503177464
1792.0,-0.0020776167511940002
1920.0,-0.0020881961099803448
2048.0,-0.0013043801300227642
2304.0,-0.00010680153354769573
2560.0,0.0011320820776745677
2816.0,0.00022025677026249468
3072.0,-0.0017001203959807754
3328.0,-0.0010653857607394457
3584.0,0.0005999656277708709
3840.0,0.0010792879620566964
4096.0,-0.0001749525690684095
4608.0,-0.00017422695236746222
5120.0,0.0003671576560009271
5632.0,-0.0005520239938050508
6144.0,0.0007089896826073527
6656.0,0.001349899685010314
7168.0,0.0016574061010032892
7680.0,-1.970131415873766e-05
8192.0,-0.0011025761486962438
end
