version,3.0
numOfCh,1
type,point
parent_name,484af_0dot6-0dot1
ch_type,1_1
kcount,1
numberNandB,1
brightnessNandB,1
carpet pos,0
pc,0
Time (ms),CH1 Auto-Correlation
1.0,0.02565474435687065
2.0,0.0245102159678936
3.0,0.023495666682720184
4.0,0.02258060872554779
5.0,0.02174266241490841
6.0,0.020970480516552925
7.0,0.02023264393210411
8.0,0.019551491364836693
9.0,0.01890707202255726
10.0,0.018329370766878128
11.0,0.017783522605895996
12.0,0.017256276682019234
13.0,0.01673858053982258
14.0,0.016280531883239746
15.0,0.015847308561205864
16.0,0.015454277396202087
18.0,0.014696446247398853
20.0,0.014014417305588722
22.0,0.013375525362789631
24.0,0.012745818123221397
26.0,0.012149853631854057
28.0,0.011615099385380745
30.0,0.011176716536283493
32.0,0.010830730199813843
36.0,0.01019793190062046
40.0,0.009545749984681606
44.0,0.009024614468216896
48.0,0.008521432988345623
52.0,0.008007415570318699
56.0,0.007502707652747631
60.0,0.007171402219682932
64.0,0.006815045140683651
72.0,0.006150129251182079
80.0,0.005931568797677755
88.0,0.005772767122834921
96.0,0.005640638992190361
104.0,0.005775948986411095
112.0,0.0057508875615894794
120.0,0.005789189599454403
128.0,0.005546338856220245
144.0,0.0049183857627213
160.0,0.0042229024693369865
176.0,0.004050377756357193
192.0,0.004133385140448809
208.0,0.0035883067175745964
224.0,0.002782952506095171
240.0,0.0024836398661136627
256.0,0.0022551396396011114
288.0,0.001880191732198
320.0,0.0024421210400760174
352.0,0.0024466721806675196
384.0,0.0023852898739278316
416.0,0.0012953794794157147
448.0,0.0020856070332229137
480.0,0.0029302695766091347
512.0,0.0034528363030403852
576.0,0.0020674627739936113
640.0,0.0013632562477141619
704.0,0.0017284302739426494
768.0,0.0024065724574029446
832.0,0.0005869448068551719
896.0,-0.0009025103063322604
960.0,-0.002254812279716134
1024.0,-0.002260480308905244
1152.0,-0.0016408935189247131
1280.0,-0.0012210262939333916
1408.0,5.587700798059814e-06
1536.0,-0.0007214819197542965
1664.0,-0.00030425467411987484
1792.0,-0.0006848205230198801
1920.0,-0.0002754795423243195
2048.0,-0.0001465121313231066
2304.0,0.00036023554275743663
2560.0,-3.1601313821738586e-05
2816.0,0.000219814115553163
3072.0,-0.00014246498176362365
3328.0,-0.0001652055943850428
3584.0,-0.00013203182606957853
3840.0,-0.001283470424823463
4096.0,-0.000877479265909642
4608.0,-0.0009445580653846264
5120.0,0.00047200932749547064
5632.0,0.0008354098536074162
6144.0,-0.00033475414966233075
6656.0,-0.0018824004800990224
7168.0,-0.002065659034997225
7680.0,-0.002150831511244178
8192.0,0.00046698295045644045
end
