version,3.0
numOfCh,1
type,point
parent_name,484af_0dot6-0dot1
ch_type,1_1
kcount,1
numberNandB,1
brightnessNandB,1
carpet pos,0
pc,0
Time (ms),CH1 Auto-Correlation
1.0,0.0215581227093935
2.0,0.02041478641331196
3.0,0.01937384530901909
4.0,0.018435370177030563
5.0,0.0175947193056345
6.0,0.016810519620776176
7.0,0.01611347123980522
8.0,0.015442214906215668
9.0,0.014832546934485435
10.0,0.014259230345487595
11.0,0.01376770343631506
12.0,0.013290674425661564
13.0,0.012834468856453896
14.0,0.012377245351672173
15.0,0.011959735304117203
16.0,0.011561838909983635
18.0,0.010882643982768059
20.0,0.010314992628991604
22.0,0.00981743261218071
24.0,0.009308617562055588
26.0,0.008831254206597805
28.0,0.008428660221397877
30.0,0.00805571023374796
32.0,0.007630915381014347
36.0,0.007004781160503626
40.0,0.006406854838132858
44.0,0.005915482062846422
48.0,0.005459136329591274
52.0,0.005133071448653936
56.0,0.004849440883845091
60.0,0.004638777580112219
64.0,0.004585000686347485
72.0,0.0042090690694749355
80.0,0.003999409265816212
88.0,0.004284730181097984
96.0,0.004258271772414446
104.0,0.0038271804805845022
112.0,0.003153169760480523
120.0,0.002732038963586092
128.0,0.002791705774143338
144.0,0.0027415265794843435
160.0,0.0024538293946534395
176.0,0.0017120714765042067
192.0,0.0011112048523500562
208.0,0.0007174161728471518
224.0,0.0006735982606187463
240.0,0.001198298530653119
256.0,0.0014130932977423072
288.0,0.001735624740831554
320.0,0.0017662742175161839
352.0,0.0015279423678293824
384.0,0.0016116059850901365
416.0,0.00032152028870768845
448.0,-0.0012105999048799276
480.0,-0.0018817533273249865
512.0,-0.001935926848091185
576.0,-0.0011358852498233318
640.0,-0.0007494996534660459
704.0,-0.0003093206905759871
768.0,-0.0002380490186624229
832.0,-0.00028065257356502116
896.0,-0.000949120323639363
960.0,0.00010149290756089613
1024.0,0.00024528164067305624
1152.0,9.306850552093238e-05
1280.0,0.00019923901709262282
1408.0,-0.0004696811956819147
1536.0,-0.001057681511156261
1664.0,-0.000628485344350338
1792.0,-0.00026645619072951376
1920.0,0.002067438093945384
2048.0,0.0018117801519110799
2304.0,0.0012102141045033932
2560.0,-0.001606185920536518
2816.0,-0.002847938099876046
3072.0,-0.0014448302099481225
3328.0,3.424727168521713e-08
3584.0,-0.00020172956283204257
3840.0,-0.0005857889773324132
4096.0,0.00022930846898816526
4608.0,-0.00022541522048413754
5120.0,-0.0015851216157898307
5632.0,-0.0005184559267945588
6144.0,-0.00013250602933112532
6656.0,0.0005777333863079548
7168.0,-0.0009385280427522957
7680.0,0.0008106261375360191
8192.0,0.0014612724771723151
end
