version,3.0
numOfCh,1
type,point
parent_name,484af_0dot6-0dot1
ch_type,1_1
kcount,1
numberNandB,1
brightnessNandB,1
carpet pos,0
pc,0
Time (ms),CH1 Auto-Correlation
1.0,0.024848420172929764
2.0,0.023618804290890694
3.0,0.022490795701742172
4.0,0.021483512595295906
5.0,0.020523948594927788
6.0,0.01960562914609909
7.0,0.01877784915268421
8.0,0.01805962435901165
9.0,0.01740093342959881
10.0,0.016774982213974
11.0,0.016174649819731712
12.0,0.015627019107341766
13.0,0.015132901258766651
14.0,0.014665262773633003
15.0,0.014240856282413006
16.0,0.013853664509952068
18.0,0.013172094710171223
20.0,0.012535534799098969
22.0,0.0119137242436409
24.0,0.011322658509016037
26.0,0.010755199939012527
28.0,0.01025347225368023
30.0,0.009808124974370003
32.0,0.009365943260490894
36.0,0.008547515608370304
40.0,0.0078084212727844715
44.0,0.0072216130793094635
48.0,0.006720331963151693
52.0,0.006426628679037094
56.0,0.006199654191732407
60.0,0.005849440582096577
64.0,0.005577028729021549
72.0,0.0049370029009878635
80.0,0.004422576632350683
88.0,0.004336359445005655
96.0,0.004265469033271074
104.0,0.004095136653631926
112.0,0.003814602503553033
120.0,0.0033133106771856546
128.0,0.0030022687278687954
144.0,0.0030554516706615686
160.0,0.003016955452039838
176.0,0.0018714466132223606
192.0,0.0013895106967538595
208.0,0.0017956654774025083
224.0,0.001772203017026186
240.0,0.0015661754878237844
256.0,0.0014863461256027222
288.0,0.0008271823753602803
320.0,0.0004927812260575593
352.0,0.0003119237080682069
384.0,-0.0004994463524781168
416.0,-0.00011383130913600326
448.0,-0.0003868796629831195
480.0,0.00034949908149428666
512.0,0.000600006605964154
576.0,0.0004486318212002516
640.0,0.0006873097736388445
704.0,-0.0007799697341397405
768.0,-0.0010046495590358973
832.0,0.0008326634997501969
896.0,0.001617694622837007
960.0,0.00023307272931560874
1024.0,0.0005164172616787255
1152.0,0.00048162866733036935
1280.0,0.0001377774606226012
1408.0,0.0010864650830626488
1536.0,0.00031020253663882613
1664.0,-0.0010339244036003947
1792.0,-0.0020027360878884792
1920.0,-0.001793243340216577
2048.0,-0.0007098070345818996
2304.0,-0.00050523248501122
2560.0,-0.0011856572236865759
2816.0,-0.0026258009020239115
3072.0,0.00024044225574471056
3328.0,0.0008805344114080071
3584.0,0.0009546744986437261
3840.0,0.00012194240116514266
4096.0,-0.00072987109888345
4608.0,4.0970175177790225e-05
5120.0,0.001828917651437223
5632.0,0.0001939959911396727
6144.0,-0.0013307207264006138
6656.0,0.00061532121617347
7168.0,-0.001427644630894065
7680.0,-0.0019134068861603737
8192.0,5.141502697370015e-05
end
