version,3.0
numOfCh,1
type,point
parent_name,484af_0dot6-0dot1
ch_type,1_1
kcount,1
numberNandB,1
brightnessNandB,1
carpet pos,0
pc,0
Time (ms),CH1 Auto-Correlation
1.0,0.020385710522532463
2.0,0.019245224073529243
3.0,0.01822320930659771
4.0,0.01731839030981064
5.0,0.01651221700012684
6.0,0.0157656017690897
7.0,0.015089621767401695
8.0,0.014506996609270573
9.0,0.013953070156276226
10.0,0.013443248346447945
11.0,0.01299196295440197
12.0,0.01255420595407486
13.0,0.012121384963393211
14.0,0.011691562831401825
15.0,0.011282303370535374
16.0,0.010893483646214008
18.0,0.010270912200212479
20.0,0.009729289449751377
22.0,0.009271565824747086
24.0,0.008904573507606983
26.0,0.008570983074605465
28.0,0.008198228664696217
30.0,0.007837701588869095
32.0,0.007546610664576292
36.0,0.006913501303642988
40.0,0.006248506251722574
44.0,0.005777343641966581
48.0,0.005375843029469252
52.0,0.005020238924771547
56.0,0.00468933442607522
60.0,0.004305332899093628
64.0,0.003931440878659487
72.0,0.0032387706451117992
80.0,0.0028030977118760347
88.0,0.002427642000839114
96.0,0.0019305319292470813
104.0,0.0014085109578445554
112.0,0.0011545626912266016
120.0,0.0009747716831043363
128.0,0.0008191142696887255
144.0,0.0005846048006787896
160.0,0.0004161311371717602
176.0,-0.00013287720503285527
192.0,-0.00024272561131510884
208.0,-2.142918310710229e-05
224.0,-0.000283754343399778
240.0,-0.0008145911269821227
256.0,-0.0013046107487753034
288.0,-0.002118693897500634
320.0,-0.0025803404860198498
352.0,-0.0021777378860861063
384.0,-0.0013453522697091103
416.0,-0.0003196637553628534
448.0,0.0003666342527139932
480.0,0.0006914990954101086
512.0,0.0007453078287653625
576.0,0.0010607430012896657
640.0,0.001699024811387062
704.0,0.0014695050194859505
768.0,-0.0003364128351677209
832.0,-0.0019265859154984355
896.0,-0.0010763655882328749
960.0,-0.0007437888416461647
1024.0,-0.0004824068455491215
1152.0,0.0010893428698182106
1280.0,0.0003953693085350096
1408.0,-0.0007183001143857837
1536.0,-0.001309731393121183
1664.0,-0.00015932171663735062
1792.0,0.0002011603064602241
1920.0,0.0006072269170545042
2048.0,0.00014243127952795476
2304.0,-0.00025010513490997255
2560.0,0.0006008170894347131
2816.0,0.0009691030718386173
3072.0,-9.466753544984385e-05
3328.0,0.0007811349933035672
3584.0,-0.0011856155470013618
3840.0,4.790290040546097e-05
4096.0,-0.0004594692145474255
4608.0,-0.00013137907080817968
5120.0,5.738726395065896e-05
5632.0,0.0006595604354515672
6144.0,-0.0002923480060417205
6656.0,0.0001240754936588928
7168.0,0.0003832432848867029
7680.0,-0.0003740935353562236
8192.0,-0.00040251671453006566
end
