version,3.0
numOfCh,1
type,point
parent_name,484af_0dot6-0dot1
ch_type,1_1
kcount,1
numberNandB,1
brightnessNandB,1
carpet pos,0
pc,0
Time (ms),CH1 Auto-Correlation
1.0,0.022676533088088036
2.0,0.021512655541300774
3.0,0.02049258165061474
4.0,0.01954488828778267
5.0,0.018663816154003143
6.0,0.017852559685707092
7.0,0.017098935320973396
8.0,0.016383245587348938
9.0,0.015751894563436508
10.0,0.0151692945510149
11.0,0.014607798308134079
12.0,0.014100488275289536
13.0,0.013638650998473167
14.0,0.013177208602428436
15.0,0.012732982635498047
16.0,0.012317020446062088
18.0,0.011598946526646614
20.0,0.010979640297591686
22.0,0.010366874746978283
24.0,0.00978825706988573
26.0,0.009253953583538532
28.0,0.008780740201473236
30.0,0.008337284438312054
32.0,0.008008814416825771
36.0,0.0075155883096158504
40.0,0.007056891452521086
44.0,0.006621667183935642
48.0,0.006152552552521229
52.0,0.005762000568211079
56.0,0.005462182220071554
60.0,0.0051713059656322
64.0,0.00482697319239378
72.0,0.003989269491285086
80.0,0.003189658047631383
88.0,0.0027017274405807257
96.0,0.0023574959486722946
104.0,0.0021430004853755236
112.0,0.002216198481619358
120.0,0.0022917084861546755
128.0,0.0024679177440702915
144.0,0.002315374556928873
160.0,0.0021288373973220587
176.0,0.001881167758256197
192.0,0.0014468968147411942
208.0,0.0010389774106442928
224.0,0.0012148312525823712
240.0,0.0012727741850540042
256.0,0.0007595804054290056
288.0,-0.000380187964765355
320.0,-0.00029988630558364093
352.0,0.0007701976574026048
384.0,0.001561629120260477
416.0,0.0013368601212278008
448.0,0.0010163194965571165
480.0,0.001071670325472951
512.0,0.0003735242353286594
576.0,0.002210945589467883
640.0,0.0012843480799347162
704.0,0.0001271051587536931
768.0,0.0017824023962020874
832.0,0.0008360081701539457
896.0,0.0006022912566550076
960.0,0.0008907495066523552
1024.0,0.0011228998191654682
1152.0,9.436444815946743e-05
1280.0,0.00021423182624857873
1408.0,0.0012682854430750012
1536.0,0.0008430425659753382
1664.0,0.0005971109494566917
1792.0,-0.00018110612290911376
1920.0,-0.0004524284158833325
2048.0,0.0009981325129047036
2304.0,0.00039897728129290044
2560.0,8.455126589979045e-06
2816.0,0.0007086727418936789
3072.0,0.000709717976860702
3328.0,-0.0009437035769224167
3584.0,-0.0005385017720982432
3840.0,0.00016862167103681713
4096.0,-0.00040963685023598373
4608.0,0.00022640341194346547
5120.0,9.762149602465797e-06
5632.0,0.00066994724329561
6144.0,-0.0006941342144273221
6656.0,0.0001425913505954668
7168.0,-0.00010586898133624345
7680.0,-0.0012741225073114038
8192.0,-0.001260740915313363
end
