version,3.0
numOfCh,1
type,point
parent_name,484af_0dot6-0dot1
ch_type,1_1
kcount,1
numberNandB,1
brightnessNandB,1
carpet pos,0
pc,0
Time (ms),CH1 Auto-Correlation
1.0,0.021559571847319603
2.0,0.020414268597960472
3.0,0.019375968724489212
4.0,0.01841486431658268
5.0,0.01753099448978901
6.0,0.016695989295840263
7.0,0.015935353934764862
8.0,0.0152334775775671
9.0,0.014579816721379757
10.0,0.013947326689958572
11.0,0.013340280391275883
12.0,0.012816334143280983
13.0,0.012343637645244598
14.0,0.011867127381265163
15.0,0.011413764208555222
16.0,0.011003374122083187
18.0,0.010229475796222687
20.0,0.009529244154691696
22.0,0.00894985906779766
24.0,0.008430554531514645
26.0,0.007909102365374565
28.0,0.007388872094452381
30.0,0.006944851018488407
32.0,0.006470516324043274
36.0,0.00582207553088665
40.0,0.00524606229737401
44.0,0.004555580206215382
48.0,0.0037653115577995777
52.0,0.003074606414884329
56.0,0.0025804757606238127
60.0,0.0022311932407319546
64.0,0.001759810489602387
72.0,0.001157106482423842
80.0,0.0007182211265899241
88.0,0.000791321333963424
96.0,0.0010190726025030017
104.0,0.0009919547010213137
112.0,0.0007100201328285038
120.0,0.0004824854840990156
128.0,0.0002989019558299333
144.0,0.0006728923181071877
160.0,0.001129549229517579
176.0,0.0014919136883690953
192.0,0.0018251328729093075
208.0,0.0017880202503874898
224.0,0.0021512582898139954
240.0,0.0023054545745253563
256.0,0.0019153171451762319
288.0,0.001382534741424024
320.0,0.0012095904676243663
352.0,0.0009060746524482965
384.0,0.0012768239248543978
416.0,0.0006632701260969043
448.0,0.0005790101713500917
480.0,0.0006817200337536633
512.0,0.0014685236383229494
576.0,0.0009189642150886357
640.0,0.0005189685616642237
704.0,0.00018272316083312035
768.0,0.0003946110373362899
832.0,-0.0002506969030946493
896.0,0.00046179298078641295
960.0,0.000772777246311307
1024.0,-0.0006093933479860425
1152.0,-0.0005796790937893093
1280.0,-0.00041864532977342606
1408.0,-0.00015421149146277457
1536.0,-0.0003761470434255898
1664.0,-0.001188532100059092
1792.0,0.000576598453335464
1920.0,-0.0004379980091471225
2048.0,-0.00037481827894225717
2304.0,-0.0006340289837680757
2560.0,-7.817775440344121e-06
2816.0,-8.386693662032485e-05
3072.0,-0.0010005945805460215
3328.0,-0.0005195083795115352
3584.0,-0.0004169903404545039
3840.0,-0.0011983092408627272
4096.0,-0.0008501214324496686
4608.0,-0.00011274436110397801
5120.0,0.0005014627822674811
5632.0,5.704279465135187e-05
6144.0,-0.0001789776870282367
6656.0,0.00083087821258232
7168.0,0.0008945019217208028
7680.0,-0.00029451586306095123
8192.0,0.0002973324153572321
end
