version,3.0
numOfCh,1
type,point
parent_name,484af_0dot6-0dot1
ch_type,1_1
kcount,1
numberNandB,1
brightnessNandB,1
carpet pos,0
pc,0
Time (ms),CH1 Auto-Correlation
1.0,0.022090688347816467
2.0,0.020917193964123726
3.0,0.019814327359199524
4.0,0.018789196386933327
5.0,0.017846940085291862
6.0,0.016982227563858032
7.0,0.016225168481469154
8.0,0.015490785241127014
9.0,0.014842119067907333
10.0,0.014236764051020145
11.0,0.013638471253216267
12.0,0.013080407865345478
13.0,0.012582607567310333
14.0,0.012119496241211891
15.0,0.011696710251271725
16.0,0.011272969655692577
18.0,0.010477137751877308
20.0,0.009676684625446796
22.0,0.008962740190327168
24.0,0.008370798081159592
26.0,0.007831171154975891
28.0,0.007363724522292614
30.0,0.0068886312656104565
32.0,0.006466620601713657
36.0,0.005728438496589661
40.0,0.005198646802455187
44.0,0.004811684135347605
48.0,0.004395274445414543
52.0,0.004127588123083115
56.0,0.0038805347867310047
60.0,0.0037438024301081896
64.0,0.0036145467311143875
72.0,0.003266500076279044
80.0,0.002879105042666197
88.0,0.003031298751011491
96.0,0.0030952917877584696
104.0,0.0029269547667354345
112.0,0.0021912523079663515
120.0,0.001713816775009036
128.0,0.0013760649599134922
144.0,0.0009357185917906463
160.0,0.0008490631589666009
176.0,-0.00043278851080685854
192.0,-0.0012751587200909853
208.0,-0.0011832634918391705
224.0,-0.0011173238744959235
240.0,-0.0008316079620271921
256.0,-0.0008402701932936907
288.0,-0.000547562085557729
320.0,-0.00019806611817330122
352.0,3.15725919790566e-05
384.0,0.00014490050671156496
416.0,-0.0004610308678820729
448.0,0.00012449212954379618
480.0,0.00023617570695932955
512.0,-0.0007960348157212138
576.0,-0.0011696700239554048
640.0,-0.0012383093126118183
704.0,-0.001320387702435255
768.0,0.0001646834862185642
832.0,0.0009064378682523966
896.0,0.001856221817433834
960.0,0.0021260157227516174
1024.0,0.0010344660840928555
1152.0,0.0007832166738808155
1280.0,-0.0012758916709572077
1408.0,-0.0011710108956322074
1536.0,-0.000725516933016479
1664.0,-0.0014429937582463026
1792.0,0.0003615684690885246
1920.0,0.00042593845864757895
2048.0,-0.0008448016596958041
2304.0,-0.001549905282445252
2560.0,-0.00088594009866938
2816.0,0.00038679782301187515
3072.0,5.220574530540034e-05
3328.0,0.00012165257066953927
3584.0,0.0005761212087236345
3840.0,6.464932084782049e-05
4096.0,0.000605340173933655
4608.0,-0.00040313825593329966
5120.0,0.00021862202265765518
5632.0,-0.000558033469133079
6144.0,-7.861195626901463e-06
6656.0,-0.0007568841683678329
7168.0,0.0009280653321184218
7680.0,-0.0003306157886981964
8192.0,0.0008912392077036202
end
