version,3.0
numOfCh,1
type,point
parent_name,484af_0dot6-0dot1
ch_type,1_1
kcount,1
numberNandB,1
brightnessNandB,1
carpet pos,0
pc,0
Time (ms),CH1 Auto-Correlation
1.0,0.02354435995221138
2.0,0.02237638086080551
3.0,0.02131308801472187
4.0,0.02028493955731392
5.0,0.019319986924529076
6.0,0.018435388803482056
7.0,0.01761271432042122
8.0,0.016829637810587883
9.0,0.016119081526994705
10.0,0.015466791577637196
11.0,0.01484100241214037
12.0,0.014261702075600624
13.0,0.013742892071604729
14.0,0.013277402147650719
15.0,0.012843198142945766
16.0,0.012487749569118023
18.0,0.01182099711149931
20.0,0.011266165412962437
22.0,0.010715411975979805
24.0,0.010105093009769917
26.0,0.009537347592413425
28.0,0.00912240706384182
30.0,0.008724018931388855
32.0,0.008345442824065685
36.0,0.007696239743381739
40.0,0.007244518492370844
44.0,0.0067873080261051655
48.0,0.006353721953928471
52.0,0.005951275583356619
56.0,0.005598748568445444
60.0,0.005385532509535551
64.0,0.005388022866100073
72.0,0.005495683290064335
80.0,0.005559282843023539
88.0,0.005262288264930248
96.0,0.004843371920287609
104.0,0.004536507185548544
112.0,0.00412730872631073
120.0,0.003589693224057555
128.0,0.0027762423269450665
144.0,0.0016482899663969874
160.0,0.0009277394856326282
176.0,0.0004345990892034024
192.0,0.00033121200976893306
208.0,0.0012673415476456285
224.0,0.002113933442160487
240.0,0.0017130852211266756
256.0,0.0006843414157629013
288.0,-0.00010140888480236754
320.0,0.0011988934129476547
352.0,0.001965941861271858
384.0,0.0016621670220047235
416.0,0.0007258972618728876
448.0,-0.0002057216188404709
480.0,-0.0005650646053254604
512.0,-0.0013024755753576756
576.0,-0.000511362508405
640.0,0.00020693879923783243
704.0,0.0008535253582522273
768.0,0.0011085524456575513
832.0,0.0008597261039540172
896.0,-0.000537055660970509
960.0,-0.0010345837799832225
1024.0,-0.0006642077933065593
1152.0,-0.0006822713767178357
1280.0,-0.0010882285423576832
1408.0,-0.0002498233807273209
1536.0,-0.0007240287959575653
1664.0,-0.00023946142755448818
1792.0,0.00039328631828539073
1920.0,0.0007979447254911065
2048.0,-0.00010007040691561997
2304.0,-0.00021266628755256534
2560.0,0.0005396375781856477
2816.0,0.0007288277265615761
3072.0,-0.0005711416597478092
3328.0,-0.0013242254499346018
3584.0,-0.0005263191997073591
3840.0,-0.0005939850816503167
4096.0,-0.0013956211041659117
4608.0,-0.0006139596225693822
5120.0,-0.0009942905744537711
5632.0,0.001177793019451201
6144.0,0.0006592392455786467
6656.0,-0.0009505762136541307
7168.0,5.5573866120539606e-05
7680.0,0.002034574979916215
8192.0,0.0008689831593073905
end
