version,3.0
numOfCh,1
type,point
parent_name,484af_0dot6-0dot1
ch_type,1_1
kcount,1
numberNandB,1
brightnessNandB,1
carpet pos,0
pc,0
Time (ms),CH1 Auto-Correlation
1.0,0.022003574296832085
2.0,0.020846152678132057
3.0,0.019799862056970596
4.0,0.01885109581053257
5.0,0.018017392605543137
6.0,0.017276152968406677
7.0,0.016592927277088165
8.0,0.015964919701218605
9.0,0.015345168299973011
10.0,0.014771156013011932
11.0,0.014224987477064133
12.0,0.01374210137873888
13.0,0.013286755420267582
14.0,0.012805821374058723
15.0,0.012350100092589855
16.0,0.011902306228876114
18.0,0.011137455701828003
20.0,0.010450885631144047
22.0,0.009756364859640598
24.0,0.009123102761805058
26.0,0.00854983925819397
28.0,0.007972239516675472
30.0,0.0074816676788032055
32.0,0.007125720381736755
36.0,0.006694038864225149
40.0,0.0062211002223193645
44.0,0.0057287197560071945
48.0,0.005404980853199959
52.0,0.005113587249070406
56.0,0.004876429680734873
60.0,0.004764491692185402
64.0,0.0046008857898414135
72.0,0.0044190301559865475
80.0,0.004030242096632719
88.0,0.003767723450437188
96.0,0.003589217783883214
104.0,0.0030238975305110216
112.0,0.002313839038833976
120.0,0.0020563285797834396
128.0,0.0020494903437793255
144.0,0.0021467385813593864
160.0,0.0021314627956598997
176.0,0.001081812079064548
192.0,6.067280628485605e-05
208.0,-0.0012157188029959798
224.0,-0.0017248484073206782
240.0,-0.0015410534106194973
256.0,-0.000994300120510161
288.0,0.00018108359654434025
320.0,0.0007979486254043877
352.0,0.0010961609659716487
384.0,0.0013193818740546703
416.0,0.0011568175395950675
448.0,0.001769919297657907
480.0,0.001361495815217495
512.0,0.00010176558862440288
576.0,-0.0016502175712957978
640.0,-0.0003440429863985628
704.0,-0.00016507564578205347
768.0,-4.807210643775761e-05
832.0,0.0001543769903946668
896.0,-0.00012622924987226725
960.0,-0.001275567919947207
1024.0,-0.002278342843055725
1152.0,-0.0009415119420737028
1280.0,0.00034697726368904114
1408.0,-0.0006494695553556085
1536.0,-0.001798340235836804
1664.0,-1.3592084542324301e-05
1792.0,0.0007903737132437527
1920.0,-0.0005260944017209113
2048.0,-0.00018325004202779382
2304.0,0.0011427165009081364
2560.0,-0.0006482151802629232
2816.0,-0.0015393798239529133
3072.0,-0.0013744093012064695
3328.0,-0.0009633621666580439
3584.0,0.00017220426525454968
3840.0,3.0474786399281584e-05
4096.0,-0.00039041569107212126
4608.0,-0.00010374147677794099
5120.0,-0.0005437593208625913
5632.0,0.0007998639484867454
6144.0,0.0013096737675368786
6656.0,0.0004145152634009719
7168.0,-0.0017184740863740444
7680.0,-8.653186523588374e-05
8192.0,8.938711107475683e-05
end
