version,3.0
numOfCh,1
type,point
parent_name,ff67b_1dot0-0dot1
ch_type,1_1
kcount,1
numberNandB,1
brightnessNandB,1
carpet pos,0
pc,0
Time (ms),CH1 Auto-Correlation
1.0,0.08725319802761078
2.0,0.08035458624362946
3.0,0.0743509978055954
4.0,0.0693221464753151
5.0,0.0649968758225441
6.0,0.06106562167406082
7.0,0.05785885825753212
8.0,0.05483205243945122
9.0,0.052102234214544296
10.0,0.049629490822553635
11.0,0.04754961282014847
12.0,0.045503344386816025
13.0,0.043456681072711945
14.0,0.04148691147565842
15.0,0.0397166982293129
16.0,0.03795972838997841
18.0,0.03488418087363243
20.0,0.032444391399621964
22.0,0.030176347121596336
24.0,0.028107834979891777
26.0,0.02661983110010624
28.0,0.025503868237137794
30.0,0.024611497297883034
32.0,0.023645181208848953
36.0,0.021330244839191437
40.0,0.018890462815761566
44.0,0.018010471016168594
48.0,0.017369356006383896
52.0,0.016659004613757133
56.0,0.016238832846283913
60.0,0.01539593655616045
64.0,0.014813338406383991
72.0,0.013825034722685814
80.0,0.01184714026749134
88.0,0.011173279024660587
96.0,0.009427492506802082
104.0,0.007518887519836426
112.0,0.007149534299969673
120.0,0.007634846959263086
128.0,0.006746392697095871
144.0,0.005020441487431526
160.0,0.0038800949696451426
176.0,0.002610394498333335
192.0,0.0011442851973697543
208.0,-0.0007149786106310785
224.0,0.0006846452015452087
240.0,-0.0012358558597043157
256.0,-0.0006194647285155952
288.0,0.0015885141910985112
320.0,-0.00019375454576220363
352.0,-0.0010811714455485344
384.0,-0.0006301456596702337
416.0,0.0020051468163728714
448.0,0.00043958189780823886
480.0,0.003818795783445239
512.0,0.005411892663687468
576.0,0.0035444777458906174
640.0,0.0005647419020533562
704.0,-0.004460818599909544
768.0,-0.0018030385253950953
832.0,-0.0036897833924740553
896.0,-0.002907810267060995
960.0,-9.146973752649501e-05
1024.0,-0.002829612698405981
1152.0,0.0018518611323088408
1280.0,-0.0005468809395097196
1408.0,-0.000496453489176929
1536.0,0.0020084346178919077
1664.0,0.0015514336992055178
1792.0,-0.0006723293918184936
1920.0,0.0005585436010733247
2048.0,-0.001342223142273724
2304.0,-0.0013688993640244007
2560.0,-0.0028616178315132856
2816.0,-0.0005912772612646222
3072.0,0.0008674456621520221
3328.0,-0.001795016578398645
3584.0,-0.003575373673811555
3840.0,-0.001467574154958129
4096.0,0.0035138584207743406
4608.0,0.002078397199511528
5120.0,-0.0027581029571592808
5632.0,-0.00025066890520974994
6144.0,-0.002857091138139367
6656.0,-0.0017289415700361133
7168.0,0.003660108195617795
7680.0,0.001955833751708269
8192.0,0.0012468273052945733
end
