version,3.0
numOfCh,1
type,point
parent_name,ff67b_1dot0-0dot1
ch_type,1_1
kcount,1
numberNandB,1
brightnessNandB,1
carpet pos,0
pc,0
Time (ms),CH1 Auto-Correlation
1.0,0.09102627635002136
2.0,0.0843784362077713
3.0,0.07866907119750977
4.0,0.07385633885860443
5.0,0.06950253993272781
6.0,0.06545521318912506
7.0,0.0618617869913578
8.0,0.05885699391365051
9.0,0.05606503784656525
10.0,0.05342841148376465
11.0,0.05092751234769821
12.0,0.04845953360199928
13.0,0.04658864811062813
14.0,0.044892434030771255
15.0,0.04329446703195572
16.0,0.041602518409490585
18.0,0.03870077058672905
20.0,0.03625337779521942
22.0,0.03402724117040634
24.0,0.03212219849228859
26.0,0.030335092917084694
28.0,0.028889238834381104
30.0,0.02763480693101883
32.0,0.026458466425538063
36.0,0.023826507851481438
40.0,0.021232470870018005
44.0,0.018989399075508118
48.0,0.017070235684514046
52.0,0.015479621477425098
56.0,0.013695606961846352
60.0,0.012090719304978848
64.0,0.011060060001909733
72.0,0.009330968372523785
80.0,0.007283213548362255
88.0,0.0056146495044231415
96.0,0.0050462777726352215
104.0,0.002938101999461651
112.0,0.00058025645557791
120.0,0.00029397683101706207
128.0,0.00041113566840067506
144.0,0.0015259819338098168
160.0,0.0005803278181701899
176.0,-1.1394186003599316e-05
192.0,0.0002714715665206313
208.0,0.0011743742506951094
224.0,-0.00029689824441447854
240.0,-0.0006024191970936954
256.0,-0.001473382581025362
288.0,-0.004276425112038851
320.0,-0.005702492315322161
352.0,-0.008274644613265991
384.0,-0.006684331689029932
416.0,-0.0038581877015531063
448.0,-0.0016844304045662284
480.0,-0.0018757685320451856
512.0,-0.0005616632988676429
576.0,-0.0001270783832296729
640.0,-0.0015715010231360793
704.0,-0.0019572561141103506
768.0,-0.0038866938557475805
832.0,-0.0011878057848662138
896.0,-0.002085167681798339
960.0,-0.0006149868713691831
1024.0,0.0007669503102079034
1152.0,-0.0014518552925437689
1280.0,-0.0034463447518646717
1408.0,0.0023245709016919136
1536.0,0.00783575139939785
1664.0,0.00576836708933115
1792.0,0.0002606577763799578
1920.0,0.0022311005741357803
2048.0,-0.002215820364654064
2304.0,-0.001792693859897554
2560.0,-0.0019903737120330334
2816.0,0.0017620845464989543
3072.0,0.0007802611798979342
3328.0,0.003001985838636756
3584.0,-0.0018419659463688731
3840.0,0.00046227083657868207
4096.0,-0.001921882969327271
4608.0,0.0007104067481122911
5120.0,-0.0013064286904409528
5632.0,0.0006164884543977678
6144.0,0.0011783178197219968
6656.0,-1.941730806720443e-05
7168.0,-0.003349901642650366
7680.0,8.070333569776267e-05
8192.0,0.001848337473347783
end
