version,3.0
numOfCh,1
type,point
parent_name,ff67b_1dot0-0dot1
ch_type,1_1
kcount,1
numberNandB,1
brightnessNandB,1
carpet pos,0
pc,0
Time (ms),CH1 Auto-Correlation
1.0,0.09457797557115555
2.0,0.08781866729259491
3.0,0.08202842622995377
4.0,0.07690242677927017
5.0,0.07242736965417862
6.0,0.06856527179479599
7.0,0.065056711435318
8.0,0.06182391941547394
9.0,0.05885519087314606
10.0,0.056132972240448
11.0,0.05379701033234596
12.0,0.051458828151226044
13.0,0.0493001826107502
14.0,0.047158174216747284
15.0,0.045165013521909714
16.0,0.04356026276946068
18.0,0.040701109915971756
20.0,0.038190536201000214
22.0,0.036174751818180084
24.0,0.034470610320568085
26.0,0.03229532390832901
28.0,0.02997656725347042
30.0,0.027762521058321
32.0,0.02609880454838276
36.0,0.023097272962331772
40.0,0.02149619162082672
44.0,0.02213173545897007
48.0,0.022659137845039368
52.0,0.023189613595604897
56.0,0.022686008363962173
60.0,0.021055476740002632
64.0,0.019695887342095375
72.0,0.018338099122047424
80.0,0.015752963721752167
88.0,0.012527207843959332
96.0,0.009263399988412857
104.0,0.006637036334723234
112.0,0.005966843571513891
120.0,0.006375361233949661
128.0,0.007857955992221832
144.0,0.008999465964734554
160.0,0.005875429138541222
176.0,0.0035493476316332817
192.0,0.004939842503517866
208.0,0.007809773553162813
224.0,0.007108919322490692
240.0,0.004947817884385586
256.0,0.003957756794989109
288.0,0.005790136754512787
320.0,0.0018198362085968256
352.0,0.000893759133759886
384.0,-0.0019695432856678963
416.0,-0.0033571652602404356
448.0,-0.003730518277734518
480.0,-0.0039020045660436153
512.0,0.002383930841460824
576.0,0.0039514414966106415
640.0,0.00462787039577961
704.0,0.004754982888698578
768.0,0.005126371048390865
832.0,0.00882599875330925
896.0,0.007219947874546051
960.0,0.004196833819150925
1024.0,0.002287275856360793
1152.0,0.002527073258534074
1280.0,0.004573554266244173
1408.0,0.0023146290332078934
1536.0,0.009585795924067497
1664.0,0.004512806423008442
1792.0,0.0067099230363965034
1920.0,0.004288265015929937
2048.0,-0.0007936794427223504
2304.0,0.00414550444111228
2560.0,0.003994247876107693
2816.0,0.0003869502688758075
3072.0,0.0012307340512052178
3328.0,-0.0004845014773309231
3584.0,0.0024036674294620752
3840.0,-4.828089731745422e-05
4096.0,-0.0016244564903900027
4608.0,0.002061299979686737
5120.0,0.0004550241574179381
5632.0,-0.005513352807611227
6144.0,-0.0021822680719196796
6656.0,-0.003717211075127125
7168.0,-0.006767709739506245
7680.0,-0.005383071955293417
8192.0,-0.012847419828176498
end
