version,3.0
numOfCh,1
type,point
parent_name,ff67b_1dot0-0dot1
ch_type,1_1
kcount,1
numberNandB,1
brightnessNandB,1
carpet pos,0
pc,0
Time (ms),CH1 Auto-Correlation
1.0,0.09329858422279358
2.0,0.08704516291618347
3.0,0.08160533756017685
4.0,0.07685627788305283
5.0,0.07256998866796494
6.0,0.06873341649770737
7.0,0.06543013453483582
8.0,0.062214963138103485
9.0,0.059520427137613297
10.0,0.05696140602231026
11.0,0.05453483387827873
12.0,0.05223793163895607
13.0,0.05013762041926384
14.0,0.04825149476528168
15.0,0.04642489552497864
16.0,0.044808175414800644
18.0,0.04196406155824661
20.0,0.039535604417324066
22.0,0.03716980293393135
24.0,0.0351870134472847
26.0,0.03360921889543533
28.0,0.03166088089346886
30.0,0.0303287785500288
32.0,0.028826624155044556
36.0,0.02671174518764019
40.0,0.024849554523825645
44.0,0.02281893976032734
48.0,0.022115282714366913
52.0,0.02198820374906063
56.0,0.021068822592496872
60.0,0.020183946937322617
64.0,0.019850609824061394
72.0,0.019323203712701797
80.0,0.018583934754133224
88.0,0.017905818298459053
96.0,0.017211131751537323
104.0,0.017402293160557747
112.0,0.01726132445037365
120.0,0.014657707884907722
128.0,0.012561284936964512
144.0,0.010992790572345257
160.0,0.012945438735187054
176.0,0.015309415757656097
192.0,0.012789561413228512
208.0,0.010877839289605618
224.0,0.011076640337705612
240.0,0.009786968119442463
256.0,0.009325500577688217
288.0,0.014350923709571362
320.0,0.015841295942664146
352.0,0.01413576491177082
384.0,0.01335604302585125
416.0,0.012258034199476242
448.0,0.013063127174973488
480.0,0.013717584311962128
512.0,0.011128341779112816
576.0,0.012202704325318336
640.0,0.011154885403811932
704.0,0.011182080022990704
768.0,0.010016833432018757
832.0,0.006026818882673979
896.0,0.007984491996467113
960.0,0.008843530900776386
1024.0,0.00954496581107378
1152.0,0.008961991406977177
1280.0,0.0036839130334556103
1408.0,0.008658749051392078
1536.0,0.00787578895688057
1664.0,0.008405067957937717
1792.0,0.006955585442483425
1920.0,0.010198144242167473
2048.0,0.007439504377543926
2304.0,0.009020883589982986
2560.0,0.009310579858720303
2816.0,0.005456855054944754
3072.0,0.0004318771534599364
3328.0,-0.002215980552136898
3584.0,-0.0039328159764409065
3840.0,-0.0035482035018503666
4096.0,-0.005018388852477074
4608.0,-0.0032792191486805677
5120.0,-0.00387324346229434
5632.0,-0.008930178359150887
6144.0,-0.015017951838672161
6656.0,-0.01307494193315506
7168.0,-0.008439741097390652
7680.0,-0.008872889913618565
8192.0,-0.011722646653652191
end
