version,3.0
numOfCh,1
type,point
parent_name,ff67b_1dot0-0dot1
ch_type,1_1
kcount,1
numberNandB,1
brightnessNandB,1
carpet pos,0
pc,0
Time (ms),CH1 Auto-Correlation
1.0,0.09068145602941513
2.0,0.08416938036680222
3.0,0.07819617539644241
4.0,0.07295267283916473
5.0,0.06841948628425598
6.0,0.0641864687204361
7.0,0.0603780671954155
8.0,0.05727451667189598
9.0,0.054522618651390076
10.0,0.05185379460453987
11.0,0.04937298968434334
12.0,0.04693145304918289
13.0,0.04490590840578079
14.0,0.042987432330846786
15.0,0.04105263575911522
16.0,0.039437320083379745
18.0,0.03623379394412041
20.0,0.03364274650812149
22.0,0.03164795786142349
24.0,0.029951201751828194
26.0,0.028397802263498306
28.0,0.026466267183423042
30.0,0.0245814211666584
32.0,0.023158645257353783
36.0,0.02040681056678295
40.0,0.018010683357715607
44.0,0.015238971449434757
48.0,0.013039815239608288
52.0,0.010813708417117596
56.0,0.00946509838104248
60.0,0.009215190075337887
64.0,0.008947397582232952
72.0,0.007168527226895094
80.0,0.003785128239542246
88.0,0.004010205622762442
96.0,0.0038666371256113052
104.0,0.0036764955148100853
112.0,0.004288861993700266
120.0,0.0050429692491889
128.0,0.007231718394905329
144.0,0.006247465033084154
160.0,0.004740498494356871
176.0,0.004259646870195866
192.0,0.002033139578998089
208.0,-6.177274917718023e-05
224.0,-0.0008267059456557035
240.0,-0.0007387191872112453
256.0,0.0002676633885130286
288.0,-0.000922629376873374
320.0,-0.0010444908402860165
352.0,-0.0014819493517279625
384.0,-0.002681354759261012
416.0,-4.245147920300951e-06
448.0,0.003673744620755315
480.0,0.0020604615565389395
512.0,-2.7772010071203113e-05
576.0,0.0009511703974567354
640.0,0.0035347025841474533
704.0,0.0035627286415547132
768.0,0.00022362775052897632
832.0,0.0002530851634219289
896.0,0.004764638375490904
960.0,0.0031802526209503412
1024.0,0.004398528020828962
1152.0,0.0018580103060230613
1280.0,0.003383791772648692
1408.0,0.006643693894147873
1536.0,-0.0006165131344459951
1664.0,-0.0045857797376811504
1792.0,-0.00459265848621726
1920.0,0.002591736614704132
2048.0,0.005023244768381119
2304.0,0.0026741777546703815
2560.0,-0.0013244918081909418
2816.0,-0.003197526792064309
3072.0,-0.0033596812281757593
3328.0,0.0017617105040699244
3584.0,-0.0006123122293502092
3840.0,-0.006092643365263939
4096.0,-0.0051265680231153965
4608.0,-0.0035756865981966257
5120.0,-0.005339277908205986
5632.0,0.0008113000076264143
6144.0,-0.0061410232447087765
6656.0,0.0032145639415830374
7168.0,-0.0006825164891779423
7680.0,0.0009978876914829016
8192.0,0.0016941508511081338
end
