version,3.0
numOfCh,1
type,point
parent_name,ff67b_1dot0-0dot1
ch_type,1_1
kcount,1
numberNandB,1
brightnessNandB,1
carpet pos,0
pc,0
Time (ms),CH1 Auto-Correlation
1.0,0.08604283630847931
2.0,0.07948220521211624
3.0,0.07367071509361267
4.0,0.06885193288326263
5.0,0.0643526092171669
6.0,0.0603470541536808
7.0,0.056768860667943954
8.0,0.05348561704158783
9.0,0.05052224174141884
10.0,0.047598592936992645
11.0,0.04494037106633186
12.0,0.04264838993549347
13.0,0.04053770378232002
14.0,0.03880006819963455
15.0,0.03738931939005852
16.0,0.035982634872198105
18.0,0.03331926837563515
20.0,0.030838029459118843
22.0,0.028628531843423843
24.0,0.026530850678682327
26.0,0.02488958276808262
28.0,0.023565107956528664
30.0,0.022609928622841835
32.0,0.02175898477435112
36.0,0.020509183406829834
40.0,0.018859274685382843
44.0,0.016806025058031082
48.0,0.014820714481174946
52.0,0.012686586938798428
56.0,0.010699605569243431
60.0,0.009413745254278183
64.0,0.008870769292116165
72.0,0.00966601725667715
80.0,0.00907119084149599
88.0,0.007835948839783669
96.0,0.006033220328390598
104.0,0.003802255494520068
112.0,0.002069487003609538
120.0,0.0012786289444193244
128.0,0.00016350903024431318
144.0,0.0020439554937183857
160.0,0.0025764168240129948
176.0,0.0015912926755845547
192.0,0.00030209359829314053
208.0,-2.321442480024416e-05
224.0,0.0014290260151028633
240.0,0.005133251193910837
256.0,0.004834429360926151
288.0,0.002264047274366021
320.0,0.0035740903113037348
352.0,0.002732188208028674
384.0,0.0017782003851607442
416.0,0.0011906528379768133
448.0,0.004939008969813585
480.0,0.00552604952827096
512.0,0.006183298770338297
576.0,0.008846171200275421
640.0,0.005037922877818346
704.0,0.002547643380239606
768.0,0.0015345370629802346
832.0,0.002860150532796979
896.0,0.0032516028732061386
960.0,0.006804078351706266
1024.0,0.007904374040663242
1152.0,0.0019303776789456606
1280.0,-0.003219537902623415
1408.0,0.0011811002623289824
1536.0,0.0027034988161176443
1664.0,-0.001581754651851952
1792.0,-0.00471728527918458
1920.0,-0.00319231697358191
2048.0,-0.003535282099619508
2304.0,-0.004189915023744106
2560.0,-0.003118156688287854
2816.0,-0.0066417609341442585
3072.0,-0.0048238057643175125
3328.0,-0.004815713036805391
3584.0,-0.0030567727517336607
3840.0,-0.0014318883186206222
4096.0,-0.00035700402804650366
4608.0,0.002974502043798566
5120.0,0.002866454189643264
5632.0,0.00275620399042964
6144.0,0.0004009150143247098
6656.0,-0.0034230949822813272
7168.0,-0.004155995324254036
7680.0,-0.004913801793009043
8192.0,-0.0024410325568169355
end
