version,3.0
numOfCh,1
type,point
parent_name,ff67b_1dot0-0dot1
ch_type,1_1
kcount,1
numberNandB,1
brightnessNandB,1
carpet pos,0
pc,0
Time (ms),CH1 Auto-Correlation
1.0,0.09379733353853226
2.0,0.08722268790006638
3.0,0.08135783672332764
4.0,0.07634807378053665
5.0,0.07197283953428268
6.0,0.06821530312299728
7.0,0.064876988530159
8.0,0.06185997650027275
9.0,0.058936771005392075
10.0,0.05608415976166725
11.0,0.05369340255856514
12.0,0.05149925500154495
13.0,0.04921923205256462
14.0,0.04713846743106842
15.0,0.045152757316827774
16.0,0.043265651911497116
18.0,0.040326960384845734
20.0,0.03789147734642029
22.0,0.035636819899082184
24.0,0.03372061997652054
26.0,0.0321371890604496
28.0,0.030400888994336128
30.0,0.028738494962453842
32.0,0.027257312089204788
36.0,0.02428383007645607
40.0,0.0219800416380167
44.0,0.02018170990049839
48.0,0.018273474648594856
52.0,0.016705960035324097
56.0,0.015534548088908195
60.0,0.013851757161319256
64.0,0.013217112980782986
72.0,0.012037697248160839
80.0,0.010559441521763802
88.0,0.008769305422902107
96.0,0.007799890358000994
104.0,0.00826036836951971
112.0,0.010441279970109463
120.0,0.01206851564347744
128.0,0.012556638568639755
144.0,0.012663875706493855
160.0,0.011499693617224693
176.0,0.009712399914860725
192.0,0.008872578851878643
208.0,0.008635285310447216
224.0,0.009441881440579891
240.0,0.00717466976493597
256.0,0.00568109517917037
288.0,0.0012436984106898308
320.0,-0.001746517838910222
352.0,-0.0005385398981161416
384.0,0.0056198714300990105
416.0,0.0053224642761051655
448.0,0.0033090002834796906
480.0,0.00858911219984293
512.0,0.010225081816315651
576.0,0.006794994696974754
640.0,0.0034223650582134724
704.0,-0.001630616607144475
768.0,0.0006499867304228246
832.0,5.586048791883513e-05
896.0,0.0009376280358992517
960.0,-0.0027169513050466776
1024.0,0.005937583278864622
1152.0,-0.00011684137280099094
1280.0,0.0034873923286795616
1408.0,0.005617863032966852
1536.0,0.00693016080185771
1664.0,0.005700766574591398
1792.0,0.0021986891515552998
1920.0,-0.0008583632297813892
2048.0,0.0024911679793149233
2304.0,0.003157052444294095
2560.0,0.0014994043158367276
2816.0,-0.00101150490809232
3072.0,-0.00011567541514523327
3328.0,-0.0017294309800490737
3584.0,-0.0016627056756988168
3840.0,0.0016271230997517705
4096.0,-0.004690835252404213
4608.0,-0.0032187101896852255
5120.0,0.0002576349361333996
5632.0,-0.004237679298967123
6144.0,-0.008506168611347675
6656.0,-0.005529944319278002
7168.0,-0.0024098313879221678
7680.0,-0.002217033412307501
8192.0,-0.0007185737485997379
end
