version,3.0
numOfCh,1
type,point
parent_name,ff67b_1dot0-0dot1
ch_type,1_1
kcount,1
numberNandB,1
brightnessNandB,1
carpet pos,0
pc,0
Time (ms),CH1 Auto-Correlation
1.0,0.0847942903637886
2.0,0.07831329107284546
3.0,0.07288382947444916
4.0,0.06817731261253357
5.0,0.0638934075832367
6.0,0.06010749936103821
7.0,0.05677419155836105
8.0,0.053642865270376205
9.0,0.05080186203122139
10.0,0.04808300733566284
11.0,0.04569666460156441
12.0,0.04361774027347565
13.0,0.041736017912626266
14.0,0.04013143107295036
15.0,0.03857386112213135
16.0,0.037213075906038284
18.0,0.033936478197574615
20.0,0.030638834461569786
22.0,0.027613062411546707
24.0,0.02495279535651207
26.0,0.022877560928463936
28.0,0.021106384694576263
30.0,0.019624298438429832
32.0,0.018424585461616516
36.0,0.016952214762568474
40.0,0.016184603795409203
44.0,0.015375377610325813
48.0,0.01480256486684084
52.0,0.013972437009215355
56.0,0.012111524119973183
60.0,0.010779861360788345
64.0,0.009794248268008232
72.0,0.007449063938111067
80.0,0.006185287144035101
88.0,0.005885036196559668
96.0,0.005187374539673328
104.0,0.003928247839212418
112.0,0.0024284920655190945
120.0,0.0007830063113942742
128.0,0.00027711797156371176
144.0,5.591141598415561e-05
160.0,0.00025855572312138975
176.0,0.0008931828779168427
192.0,-8.1201724242419e-06
208.0,-0.0005112943472340703
224.0,0.00014991810894571245
240.0,0.0027904033195227385
256.0,0.002063462510704994
288.0,0.0026997593231499195
320.0,0.000414196663768962
352.0,-0.0031211241148412228
384.0,-0.000725579506251961
416.0,0.002593531971797347
448.0,0.004718253389000893
480.0,0.003957595210522413
512.0,0.0037977362517267466
576.0,-0.0006401030113920569
640.0,-0.0027660485357046127
704.0,-0.00013012932322453707
768.0,0.0026044517289847136
832.0,-0.0010908229742199183
896.0,0.00013257667887955904
960.0,-0.0005145214381627738
1024.0,-0.0019931532442569733
1152.0,0.0024833460338413715
1280.0,0.00011856319906655699
1408.0,-0.006291642785072327
1536.0,-0.0005497835227288306
1664.0,-0.0010988733265548944
1792.0,-0.002293437486514449
1920.0,-0.003978234715759754
2048.0,0.0022696792148053646
2304.0,-0.0016271318309009075
2560.0,-0.0014555369270965457
2816.0,0.0017805194947868586
3072.0,0.0015630170237272978
3328.0,0.0025019203312695026
3584.0,0.003492003306746483
3840.0,-0.00021434052905533463
4096.0,0.0009492764947935939
4608.0,-0.0020669547375291586
5120.0,-0.004916829522699118
5632.0,-0.0018182940548285842
6144.0,-3.7895799323450774e-05
6656.0,0.0016490606358274817
7168.0,4.427052044775337e-05
7680.0,0.0014044572599232197
8192.0,-0.0053202081471681595
end
