version,3.0
numOfCh,1
type,point
parent_name,ff67b_1dot0-0dot1
ch_type,1_1
kcount,1
numberNandB,1
brightnessNandB,1
carpet pos,0
pc,0
Time (ms),CH1 Auto-Correlation
1.0,0.09318205714225769
2.0,0.0864119827747345
3.0,0.08046997338533401
4.0,0.07528737187385559
5.0,0.0709247961640358
6.0,0.06696464866399765
7.0,0.0633322224020958
8.0,0.060139648616313934
9.0,0.05728740990161896
10.0,0.05464174598455429
11.0,0.05239009112119675
12.0,0.05030869320034981
13.0,0.04836398363113403
14.0,0.04673314839601517
15.0,0.045176681131124496
16.0,0.04379548132419586
18.0,0.04145144671201706
20.0,0.03892243653535843
22.0,0.03634282946586609
24.0,0.034242451190948486
26.0,0.03236625716090202
28.0,0.030792471021413803
30.0,0.029288915917277336
32.0,0.027893226593732834
36.0,0.02503730170428753
40.0,0.022627774626016617
44.0,0.020319536328315735
48.0,0.01894693821668625
52.0,0.016413485631346703
56.0,0.015223669819533825
60.0,0.014410937204957008
64.0,0.012511027045547962
72.0,0.008853183127939701
80.0,0.006476934999227524
88.0,0.003479237202554941
96.0,0.0017487823497503996
104.0,0.00016876612789928913
112.0,-0.0008783824159763753
120.0,0.00010974884207826108
128.0,0.0007241687271744013
144.0,0.0016614150954410434
160.0,0.004908681847155094
176.0,0.005222904961556196
192.0,0.005805550143122673
208.0,0.006187279708683491
224.0,0.006962270475924015
240.0,0.006057982333004475
256.0,0.00637043034657836
288.0,0.0014275015564635396
320.0,0.0019142855890095234
352.0,0.0032646371982991695
384.0,0.005280895624309778
416.0,0.004215570632368326
448.0,0.0020326271187514067
480.0,0.004562307149171829
512.0,0.003873524023219943
576.0,0.0037063704803586006
640.0,0.0071426318027079105
704.0,0.005166178569197655
768.0,0.0010878179455175996
832.0,-0.003053249791264534
896.0,-0.001309212762862444
960.0,0.00033405833528377116
1024.0,-0.0035320459865033627
1152.0,0.000163465432706289
1280.0,-0.0011267493246123195
1408.0,0.0006370153860189021
1536.0,-0.001077903201803565
1664.0,-0.0035034967586398125
1792.0,-0.00214346288703382
1920.0,0.0007893604342825711
2048.0,0.0007485845126211643
2304.0,0.0053578452207148075
2560.0,0.004153249319642782
2816.0,0.0025400163140147924
3072.0,0.0012440893333405256
3328.0,-0.0006382485735230148
3584.0,0.001272019580937922
3840.0,-0.0022178078070282936
4096.0,-0.002286724979057908
4608.0,-0.0010755750117823482
5120.0,-0.001831405214034021
5632.0,-0.002324548317119479
6144.0,-0.0008642554166726768
6656.0,-0.00017266055510845035
7168.0,-0.002750230021774769
7680.0,-0.003842637175694108
8192.0,-0.004564016126096249
end
