version,3.0
numOfCh,1
type,point
parent_name,ff67b_1dot0-0dot1
ch_type,1_1
kcount,1
numberNandB,1
brightnessNandB,1
carpet pos,0
pc,0
Time (ms),CH1 Auto-Correlation
1.0,0.0912061333656311
2.0,0.08433252573013306
3.0,0.07836801558732986
4.0,0.07331594079732895
5.0,0.06877770274877548
6.0,0.06514423340559006
7.0,0.061911262571811676
8.0,0.05887550860643387
9.0,0.05631183460354805
10.0,0.05373538285493851
11.0,0.05125560611486435
12.0,0.049069471657276154
13.0,0.04683339223265648
14.0,0.04491373151540756
15.0,0.042965058237314224
16.0,0.04111525043845177
18.0,0.03816957399249077
20.0,0.03578229248523712
22.0,0.033607661724090576
24.0,0.03160926699638367
26.0,0.02987399511039257
28.0,0.028266776353120804
30.0,0.02652732841670513
32.0,0.025005636736750603
36.0,0.02283414825797081
40.0,0.02114640176296234
44.0,0.0189198050647974
48.0,0.016083013266324997
52.0,0.013438507914543152
56.0,0.011646321043372154
60.0,0.01005285233259201
64.0,0.007695705629885197
72.0,0.0039047051686793566
80.0,0.0022554881870746613
88.0,0.0013191179605200887
96.0,0.0020630601793527603
104.0,0.0019376726122573018
112.0,0.001880363910458982
120.0,0.0017799960914999247
128.0,0.0020929540041834116
144.0,0.0011498556705191731
160.0,0.0006581349880434573
176.0,0.0020428260322660208
192.0,0.0032331987749785185
208.0,0.0030973809771239758
224.0,0.0025750978384166956
240.0,0.002230364130809903
256.0,9.24826817936264e-05
288.0,-0.00030480531859211624
320.0,0.00026690770755521953
352.0,-0.0033022910356521606
384.0,-0.0033452825155109167
416.0,-0.001882398733869195
448.0,-0.004971055779606104
480.0,-0.0063530211336910725
512.0,-0.0041657076217234135
576.0,-0.00014823231322225183
640.0,0.004690532106906176
704.0,0.006661788560450077
768.0,0.0028608650900423527
832.0,0.0017079608514904976
896.0,0.003590014763176441
960.0,0.003199593396857381
1024.0,-0.002702961675822735
1152.0,-0.0012755859643220901
1280.0,-0.007522923406213522
1408.0,0.0030670054256916046
1536.0,-0.001018950017169118
1664.0,0.0014267583610489964
1792.0,0.002116838935762644
1920.0,-0.004565440583974123
2048.0,0.0013408310478553176
2304.0,-0.0007222396088764071
2560.0,0.0015722410753369331
2816.0,-0.0021312141325324774
3072.0,0.0029471246525645256
3328.0,0.0035311351530253887
3584.0,-0.0009957324946299195
3840.0,0.0017331340350210667
4096.0,0.0008357539190910757
4608.0,-0.00012491649249568582
5120.0,-0.0020214132964611053
5632.0,0.0026486690621823072
6144.0,-0.003822607221081853
6656.0,-0.00010600354289636016
7168.0,-0.003402726724743843
7680.0,-0.004258830100297928
8192.0,0.001079254667274654
end
