version,3.0
numOfCh,1
type,point
parent_name,ff67b_1dot0-0dot1
ch_type,1_1
kcount,1
numberNandB,1
brightnessNandB,1
carpet pos,0
pc,0
Time (ms),CH1 Auto-Correlation
1.0,0.10403716564178467
2.0,0.09526769816875458
3.0,0.08826491236686707
4.0,0.08190333843231201
5.0,0.07582373917102814
6.0,0.07082701474428177
7.0,0.06608259677886963
8.0,0.06193080171942711
9.0,0.05787942558526993
10.0,0.053536880761384964
11.0,0.05036725103855133
12.0,0.04755246639251709
13.0,0.04382653161883354
14.0,0.04006962105631828
15.0,0.03811698034405708
16.0,0.036722760647535324
18.0,0.03461238369345665
20.0,0.03283349424600601
22.0,0.03124452382326126
24.0,0.029564958065748215
26.0,0.027357716113328934
28.0,0.0253688283264637
30.0,0.023861663416028023
32.0,0.022231455892324448
36.0,0.020705275237560272
40.0,0.020314835011959076
44.0,0.01962066814303398
48.0,0.01778324879705906
52.0,0.01565725728869438
56.0,0.014821331948041916
60.0,0.013451586477458477
64.0,0.012656494975090027
72.0,0.01096282433718443
80.0,0.009479895234107971
88.0,0.006983981933444738
96.0,0.00687810406088829
104.0,0.00501778069883585
112.0,0.0010516359470784664
120.0,-0.0007542453822679818
128.0,-0.0013549119466915727
144.0,-0.0013228259049355984
160.0,-0.0018771345494315028
176.0,-0.001081804628483951
192.0,0.0020938089583069086
208.0,0.0026360158808529377
224.0,0.003412992460653186
240.0,0.004743578843772411
256.0,0.003180420259013772
288.0,0.002178636845201254
320.0,0.0017276012804359198
352.0,0.0008699149475432932
384.0,0.0008791136206127703
416.0,-0.0017360266065225005
448.0,-0.003449458861723542
480.0,-0.0012168935500085354
512.0,0.0029803751967847347
576.0,0.005465691443532705
640.0,0.00404672184959054
704.0,0.002174406312406063
768.0,0.002902123611420393
832.0,0.00024018525436986238
896.0,-0.001215616357512772
960.0,-0.0027388175949454308
1024.0,-0.005609120707958937
1152.0,0.0003964758652728051
1280.0,0.00042124392348341644
1408.0,0.0013555698096752167
1536.0,-0.002308988943696022
1664.0,-0.005796884186565876
1792.0,-0.001988132018595934
1920.0,-0.0044768922962248325
2048.0,0.0003384576120879501
2304.0,-0.0024431725032627583
2560.0,-0.000404922291636467
2816.0,-0.0014197699492797256
3072.0,-0.0017263140762224793
3328.0,0.0005844651605002582
3584.0,-0.0011587879853323102
3840.0,0.0023652499075978994
4096.0,0.003454657504335046
4608.0,0.0008109837071970105
5120.0,0.0015874886885285378
5632.0,-0.00111488183028996
6144.0,0.003020488191395998
6656.0,-0.0015132903354242444
7168.0,0.00019680148398038
7680.0,-0.0036259598564356565
8192.0,-0.0029667383059859276
end
