version,3.0
numOfCh,1
type,point
parent_name,ff67b_1dot0-0dot1
ch_type,1_1
kcount,1
numberNandB,1
brightnessNandB,1
carpet pos,0
pc,0
Time (ms),CH1 Auto-Correlation
1.0,0.09318692982196808
2.0,0.08643700182437897
3.0,0.08053223788738251
4.0,0.07543840259313583
5.0,0.07122359424829483
6.0,0.06733682751655579
7.0,0.06383657455444336
8.0,0.060751836746931076
9.0,0.05786355212330818
10.0,0.05531090125441551
11.0,0.052877940237522125
12.0,0.050535447895526886
13.0,0.04842885583639145
14.0,0.04629760608077049
15.0,0.04435219243168831
16.0,0.04293862357735634
18.0,0.04054534062743187
20.0,0.03819815814495087
22.0,0.03644143044948578
24.0,0.03493857383728027
26.0,0.03327428922057152
28.0,0.03170071542263031
30.0,0.030255889520049095
32.0,0.028478112071752548
36.0,0.025767464190721512
40.0,0.023320205509662628
44.0,0.02116800658404827
48.0,0.019753441214561462
52.0,0.018229607492685318
56.0,0.017051782459020615
60.0,0.016568562015891075
64.0,0.01615220680832863
72.0,0.013793316669762135
80.0,0.011493680998682976
88.0,0.009461397305130959
96.0,0.006775360554456711
104.0,0.004612436052411795
112.0,0.0035951558966189623
120.0,0.003504547756165266
128.0,0.002937766956165433
144.0,0.002640035003423691
160.0,0.002756076166406274
176.0,-0.0002514710067771375
192.0,-0.0015926292398944497
208.0,-0.0037566744722425938
224.0,-0.002369303023442626
240.0,0.00015805989096406847
256.0,0.0007180739776231349
288.0,0.0029463095124810934
320.0,0.005377090536057949
352.0,0.006029836367815733
384.0,0.0039012073539197445
416.0,0.00423686858266592
448.0,0.0029608160257339478
480.0,0.0018049736972898245
512.0,0.0038447114638984203
576.0,0.0023725710343569517
640.0,0.003470882773399353
704.0,0.001848098123446107
768.0,0.00043658941285684705
832.0,-0.003757324768230319
896.0,0.00037314603105187416
960.0,0.0027510591316968203
1024.0,-0.001101956469938159
1152.0,-0.005471034906804562
1280.0,-0.008681250736117363
1408.0,-0.003118147375062108
1536.0,-0.006312713027000427
1664.0,-0.0064201029017567635
1792.0,-0.005943242460489273
1920.0,-0.002917106729000807
2048.0,-0.001714844722300768
2304.0,-0.0015008815098553896
2560.0,0.0010426101507619023
2816.0,0.003142619039863348
3072.0,0.003054093336686492
3328.0,0.00216309679672122
3584.0,-0.000652571558021009
3840.0,0.0001211211274494417
4096.0,-0.0036437753587961197
4608.0,-0.00031112812575884163
5120.0,0.0023286386858671904
5632.0,0.0031751026399433613
6144.0,-0.0006544479401782155
6656.0,-0.005494942422956228
7168.0,-0.004837595857679844
7680.0,-0.0010414759162813425
8192.0,0.002995504532009363
end
