version,3.0
numOfCh,1
type,point
parent_name,ff67b_1dot0-0dot1
ch_type,1_1
kcount,1
numberNandB,1
brightnessNandB,1
carpet pos,0
pc,0
Time (ms),CH1 Auto-Correlation
1.0,0.08935635536909103
2.0,0.08262626826763153
3.0,0.07666965574026108
4.0,0.07150009274482727
5.0,0.06718499213457108
6.0,0.0633048340678215
7.0,0.05992153286933899
8.0,0.056989580392837524
9.0,0.05456933751702309
10.0,0.05239802598953247
11.0,0.05041031911969185
12.0,0.04827499762177467
13.0,0.046024471521377563
14.0,0.04400205239653587
15.0,0.041970547288656235
16.0,0.03998697176575661
18.0,0.03700795769691467
20.0,0.03471880406141281
22.0,0.03260298818349838
24.0,0.030516328290104866
26.0,0.028249572962522507
28.0,0.026102697476744652
30.0,0.024215007200837135
32.0,0.022754833102226257
36.0,0.02012050710618496
40.0,0.018735036253929138
44.0,0.018023153766989708
48.0,0.016695618629455566
52.0,0.014915493316948414
56.0,0.013233408331871033
60.0,0.011085951700806618
64.0,0.010235591791570187
72.0,0.008552108891308308
80.0,0.007604139391332865
88.0,0.008474120870232582
96.0,0.009225130081176758
104.0,0.00940471887588501
112.0,0.008379831910133362
120.0,0.009247472509741783
128.0,0.010358665138483047
144.0,0.011571413837373257
160.0,0.010425561107695103
176.0,0.007213591132313013
192.0,0.0046094320714473724
208.0,0.0032526522409170866
224.0,0.004066580440849066
240.0,0.004006576724350452
256.0,0.004253136459738016
288.0,0.007693206891417503
320.0,0.0020858377683907747
352.0,0.0012287684949114919
384.0,0.0005992752267047763
416.0,0.000763302727136761
448.0,0.002577768173068762
480.0,0.0011230941163375974
512.0,-0.0003356836677994579
576.0,0.004260907880961895
640.0,0.0007869891705922782
704.0,0.0036141229793429375
768.0,0.0066164578311145306
832.0,0.005425553768873215
896.0,0.006330942735075951
960.0,0.00531044602394104
1024.0,0.0054100751876831055
1152.0,0.00822717696428299
1280.0,-0.0014943776186555624
1408.0,0.0018928786739706993
1536.0,0.002504019532352686
1664.0,0.0035960772074759007
1792.0,0.003497761907055974
1920.0,0.006322196684777737
2048.0,0.003689412958920002
2304.0,0.0015174641739577055
2560.0,0.0036245938390493393
2816.0,0.0026852311566472054
3072.0,-0.0006795949302613735
3328.0,0.0002704423095565289
3584.0,0.0032807327806949615
3840.0,7.380569149972871e-05
4096.0,-0.005158561281859875
4608.0,-0.00017010976443998516
5120.0,-0.0031610336154699326
5632.0,-0.0023184255696833134
6144.0,-0.0019702911376953125
6656.0,-0.004203903954476118
7168.0,0.0005392503226175904
7680.0,-0.006433034781366587
8192.0,-0.0009036355186253786
end
