version,3.0
numOfCh,1
type,point
parent_name,ff67b_1dot0-0dot1
ch_type,1_1
kcount,1
numberNandB,1
brightnessNandB,1
carpet pos,0
pc,0
Time (ms),CH1 Auto-Correlation
1.0,0.08633308112621307
2.0,0.07947022467851639
3.0,0.07350325584411621
4.0,0.06854453682899475
5.0,0.06439752131700516
6.0,0.06071222573518753
7.0,0.05747494474053383
8.0,0.05472733825445175
9.0,0.0521584078669548
10.0,0.04967585951089859
11.0,0.047641362994909286
12.0,0.04577271640300751
13.0,0.044330496340990067
14.0,0.04301663115620613
15.0,0.04180091246962547
16.0,0.04070219025015831
18.0,0.03797927871346474
20.0,0.035558879375457764
22.0,0.0330168753862381
24.0,0.03084631636738777
26.0,0.028905754908919334
28.0,0.027733933180570602
30.0,0.027075644582509995
32.0,0.026804666966199875
36.0,0.025837162509560585
40.0,0.023786580190062523
44.0,0.02154642343521118
48.0,0.02001156657934189
52.0,0.018794246017932892
56.0,0.018045540899038315
60.0,0.016665101051330566
64.0,0.015355910174548626
72.0,0.013862519524991512
80.0,0.012082204222679138
88.0,0.009566804394125938
96.0,0.008904431946575642
104.0,0.008491843938827515
112.0,0.00875967275351286
120.0,0.007960999384522438
128.0,0.006384940817952156
144.0,0.0031523650977760553
160.0,0.0023729922249913216
176.0,0.003044950310140848
192.0,0.0030815869104117155
208.0,0.0014375465689226985
224.0,0.00047240350977517664
240.0,0.0027882230933755636
256.0,0.003563155420124531
288.0,0.005669507663697004
320.0,0.005471399053931236
352.0,0.005536125041544437
384.0,0.0029621354769915342
416.0,0.0015787702286615968
448.0,0.001409635180607438
480.0,-0.001511579961515963
512.0,-0.004254861269146204
576.0,-0.0027324159163981676
640.0,-0.0008003233815543354
704.0,-0.000917264143936336
768.0,0.0010056867031380534
832.0,0.0023931670002639294
896.0,0.0034338387195020914
960.0,0.0025922672357410192
1024.0,0.0002906553272623569
1152.0,0.003876333823427558
1280.0,-0.0012882115552201867
1408.0,-0.004467569757252932
1536.0,-0.0035091352183371782
1664.0,-0.004723782185465097
1792.0,-0.0014751441776752472
1920.0,-0.0019749689381569624
2048.0,-0.00701760221272707
2304.0,-0.003523863386362791
2560.0,0.003073297906666994
2816.0,-0.00027452927315607667
3072.0,-0.0030471356585621834
3328.0,0.00012979049643035978
3584.0,0.003390867030248046
3840.0,-0.002472102642059326
4096.0,-0.005653487052768469
4608.0,0.000716191076207906
5120.0,-0.0035056504420936108
5632.0,0.0020699952729046345
6144.0,-0.0004263885202817619
6656.0,-0.0025137225165963173
7168.0,0.0004238640540279448
7680.0,-0.0006921003223396838
8192.0,0.006025964859873056
end
