version,3.0
numOfCh,1
type,point
parent_name,ff67b_1dot0-0dot1
ch_type,1_1
kcount,1
numberNandB,1
brightnessNandB,1
carpet pos,0
pc,0
Time (ms),CH1 Auto-Correlation
1.0,0.10196442157030106
2.0,0.09505640715360641
3.0,0.08896918594837189
4.0,0.0837145447731018
5.0,0.07911654561758041
6.0,0.07505112886428833
7.0,0.07127676159143448
8.0,0.06799784302711487
9.0,0.06492877751588821
10.0,0.062218401581048965
11.0,0.05988338217139244
12.0,0.057752083986997604
13.0,0.05595926567912102
14.0,0.054449159651994705
15.0,0.05267379805445671
16.0,0.05092604085803032
18.0,0.04770024120807648
20.0,0.04491366446018219
22.0,0.042738836258649826
24.0,0.04041188210248947
26.0,0.038304731249809265
28.0,0.03610285744071007
30.0,0.0339113287627697
32.0,0.032004427164793015
36.0,0.028827589005231857
40.0,0.026806795969605446
44.0,0.024986229836940765
48.0,0.0229140967130661
52.0,0.0209515243768692
56.0,0.01940431259572506
60.0,0.018319830298423767
64.0,0.017336634919047356
72.0,0.015245163813233376
80.0,0.01404847763478756
88.0,0.012094320729374886
96.0,0.01050120871514082
104.0,0.011338573880493641
112.0,0.010894167236983776
120.0,0.008627615869045258
128.0,0.006127045024186373
144.0,0.002710697241127491
160.0,3.9901355194160715e-05
176.0,0.00113991170655936
192.0,0.001106854877434671
208.0,0.002346200868487358
224.0,0.004599534906446934
240.0,0.005849913228303194
256.0,0.004948243033140898
288.0,-0.0004947607521899045
320.0,-0.0019231182523071766
352.0,-0.002348384354263544
384.0,-0.006570048164576292
416.0,-0.007619373966008425
448.0,-0.004551714286208153
480.0,-0.001233202638104558
512.0,-0.0007712337537668645
576.0,0.0003645698889158666
640.0,-0.005378554575145245
704.0,-0.0026374724693596363
768.0,0.0011017522774636745
832.0,-0.002133978297933936
896.0,-0.00541676115244627
960.0,-0.0032982085831463337
1024.0,0.0028152705635875463
1152.0,-0.0015307033900171518
1280.0,-0.0007558083161711693
1408.0,-0.0017353338189423084
1536.0,0.000689347623847425
1664.0,-0.0028927107341587543
1792.0,0.0016964939422905445
1920.0,-0.004725027829408646
2048.0,0.0009824709268286824
2304.0,0.005179234780371189
2560.0,0.00415857182815671
2816.0,-0.0014138612896203995
3072.0,0.0063032484613358974
3328.0,0.0010894441511482
3584.0,0.002147955819964409
3840.0,-0.009069934487342834
4096.0,0.001383661525323987
4608.0,-0.0019028871320188046
5120.0,0.0015677973860874772
5632.0,-0.0018702950328588486
6144.0,0.004152343142777681
6656.0,-0.00283108651638031
7168.0,-0.006755332928150892
7680.0,-0.0007960038492456079
8192.0,0.001791768241673708
end
