version,3.0
numOfCh,1
type,point
parent_name,ff67b_1dot0-0dot1
ch_type,1_1
kcount,1
numberNandB,1
brightnessNandB,1
carpet pos,0
pc,0
Time (ms),CH1 Auto-Correlation
1.0,0.08453529328107834
2.0,0.07802502810955048
3.0,0.07259725034236908
4.0,0.06772386282682419
5.0,0.06332346051931381
6.0,0.05948750674724579
7.0,0.05592093616724014
8.0,0.052760928869247437
9.0,0.04967387393116951
10.0,0.04677113890647888
11.0,0.04413366690278053
12.0,0.04183896631002426
13.0,0.03995461389422417
14.0,0.03820861503481865
15.0,0.03699515759944916
16.0,0.03599432855844498
18.0,0.03432758152484894
20.0,0.03269772604107857
22.0,0.03117138333618641
24.0,0.029933515936136246
26.0,0.028715673834085464
28.0,0.02713414467871189
30.0,0.025216462090611458
32.0,0.02278018742799759
36.0,0.01853395439684391
40.0,0.016325170174241066
44.0,0.015335025265812874
48.0,0.014187142252922058
52.0,0.013111412525177002
56.0,0.012738247402012348
60.0,0.01183343306183815
64.0,0.010711307637393475
72.0,0.009176625870168209
80.0,0.00721811642870307
88.0,0.005520304199308157
96.0,0.005136654246598482
104.0,0.004960107617080212
112.0,0.004384803585708141
120.0,0.0043258643709123135
128.0,0.003721861867234111
144.0,0.0015107706421986222
160.0,-0.00037148312549106777
176.0,0.0002619576989673078
192.0,0.0012140246108174324
208.0,0.002712672809138894
224.0,0.001662741880863905
240.0,0.0010986251290887594
256.0,-0.00023408523702528328
288.0,0.001953753177076578
320.0,0.0008340401109308004
352.0,0.0011297781020402908
384.0,0.00014520843978971243
416.0,-0.001855035312473774
448.0,-0.004380408208817244
480.0,-0.0031548647675663233
512.0,-0.003996552899479866
576.0,-0.0033613666892051697
640.0,0.0014405619585886598
704.0,0.0002909002359956503
768.0,0.00035472624585963786
832.0,0.0005622729659080505
896.0,-4.8214416892733425e-05
960.0,0.0018246873514726758
1024.0,0.0013425374636426568
1152.0,-0.0031991051509976387
1280.0,-0.0011490113101899624
1408.0,-0.0019325021421536803
1536.0,0.0028930753469467163
1664.0,0.003432584460824728
1792.0,0.00227835844270885
1920.0,0.0004579838423524052
2048.0,0.0006940000457689166
2304.0,-0.002595921279862523
2560.0,-0.0010862837079912424
2816.0,-0.00245737680234015
3072.0,-0.002830361481755972
3328.0,0.0005195334670133889
3584.0,0.0004299615102354437
3840.0,-0.0014540569391101599
4096.0,-0.0010269739432260394
4608.0,-0.005525650456547737
5120.0,0.003598736133426428
5632.0,-0.0001860814227256924
6144.0,0.0019365684129297733
6656.0,0.0014637747080996633
7168.0,0.0016943077789619565
7680.0,0.000511148595251143
8192.0,-0.0009987523080781102
end
