version,3.0
numOfCh,1
type,point
parent_name,ff67b_1dot0-0dot1
ch_type,1_1
kcount,1
numberNandB,1
brightnessNandB,1
carpet pos,0
pc,0
Time (ms),CH1 Auto-Correlation
1.0,0.0865754634141922
2.0,0.07978805154561996
3.0,0.07420153170824051
4.0,0.06938428431749344
5.0,0.06520285457372665
6.0,0.06136078014969826
7.0,0.057900093495845795
8.0,0.05495031550526619
9.0,0.052399031817913055
10.0,0.050100766122341156
11.0,0.047980472445487976
12.0,0.04579291120171547
13.0,0.04360092803835869
14.0,0.041909005492925644
15.0,0.040377456694841385
16.0,0.03881864249706268
18.0,0.03587155044078827
20.0,0.03345365822315216
22.0,0.030939359217882156
24.0,0.028753357008099556
26.0,0.026855003088712692
28.0,0.02535397931933403
30.0,0.024078363552689552
32.0,0.023123662918806076
36.0,0.021330084651708603
40.0,0.018412671983242035
44.0,0.015123056247830391
48.0,0.013143593445420265
52.0,0.0119669483974576
56.0,0.011406966485083103
60.0,0.010772811248898506
64.0,0.009024671278893948
72.0,0.007112305611371994
80.0,0.005922911688685417
88.0,0.004405607935041189
96.0,0.003163526766002178
104.0,0.002888826420530677
112.0,0.00454923277720809
120.0,0.006237513851374388
128.0,0.005357386078685522
144.0,0.003954579122364521
160.0,0.004018082283437252
176.0,0.007121461909264326
192.0,0.008706693537533283
208.0,0.006732748355716467
224.0,0.0036762813106179237
240.0,0.0017715959111228585
256.0,0.002071272348985076
288.0,-0.00013550531002692878
320.0,-0.0012202761135995388
352.0,-0.001431476091966033
384.0,0.0029877445194870234
416.0,0.004198575858026743
448.0,0.0027641577180474997
480.0,0.0027791571337729692
512.0,0.001923902309499681
576.0,0.006506469566375017
640.0,0.0033656542655080557
704.0,0.003083545248955488
768.0,6.816879613325e-05
832.0,-0.0029844504315406084
896.0,-0.001566419959999621
960.0,-0.004766796715557575
1024.0,-0.004844201263040304
1152.0,0.002598915481939912
1280.0,-0.0001620396797079593
1408.0,0.0036397806834429502
1536.0,9.340343967778608e-05
1664.0,0.0014745822409167886
1792.0,0.0037412161473184824
1920.0,0.00273722130805254
2048.0,0.0026204301975667477
2304.0,0.0014095716178417206
2560.0,-0.00033902021823450923
2816.0,-0.0009091992978937924
3072.0,-0.00026589271146804094
3328.0,-0.0031902766786515713
3584.0,-0.003552650334313512
3840.0,-0.0024334851186722517
4096.0,-0.00653447862714529
4608.0,-0.002791158389300108
5120.0,-0.0018094367114827037
5632.0,-0.0013685504673048854
6144.0,-0.0020554931834340096
6656.0,-0.002868151757866144
7168.0,-0.00013120243966113776
7680.0,0.003240129677578807
8192.0,0.00434639910236001
end
