version,3.0
numOfCh,1
type,point
parent_name,ff67b_1dot0-0dot1
ch_type,1_1
kcount,1
numberNandB,1
brightnessNandB,1
carpet pos,0
pc,0
Time (ms),CH1 Auto-Correlation
1.0,0.09253732860088348
2.0,0.08545167744159698
3.0,0.07929644733667374
4.0,0.07379540801048279
5.0,0.06912082433700562
6.0,0.06524389237165451
7.0,0.0618111677467823
8.0,0.05863600969314575
9.0,0.055930912494659424
10.0,0.05325595661997795
11.0,0.05089132487773895
12.0,0.04861496761441231
13.0,0.04653303697705269
14.0,0.04460728168487549
15.0,0.043040450662374496
16.0,0.04157857596874237
18.0,0.038989558815956116
20.0,0.03688471019268036
22.0,0.0350581593811512
24.0,0.033600132912397385
26.0,0.03270785138010979
28.0,0.03148176521062851
30.0,0.030004743486642838
32.0,0.028113149106502533
36.0,0.0239570252597332
40.0,0.02170974761247635
44.0,0.020017869770526886
48.0,0.018452921882271767
52.0,0.018024468794465065
56.0,0.01775660365819931
60.0,0.01700856164097786
64.0,0.015420869924128056
72.0,0.013233229517936707
80.0,0.010635441169142723
88.0,0.009709467180073261
96.0,0.008112920448184013
104.0,0.007004374172538519
112.0,0.005817906931042671
120.0,0.004941331688314676
128.0,0.003843181999400258
144.0,0.0027523436583578587
160.0,0.0032231297809630632
176.0,0.0017408160492777824
192.0,0.00019815887208096683
208.0,-0.0028084199875593185
224.0,-0.0028862569015473127
240.0,-0.001186709152534604
256.0,-0.0024808626621961594
288.0,-0.003710618009790778
320.0,-0.0033192625269293785
352.0,-0.0035454831086099148
384.0,-0.00321322213858366
416.0,-0.002279540291056037
448.0,-0.002813022816553712
480.0,-0.0040808180347085
512.0,-0.00244140625
576.0,-0.00504517275840044
640.0,-0.005202131345868111
704.0,-0.004989671055227518
768.0,-0.004601818975061178
832.0,-0.002881336258724332
896.0,-0.0012340496759861708
960.0,0.003529802430421114
1024.0,0.004709811415523291
1152.0,0.0013426045188680291
1280.0,0.0009243176318705082
1408.0,-0.00020174868404865265
1536.0,-0.0012936982093378901
1664.0,0.0024187189992517233
1792.0,-0.004204253200441599
1920.0,-0.00895873736590147
2048.0,-0.0035034322645515203
2304.0,0.004876886494457722
2560.0,-0.0001792683469830081
2816.0,-0.005658650770783424
3072.0,-0.005080464296042919
3328.0,0.002054969547316432
3584.0,0.0016519478522241116
3840.0,0.0017438848735764623
4096.0,-0.0008398042991757393
4608.0,0.004562300629913807
5120.0,-0.002551909303292632
5632.0,0.002666858723387122
6144.0,-0.003171105869114399
6656.0,3.5141514672432095e-05
7168.0,-0.0017817283514887094
7680.0,-0.0006922096945345402
8192.0,0.0013343679020181298
end
