version,3.0
numOfCh,1
type,point
parent_name,ff67b_1dot0-0dot1
ch_type,1_1
kcount,1
numberNandB,1
brightnessNandB,1
carpet pos,0
pc,0
Time (ms),CH1 Auto-Correlation
1.0,0.08430520445108414
2.0,0.07775547355413437
3.0,0.07203102856874466
4.0,0.06715982407331467
5.0,0.06315319240093231
6.0,0.05958757549524307
7.0,0.056385766714811325
8.0,0.05353890359401703
9.0,0.05088435113430023
10.0,0.04851934313774109
11.0,0.046385232359170914
12.0,0.044401708990335464
13.0,0.04236801713705063
14.0,0.04050122946500778
15.0,0.03880754113197327
16.0,0.037160638719797134
18.0,0.03429064527153969
20.0,0.03201809898018837
22.0,0.030137663707137108
24.0,0.02860291115939617
26.0,0.02736288122832775
28.0,0.026474596932530403
30.0,0.025519054383039474
32.0,0.024722972884774208
36.0,0.023326188325881958
40.0,0.02220994420349598
44.0,0.02069929428398609
48.0,0.01950393058359623
52.0,0.017835229635238647
56.0,0.0165113378316164
60.0,0.015635231509804726
64.0,0.014790942892432213
72.0,0.013948467560112476
80.0,0.013000170700252056
88.0,0.010018598288297653
96.0,0.005991034209728241
104.0,0.0038554961793124676
112.0,0.0029806557577103376
120.0,0.0024141885805875063
128.0,0.002328449860215187
144.0,0.0016493148868903518
160.0,0.0019357164856046438
176.0,0.001898835296742618
192.0,0.001880972646176815
208.0,0.0031240093521773815
224.0,0.0024705720134079456
240.0,0.0003567723906598985
256.0,-0.0009237774065695703
288.0,0.0025997250340878963
320.0,0.002912970492616296
352.0,0.002508113393560052
384.0,0.0022493416909128428
416.0,-0.000539174594450742
448.0,0.0018948292126879096
480.0,0.002026784000918269
512.0,-0.0007334130350500345
576.0,0.004619574174284935
640.0,0.0018055611290037632
704.0,-0.002459658542647958
768.0,-0.0017830970464274287
832.0,-0.00277540972456336
896.0,-0.0007459767512045801
960.0,0.00204697553999722
1024.0,0.00021835956431459635
1152.0,0.00018921380979008973
1280.0,0.0028514601290225983
1408.0,0.005171525292098522
1536.0,0.0018009757623076439
1664.0,0.002113642869517207
1792.0,-0.0020658359862864017
1920.0,0.003611720632761717
2048.0,-0.005024071782827377
2304.0,-0.0018221283098682761
2560.0,-0.0003469286602921784
2816.0,-0.0008860448724590242
3072.0,0.0028784640599042177
3328.0,0.0020651076920330524
3584.0,-0.0024715911131352186
3840.0,-0.0017403155798092484
4096.0,-0.0012894549872726202
4608.0,-8.285990770673379e-05
5120.0,-0.004716098308563232
5632.0,0.0021682712249457836
6144.0,0.0007308197091333568
6656.0,-0.0015620914055034518
7168.0,0.0018951557576656342
7680.0,-0.0028096679598093033
8192.0,-0.005855224095284939
end
