version,3.0
numOfCh,1
type,point
parent_name,ff67b_1dot0-0dot1
ch_type,1_1
kcount,1
numberNandB,1
brightnessNandB,1
carpet pos,0
pc,0
Time (ms),CH1 Auto-Correlation
1.0,0.09720132499933243
2.0,0.09026649594306946
3.0,0.08414427936077118
4.0,0.07899883389472961
5.0,0.07448779046535492
6.0,0.07059143483638763
7.0,0.06687166541814804
8.0,0.06339920312166214
9.0,0.06080520153045654
10.0,0.05849152058362961
11.0,0.05656929314136505
12.0,0.054675206542015076
13.0,0.05300246179103851
14.0,0.05166715383529663
15.0,0.05037109553813934
16.0,0.04924585297703743
18.0,0.04730403423309326
20.0,0.045802924782037735
22.0,0.04484410583972931
24.0,0.04386163875460625
26.0,0.04316166043281555
28.0,0.042323969304561615
30.0,0.04113421589136124
32.0,0.03981265425682068
36.0,0.03656752407550812
40.0,0.033908382058143616
44.0,0.03211527317762375
48.0,0.030407927930355072
52.0,0.028733139857649803
56.0,0.028135772794485092
60.0,0.027907446026802063
64.0,0.02680962346494198
72.0,0.023718858137726784
80.0,0.02146105468273163
88.0,0.01939469203352928
96.0,0.017610538750886917
104.0,0.016402866691350937
112.0,0.016125882044434547
120.0,0.016262991353869438
128.0,0.01593327708542347
144.0,0.014469951391220093
160.0,0.013353463262319565
176.0,0.011967403814196587
192.0,0.009479176253080368
208.0,0.008845518343150616
224.0,0.010529179126024246
240.0,0.011664863675832748
256.0,0.01117207296192646
288.0,0.011100995354354382
320.0,0.012698161415755749
352.0,0.011842556297779083
384.0,0.009393850341439247
416.0,0.004397262819111347
448.0,0.004214563872665167
480.0,0.005357899237424135
512.0,0.004307355731725693
576.0,0.0019516551401466131
640.0,0.0018071550875902176
704.0,0.002304450375959277
768.0,0.004128583706915379
832.0,0.003673606552183628
896.0,0.0034827860072255135
960.0,0.005192160606384277
1024.0,0.0003915134584531188
1152.0,0.0031012208200991154
1280.0,0.005380962509661913
1408.0,0.005880451761186123
1536.0,0.004160482902079821
1664.0,0.0022138520143926144
1792.0,-0.00020484918786678463
1920.0,-0.0007918542250990868
2048.0,-0.0004552514583338052
2304.0,0.000625460350420326
2560.0,-0.001340974122285843
2816.0,-0.0016598646761849523
3072.0,-0.003607107326388359
3328.0,-0.0007288595079444349
3584.0,0.007657492067664862
3840.0,0.0038119987584650517
4096.0,-0.0015868500340729952
4608.0,-0.0028984181117266417
5120.0,-0.001931383041664958
5632.0,-0.012570923194289207
6144.0,-0.00615156814455986
6656.0,-0.007440499030053616
7168.0,-0.009162846021354198
7680.0,-0.0035474058240652084
8192.0,-0.0024048364721238613
end
