version,3.0
numOfCh,1
type,point
parent_name,ff67b_1dot0-0dot1
ch_type,1_1
kcount,1
numberNandB,1
brightnessNandB,1
carpet pos,0
pc,0
Time (ms),CH1 Auto-Correlation
1.0,0.08067487925291061
2.0,0.0736035481095314
3.0,0.0675443708896637
4.0,0.062328923493623734
5.0,0.05783073976635933
6.0,0.05401914194226265
7.0,0.050727467983961105
8.0,0.04789198562502861
9.0,0.045067526400089264
10.0,0.04266435280442238
11.0,0.040355026721954346
12.0,0.03824428468942642
13.0,0.0362379364669323
14.0,0.034551676362752914
15.0,0.03307253122329712
16.0,0.03165055811405182
18.0,0.02938365750014782
20.0,0.02742094174027443
22.0,0.025380492210388184
24.0,0.02310861274600029
26.0,0.02077414281666279
28.0,0.018492836505174637
30.0,0.01657351851463318
32.0,0.01470084860920906
36.0,0.012201810255646706
40.0,0.011183753609657288
44.0,0.010917166247963905
48.0,0.010157980024814606
52.0,0.009318923577666283
56.0,0.008700965903699398
60.0,0.00855084229260683
64.0,0.007901637814939022
72.0,0.00648651085793972
80.0,0.005647818557918072
88.0,0.004082587081938982
96.0,0.0029708726797252893
104.0,0.003620038041844964
112.0,0.0037781139835715294
120.0,0.003435140009969473
128.0,0.003237331286072731
144.0,0.0025201919488608837
160.0,0.003866316517814994
176.0,0.005249322392046452
192.0,0.006758857984095812
208.0,0.006893145386129618
224.0,0.009460996836423874
240.0,0.008850974962115288
256.0,0.006306707393378019
288.0,0.003486999310553074
320.0,0.002197075868025422
352.0,0.00321975233964622
384.0,0.0024502407759428024
416.0,0.005734085105359554
448.0,0.0033356142230331898
480.0,-0.00043488945811986923
512.0,0.00075229920912534
576.0,0.004228681791573763
640.0,0.00250928639434278
704.0,0.0008356638718396425
768.0,0.000552950834389776
832.0,0.0009984967764467
896.0,0.0005900658434256911
960.0,0.0009068938670679927
1024.0,0.0011571291834115982
1152.0,0.0006133120623417199
1280.0,0.0016132836462929845
1408.0,0.0039658150635659695
1536.0,0.0029788981191813946
1664.0,0.0012994963908568025
1792.0,-0.0019279079278931022
1920.0,0.0016618916997686028
2048.0,-0.0016092179575935006
2304.0,-0.003939863760024309
2560.0,-0.003087047953158617
2816.0,-0.00090408994583413
3072.0,-0.0016072220169007778
3328.0,-0.0034560991916805506
3584.0,-0.0065916734747588634
3840.0,-0.004192884545773268
4096.0,-0.00271327281370759
4608.0,0.00014163267042022198
5120.0,-0.003591996617615223
5632.0,0.003226876724511385
6144.0,0.005482025910168886
6656.0,0.00048016340588219464
7168.0,0.001817398122511804
7680.0,0.0034553210716694593
8192.0,-0.0026457596104592085
end
