version,3.0
numOfCh,1
type,point
parent_name,ff67b_1dot0-0dot1
ch_type,1_1
kcount,1
numberNandB,1
brightnessNandB,1
carpet pos,0
pc,0
Time (ms),CH1 Auto-Correlation
1.0,0.09938910603523254
2.0,0.09241225570440292
3.0,0.08628786355257034
4.0,0.08082067966461182
5.0,0.07625213265419006
6.0,0.07215961068868637
7.0,0.0684487447142601
8.0,0.06498631089925766
9.0,0.06190936267375946
10.0,0.05900952219963074
11.0,0.05629192665219307
12.0,0.053853362798690796
13.0,0.05168642848730087
14.0,0.04954821988940239
15.0,0.04773654043674469
16.0,0.04634091630578041
18.0,0.043361812829971313
20.0,0.04082634672522545
22.0,0.03857079893350601
24.0,0.03624717518687248
26.0,0.03426796942949295
28.0,0.032823335379362106
30.0,0.03149248659610748
32.0,0.030000152066349983
36.0,0.028165176510810852
40.0,0.02662789076566696
44.0,0.025629881769418716
48.0,0.024134010076522827
52.0,0.0229086522012949
56.0,0.022020861506462097
60.0,0.0205790214240551
64.0,0.018620481714606285
72.0,0.015609901398420334
80.0,0.01480123121291399
88.0,0.012580030597746372
96.0,0.010681377723813057
104.0,0.010266464203596115
112.0,0.010716887190937996
120.0,0.010713753290474415
128.0,0.01035392377525568
144.0,0.006899453233927488
160.0,0.007260689977556467
176.0,0.006416391581296921
192.0,0.0051191127859056
208.0,0.005029166582971811
224.0,0.0040853447280824184
240.0,0.0036585840862244368
256.0,0.005513146053999662
288.0,0.006106982007622719
320.0,0.0071680862456560135
352.0,0.0023079088423401117
384.0,6.150533590698615e-05
416.0,0.0017591839423403144
448.0,-0.001785067724995315
480.0,-0.003912904765456915
512.0,-0.009218000806868076
576.0,-0.005517284385859966
640.0,-0.0007969224243424833
704.0,0.0005434136837720871
768.0,0.0004377606092020869
832.0,-0.001239347388036549
896.0,-0.004137825686484575
960.0,-0.0008386739064007998
1024.0,0.00357657833956182
1152.0,0.011946863494813442
1280.0,0.007028642576187849
1408.0,0.005208227317780256
1536.0,5.7261833717348054e-05
1664.0,-0.006217891816049814
1792.0,-0.0037852118257433176
1920.0,-0.0033329506404697895
2048.0,-0.005024237558245659
2304.0,0.0030243704095482826
2560.0,-0.0012288574362173676
2816.0,-0.003861270844936371
3072.0,0.0010945058893412352
3328.0,-0.001338964095339179
3584.0,-9.75924776867032e-05
3840.0,0.0006197929615154862
4096.0,-0.009152176789939404
4608.0,-0.0003572187852114439
5120.0,-0.0052178422920405865
5632.0,-0.004944161511957645
6144.0,0.001782602397724986
6656.0,0.0006461298326030374
7168.0,-0.00413578562438488
7680.0,0.005820704624056816
8192.0,-0.004359671846032143
end
