version,3.0
numOfCh,1
type,point
parent_name,ff67b_1dot0-0dot1
ch_type,1_1
kcount,1
numberNandB,1
brightnessNandB,1
carpet pos,0
pc,0
Time (ms),CH1 Auto-Correlation
1.0,0.09486627578735352
2.0,0.08788652718067169
3.0,0.0816083699464798
4.0,0.07624515891075134
5.0,0.07136885821819305
6.0,0.06689263880252838
7.0,0.06300535798072815
8.0,0.05949701368808746
9.0,0.05646326020359993
10.0,0.0538460947573185
11.0,0.05153604969382286
12.0,0.04928941652178764
13.0,0.04715723171830177
14.0,0.04516056180000305
15.0,0.04335926100611687
16.0,0.041556086391210556
18.0,0.03820433095097542
20.0,0.03537880256772041
22.0,0.032736945897340775
24.0,0.030526811257004738
26.0,0.028219319880008698
28.0,0.025935247540473938
30.0,0.023925207555294037
32.0,0.02216559648513794
36.0,0.019378257915377617
40.0,0.01772565394639969
44.0,0.016361624002456665
48.0,0.01591295748949051
52.0,0.015125945210456848
56.0,0.013803677633404732
60.0,0.012202286161482334
64.0,0.011157777160406113
72.0,0.010135773569345474
80.0,0.009140893816947937
88.0,0.007364694029092789
96.0,0.006301153916865587
104.0,0.0051546720787882805
112.0,0.005694623105227947
120.0,0.006712066940963268
128.0,0.006649152375757694
144.0,0.004612552467733622
160.0,6.731106986990198e-05
176.0,6.430211942642927e-05
192.0,0.00040446227649226785
208.0,0.0019151645246893167
224.0,0.0031861960887908936
240.0,0.003383382922038436
256.0,0.003919061738997698
288.0,0.005648455582559109
320.0,0.005399451125413179
352.0,0.002029082039371133
384.0,0.003926134202629328
416.0,0.00021048271446488798
448.0,-0.001688553486019373
480.0,-0.00151166133582592
512.0,-0.0013165328418835998
576.0,-0.005936158820986748
640.0,-0.006521755829453468
704.0,-0.004989981651306152
768.0,-0.002986225765198469
832.0,-0.0014608083292841911
896.0,-0.002173248678445816
960.0,-0.0036270988639444113
1024.0,0.0009302709950134158
1152.0,0.0022508539259433746
1280.0,0.0025385618209838867
1408.0,0.004819691646844149
1536.0,0.0011124183656647801
1664.0,0.0016667167656123638
1792.0,-0.0005105462041683495
1920.0,-0.00045647280057892203
2048.0,-0.0017876098863780499
2304.0,0.0006982074119150639
2560.0,0.0009751784964464605
2816.0,0.0010968699352815747
3072.0,-0.0006928275688551366
3328.0,-0.0012163370847702026
3584.0,-0.0011257956502959132
3840.0,0.002234180923551321
4096.0,0.0022353578824549913
4608.0,-0.0014418235514312983
5120.0,-0.0005732564022764564
5632.0,-0.0014773306902498007
6144.0,0.001382487709634006
6656.0,0.0024866871535778046
7168.0,-0.0013626620639115572
7680.0,-0.00234051002189517
8192.0,0.0005489489412866533
end
