version,3.0
numOfCh,1
type,point
parent_name,ff67b_1dot0-0dot1
ch_type,1_1
kcount,1
numberNandB,1
brightnessNandB,1
carpet pos,0
pc,0
Time (ms),CH1 Auto-Correlation
1.0,0.07880261540412903
2.0,0.07201066613197327
3.0,0.06638174504041672
4.0,0.06155749037861824
5.0,0.05727078765630722
6.0,0.05364951491355896
7.0,0.05021955817937851
8.0,0.04743601381778717
9.0,0.044865284115076065
10.0,0.0427379235625267
11.0,0.0405215285718441
12.0,0.03854198008775711
13.0,0.03682536259293556
14.0,0.03527164086699486
15.0,0.03374284505844116
16.0,0.03245595842599869
18.0,0.030617306008934975
20.0,0.029095403850078583
22.0,0.027804972603917122
24.0,0.026630602777004242
26.0,0.02537144348025322
28.0,0.023855846375226974
30.0,0.022529955953359604
32.0,0.021001646295189857
36.0,0.019833289086818695
40.0,0.019534870982170105
44.0,0.019152315333485603
48.0,0.017587099224328995
52.0,0.015578780323266983
56.0,0.014337685890495777
60.0,0.013661603443324566
64.0,0.013725141994655132
72.0,0.013758591376245022
80.0,0.011777945794165134
88.0,0.00985153391957283
96.0,0.00821047741919756
104.0,0.008556081913411617
112.0,0.007834331132471561
120.0,0.007337468210607767
128.0,0.005393317434936762
144.0,0.003637302666902542
160.0,0.0013190513709560037
176.0,-0.0004255298990756273
192.0,0.0007684457814320922
208.0,0.0008406338165514171
224.0,0.0007015697192400694
240.0,3.728705632966012e-05
256.0,-0.00028227429720573127
288.0,-0.0010438045719638467
320.0,-0.0014061444671824574
352.0,-0.0038683111779391766
384.0,-0.002175477333366871
416.0,-0.0017877309583127499
448.0,0.0021313733886927366
480.0,0.0010757122654467821
512.0,0.0032156233210116625
576.0,0.002384921070188284
640.0,0.0028054676949977875
704.0,0.0013186332071200013
768.0,-0.00035963725531473756
832.0,-0.002998936688527465
896.0,-0.005338933784514666
960.0,-0.007360199466347694
1024.0,-0.007255463860929012
1152.0,-0.00543132284656167
1280.0,-0.0015534820267930627
1408.0,-0.0013420477043837309
1536.0,0.0016080929199233651
1664.0,-0.001581657910719514
1792.0,-0.002730559092015028
1920.0,0.001292801694944501
2048.0,6.537540321005508e-05
2304.0,-0.00048687050002627075
2560.0,4.634642664314015e-06
2816.0,-0.0018997709266841412
3072.0,0.0029690456576645374
3328.0,0.0013710965868085623
3584.0,-0.0012825357262045145
3840.0,0.001884185359813273
4096.0,-0.0019721363205462694
4608.0,-0.0004228761827107519
5120.0,0.001199261168949306
5632.0,0.0011930414475500584
6144.0,-0.002655420685186982
6656.0,-0.0003730235621333122
7168.0,0.003665303112939
7680.0,-0.0014724176144227386
8192.0,-0.0055026886984705925
end
