version,3.0
numOfCh,1
type,point
parent_name,ff67b_1dot0-0dot1
ch_type,1_1
kcount,1
numberNandB,1
brightnessNandB,1
carpet pos,0
pc,0
Time (ms),CH1 Auto-Correlation
1.0,0.08526871353387833
2.0,0.07871329039335251
3.0,0.07308820635080338
4.0,0.0683697983622551
5.0,0.06440124660730362
6.0,0.06082596629858017
7.0,0.0574214942753315
8.0,0.05425747111439705
9.0,0.05143517628312111
10.0,0.048835720866918564
11.0,0.04651001840829849
12.0,0.044149648398160934
13.0,0.041823457926511765
14.0,0.03992398828268051
15.0,0.038271624594926834
16.0,0.03692125529050827
18.0,0.034144479781389236
20.0,0.031643353402614594
22.0,0.02938002720475197
24.0,0.02756153792142868
26.0,0.025829115882515907
28.0,0.02415211871266365
30.0,0.022435760125517845
32.0,0.021136799827218056
36.0,0.018858447670936584
40.0,0.017361517995595932
44.0,0.015583647415041924
48.0,0.013608538545668125
52.0,0.012504818849265575
56.0,0.011908411048352718
60.0,0.011100154370069504
64.0,0.010072506032884121
72.0,0.009393375366926193
80.0,0.009412851184606552
88.0,0.00968819297850132
96.0,0.011082133278250694
104.0,0.011745516210794449
112.0,0.01242883037775755
120.0,0.011669270694255829
128.0,0.010936937294900417
144.0,0.009370175190269947
160.0,0.009979472495615482
176.0,0.009267489425837994
192.0,0.007931689731776714
208.0,0.006254174746572971
224.0,0.005228382535278797
240.0,0.0036364910192787647
256.0,0.004058643709868193
288.0,0.009446418844163418
320.0,0.011701928451657295
352.0,0.0091481264680624
384.0,0.004887565039098263
416.0,0.005633270367980003
448.0,0.005992152262479067
480.0,0.00473382230848074
512.0,0.0046273148618638515
576.0,0.0027853334322571754
640.0,0.0007394673302769661
704.0,0.0007002581842243671
768.0,0.0005741512286476791
832.0,0.0031481815967708826
896.0,0.0020531422924250364
960.0,0.001291743596084416
1024.0,0.0045593371614813805
1152.0,0.002522228518500924
1280.0,-0.0001085089024854824
1408.0,0.0016697112005203962
1536.0,0.0015839006518945098
1664.0,0.0004794815613422543
1792.0,0.0016821665922179818
1920.0,0.0016146879643201828
2048.0,-0.0014341524802148342
2304.0,-0.002803134499117732
2560.0,-0.003962631803005934
2816.0,-0.0041379621252417564
3072.0,-0.004224440082907677
3328.0,-0.005117384716868401
3584.0,-0.0036943284794688225
3840.0,-0.0037419020663946867
4096.0,-0.007108794990926981
4608.0,-0.0035665174946188927
5120.0,-0.00276348739862442
5632.0,0.0016350883524864912
6144.0,0.0025047806557267904
6656.0,0.00437548803165555
7168.0,0.002588344970718026
7680.0,-3.235871554352343e-05
8192.0,-0.0012465548934414983
end
