version,3.0
numOfCh,1
type,point
parent_name,ff67b_1dot0-0dot1
ch_type,1_1
kcount,1
numberNandB,1
brightnessNandB,1
carpet pos,0
pc,0
Time (ms),CH1 Auto-Correlation
1.0,0.09428931772708893
2.0,0.08736473321914673
3.0,0.08143933117389679
4.0,0.076448954641819
5.0,0.07220136374235153
6.0,0.06850621849298477
7.0,0.06526710093021393
8.0,0.06229674071073532
9.0,0.05970863252878189
10.0,0.05717560276389122
11.0,0.05476111173629761
12.0,0.0522211492061615
13.0,0.049936678260564804
14.0,0.04785039275884628
15.0,0.045949485152959824
16.0,0.044127944856882095
18.0,0.041051510721445084
20.0,0.03849304839968681
22.0,0.03590380400419235
24.0,0.03379519283771515
26.0,0.03200281411409378
28.0,0.030590182170271873
30.0,0.02938484027981758
32.0,0.02830641344189644
36.0,0.027249343693256378
40.0,0.025872603058815002
44.0,0.025504592806100845
48.0,0.024378644302487373
52.0,0.023001031950116158
56.0,0.021383333951234818
60.0,0.020149191841483116
64.0,0.018914582207798958
72.0,0.015131592750549316
80.0,0.013060628436505795
88.0,0.011611823923885822
96.0,0.010709335096180439
104.0,0.010057596489787102
112.0,0.010387290269136429
120.0,0.008765964768826962
128.0,0.006532509345561266
144.0,0.0073729008436203
160.0,0.008994493633508682
176.0,0.007779876701533794
192.0,0.00907828938215971
208.0,0.009750436060130596
224.0,0.008690337650477886
240.0,0.010778876952826977
256.0,0.010157432407140732
288.0,0.00916747935116291
320.0,0.006690809968858957
352.0,0.0025867822114378214
384.0,0.0023168858606368303
416.0,0.0017717008013278246
448.0,0.004281214438378811
480.0,0.0033498690463602543
512.0,0.0014611001824960113
576.0,-0.0016820859163999557
640.0,-0.0034640845842659473
704.0,-0.005806093104183674
768.0,-0.0058188349939882755
832.0,-0.005201393738389015
896.0,-0.00044645025627687573
960.0,-0.001450317446142435
1024.0,0.0005464765708893538
1152.0,-0.0013868757523596287
1280.0,-0.0021852238569408655
1408.0,-0.004664093721657991
1536.0,-0.0019869068637490273
1664.0,-0.0012339877430349588
1792.0,-0.0014654520200565457
1920.0,-0.0008338633924722672
2048.0,0.004333864897489548
2304.0,0.0027987996581941843
2560.0,0.0027511187363415956
2816.0,0.0021716586779803038
3072.0,-0.002047667047008872
3328.0,-0.007500665262341499
3584.0,-0.007384046912193298
3840.0,-0.0024367074947804213
4096.0,0.004472547210752964
4608.0,0.004309359472244978
5120.0,-0.003823548322543502
5632.0,-0.0027735689654946327
6144.0,-0.0040434859693050385
6656.0,0.006968681234866381
7168.0,0.0029157837852835655
7680.0,-0.009783497080206871
8192.0,-0.0033489298075437546
end
