version,3.0
numOfCh,1
type,point
parent_name,ff67b_1dot0-0dot1
ch_type,1_1
kcount,1
numberNandB,1
brightnessNandB,1
carpet pos,0
pc,0
Time (ms),CH1 Auto-Correlation
1.0,0.08853505551815033
2.0,0.08185204118490219
3.0,0.07587289810180664
4.0,0.07065786421298981
5.0,0.06594143062829971
6.0,0.06167582795023918
7.0,0.057828739285469055
8.0,0.05443032085895538
9.0,0.05137841776013374
10.0,0.048520527780056
11.0,0.04583488404750824
12.0,0.04358196258544922
13.0,0.041516147553920746
14.0,0.039405908435583115
15.0,0.03738779574632645
16.0,0.03582913801074028
18.0,0.0330008864402771
20.0,0.031016651540994644
22.0,0.029294462874531746
24.0,0.02798059955239296
26.0,0.026897866278886795
28.0,0.02617320977151394
30.0,0.02552901767194271
32.0,0.02437974512577057
36.0,0.02219744771718979
40.0,0.020265238359570503
44.0,0.01886066421866417
48.0,0.01786613091826439
52.0,0.01803039200603962
56.0,0.017433706670999527
60.0,0.016913192346692085
64.0,0.016181280836462975
72.0,0.013994636945426464
80.0,0.012310802936553955
88.0,0.011611764319241047
96.0,0.010463930666446686
104.0,0.009384693577885628
112.0,0.009427770040929317
120.0,0.009295601397752762
128.0,0.007546634878963232
144.0,0.006206529214978218
160.0,0.0031198568176478148
176.0,0.005215400364249945
192.0,0.0059325117617845535
208.0,0.00547294644638896
224.0,0.0053017414174973965
240.0,0.0037973704747855663
256.0,0.0007319114520214498
288.0,-0.0009623348596505821
320.0,-2.484150718373712e-05
352.0,-0.0016108170384541154
384.0,0.0005593759124167264
416.0,0.0009631967986933887
448.0,-0.004421755205839872
480.0,-0.0019965004175901413
512.0,0.0026210176292806864
576.0,0.0028367924969643354
640.0,-0.0004622380365617573
704.0,0.0024315952323377132
768.0,0.005289003252983093
832.0,0.0041084992699325085
896.0,0.0002374164032517001
960.0,0.0019473180873319507
1024.0,0.0022833850234746933
1152.0,0.00019798989524133503
1280.0,-0.001089727971702814
1408.0,-0.003757631639018655
1536.0,-0.007460369262844324
1664.0,-0.002422626595944166
1792.0,-0.00142025260720402
1920.0,-0.0009543514461256564
2048.0,-0.002028463641181588
2304.0,-0.005178220570087433
2560.0,-0.0024569446686655283
2816.0,-0.0011188177159056067
3072.0,-0.0006398807163350284
3328.0,-0.0030379004310816526
3584.0,0.0005111625068821013
3840.0,0.0019824013579636812
4096.0,0.001403327565640211
4608.0,0.003440922126173973
5120.0,0.0005797271151095629
5632.0,-0.0016946385148912668
6144.0,-0.0034421849995851517
6656.0,-0.0022688324097543955
7168.0,-0.0030603769700974226
7680.0,0.003069681115448475
8192.0,0.0006048692739568651
end
