version,3.0
numOfCh,1
type,point
parent_name,34a6d_10dot0-0dot01
ch_type,1_1
kcount,1
numberNandB,1
brightnessNandB,1
carpet pos,0
pc,0
Time (ms),CH1 Auto-Correlation
1.0,0.10514581948518753
2.0,0.09967974573373795
3.0,0.09641548246145248
4.0,0.09378690272569656
5.0,0.09200870245695114
6.0,0.09115082770586014
7.0,0.09014154225587845
8.0,0.0886361226439476
9.0,0.08772296458482742
10.0,0.08683633804321289
11.0,0.08598114550113678
12.0,0.08434047549962997
13.0,0.08346012234687805
14.0,0.08317350596189499
15.0,0.08250967413187027
16.0,0.08143849670886993
18.0,0.07998433709144592
20.0,0.0797155350446701
22.0,0.07947928458452225
24.0,0.07860876619815826
26.0,0.07813134789466858
28.0,0.07747824490070343
30.0,0.07697926461696625
32.0,0.07687642425298691
36.0,0.07553017884492874
40.0,0.07533871382474899
44.0,0.07335008680820465
48.0,0.07209615409374237
52.0,0.07056155055761337
56.0,0.06898467242717743
60.0,0.06771501898765564
64.0,0.06760261952877045
72.0,0.06692343205213547
80.0,0.0655284896492958
88.0,0.06270495057106018
96.0,0.06131012365221977
104.0,0.06027697026729584
112.0,0.05919717997312546
120.0,0.05846668407320976
128.0,0.05796562880277634
144.0,0.05622144043445587
160.0,0.05549800768494606
176.0,0.05542664974927902
192.0,0.05295700207352638
208.0,0.051223911345005035
224.0,0.05145622044801712
240.0,0.05076596513390541
256.0,0.049736388027668
288.0,0.045361343771219254
320.0,0.03906196355819702
352.0,0.03348488733172417
384.0,0.03189931809902191
416.0,0.031287964433431625
448.0,0.031031779944896698
480.0,0.027428101748228073
512.0,0.022275103256106377
576.0,0.01676504872739315
640.0,0.013418102636933327
704.0,0.010235724970698357
768.0,0.011390656232833862
832.0,0.012384539470076561
896.0,0.012719410471618176
960.0,0.012461494654417038
1024.0,0.015518836677074432
1152.0,0.014855248853564262
1280.0,0.027398264035582542
1408.0,0.017338117584586143
1536.0,0.016209164634346962
1664.0,0.011976629495620728
1792.0,0.013517327606678009
1920.0,0.010709714144468307
2048.0,0.011158491484820843
2304.0,-2.0257819414837286e-05
2560.0,-0.0052644009701907635
2816.0,-0.009906071238219738
3072.0,-0.010086887516081333
3328.0,-0.01244273129850626
3584.0,-0.018849821761250496
3840.0,-0.018520738929510117
4096.0,-0.02627362497150898
end
