version,3.0
numOfCh,1
type,point
parent_name,34a6d_10dot0-0dot01
ch_type,1_1
kcount,1
numberNandB,1
brightnessNandB,1
carpet pos,0
pc,0
Time (ms),CH1 Auto-Correlation
1.0,0.028620624914765358
2.0,0.021354660391807556
3.0,0.017690688371658325
4.0,0.015772169455885887
5.0,0.014289469458162785
6.0,0.013125103898346424
7.0,0.012260924093425274
8.0,0.011250675655901432
9.0,0.01031723152846098
10.0,0.00961858220398426
11.0,0.008885407820343971
12.0,0.008724833838641644
13.0,0.008212569169700146
14.0,0.007691069971770048
15.0,0.0076088798232376575
16.0,0.007618546485900879
18.0,0.007214515004307032
20.0,0.007001558784395456
22.0,0.0065761893056333065
24.0,0.0062126643024384975
26.0,0.005822195205837488
28.0,0.005544145125895739
30.0,0.006075827404856682
32.0,0.005788920447230339
36.0,0.005296978633850813
40.0,0.005150401499122381
44.0,0.004392132628709078
48.0,0.004137970507144928
52.0,0.003949551843106747
56.0,0.003439562162384391
60.0,0.0032783192582428455
64.0,0.0032918453216552734
72.0,0.003553983522579074
80.0,0.0028922606725245714
88.0,0.0026839813217520714
96.0,0.002829819219186902
104.0,0.0024770135059952736
112.0,0.0034258244559168816
120.0,0.0031538712792098522
128.0,0.002848130650818348
144.0,0.003838652279227972
160.0,0.003720837878063321
176.0,0.004191349260509014
192.0,0.00368942110799253
208.0,0.002620220649987459
224.0,0.0020308049861341715
240.0,0.0014841286465525627
256.0,0.0021983585320413113
288.0,0.0028703322168439627
320.0,0.0034457070287317038
352.0,0.002414050977677107
384.0,0.0027093372773379087
416.0,0.002278610598295927
448.0,0.0019250208279117942
480.0,0.0014491730835288763
512.0,0.0008270576363429427
576.0,0.001346064847894013
640.0,0.0004901166539639235
704.0,0.000981906894594431
768.0,0.0010851336410269141
832.0,0.0014640423469245434
896.0,0.0008006736170500517
960.0,0.0015023492742329836
1024.0,0.0015566212823614478
1152.0,0.0007234929362311959
1280.0,0.0011512775672599673
1408.0,0.0011288190726190805
1536.0,0.0006565448711626232
1664.0,0.00015690442523919046
1792.0,0.00035952639882452786
1920.0,-0.00033071168581955135
2048.0,-0.0006251116865314543
2304.0,-0.00047990429447963834
2560.0,-0.00035061052767559886
2816.0,-0.0008745737140998244
3072.0,-0.0008741873316466808
3328.0,-0.0005503722350113094
3584.0,0.0001830647379392758
3840.0,-0.0004551711608655751
4096.0,-0.0009027526248246431
4608.0,-0.0005925922305323184
5120.0,-0.00043193376041017473
5632.0,-0.0005508707836270332
6144.0,-0.0007902144570834935
6656.0,-0.0010701105929911137
7168.0,-0.0005514632794074714
7680.0,-0.002822140697389841
8192.0,-0.00231488817371428
end
