version,3.0
numOfCh,1
type,point
parent_name,fe81d_10dot0-0dot01
ch_type,1_1
kcount,1
numberNandB,1
brightnessNandB,1
carpet pos,0
pc,0
Time (ms),CH1 Auto-Correlation
1.0,0.12945722043514252
2.0,0.1213986948132515
3.0,0.11528391391038895
4.0,0.1110164150595665
5.0,0.10637364536523819
6.0,0.10293202847242355
7.0,0.09894181042909622
8.0,0.09586253762245178
9.0,0.09197945892810822
10.0,0.09020472317934036
11.0,0.0880034789443016
12.0,0.08557886630296707
13.0,0.08282142132520676
14.0,0.0811639279127121
15.0,0.07861988246440887
16.0,0.07595774531364441
18.0,0.0682065561413765
20.0,0.06277064979076385
22.0,0.05687630921602249
24.0,0.05207926034927368
26.0,0.04568837210536003
28.0,0.03987422212958336
30.0,0.034714475274086
32.0,0.031156232580542564
36.0,0.02036832645535469
40.0,0.006367645692080259
44.0,0.005496164318174124
48.0,0.0058420877903699875
52.0,0.005128046032041311
56.0,0.0036643308121711016
60.0,0.0032397981267422438
64.0,0.0038674597162753344
72.0,0.0025128754787147045
80.0,0.0023845790419727564
88.0,0.002669547451660037
96.0,6.806601504649734e-06
104.0,-0.004430354572832584
112.0,-0.007326188962906599
120.0,-0.007304021157324314
128.0,-0.008903365582227707
144.0,-0.0076471720822155476
160.0,-0.008870692923665047
176.0,-0.007161232177168131
192.0,-0.005078676622360945
208.0,-0.0010222424753010273
224.0,0.010101611725986004
240.0,0.008300263434648514
256.0,-0.003564785933122039
288.0,0.002373052528128028
320.0,-0.0015639235498383641
352.0,-0.0018106106435880065
384.0,0.0010037237079814076
416.0,0.0007954728789627552
448.0,-0.0002568855707067996
480.0,0.0024258107878267765
512.0,0.008380547165870667
576.0,0.011298398487269878
640.0,0.0038140523247420788
704.0,-0.0007402406772598624
768.0,0.0013725095195695758
832.0,0.0027077870909124613
896.0,0.00098370760679245
960.0,0.0005976122338324785
1024.0,-0.0003284408594481647
end
