version,3.0
numOfCh,1
type,point
parent_name,fe81d_10dot0-0dot01
ch_type,1_1
kcount,1
numberNandB,1
brightnessNandB,1
carpet pos,0
pc,0
Time (ms),CH1 Auto-Correlation
1.0,0.04535098373889923
2.0,0.038073405623435974
3.0,0.034085389226675034
4.0,0.032109133899211884
5.0,0.030503615736961365
6.0,0.028976237401366234
7.0,0.027939563617110252
8.0,0.026994476094841957
9.0,0.0264876876026392
10.0,0.025709480047225952
11.0,0.02448423020541668
12.0,0.02397913672029972
13.0,0.023943334817886353
14.0,0.02371181733906269
15.0,0.023307474330067635
16.0,0.023029256612062454
18.0,0.02192976512014866
20.0,0.02133600227534771
22.0,0.020540323108434677
24.0,0.020253468304872513
26.0,0.019587339833378792
28.0,0.019042760133743286
30.0,0.019031038507819176
32.0,0.018265537917613983
36.0,0.017413610592484474
40.0,0.01641702651977539
44.0,0.015579077415168285
48.0,0.014470827765762806
52.0,0.01336370874196291
56.0,0.012609917670488358
60.0,0.012080780230462551
64.0,0.011740095913410187
72.0,0.010957963764667511
80.0,0.010168488137423992
88.0,0.009279168210923672
96.0,0.008992261253297329
104.0,0.007843831554055214
112.0,0.006291161756962538
120.0,0.005671815946698189
128.0,0.004695429001003504
144.0,0.004311517812311649
160.0,0.004665057640522718
176.0,0.005181168206036091
192.0,0.004792369902133942
208.0,0.004142110235989094
224.0,0.004368135239928961
240.0,0.0042874496430158615
256.0,0.0040438310243189335
288.0,0.0032776540610939264
320.0,0.003563934937119484
352.0,0.004112632479518652
384.0,0.003987557720392942
416.0,0.0042358385398983955
448.0,0.004259298089891672
480.0,0.003431016346439719
512.0,0.00276041217148304
576.0,0.0028593826573342085
640.0,0.0032020797953009605
704.0,0.0028663771227002144
768.0,0.0025060188490897417
832.0,0.003526007756590843
896.0,0.0035783518105745316
960.0,0.0037276851944625378
1024.0,0.003826261730864644
1152.0,0.0033687958493828773
1280.0,0.0025833386462181807
1408.0,0.0021522725000977516
1536.0,0.0018818764947354794
1664.0,0.0018664104864001274
1792.0,0.0016003657365217805
1920.0,0.0007931289146654308
2048.0,0.00047355180140584707
2304.0,0.0005228780792094767
2560.0,0.0007346488418988883
2816.0,-8.366864494746551e-05
3072.0,0.0002690182300284505
3328.0,0.00017135536472778767
3584.0,0.00012102756591048092
3840.0,-7.33424531063065e-05
4096.0,0.0004243179864715785
4608.0,-0.0002484818978700787
5120.0,-0.0007265678141266108
5632.0,-0.0009477834682911634
6144.0,-0.000585635716561228
6656.0,-0.0011969134211540222
7168.0,-0.0016674625221639872
7680.0,-0.0040688528679311275
8192.0,-0.003950044512748718
end
