version,3.0
numOfCh,1
type,point
parent_name,fe81d_10dot0-0dot01
ch_type,1_1
kcount,1
numberNandB,1
brightnessNandB,1
carpet pos,0
pc,0
Time (ms),CH1 Auto-Correlation
1.0,0.1613198220729828
2.0,0.1491864025592804
3.0,0.1415194272994995
4.0,0.1355419158935547
5.0,0.1303894817829132
6.0,0.12536878883838654
7.0,0.11959215998649597
8.0,0.11471989005804062
9.0,0.11057717353105545
10.0,0.1070748120546341
11.0,0.10292216390371323
12.0,0.09908392280340195
13.0,0.09501832723617554
14.0,0.09107334911823273
15.0,0.08776944875717163
16.0,0.08441643416881561
18.0,0.07827634364366531
20.0,0.07266267389059067
22.0,0.06662113964557648
24.0,0.05987574905157089
26.0,0.05339250713586807
28.0,0.04582883417606354
30.0,0.0383981429040432
32.0,0.031541913747787476
36.0,0.008688550442457199
40.0,0.0014086816227063537
44.0,0.0004662604769691825
48.0,-0.00020940737158525735
52.0,0.0002373259048908949
56.0,-6.563802799064433e-06
60.0,-0.0005655286367982626
64.0,-0.000472341722343117
72.0,-0.0006789719918742776
80.0,-0.0007255560485646129
88.0,-0.001958776032552123
96.0,-0.002647634129971266
104.0,-0.004769932013005018
112.0,-0.005027910228818655
120.0,-0.0055498587898910046
128.0,-0.005967293865978718
144.0,-0.0026859771460294724
160.0,-0.002580893225967884
176.0,-0.0006653480231761932
192.0,0.00036217659362591803
208.0,0.0027976713608950377
224.0,0.00269900169223547
240.0,0.0005979546112939715
256.0,0.0008879451779648662
288.0,-0.000200991693418473
320.0,0.0010404583299532533
352.0,-0.0021333997137844563
384.0,-0.0004172521294094622
416.0,-0.000981137272901833
448.0,-0.0018085947958752513
480.0,0.0009270950104109943
512.0,0.0030558505095541477
576.0,0.0006187192047946155
640.0,0.0005408922443166375
704.0,-0.000261290289927274
768.0,0.0035668322816491127
832.0,0.00035771570401266217
896.0,-0.0021220871713012457
960.0,-0.000686394632793963
1024.0,-0.001222269027493894
1152.0,0.00231560948304832
1280.0,-0.0014096423983573914
1408.0,0.0010762736201286316
1536.0,0.0023534696083515882
1664.0,-0.001584141980856657
1792.0,0.00029061699751764536
1920.0,0.0012941277818754315
2048.0,0.00028802454471588135
2304.0,0.000732080137822777
2560.0,0.0012732349568977952
2816.0,0.0009536631987430155
3072.0,0.0005352218286134303
3328.0,0.0007770020165480673
3584.0,0.0007082734373398125
3840.0,3.110765464953147e-05
4096.0,0.0010048283729702234
end
