version,3.0
numOfCh,1
type,point
parent_name,714af_0dot08-0dot1
ch_type,1_1
kcount,1
numberNandB,1
brightnessNandB,1
carpet pos,0
pc,0
Time (ms),CH1 Auto-Correlation
1.0,0.08422877639532089
2.0,0.08361352980136871
3.0,0.08303798735141754
4.0,0.08247620612382889
5.0,0.08191921561956406
6.0,0.08136159926652908
7.0,0.0808149129152298
8.0,0.08028929680585861
9.0,0.07975604385137558
10.0,0.07921531796455383
11.0,0.07869232445955276
12.0,0.07816262543201447
13.0,0.07764051109552383
14.0,0.07711508870124817
15.0,0.07660511136054993
16.0,0.0761248841881752
18.0,0.07518883794546127
20.0,0.07427205890417099
22.0,0.07337876409292221
24.0,0.07248760014772415
26.0,0.07160943001508713
28.0,0.07077296823263168
30.0,0.06996344774961472
32.0,0.06916066259145737
36.0,0.06758716702461243
40.0,0.06615230441093445
44.0,0.06479626893997192
48.0,0.06348585337400436
52.0,0.062304962426424026
56.0,0.0612097904086113
60.0,0.06013571098446846
64.0,0.059035152196884155
72.0,0.05651700869202614
80.0,0.054266173392534256
88.0,0.052461132407188416
96.0,0.05041029304265976
104.0,0.048055499792099
112.0,0.04582158848643303
120.0,0.043909650295972824
128.0,0.04228052496910095
144.0,0.03923793509602547
160.0,0.03656737133860588
176.0,0.03389621153473854
192.0,0.03161066770553589
208.0,0.03015771508216858
224.0,0.02917308546602726
240.0,0.02797909826040268
256.0,0.027182910591363907
288.0,0.024741914123296738
320.0,0.0222137700766325
352.0,0.02020442672073841
384.0,0.018159739673137665
416.0,0.015672245994210243
448.0,0.013757804408669472
480.0,0.01215997152030468
512.0,0.011502431705594063
576.0,0.009155693463981152
640.0,0.004221037495881319
704.0,-0.0011779358610510826
768.0,-0.004411162342876196
832.0,-0.005604590754956007
896.0,-0.006359201390296221
960.0,-0.00812438689172268
1024.0,-0.011142909526824951
1152.0,-0.011287728324532509
1280.0,-0.01362350583076477
1408.0,-0.02022937871515751
1536.0,-0.020105887204408646
1664.0,-0.016246259212493896
1792.0,-0.011735036969184875
1920.0,-0.0042660851031541824
2048.0,-0.001638414803892374
2304.0,-0.00019811767560895532
2560.0,0.002411186695098877
2816.0,0.0015726354904472828
3072.0,0.006660921033471823
3328.0,0.004417590331286192
3584.0,0.0021684085950255394
3840.0,0.0012411805801093578
4096.0,-0.007335348520427942
4608.0,-0.01225163135677576
5120.0,-0.009547502733767033
5632.0,0.0012933005345985293
6144.0,-0.007673812564462423
6656.0,0.00022434271522797644
7168.0,0.021455075591802597
7680.0,0.027773680165410042
8192.0,-0.004870171658694744
end
