version,3.0
numOfCh,1
type,point
parent_name,714af_0dot08-0dot1
ch_type,1_1
kcount,1
numberNandB,1
brightnessNandB,1
carpet pos,0
pc,0
Time (ms),CH1 Auto-Correlation
1.0,0.06539279967546463
2.0,0.06472662836313248
3.0,0.06406645476818085
4.0,0.06345833837985992
5.0,0.06286440789699554
6.0,0.062302228063344955
7.0,0.06176888197660446
8.0,0.06125282868742943
9.0,0.06074592098593712
10.0,0.060255300253629684
11.0,0.05978609621524811
12.0,0.05931295081973076
13.0,0.0588497668504715
14.0,0.05838603898882866
15.0,0.057940032333135605
16.0,0.05751792713999748
18.0,0.05670789256691933
20.0,0.05588192865252495
22.0,0.05503169447183609
24.0,0.05419798195362091
26.0,0.05332927033305168
28.0,0.052504703402519226
30.0,0.051752589643001556
32.0,0.05104288458824158
36.0,0.04971129819750786
40.0,0.04846392571926117
44.0,0.04724312573671341
48.0,0.04601830616593361
52.0,0.044922299683094025
56.0,0.04382014647126198
60.0,0.04275604337453842
64.0,0.0416867695748806
72.0,0.039583198726177216
80.0,0.037563059478998184
88.0,0.035790253430604935
96.0,0.03419584035873413
104.0,0.032791867852211
112.0,0.031443316489458084
120.0,0.03016982227563858
128.0,0.02887893281877041
144.0,0.02627106010913849
160.0,0.023862892761826515
176.0,0.021609051153063774
192.0,0.019379859790205956
208.0,0.017335545271635056
224.0,0.015658153221011162
240.0,0.013963444158434868
256.0,0.01236624177545309
288.0,0.009150111116468906
320.0,0.0073036812245845795
352.0,0.005551054608076811
384.0,0.005128615070134401
416.0,0.004773381166160107
448.0,0.0043229106813669205
480.0,0.005469095893204212
512.0,0.007571428548544645
576.0,0.010518034920096397
640.0,0.011044797487556934
704.0,0.010657851584255695
768.0,0.009696340188384056
832.0,0.00646703876554966
896.0,0.0033861182164400816
960.0,0.005170302465558052
1024.0,0.008498533628880978
1152.0,0.01469885092228651
1280.0,0.018431421369314194
1408.0,0.014470006339251995
1536.0,0.009786318987607956
1664.0,0.007585040293633938
1792.0,0.008679639548063278
1920.0,0.013532590121030807
2048.0,0.008112451992928982
2304.0,0.010500576347112656
2560.0,0.014369446784257889
2816.0,-0.005066975019872189
3072.0,-0.002750552725046873
3328.0,-0.000473040621727705
3584.0,0.0025438389275223017
3840.0,0.004083727486431599
4096.0,-0.0011769048869609833
4608.0,-0.015263305976986885
5120.0,-0.009340498596429825
5632.0,-0.010501264594495296
6144.0,-0.016041100025177002
6656.0,-0.020212780684232712
7168.0,-0.014058534055948257
7680.0,-0.008731752634048462
8192.0,-0.015597622841596603
end
