version,3.0
numOfCh,1
type,point
parent_name,714af_0dot08-0dot1
ch_type,1_1
kcount,1
numberNandB,1
brightnessNandB,1
carpet pos,0
pc,0
Time (ms),CH1 Auto-Correlation
1.0,0.0651121512055397
2.0,0.06454994529485703
3.0,0.06398731470108032
4.0,0.06343591958284378
5.0,0.0629042312502861
6.0,0.062380388379096985
7.0,0.061853453516960144
8.0,0.06132481247186661
9.0,0.06079647317528725
10.0,0.06026957184076309
11.0,0.05974423140287399
12.0,0.05921689420938492
13.0,0.05870015174150467
14.0,0.058194924145936966
15.0,0.05768568813800812
16.0,0.05717633664608002
18.0,0.056164588779211044
20.0,0.05519317090511322
22.0,0.05424705147743225
24.0,0.05333994701504707
26.0,0.052472908049821854
28.0,0.0516529344022274
30.0,0.05084643140435219
32.0,0.050072081387043
36.0,0.048604488372802734
40.0,0.047181759029626846
44.0,0.04582970216870308
48.0,0.044562723487615585
52.0,0.04334484413266182
56.0,0.0421832837164402
60.0,0.04108390584588051
64.0,0.039978280663490295
72.0,0.03802516311407089
80.0,0.03630964830517769
88.0,0.03461899608373642
96.0,0.03287237882614136
104.0,0.031310077756643295
112.0,0.030008045956492424
120.0,0.028965536504983902
128.0,0.02813096158206463
144.0,0.02608041651546955
160.0,0.02353116124868393
176.0,0.021367505192756653
192.0,0.019755316898226738
208.0,0.018006056547164917
224.0,0.016894904896616936
240.0,0.016723642125725746
256.0,0.01729896292090416
288.0,0.01790253072977066
320.0,0.01740911602973938
352.0,0.016046037897467613
384.0,0.014432061463594437
416.0,0.013504134491086006
448.0,0.0123206228017807
480.0,0.010277570225298405
512.0,0.009443096816539764
576.0,0.008917814120650291
640.0,0.00529819680377841
704.0,0.0040980917401611805
768.0,0.0028685948345810175
832.0,0.0007037378381937742
896.0,0.001048658392392099
960.0,0.00016592541942372918
1024.0,-0.0014165497850626707
1152.0,-0.00464637391269207
1280.0,-0.0023886917624622583
1408.0,-0.0004817672015633434
1536.0,0.0005590258515439928
1664.0,0.0010636798106133938
1792.0,0.0016726510366424918
1920.0,-0.001885166740976274
2048.0,-0.0004803839256055653
2304.0,-6.988883251324296e-05
2560.0,-0.000351891852915287
2816.0,-0.006022808142006397
3072.0,-0.0019432498374953866
3328.0,0.001995122293010354
3584.0,0.0008634771220386028
3840.0,0.001566924387589097
4096.0,0.002986925421282649
4608.0,0.002530238591134548
5120.0,0.006621445529162884
5632.0,0.0035921940580010414
6144.0,0.0012908315984532237
6656.0,0.0029471979942172766
7168.0,-0.0014235088601708412
7680.0,-0.013706663623452187
8192.0,-0.01486103143543005
end
