version,3.0
numOfCh,1
type,point
parent_name,714af_0dot08-0dot1
ch_type,1_1
kcount,1
numberNandB,1
brightnessNandB,1
carpet pos,0
pc,0
Time (ms),CH1 Auto-Correlation
1.0,0.05718269571661949
2.0,0.05668076127767563
3.0,0.05619579181075096
4.0,0.05572095885872841
5.0,0.05526432394981384
6.0,0.05482736602425575
7.0,0.05439052730798721
8.0,0.053969644010066986
9.0,0.05353788658976555
10.0,0.05312275514006615
11.0,0.0527031309902668
12.0,0.0522957406938076
13.0,0.051896121352910995
14.0,0.05149614065885544
15.0,0.051097698509693146
16.0,0.050706345587968826
18.0,0.04994812607765198
20.0,0.04922383651137352
22.0,0.04852956533432007
24.0,0.04787281155586243
26.0,0.0472368560731411
28.0,0.04663129895925522
30.0,0.04607455059885979
32.0,0.045542266219854355
36.0,0.04462774842977524
40.0,0.04369005933403969
44.0,0.042719606310129166
48.0,0.04174964502453804
52.0,0.04080764949321747
56.0,0.03991381451487541
60.0,0.03900521621108055
64.0,0.038115035742521286
72.0,0.03644658252596855
80.0,0.03492559492588043
88.0,0.03360573574900627
96.0,0.0323515385389328
104.0,0.031039295718073845
112.0,0.029693525284528732
120.0,0.02839520201086998
128.0,0.02705753967165947
144.0,0.024422720074653625
160.0,0.022126324474811554
176.0,0.020004943013191223
192.0,0.018098512664437294
208.0,0.016452936455607414
224.0,0.01478570420295
240.0,0.013339984230697155
256.0,0.012010778300464153
288.0,0.009248489513993263
320.0,0.007039305288344622
352.0,0.005034985486418009
384.0,0.0024299658834934235
416.0,0.0001620865659788251
448.0,-0.0013341476442292333
480.0,-0.0020584086887538433
512.0,-0.0024622369091957808
576.0,-0.0010582125978544354
640.0,0.0021918597631156445
704.0,0.0034789047203958035
768.0,0.003975394647568464
832.0,0.0027961814776062965
896.0,0.002919522114098072
960.0,0.003499590791761875
1024.0,0.002030106959864497
1152.0,-0.004073981195688248
1280.0,-0.005385126918554306
1408.0,-0.0065276301465928555
1536.0,-0.002403826452791691
1664.0,0.005080884322524071
1792.0,0.0065479283221066
1920.0,0.006379586644470692
2048.0,0.004848380107432604
2304.0,0.000942641927395016
2560.0,0.0071482062339782715
2816.0,0.0013582127867266536
3072.0,-0.0044154818169772625
3328.0,-0.001927705598063767
3584.0,0.001937352353706956
3840.0,-0.002108893124386668
4096.0,-0.007270864211022854
4608.0,0.0019498806213960052
5120.0,-0.0018063841853290796
5632.0,-0.004608314950019121
6144.0,-0.008488411083817482
6656.0,-0.01060221903026104
7168.0,0.004737989977002144
7680.0,0.0018705943366512656
8192.0,0.0020259045995771885
end
