version,3.0
numOfCh,1
type,point
parent_name,714af_0dot08-0dot1
ch_type,1_1
kcount,1
numberNandB,1
brightnessNandB,1
carpet pos,0
pc,0
Time (ms),CH1 Auto-Correlation
1.0,0.06895891577005386
2.0,0.06837335228919983
3.0,0.06779580563306808
4.0,0.06723024696111679
5.0,0.06668661534786224
6.0,0.06616252660751343
7.0,0.06564024090766907
8.0,0.06513263285160065
9.0,0.0646241083741188
10.0,0.06411869823932648
11.0,0.06361203640699387
12.0,0.06309716403484344
13.0,0.06259394437074661
14.0,0.06209704279899597
15.0,0.061611879616975784
16.0,0.06112214922904968
18.0,0.06015776842832565
20.0,0.059256743639707565
22.0,0.05837731435894966
24.0,0.05751745030283928
26.0,0.05667451024055481
28.0,0.055853769183158875
30.0,0.055070798844099045
32.0,0.054322510957717896
36.0,0.052893947809934616
40.0,0.05156379193067551
44.0,0.05027848482131958
48.0,0.04903620108962059
52.0,0.04792594164609909
56.0,0.046907734125852585
60.0,0.04592537134885788
64.0,0.044998668134212494
72.0,0.04307534173130989
80.0,0.041350603103637695
88.0,0.03987940400838852
96.0,0.03847701475024223
104.0,0.036983929574489594
112.0,0.03547007218003273
120.0,0.03400145098567009
128.0,0.03247322514653206
144.0,0.03033401444554329
160.0,0.02869618497788906
176.0,0.027644025161862373
192.0,0.02702692523598671
208.0,0.026203075423836708
224.0,0.02446310594677925
240.0,0.02284282073378563
256.0,0.02177741564810276
288.0,0.019857341423630714
320.0,0.01873680390417576
352.0,0.01900169439613819
384.0,0.018328072503209114
416.0,0.017145561054348946
448.0,0.01505016628652811
480.0,0.012712208554148674
512.0,0.01029957178980112
576.0,0.00825583841651678
640.0,0.004888215102255344
704.0,0.0010731153888627887
768.0,-3.138897227472626e-05
832.0,-8.404921391047537e-05
896.0,-0.0008891848847270012
960.0,0.0002039029059233144
1024.0,-0.0015037062112241983
1152.0,0.0018552221590653062
1280.0,0.004890460520982742
1408.0,0.0013075709575787187
1536.0,0.0005847006686963141
1664.0,-0.0031832531094551086
1792.0,-0.011852004565298557
1920.0,-0.017700007185339928
2048.0,-0.024477263912558556
2304.0,-0.030260097235441208
2560.0,-0.02119673229753971
2816.0,-0.016844531521201134
3072.0,-0.006698593031615019
3328.0,-0.007541681174188852
3584.0,-0.0036777991335839033
3840.0,0.005854667164385319
4096.0,0.013896008022129536
4608.0,0.01756836287677288
5120.0,0.018663594499230385
5632.0,0.00473634572699666
6144.0,-0.008744833990931511
6656.0,-0.009842656552791595
7168.0,-0.014356502331793308
7680.0,-0.010273558087646961
8192.0,-0.006325035821646452
end
