version,3.0
numOfCh,1
type,point
parent_name,714af_0dot08-0dot1
ch_type,1_1
kcount,1
numberNandB,1
brightnessNandB,1
carpet pos,0
pc,0
Time (ms),CH1 Auto-Correlation
1.0,0.07915686815977097
2.0,0.07852454483509064
3.0,0.07794366031885147
4.0,0.07738889753818512
5.0,0.07683614641427994
6.0,0.07628299295902252
7.0,0.07574421167373657
8.0,0.07521696388721466
9.0,0.07469312846660614
10.0,0.0741649642586708
11.0,0.07367165386676788
12.0,0.07317421585321426
13.0,0.07271792739629745
14.0,0.07226019352674484
15.0,0.07181543111801147
16.0,0.07137390971183777
18.0,0.07048479467630386
20.0,0.06959541887044907
22.0,0.06879574805498123
24.0,0.068040631711483
26.0,0.06728989630937576
28.0,0.06655944883823395
30.0,0.06583224982023239
32.0,0.06507367640733719
36.0,0.06354507803916931
40.0,0.06209765002131462
44.0,0.06076040491461754
48.0,0.059414349496364594
52.0,0.05816682428121567
56.0,0.05704353377223015
60.0,0.05605168640613556
64.0,0.05510682612657547
72.0,0.053559280931949615
80.0,0.052153196185827255
88.0,0.051121339201927185
96.0,0.050218772143125534
104.0,0.04932920262217522
112.0,0.04825567081570625
120.0,0.04738810285925865
128.0,0.046543072909116745
144.0,0.045003779232501984
160.0,0.043487973511219025
176.0,0.04202953353524208
192.0,0.04106022045016289
208.0,0.04047567769885063
224.0,0.03924905136227608
240.0,0.03788486868143082
256.0,0.03593319654464722
288.0,0.03293103352189064
320.0,0.03212551027536392
352.0,0.031674955040216446
384.0,0.029436003416776657
416.0,0.026969950646162033
448.0,0.025382936000823975
480.0,0.02258923649787903
512.0,0.02106628380715847
576.0,0.018893757835030556
640.0,0.016055185347795486
704.0,0.014498467557132244
768.0,0.014647029340267181
832.0,0.012241167016327381
896.0,0.007229694165289402
960.0,0.004211655352264643
1024.0,0.002532494254410267
1152.0,-0.0006880958680994809
1280.0,-0.0008724879589863122
1408.0,-0.0016134842298924923
1536.0,-0.0021973152179270983
1664.0,-0.0012861840659752488
1792.0,0.000429134612204507
1920.0,0.0021497372072190046
2048.0,0.0026670668739825487
2304.0,0.0024911595974117517
2560.0,-0.00026963133132085204
2816.0,-0.00014752752031199634
3072.0,-0.005912476219236851
3328.0,-0.015503264032304287
3584.0,-0.02033432014286518
3840.0,-0.02464481070637703
4096.0,-0.02501959539949894
4608.0,-0.018292751163244247
5120.0,-0.0041346242651343346
5632.0,-0.0045252167619764805
6144.0,-0.008491747081279755
6656.0,-0.005157206207513809
7168.0,0.008787116967141628
7680.0,0.01509405579417944
8192.0,0.01846652664244175
end
