version,3.0
numOfCh,1
type,point
parent_name,714af_0dot08-0dot1
ch_type,1_1
kcount,1
numberNandB,1
brightnessNandB,1
carpet pos,0
pc,0
Time (ms),CH1 Auto-Correlation
1.0,0.09097936749458313
2.0,0.0892808735370636
3.0,0.08773300796747208
4.0,0.0857989564538002
5.0,0.08414711058139801
6.0,0.08264857530593872
7.0,0.08130049705505371
8.0,0.08027661591768265
9.0,0.07914387434720993
10.0,0.0782298669219017
11.0,0.07746797800064087
12.0,0.07629549503326416
13.0,0.07565856724977493
14.0,0.07514254003763199
15.0,0.07445577532052994
16.0,0.07395071536302567
18.0,0.07202345132827759
20.0,0.06989015638828278
22.0,0.06766492873430252
24.0,0.06580454111099243
26.0,0.06497566401958466
28.0,0.06414762139320374
30.0,0.06340786814689636
32.0,0.06278282403945923
36.0,0.06160350143909454
40.0,0.06015084311366081
44.0,0.05869552865624428
48.0,0.05712829902768135
52.0,0.05564027652144432
56.0,0.05415605381131172
60.0,0.0526004321873188
64.0,0.051081590354442596
72.0,0.048685718327760696
80.0,0.046904873102903366
88.0,0.04478982090950012
96.0,0.04243607446551323
104.0,0.04026540368795395
112.0,0.03814971074461937
120.0,0.03632188215851784
128.0,0.03481782600283623
144.0,0.03214264288544655
160.0,0.02933385595679283
176.0,0.02560809627175331
192.0,0.02164302207529545
208.0,0.017357639968395233
224.0,0.015722883865237236
240.0,0.013907276093959808
256.0,0.013212133198976517
288.0,0.011491108685731888
320.0,0.009801782667636871
352.0,0.008576100692152977
384.0,0.0075724744237959385
416.0,0.0047898790799081326
448.0,0.002167239086702466
480.0,0.0010964424582198262
512.0,0.00033733726013451815
576.0,-0.003411633428186178
640.0,-0.007002549711614847
704.0,-0.00823331531137228
768.0,-0.00954376719892025
832.0,-0.011366487480700016
896.0,-0.012798422016203403
960.0,-0.011616929434239864
1024.0,-0.011420756578445435
1152.0,-0.01710907369852066
1280.0,-0.016081558540463448
1408.0,-0.005560485180467367
1536.0,-0.00238265423104167
1664.0,0.0003122528432868421
1792.0,0.006962296552956104
1920.0,0.006766319740563631
2048.0,-0.0012235302710905671
2304.0,-0.006309456191956997
2560.0,-0.0016786758787930012
2816.0,-0.0017673949478194118
3072.0,-0.009775813668966293
3328.0,-0.003736857557669282
3584.0,-0.001360742375254631
3840.0,0.0010413029231131077
4096.0,0.010128735564649105
4608.0,0.007098909933120012
5120.0,-0.0058087753131985664
5632.0,-0.005460553336888552
6144.0,-0.007926331833004951
6656.0,-0.008291201665997505
7168.0,0.010570747777819633
7680.0,0.004965625237673521
8192.0,0.0016536122420802712
end
