version,3.0
numOfCh,1
type,point
parent_name,714af_0dot08-0dot1
ch_type,1_1
kcount,1
numberNandB,1
brightnessNandB,1
carpet pos,0
pc,0
Time (ms),CH1 Auto-Correlation
1.0,0.045487482100725174
2.0,0.04497423768043518
3.0,0.04447407275438309
4.0,0.04398994520306587
5.0,0.04351361468434334
6.0,0.04303446039557457
7.0,0.04255971312522888
8.0,0.04209258407354355
9.0,0.04164519160985947
10.0,0.041206244379282
11.0,0.04076310992240906
12.0,0.04031987860798836
13.0,0.039890579879283905
14.0,0.039470892399549484
15.0,0.039054688066244125
16.0,0.03865703567862511
18.0,0.03789873421192169
20.0,0.03712901845574379
22.0,0.03633587434887886
24.0,0.035543642938137054
26.0,0.03479035943746567
28.0,0.034052055329084396
30.0,0.033344198018312454
32.0,0.03267650678753853
36.0,0.03142654523253441
40.0,0.030297255143523216
44.0,0.029204219579696655
48.0,0.0281442292034626
52.0,0.027193835005164146
56.0,0.026267047971487045
60.0,0.025355299934744835
64.0,0.024503689259290695
72.0,0.022753465920686722
80.0,0.021234935149550438
88.0,0.019912760704755783
96.0,0.01864676922559738
104.0,0.01742161624133587
112.0,0.01621406525373459
120.0,0.014995104633271694
128.0,0.013897118158638477
144.0,0.012455922551453114
160.0,0.01127504650503397
176.0,0.009541245177388191
192.0,0.008431525900959969
208.0,0.007835131138563156
224.0,0.007081922609359026
240.0,0.0061442116275429726
256.0,0.005489995703101158
288.0,0.00403570244088769
320.0,0.00412544421851635
352.0,0.0038887003902345896
384.0,0.004249705001711845
416.0,0.00411022687330842
448.0,0.0031555560417473316
480.0,0.0031894093845039606
512.0,0.0034474676940590143
576.0,0.002792683895677328
640.0,0.0012416127137839794
704.0,0.0008210900123231113
768.0,9.402159776072949e-05
832.0,0.0010516347829252481
896.0,0.0023995358496904373
960.0,0.0029368035029619932
1024.0,0.0022053855936974287
1152.0,0.0011130216298624873
1280.0,0.00031239332747645676
1408.0,-0.00149902468547225
1536.0,-0.0017538247630000114
1664.0,-0.0011187162017449737
1792.0,-0.0018735283520072699
1920.0,-0.0009274170151911676
2048.0,0.00010148504952667281
2304.0,-0.00030242151115089655
2560.0,-0.006045359652489424
2816.0,-0.00548899918794632
3072.0,-0.004214028362184763
3328.0,0.004560060799121857
3584.0,0.0027898179832845926
3840.0,0.0066738435998559
4096.0,0.002831261372193694
4608.0,-0.001193134463392198
5120.0,-0.0005272200214676559
5632.0,-0.0009336000657640398
6144.0,-0.0018985114293172956
6656.0,-0.0029966875445097685
7168.0,0.001245205639861524
7680.0,0.002694458235055208
8192.0,0.00021582456247415394
end
