version,3.0
numOfCh,1
type,point
parent_name,714af_0dot08-0dot1
ch_type,1_1
kcount,1
numberNandB,1
brightnessNandB,1
carpet pos,0
pc,0
Time (ms),CH1 Auto-Correlation
1.0,0.06936205923557281
2.0,0.06864709407091141
3.0,0.06796620786190033
4.0,0.067295141518116
5.0,0.06664363294839859
6.0,0.0660276710987091
7.0,0.0654161274433136
8.0,0.06484495848417282
9.0,0.06426476687192917
10.0,0.06367996335029602
11.0,0.06314107030630112
12.0,0.06262624263763428
13.0,0.062101930379867554
14.0,0.06158091872930527
15.0,0.06108420714735985
16.0,0.06061196327209473
18.0,0.05961861088871956
20.0,0.058657921850681305
22.0,0.05768765136599541
24.0,0.05668108910322189
26.0,0.055686261504888535
28.0,0.05471831187605858
30.0,0.05379738286137581
32.0,0.05293216183781624
36.0,0.05134953185915947
40.0,0.049841661006212234
44.0,0.04849288612604141
48.0,0.04711928591132164
52.0,0.04567890986800194
56.0,0.044389255344867706
60.0,0.043177083134651184
64.0,0.041994497179985046
72.0,0.03988640755414963
80.0,0.03806440532207489
88.0,0.036514610052108765
96.0,0.03496108949184418
104.0,0.033626142889261246
112.0,0.03258159011602402
120.0,0.03137941658496857
128.0,0.029949840158224106
144.0,0.027039792388677597
160.0,0.025034863501787186
176.0,0.022908929735422134
192.0,0.020992577075958252
208.0,0.01966519095003605
224.0,0.01862332783639431
240.0,0.0180917140096426
256.0,0.017340313643217087
288.0,0.015827370807528496
320.0,0.014538760297000408
352.0,0.013637794181704521
384.0,0.012578546069562435
416.0,0.010304825380444527
448.0,0.010293339379131794
480.0,0.010472345165908337
512.0,0.009548910893499851
576.0,0.003732775803655386
640.0,0.00143179832957685
704.0,-0.0025282674469053745
768.0,-0.0029556427616626024
832.0,-0.006704752799123526
896.0,-0.008160573430359364
960.0,-0.007432571146637201
1024.0,-0.005480495281517506
1152.0,-0.004247793462127447
1280.0,-0.0032381198834627867
1408.0,-0.001942547271028161
1536.0,-0.0014755803858861327
1664.0,-0.002639640122652054
1792.0,0.00029022854869253933
1920.0,-0.004616264253854752
2048.0,-0.008360677398741245
2304.0,0.0003905644698534161
2560.0,0.004736598581075668
2816.0,0.005175902508199215
3072.0,-0.001504359650425613
3328.0,0.006639077793806791
3584.0,-0.0012621816713362932
3840.0,0.004439379088580608
4096.0,0.00507123488932848
4608.0,-0.009124216623604298
5120.0,-0.003319874405860901
5632.0,0.007933343760669231
6144.0,-0.014589067548513412
6656.0,-0.011297744698822498
7168.0,0.0017695132410153747
7680.0,0.0044094715267419815
8192.0,0.008170891553163528
end
