version,3.0
numOfCh,1
type,point
parent_name,714af_0dot08-0dot1
ch_type,1_1
kcount,1
numberNandB,1
brightnessNandB,1
carpet pos,0
pc,0
Time (ms),CH1 Auto-Correlation
1.0,0.047753818333148956
2.0,0.04714365676045418
3.0,0.04658353701233864
4.0,0.04606021195650101
5.0,0.045539312064647675
6.0,0.0450315847992897
7.0,0.04454255476593971
8.0,0.044081639498472214
9.0,0.0436069555580616
10.0,0.04313946142792702
11.0,0.042650751769542694
12.0,0.04218807816505432
13.0,0.041746705770492554
14.0,0.04131593182682991
15.0,0.040878016501665115
16.0,0.04045042768120766
18.0,0.03960326313972473
20.0,0.03877115249633789
22.0,0.03791074454784393
24.0,0.03706701099872589
26.0,0.03623351454734802
28.0,0.03538885712623596
30.0,0.034577660262584686
32.0,0.03380729258060455
36.0,0.03234605863690376
40.0,0.03095840848982334
44.0,0.029632877558469772
48.0,0.028303388506174088
52.0,0.02702278085052967
56.0,0.02581842429935932
60.0,0.024608634412288666
64.0,0.023401502519845963
72.0,0.02134341187775135
80.0,0.019621966406702995
88.0,0.018169745802879333
96.0,0.01679902710020542
104.0,0.015414135530591011
112.0,0.01422362681478262
120.0,0.013234877027571201
128.0,0.012084763497114182
144.0,0.010112295858561993
160.0,0.00846219900995493
176.0,0.007391211111098528
192.0,0.007131349761039019
208.0,0.007261472754180431
224.0,0.006977059878408909
240.0,0.006782204378396273
256.0,0.0065377200953662395
288.0,0.006117860786616802
320.0,0.004853455349802971
352.0,0.002804380375891924
384.0,0.0013812135439366102
416.0,0.0010393708944320679
448.0,0.0009278481593355536
480.0,0.0011182897724211216
512.0,0.0017799155320972204
576.0,0.0011947059538215399
640.0,0.00279593444429338
704.0,0.005033839959651232
768.0,0.004351411946117878
832.0,0.004487364087253809
896.0,0.004445322323590517
960.0,0.0008017482468858361
1024.0,-0.002415593946352601
1152.0,0.0009048925130628049
1280.0,0.002224734053015709
1408.0,0.0012451527873054147
1536.0,-0.0020446202252060175
1664.0,0.0028079713229089975
1792.0,0.003322780365124345
1920.0,0.0012218261836096644
2048.0,0.002312622033059597
2304.0,0.001078324974514544
2560.0,-0.0009650157298892736
2816.0,-0.006196277681738138
3072.0,-0.003045556601136923
3328.0,-0.007812770083546638
3584.0,-0.003847686108201742
3840.0,-0.005921413656324148
4096.0,-0.003052393440157175
4608.0,-0.0007008709944784641
5120.0,0.0011749279219657183
5632.0,-0.0005969895282760262
6144.0,0.001322148134931922
6656.0,0.00352832255885005
7168.0,0.0005557651165872812
7680.0,-0.0007013716967776418
8192.0,-0.007377112749963999
end
