version,3.0
numOfCh,1
type,point
parent_name,714af_0dot08-0dot1
ch_type,1_1
kcount,1
numberNandB,1
brightnessNandB,1
carpet pos,0
pc,0
Time (ms),CH1 Auto-Correlation
1.0,0.059179116040468216
2.0,0.058179035782814026
3.0,0.057204391807317734
4.0,0.056155841797590256
5.0,0.05528973788022995
6.0,0.05430399626493454
7.0,0.05339878052473068
8.0,0.052738893777132034
9.0,0.05175842344760895
10.0,0.05064578726887703
11.0,0.04958776757121086
12.0,0.04846809431910515
13.0,0.047681961208581924
14.0,0.04686620831489563
15.0,0.04600698873400688
16.0,0.04531863331794739
18.0,0.04381558671593666
20.0,0.0427834615111351
22.0,0.04206966236233711
24.0,0.04138939827680588
26.0,0.0407467819750309
28.0,0.04015210270881653
30.0,0.039593636989593506
32.0,0.039037227630615234
36.0,0.037877872586250305
40.0,0.036834221333265305
44.0,0.03575495257973671
48.0,0.034598249942064285
52.0,0.03367239609360695
56.0,0.03283807635307312
60.0,0.03193910792469978
64.0,0.03118794411420822
72.0,0.02965538576245308
80.0,0.027760518714785576
88.0,0.025832634419202805
96.0,0.024155445396900177
104.0,0.022840363904833794
112.0,0.02186720445752144
120.0,0.0210578590631485
128.0,0.020474988967180252
144.0,0.01892094500362873
160.0,0.01763453334569931
176.0,0.015962835401296616
192.0,0.014428858645260334
208.0,0.013555704616010189
224.0,0.0128833819180727
240.0,0.012280547991394997
256.0,0.01148083433508873
288.0,0.011597298085689545
320.0,0.011292124167084694
352.0,0.010850482620298862
384.0,0.011682137846946716
416.0,0.012647592462599277
448.0,0.012164013460278511
480.0,0.010022308677434921
512.0,0.007043994497507811
576.0,0.0047332593239843845
640.0,0.006268466357141733
704.0,0.00932077132165432
768.0,0.010897492058575153
832.0,0.011517646722495556
896.0,0.009995033033192158
960.0,0.006250019650906324
1024.0,0.003523910418152809
1152.0,0.0012695689219981432
1280.0,-0.003378908382728696
1408.0,-0.005853519309312105
1536.0,-0.0051376535557210445
1664.0,-0.003819896373897791
1792.0,-0.0054868292063474655
1920.0,-0.004486120771616697
2048.0,-0.004685563035309315
2304.0,-0.00865515973418951
2560.0,-0.012199965305626392
2816.0,-0.008399001322686672
3072.0,-0.0034498716704547405
3328.0,-0.005161806475371122
3584.0,0.0011686289217323065
3840.0,0.0064241462387144566
4096.0,0.008388678543269634
4608.0,0.005730037111788988
5120.0,0.0020802572835236788
5632.0,-0.004947501700371504
6144.0,-0.005573449656367302
6656.0,-0.005289191845804453
7168.0,0.004513237625360489
7680.0,0.004148820880800486
8192.0,0.009649301879107952
end
