version,3.0
numOfCh,1
type,point
parent_name,714af_0dot08-0dot1
ch_type,1_1
kcount,1
numberNandB,1
brightnessNandB,1
carpet pos,0
pc,0
Time (ms),CH1 Auto-Correlation
1.0,0.054000984877347946
2.0,0.05351175740361214
3.0,0.053036950528621674
4.0,0.052584730088710785
5.0,0.052138008177280426
6.0,0.051687661558389664
7.0,0.05125140771269798
8.0,0.05082487314939499
9.0,0.05039512738585472
10.0,0.0499732680618763
11.0,0.049562618136405945
12.0,0.049164067953825
13.0,0.04879014939069748
14.0,0.04841635003685951
15.0,0.04804868996143341
16.0,0.04769492521882057
18.0,0.04699135571718216
20.0,0.046317845582962036
22.0,0.04568090662360191
24.0,0.04505697265267372
26.0,0.04445619881153107
28.0,0.043883066624403
30.0,0.043318476527929306
32.0,0.04276396334171295
36.0,0.04173435643315315
40.0,0.04071151465177536
44.0,0.03975265100598335
48.0,0.03884120658040047
52.0,0.03802001103758812
56.0,0.0372459702193737
60.0,0.036447878926992416
64.0,0.03564939647912979
72.0,0.0342579260468483
80.0,0.032925721257925034
88.0,0.031545206904411316
96.0,0.03033262863755226
104.0,0.02926488220691681
112.0,0.028273237869143486
120.0,0.02735007368028164
128.0,0.02669052593410015
144.0,0.02577083930373192
160.0,0.02480083517730236
176.0,0.023676294833421707
192.0,0.022385025396943092
208.0,0.021384531632065773
224.0,0.020476477220654488
240.0,0.018951714038848877
256.0,0.017610203474760056
288.0,0.016357125714421272
320.0,0.014518828131258488
352.0,0.012245647609233856
384.0,0.01004539430141449
416.0,0.008690610527992249
448.0,0.008111671544611454
480.0,0.007930253632366657
512.0,0.008604871109127998
576.0,0.00872325524687767
640.0,0.009968278929591179
704.0,0.01006148848682642
768.0,0.010155124589800835
832.0,0.009675188921391964
896.0,0.008514146320521832
960.0,0.0051764678210020065
1024.0,0.001382768270559609
1152.0,-0.0033685145899653435
1280.0,-0.004966610111296177
1408.0,-0.0029951364267617464
1536.0,0.0014349971897900105
1664.0,0.005208803806453943
1792.0,0.00486956350505352
1920.0,0.003779863240197301
2048.0,0.006260850932449102
2304.0,0.007379637565463781
2560.0,0.012013597413897514
2816.0,0.006489744875580072
3072.0,-0.0006847009062767029
3328.0,-0.0025572546292096376
3584.0,-0.0011030940804630518
3840.0,-0.006876628380268812
4096.0,-0.0029969653114676476
4608.0,0.0012076933635398746
5120.0,0.0051854862831532955
5632.0,-0.003599858144298196
6144.0,-0.007809431292116642
6656.0,0.002325484761968255
7168.0,0.006619477644562721
7680.0,0.004796937573701143
8192.0,-0.004319081082940102
end
