version,3.0
numOfCh,1
type,point
parent_name,714af_0dot08-0dot1
ch_type,1_1
kcount,1
numberNandB,1
brightnessNandB,1
carpet pos,0
pc,0
Time (ms),CH1 Auto-Correlation
1.0,0.07462965697050095
2.0,0.07396234571933746
3.0,0.07333779335021973
4.0,0.07274768501520157
5.0,0.07217823714017868
6.0,0.07159705460071564
7.0,0.07102194428443909
8.0,0.07047662138938904
9.0,0.06994233280420303
10.0,0.06939990818500519
11.0,0.06885335594415665
12.0,0.0683351680636406
13.0,0.06784343719482422
14.0,0.06736653298139572
15.0,0.06688355654478073
16.0,0.0664023905992508
18.0,0.06546730548143387
20.0,0.06450670957565308
22.0,0.06355626881122589
24.0,0.06268589198589325
26.0,0.06186014041304588
28.0,0.061072781682014465
30.0,0.06029785796999931
32.0,0.05959245562553406
36.0,0.05820766091346741
40.0,0.05682802200317383
44.0,0.0554865300655365
48.0,0.054188281297683716
52.0,0.05294163152575493
56.0,0.051676902920007706
60.0,0.05042772740125656
64.0,0.04905959218740463
72.0,0.046505991369485855
80.0,0.044367317110300064
88.0,0.0425264947116375
96.0,0.04090596362948418
104.0,0.0391874723136425
112.0,0.037601616233587265
120.0,0.0360812172293663
128.0,0.03462285175919533
144.0,0.03225012496113777
160.0,0.03063156083226204
176.0,0.029194870963692665
192.0,0.027500584721565247
208.0,0.026118837296962738
224.0,0.024989740923047066
240.0,0.02377471700310707
256.0,0.023281121626496315
288.0,0.021651800721883774
320.0,0.01962300017476082
352.0,0.017804326489567757
384.0,0.016727807000279427
416.0,0.01620407961308956
448.0,0.016612887382507324
480.0,0.01723071187734604
512.0,0.01718420535326004
576.0,0.014557248912751675
640.0,0.012959921732544899
704.0,0.012079987674951553
768.0,0.009912618435919285
832.0,0.009616158902645111
896.0,0.011370687745511532
960.0,0.011674783192574978
1024.0,0.011838052421808243
1152.0,0.01418332476168871
1280.0,0.01943628489971161
1408.0,0.016674932092428207
1536.0,0.015873795375227928
1664.0,0.015062178485095501
1792.0,0.009085740894079208
1920.0,0.00632065162062645
2048.0,0.0001277014089282602
2304.0,0.005955487955361605
2560.0,0.012486910447478294
2816.0,0.00700862193480134
3072.0,-0.0024636988528072834
3328.0,-0.017324186861515045
3584.0,-0.018598705530166626
3840.0,-0.007967916317284107
4096.0,0.0012252125889062881
4608.0,-0.018358416855335236
5120.0,-0.014238595962524414
5632.0,-0.016867179423570633
6144.0,-0.03348496928811073
6656.0,-0.009407415054738522
7168.0,-0.016156505793333054
7680.0,-0.01643904112279415
8192.0,0.005153499078005552
end
