version,3.0
numOfCh,1
type,point
parent_name,714af_0dot08-0dot1
ch_type,1_1
kcount,1
numberNandB,1
brightnessNandB,1
carpet pos,0
pc,0
Time (ms),CH1 Auto-Correlation
1.0,0.05185757204890251
2.0,0.05128438025712967
3.0,0.05073302984237671
4.0,0.0502055361866951
5.0,0.04968462884426117
6.0,0.04916214197874069
7.0,0.048681650310754776
8.0,0.04820020869374275
9.0,0.04772605374455452
10.0,0.047253284603357315
11.0,0.046784915030002594
12.0,0.04631194472312927
13.0,0.04584725573658943
14.0,0.045392852276563644
15.0,0.04494648799300194
16.0,0.044514141976833344
18.0,0.04366854578256607
20.0,0.04288794472813606
22.0,0.042169298976659775
24.0,0.04146723076701164
26.0,0.04081179201602936
28.0,0.04019922390580177
30.0,0.03961337357759476
32.0,0.03904515132308006
36.0,0.038004785776138306
40.0,0.03712242469191551
44.0,0.036241792142391205
48.0,0.035301998257637024
52.0,0.03432368487119675
56.0,0.03345683217048645
60.0,0.03262513875961304
64.0,0.03181231766939163
72.0,0.030211638659238815
80.0,0.028557518497109413
88.0,0.027014659717679024
96.0,0.02561349980533123
104.0,0.024213159456849098
112.0,0.023157328367233276
120.0,0.02232922799885273
128.0,0.02159564010798931
144.0,0.02026217058300972
160.0,0.01899689808487892
176.0,0.017931906506419182
192.0,0.01714853197336197
208.0,0.0164225734770298
224.0,0.015171101316809654
240.0,0.01443556323647499
256.0,0.013687239028513432
288.0,0.011096158996224403
320.0,0.008759908378124237
352.0,0.007104204036295414
384.0,0.006058467552065849
416.0,0.005220226012170315
448.0,0.004508031532168388
480.0,0.004399179946631193
512.0,0.0037722887936979532
576.0,0.0011015231721103191
640.0,-0.0015032885130494833
704.0,-0.0019479891052469611
768.0,-0.0021936220582574606
832.0,-0.002962313126772642
896.0,-0.0032069142907857895
960.0,-0.0028051184490323067
1024.0,-0.0018589685205370188
1152.0,-0.001563014928251505
1280.0,-0.001084045274183154
1408.0,-0.0009169833501800895
1536.0,-0.003017835784703493
1664.0,-0.003081785747781396
1792.0,-0.0017360609490424395
1920.0,-0.00037178306956775486
2048.0,0.003917301073670387
2304.0,0.006478975526988506
2560.0,0.001132069155573845
2816.0,0.0005831652088090777
3072.0,-0.0004969165311194956
3328.0,-0.0026888656429946423
3584.0,-0.003304684767499566
3840.0,-0.009588619694113731
4096.0,-0.012540311552584171
4608.0,-0.005181803833693266
5120.0,0.00022216975048650056
5632.0,0.0010304689640179276
6144.0,-0.010342252440750599
6656.0,-0.011283394880592823
7168.0,0.00406767288222909
7680.0,0.002899501472711563
8192.0,0.0015075383707880974
end
