version,3.0
numOfCh,1
type,point
parent_name,714af_0dot08-0dot1
ch_type,1_1
kcount,1
numberNandB,1
brightnessNandB,1
carpet pos,0
pc,0
Time (ms),CH1 Auto-Correlation
1.0,0.06408017873764038
2.0,0.06339307874441147
3.0,0.06272982805967331
4.0,0.06208202615380287
5.0,0.061475370079278946
6.0,0.0608866922557354
7.0,0.06033124774694443
8.0,0.05981215089559555
9.0,0.059295326471328735
10.0,0.05878441035747528
11.0,0.05828000605106354
12.0,0.05778704583644867
13.0,0.05730501189827919
14.0,0.05683569982647896
15.0,0.056386787444353104
16.0,0.05593585595488548
18.0,0.05498047545552254
20.0,0.05398808419704437
22.0,0.05306462571024895
24.0,0.052207887172698975
26.0,0.051360178738832474
28.0,0.05050981044769287
30.0,0.04968949034810066
32.0,0.04888857901096344
36.0,0.047494299709796906
40.0,0.04613855108618736
44.0,0.044763606041669846
48.0,0.043445393443107605
52.0,0.042230501770973206
56.0,0.04109230637550354
60.0,0.040089160203933716
64.0,0.03909480944275856
72.0,0.037080299109220505
80.0,0.035008370876312256
88.0,0.03314404562115669
96.0,0.03126407414674759
104.0,0.029709089547395706
112.0,0.028125125914812088
120.0,0.026718005537986755
128.0,0.025542428717017174
144.0,0.02365654893219471
160.0,0.022009722888469696
176.0,0.02061261050403118
192.0,0.019678382202982903
208.0,0.01933724246919155
224.0,0.019438855350017548
240.0,0.01965530589222908
256.0,0.01957516185939312
288.0,0.018986498937010765
320.0,0.017366908490657806
352.0,0.015586953610181808
384.0,0.012710142880678177
416.0,0.00935829896479845
448.0,0.006977740675210953
480.0,0.0046626306138932705
512.0,0.0032690849620848894
576.0,0.002114643342792988
640.0,-0.0009039146825671196
704.0,-0.003969763871282339
768.0,-0.004265190567821264
832.0,-0.0036091706715524197
896.0,-0.0040692416951060295
960.0,-0.005424956791102886
1024.0,-0.007397101726382971
1152.0,-0.005241872277110815
1280.0,-0.0010780023876577616
1408.0,-0.0021120025776326656
1536.0,-0.0013713599182665348
1664.0,-0.00015991914551705122
1792.0,-0.00023512242478318512
1920.0,-0.0012095243437215686
2048.0,1.6020827388274483e-05
2304.0,-6.826833123341203e-05
2560.0,0.0013222635025158525
2816.0,-0.005883606616407633
3072.0,-0.009954712353646755
3328.0,-0.0068881879560649395
3584.0,-0.0018649871926754713
3840.0,0.005065517500042915
4096.0,-0.0006098217563703656
4608.0,-0.0023647649213671684
5120.0,0.003220542799681425
5632.0,0.007149134762585163
6144.0,0.007371286861598492
6656.0,0.0035973736084997654
7168.0,-0.002982974983751774
7680.0,0.0018935591215267777
8192.0,-0.008483480662107468
end
