version,3.0
numOfCh,1
type,point
parent_name,714af_0dot08-0dot1
ch_type,1_1
kcount,1
numberNandB,1
brightnessNandB,1
carpet pos,0
pc,0
Time (ms),CH1 Auto-Correlation
1.0,0.08177842199802399
2.0,0.081089548766613
3.0,0.08041566610336304
4.0,0.07976400852203369
5.0,0.07914989441633224
6.0,0.07855788618326187
7.0,0.07796718180179596
8.0,0.07740262895822525
9.0,0.07684748619794846
10.0,0.07629115134477615
11.0,0.0757453665137291
12.0,0.07518784701824188
13.0,0.07466976344585419
14.0,0.07416827976703644
15.0,0.07368706166744232
16.0,0.07321549952030182
18.0,0.07232116162776947
20.0,0.0714225322008133
22.0,0.07055670022964478
24.0,0.06970078498125076
26.0,0.0689062625169754
28.0,0.06813131272792816
30.0,0.06738055497407913
32.0,0.06664234399795532
36.0,0.06529516726732254
40.0,0.06384894251823425
44.0,0.062310490757226944
48.0,0.06074954569339752
52.0,0.05930941551923752
56.0,0.057899072766304016
60.0,0.05651224032044411
64.0,0.055279918015003204
72.0,0.053087808191776276
80.0,0.05101560428738594
88.0,0.0490979440510273
96.0,0.047104377299547195
104.0,0.04499102011322975
112.0,0.04275483638048172
120.0,0.04048909619450569
128.0,0.038529202342033386
144.0,0.035185325890779495
160.0,0.03224959224462509
176.0,0.029677100479602814
192.0,0.027131004258990288
208.0,0.02475830726325512
224.0,0.022643087431788445
240.0,0.020601307973265648
256.0,0.018507057800889015
288.0,0.015311640687286854
320.0,0.014335116371512413
352.0,0.013499516062438488
384.0,0.012298855930566788
416.0,0.010205188766121864
448.0,0.009414262138307095
480.0,0.008677298203110695
512.0,0.0072519173845648766
576.0,0.003487156704068184
640.0,0.003958804067224264
704.0,0.0105725834146142
768.0,0.01613796129822731
832.0,0.016741996631026268
896.0,0.016590241342782974
960.0,0.014648985117673874
1024.0,0.01113844197243452
1152.0,0.0037271890323609114
1280.0,0.0013284103479236364
1408.0,0.0011679299641400576
1536.0,0.0003997099702246487
1664.0,0.0062761083245277405
1792.0,0.00820150040090084
1920.0,0.006241398397833109
2048.0,0.003919348120689392
2304.0,0.0015248398995026946
2560.0,-0.003374094609171152
2816.0,-0.01021772250533104
3072.0,-0.005060688592493534
3328.0,-0.001586674596183002
3584.0,-0.0017843032255768776
3840.0,0.006919614505022764
4096.0,0.010305751115083694
4608.0,-0.0027996061835438013
5120.0,-0.006118719466030598
5632.0,-0.007996223866939545
6144.0,-0.013904333114624023
6656.0,-0.00852502416819334
7168.0,-0.011354793794453144
7680.0,-0.012768931686878204
8192.0,-0.010076049715280533
end
