version,3.0
numOfCh,1
type,point
parent_name,714af_0dot08-0dot1
ch_type,1_1
kcount,1
numberNandB,1
brightnessNandB,1
carpet pos,0
pc,0
Time (ms),CH1 Auto-Correlation
1.0,0.13457530736923218
2.0,0.13052989542484283
3.0,0.1258436143398285
4.0,0.12124916166067123
5.0,0.11662868410348892
6.0,0.11264433711767197
7.0,0.10880256444215775
8.0,0.10489314794540405
9.0,0.10090963542461395
10.0,0.09707038104534149
11.0,0.09344476461410522
12.0,0.08911976963281631
13.0,0.08458808064460754
14.0,0.08025046437978745
15.0,0.07732542604207993
16.0,0.0742843896150589
18.0,0.07340262085199356
20.0,0.07245728373527527
22.0,0.07154455780982971
24.0,0.07076514512300491
26.0,0.0700066015124321
28.0,0.06916213780641556
30.0,0.06829597055912018
32.0,0.06741310656070709
36.0,0.06567613780498505
40.0,0.06442650407552719
44.0,0.06320154666900635
48.0,0.06188562884926796
52.0,0.06084129586815834
56.0,0.05986158177256584
60.0,0.05862262845039368
64.0,0.05736149474978447
72.0,0.055087026208639145
80.0,0.0534064881503582
88.0,0.05149541422724724
96.0,0.049183979630470276
104.0,0.04759689047932625
112.0,0.046216074377298355
120.0,0.045284949243068695
128.0,0.043669167906045914
144.0,0.0430682934820652
160.0,0.04164072126150131
176.0,0.039698146283626556
192.0,0.03765545040369034
208.0,0.03588813170790672
224.0,0.034604400396347046
240.0,0.03305989131331444
256.0,0.03139733895659447
288.0,0.030204012989997864
320.0,0.029181107878684998
352.0,0.02895095944404602
384.0,0.029387814924120903
416.0,0.029267942532896996
448.0,0.0274686086922884
480.0,0.024973826482892036
512.0,0.023175952956080437
576.0,0.021499067544937134
640.0,0.019806675612926483
704.0,0.020111780613660812
768.0,0.02016126923263073
832.0,0.017168963328003883
896.0,0.01264972984790802
960.0,0.012144744396209717
1024.0,0.012157377786934376
1152.0,0.011082183569669724
1280.0,0.011497163213789463
1408.0,0.014424614608287811
1536.0,0.015938296914100647
1664.0,0.006635291501879692
1792.0,0.0027022496797144413
1920.0,0.0032700065057724714
2048.0,0.001443569315597415
2304.0,-0.012930924072861671
2560.0,-0.013869372196495533
2816.0,-0.02182324416935444
3072.0,-0.011864112690091133
3328.0,-0.00725942850112915
3584.0,-0.014729553833603859
3840.0,-0.019655345007777214
4096.0,-0.020823361352086067
4608.0,-0.010144658386707306
5120.0,0.005424633622169495
5632.0,0.012805841863155365
6144.0,0.019062094390392303
6656.0,0.025384124368429184
7168.0,0.022723976522684097
7680.0,0.01271434873342514
8192.0,-0.006663915701210499
end
