version,3.0
numOfCh,1
type,point
parent_name,714af_0dot08-0dot1
ch_type,1_1
kcount,1
numberNandB,1
brightnessNandB,1
carpet pos,0
pc,0
Time (ms),CH1 Auto-Correlation
1.0,0.054385706782341
2.0,0.05372810363769531
3.0,0.053097572177648544
4.0,0.052513543516397476
5.0,0.05193549767136574
6.0,0.051382217556238174
7.0,0.050857048481702805
8.0,0.05035426467657089
9.0,0.049861613661050797
10.0,0.04938381165266037
11.0,0.048893559724092484
12.0,0.048419125378131866
13.0,0.04795331135392189
14.0,0.04751799628138542
15.0,0.04707300662994385
16.0,0.04666062071919441
18.0,0.04575888067483902
20.0,0.04487956315279007
22.0,0.04401881992816925
24.0,0.0431920625269413
26.0,0.042368900030851364
28.0,0.041625235229730606
30.0,0.04089123383164406
32.0,0.04020659998059273
36.0,0.038799647241830826
40.0,0.037403736263513565
44.0,0.03615889325737953
48.0,0.0350363552570343
52.0,0.03402092680335045
56.0,0.03299387916922569
60.0,0.03209234029054642
64.0,0.03127748519182205
72.0,0.029687264934182167
80.0,0.028285227715969086
88.0,0.02693302184343338
96.0,0.025527724996209145
104.0,0.024066800251603127
112.0,0.022712931036949158
120.0,0.02157009206712246
128.0,0.02070942148566246
144.0,0.018891198560595512
160.0,0.01686786860227585
176.0,0.014684353955090046
192.0,0.012790956534445286
208.0,0.010720212943851948
224.0,0.009000872261822224
240.0,0.00825791247189045
256.0,0.00736678671091795
288.0,0.004885482601821423
320.0,0.0033510341309010983
352.0,0.003102154703810811
384.0,0.003507930086925626
416.0,0.0034813317470252514
448.0,0.0034076557494699955
480.0,0.0025570334400981665
512.0,0.0011172763770446181
576.0,0.00021910996292717755
640.0,0.00042452875641174614
704.0,0.0014873615000396967
768.0,0.003945465199649334
832.0,0.00556287681683898
896.0,0.006528191734105349
960.0,0.009269792586565018
1024.0,0.010711952112615108
1152.0,0.006648350041359663
1280.0,-0.0012939987936988473
1408.0,-0.002353320363909006
1536.0,-0.00025636458303779364
1664.0,-0.0016553719760850072
1792.0,0.00019766725017689168
1920.0,0.0055970195680856705
2048.0,0.00703089265152812
2304.0,0.0037393085658550262
2560.0,-0.0022772650700062513
2816.0,0.002047901041805744
3072.0,0.008501815609633923
3328.0,0.004927912726998329
3584.0,-0.007079822476953268
3840.0,-0.00949958898127079
4096.0,-0.0036054395604878664
4608.0,-0.00848141498863697
5120.0,0.001199481193907559
5632.0,-0.00888789352029562
6144.0,-0.002729895757511258
6656.0,-0.010724869556725025
7168.0,-0.008166441693902016
7680.0,-0.005349316634237766
8192.0,-0.0014726605731993914
end
