version,3.0
numOfCh,1
type,point
parent_name,714af_0dot08-0dot1
ch_type,1_1
kcount,1
numberNandB,1
brightnessNandB,1
carpet pos,0
pc,0
Time (ms),CH1 Auto-Correlation
1.0,0.07099521160125732
2.0,0.07035776227712631
3.0,0.06972316652536392
4.0,0.06910708546638489
5.0,0.06849656999111176
6.0,0.06791060417890549
7.0,0.06732526421546936
8.0,0.0667654350399971
9.0,0.06621142476797104
10.0,0.06565817445516586
11.0,0.06510091572999954
12.0,0.06455735862255096
13.0,0.06404118984937668
14.0,0.06353186815977097
15.0,0.0630376860499382
16.0,0.0625641793012619
18.0,0.0615890696644783
20.0,0.06066199392080307
22.0,0.059755150228738785
24.0,0.05888086184859276
26.0,0.05800478160381317
28.0,0.057099342346191406
30.0,0.056190092116594315
32.0,0.05529269576072693
36.0,0.05361707881093025
40.0,0.05206265673041344
44.0,0.05067972466349602
48.0,0.049455638974905014
52.0,0.048480331897735596
56.0,0.04758451506495476
60.0,0.046617500483989716
64.0,0.04555666074156761
72.0,0.043476659804582596
80.0,0.041680674999952316
88.0,0.04016547650098801
96.0,0.038982294499874115
104.0,0.03795499727129936
112.0,0.03701639547944069
120.0,0.036437418311834335
128.0,0.03590745851397514
144.0,0.03498800843954086
160.0,0.03394163399934769
176.0,0.032790396362543106
192.0,0.03188972547650337
208.0,0.03087601438164711
224.0,0.029540764167904854
240.0,0.028267573565244675
256.0,0.027157748118042946
288.0,0.025165366008877754
320.0,0.023459110409021378
352.0,0.02132444828748703
384.0,0.02005007117986679
416.0,0.018594009801745415
448.0,0.016352921724319458
480.0,0.013990256935358047
512.0,0.012198942713439465
576.0,0.00952877663075924
640.0,0.00502666225656867
704.0,0.0012977656442672014
768.0,0.0006974659627303481
832.0,0.0012486582854762673
896.0,-0.0003534283605404198
960.0,-0.0012140864273533225
1024.0,-0.0011465479619801044
1152.0,-0.00188146170694381
1280.0,-0.003056175308302045
1408.0,-0.004477679263800383
1536.0,-0.00021885035675950348
1664.0,0.0018579688621684909
1792.0,0.004525086376816034
1920.0,0.007165915798395872
2048.0,0.008195984177291393
2304.0,0.007297122851014137
2560.0,0.003453198354691267
2816.0,0.0045342524535954
3072.0,0.000716263020876795
3328.0,-0.0033081199508160353
3584.0,-0.006605769973248243
3840.0,-0.006241003517061472
4096.0,-0.0038119563832879066
4608.0,0.0054339212365448475
5120.0,0.01133137010037899
5632.0,-0.00140577950514853
6144.0,-0.007607799954712391
6656.0,-0.009803283959627151
7168.0,0.005326550453901291
7680.0,0.004272264428436756
8192.0,-0.012246396392583847
end
