version,3.0
numOfCh,1
type,point
parent_name,714af_0dot08-0dot1
ch_type,1_1
kcount,1
numberNandB,1
brightnessNandB,1
carpet pos,0
pc,0
Time (ms),CH1 Auto-Correlation
1.0,0.07968828082084656
2.0,0.07891799509525299
3.0,0.07815764844417572
4.0,0.07743380218744278
5.0,0.07672585546970367
6.0,0.07606937736272812
7.0,0.07546938955783844
8.0,0.07484617084264755
9.0,0.07424817979335785
10.0,0.07363531738519669
11.0,0.0730261281132698
12.0,0.07240544259548187
13.0,0.07180578261613846
14.0,0.07122917473316193
15.0,0.07066429406404495
16.0,0.07011967897415161
18.0,0.06909318268299103
20.0,0.06808022409677505
22.0,0.06711241602897644
24.0,0.06617498397827148
26.0,0.06525866687297821
28.0,0.06442008167505264
30.0,0.06357724219560623
32.0,0.06276392191648483
36.0,0.06131578981876373
40.0,0.05993480980396271
44.0,0.05843694880604744
48.0,0.05713110789656639
52.0,0.055915120989084244
56.0,0.05477045848965645
60.0,0.05372624099254608
64.0,0.05263514816761017
72.0,0.050807174295186996
80.0,0.04931516945362091
88.0,0.048147641122341156
96.0,0.04673996940255165
104.0,0.04509545490145683
112.0,0.043642546981573105
120.0,0.04236214607954025
128.0,0.0413038469851017
144.0,0.039198655635118484
160.0,0.037364400923252106
176.0,0.03562037646770477
192.0,0.03485387563705444
208.0,0.03438218683004379
224.0,0.03350834921002388
240.0,0.032503582537174225
256.0,0.03094063512980938
288.0,0.028365496546030045
320.0,0.02766372449696064
352.0,0.026968196034431458
384.0,0.025568580254912376
416.0,0.025232037529349327
448.0,0.02450607530772686
480.0,0.023228801786899567
512.0,0.0224321112036705
576.0,0.02107851579785347
640.0,0.018561292439699173
704.0,0.016574857756495476
768.0,0.014353749342262745
832.0,0.011967051774263382
896.0,0.010680831968784332
960.0,0.011723718605935574
1024.0,0.00915906298905611
1152.0,0.0034126669634133577
1280.0,0.004964178893715143
1408.0,0.00454390374943614
1536.0,0.005854682065546513
1664.0,0.004788058809936047
1792.0,0.005922395270317793
1920.0,0.01029245089739561
2048.0,0.012568753212690353
2304.0,0.006296112202107906
2560.0,0.003501600120216608
2816.0,0.0017463912954553962
3072.0,-0.006639628671109676
3328.0,-0.005235445220023394
3584.0,-0.0024806519504636526
3840.0,-0.008622187189757824
4096.0,-0.011304198764264584
4608.0,-0.009997106157243252
5120.0,-0.01358234416693449
5632.0,-0.018301647156476974
6144.0,-0.01952856034040451
6656.0,-0.008697645738720894
7168.0,-0.02395438402891159
7680.0,-0.024321304634213448
8192.0,-0.023775480687618256
end
