version,3.0
numOfCh,1
type,point
parent_name,714af_0dot08-0dot1
ch_type,1_1
kcount,1
numberNandB,1
brightnessNandB,1
carpet pos,0
pc,0
Time (ms),CH1 Auto-Correlation
1.0,0.07621327042579651
2.0,0.0756174623966217
3.0,0.07505615055561066
4.0,0.07450799643993378
5.0,0.07398124039173126
6.0,0.07348067313432693
7.0,0.07299012690782547
8.0,0.07251837849617004
9.0,0.07205908745527267
10.0,0.07162484526634216
11.0,0.07120191305875778
12.0,0.07078306376934052
13.0,0.07036438584327698
14.0,0.06995197385549545
15.0,0.0695304125547409
16.0,0.06913501769304276
18.0,0.06831766664981842
20.0,0.06752043217420578
22.0,0.06675279140472412
24.0,0.06601081043481827
26.0,0.06528441607952118
28.0,0.0645565316081047
30.0,0.06381764262914658
32.0,0.06308747828006744
36.0,0.06165638193488121
40.0,0.060154370963573456
44.0,0.05867142602801323
48.0,0.05731990188360214
52.0,0.05602976679801941
56.0,0.0548739954829216
60.0,0.05380081385374069
64.0,0.052757203578948975
72.0,0.05073891207575798
80.0,0.04906567931175232
88.0,0.04760413616895676
96.0,0.04638689011335373
104.0,0.045217160135507584
112.0,0.044207826256752014
120.0,0.04302231967449188
128.0,0.04165518656373024
144.0,0.039222318679094315
160.0,0.03659186139702797
176.0,0.033931080251932144
192.0,0.03130742534995079
208.0,0.02867901884019375
224.0,0.02690686285495758
240.0,0.025299208238720894
256.0,0.023982251062989235
288.0,0.021300766617059708
320.0,0.01733921281993389
352.0,0.01320623978972435
384.0,0.010265651158988476
416.0,0.009443267248570919
448.0,0.009354405105113983
480.0,0.008203212171792984
512.0,0.0070504494942724705
576.0,0.005958487279713154
640.0,0.005689370911568403
704.0,0.0037647688295692205
768.0,0.0007297300617210567
832.0,-0.0030150481034070253
896.0,-0.006622576154768467
960.0,-0.008156661875545979
1024.0,-0.008155961520969868
1152.0,-0.0058289505541324615
1280.0,0.0010479568736627698
1408.0,0.0013286992907524109
1536.0,-0.001155135571025312
1664.0,-0.0007337852730415761
1792.0,0.002985653467476368
1920.0,0.0077044665813446045
2048.0,0.004190364386886358
2304.0,-0.0025143821258097887
2560.0,-0.00278085027821362
2816.0,0.005045775789767504
3072.0,0.002121511846780777
3328.0,0.0039146337658166885
3584.0,0.006035686936229467
3840.0,0.010541284456849098
4096.0,0.010227406397461891
4608.0,-0.011501654051244259
5120.0,-0.02257367968559265
5632.0,-0.010608892887830734
6144.0,0.0022427812218666077
6656.0,-0.005936145316809416
7168.0,-0.01370295975357294
7680.0,-0.004838620778173208
8192.0,-0.004437804687768221
end
