version,3.0
numOfCh,1
type,point
parent_name,714af_0dot08-0dot1
ch_type,1_1
kcount,1
numberNandB,1
brightnessNandB,1
carpet pos,0
pc,0
Time (ms),CH1 Auto-Correlation
1.0,0.07100288569927216
2.0,0.07034338265657425
3.0,0.06967563182115555
4.0,0.06905478984117508
5.0,0.06846305727958679
6.0,0.06789697706699371
7.0,0.06732767820358276
8.0,0.06675396859645844
9.0,0.06619565933942795
10.0,0.06562116742134094
11.0,0.06505477428436279
12.0,0.06450307369232178
13.0,0.06393980234861374
14.0,0.0634002611041069
15.0,0.06285842508077621
16.0,0.062317367643117905
18.0,0.06127075478434563
20.0,0.06018435209989548
22.0,0.059099193662405014
24.0,0.058076146990060806
26.0,0.0570681057870388
28.0,0.056091826409101486
30.0,0.0550931952893734
32.0,0.05413782596588135
36.0,0.05246736481785774
40.0,0.050929900258779526
44.0,0.04935039207339287
48.0,0.04785633087158203
52.0,0.04644425958395004
56.0,0.04518309608101845
60.0,0.04390981048345566
64.0,0.04267856106162071
72.0,0.04043111577630043
80.0,0.03816710039973259
88.0,0.036066483706235886
96.0,0.033913515508174896
104.0,0.03208144009113312
112.0,0.03035038523375988
120.0,0.0287152286618948
128.0,0.02724388614296913
144.0,0.0239097960293293
160.0,0.020487947389483452
176.0,0.016845563426613808
192.0,0.01385551318526268
208.0,0.012001763097941875
224.0,0.010054838843643665
240.0,0.007485837675631046
256.0,0.005098309367895126
288.0,0.0010768218198791146
320.0,-0.0033791603054851294
352.0,-0.005624902900308371
384.0,-0.006772902328521013
416.0,-0.007166494149714708
448.0,-0.006590465549379587
480.0,-0.007308526895940304
512.0,-0.007336387410759926
576.0,-0.005565952975302935
640.0,-0.0025230846367776394
704.0,-0.0004331592936068773
768.0,0.0007441221387125552
832.0,0.00457485718652606
896.0,0.007299189921468496
960.0,0.011332408525049686
1024.0,0.015152023173868656
1152.0,0.015629088506102562
1280.0,0.009237208403646946
1408.0,0.0020995771046727896
1536.0,-0.002824143273755908
1664.0,0.0007167939911596477
1792.0,0.005279571749269962
1920.0,0.0024196640588343143
2048.0,-0.004526833537966013
2304.0,-0.005747996270656586
2560.0,0.0012510193046182394
2816.0,0.005027023144066334
3072.0,0.0015291388845071197
3328.0,-0.007227381691336632
3584.0,0.0036604790948331356
3840.0,0.0063534812070429325
4096.0,-0.0041381134651601315
4608.0,0.0067754280753433704
5120.0,-0.009546814486384392
5632.0,0.0020149557385593653
6144.0,-0.005081193521618843
6656.0,-0.0035863141529262066
7168.0,-0.010162170976400375
7680.0,0.0006460169097408652
8192.0,-0.0151616046205163
end
