version,3.0
numOfCh,1
type,point
parent_name,fe81d_3dot0-0dot1
ch_type,1_1
kcount,1
numberNandB,1
brightnessNandB,1
carpet pos,0
pc,0
Time (ms),CH1 Auto-Correlation
1.0,0.015567385591566563
2.0,0.012889880686998367
3.0,0.011093184351921082
4.0,0.009657253511250019
5.0,0.008595392107963562
6.0,0.007724059745669365
7.0,0.006921954918652773
8.0,0.006282354239374399
9.0,0.0057470425963401794
10.0,0.005426909774541855
11.0,0.005149479489773512
12.0,0.004870930220931768
13.0,0.004642481915652752
14.0,0.0044348230585455894
15.0,0.004173793829977512
16.0,0.003927476704120636
18.0,0.003615766763687134
20.0,0.0032945259008556604
22.0,0.0029137039091438055
24.0,0.0026913974434137344
26.0,0.0026004689279943705
28.0,0.0024339864030480385
30.0,0.0023217741400003433
32.0,0.0021522752940654755
36.0,0.0020105945877730846
40.0,0.0018691387958824635
44.0,0.001528568915091455
48.0,0.0012846715981140733
52.0,0.0010204483987763524
56.0,0.0009142706403508782
60.0,0.0008018796215765178
64.0,0.0008462090045213699
72.0,0.0008848505094647408
80.0,0.000999431824311614
88.0,0.0006588813266716897
96.0,0.0005714416620321572
104.0,0.0003428241179790348
112.0,0.00011928638559766114
120.0,3.3675685699563473e-05
128.0,-0.00037046888610348105
144.0,-0.00022282139980234206
160.0,-8.836598135530949e-05
176.0,-0.0007601394900120795
192.0,-0.0007280540303327143
208.0,-0.0010871990816667676
224.0,-0.0012973254779353738
240.0,-0.0011222159955650568
256.0,-0.000734520610421896
288.0,-0.0004937202902510762
320.0,-0.0003232933231629431
352.0,0.00010500911594135687
384.0,0.00021807038865517825
416.0,0.00042339556966908276
448.0,0.00028339619166217744
480.0,0.0005282486090436578
512.0,0.000233054903219454
576.0,-8.87216956471093e-05
640.0,-0.00038997113006189466
704.0,-5.985111420159228e-05
768.0,-0.0005950452759861946
832.0,-7.963524694787338e-05
896.0,0.0002783489180728793
960.0,-0.0001795115094864741
1024.0,-0.00013123449753038585
1152.0,-0.00018129037925973535
1280.0,5.220260845817393e-07
1408.0,0.0004694306990131736
1536.0,3.1813393434276804e-05
1664.0,-0.00042800939991138875
1792.0,4.271547368261963e-05
1920.0,0.0002694484719540924
2048.0,-0.0002648470690473914
2304.0,4.597556471708231e-05
2560.0,-9.868517372524366e-05
2816.0,-0.0003251616144552827
3072.0,-0.00015989904932212085
3328.0,-0.00026428094133734703
3584.0,-2.3167965991888195e-05
3840.0,-3.471894524409436e-05
4096.0,0.00021688549895770848
4608.0,-1.9473729480523616e-05
5120.0,-0.00011487727897474542
5632.0,-0.00010983215179294348
6144.0,0.00016850026440806687
6656.0,0.0001608407765161246
7168.0,-0.00011172072845511138
7680.0,-2.7229873012402095e-05
8192.0,0.0003555760777089745
end
