version,3.0
numOfCh,1
type,point
parent_name,fe81d_3dot0-0dot1
ch_type,1_1
kcount,1
numberNandB,1
brightnessNandB,1
carpet pos,0
pc,0
Time (ms),CH1 Auto-Correlation
1.0,0.016640689224004745
2.0,0.013766294345259666
3.0,0.011914526112377644
4.0,0.01050804927945137
5.0,0.0093680489808321
6.0,0.008486912585794926
7.0,0.0077745867893099785
8.0,0.007152405101805925
9.0,0.0065627447329461575
10.0,0.006115135736763477
11.0,0.005697095766663551
12.0,0.005323606543242931
13.0,0.00507507985457778
14.0,0.004791087470948696
15.0,0.004641219973564148
16.0,0.004452387802302837
18.0,0.00399984885007143
20.0,0.0034417943097651005
22.0,0.0030521522276103497
24.0,0.0025766869075596333
26.0,0.0022055841982364655
28.0,0.0019314626697450876
30.0,0.00179688457865268
32.0,0.0018117142608389258
36.0,0.0016284137964248657
40.0,0.0015187319368124008
44.0,0.0012170227710157633
48.0,0.0008934946381486952
52.0,0.0005785264656879008
56.0,0.0003161616623401642
60.0,-1.2242122465977445e-05
64.0,-4.1242547013098374e-05
72.0,5.5937493016244844e-05
80.0,-0.00024879249394871294
88.0,0.00014743667270522565
96.0,0.0002575597318354994
104.0,0.0002152702072635293
112.0,0.0001919996866490692
120.0,0.0005241339094936848
128.0,0.0005955934175290167
144.0,0.0006416185060516
160.0,-8.116204844554886e-05
176.0,-0.00042343654786236584
192.0,-0.00027666016831062734
208.0,-9.769920870894566e-05
224.0,0.0002896530495490879
240.0,0.00016073390725068748
256.0,-0.00025537467445246875
288.0,0.0001225880696438253
320.0,-0.0001597825321368873
352.0,0.0001803971827030182
384.0,0.0004957510973326862
416.0,-3.888898572768085e-05
448.0,0.000242183668888174
480.0,0.0008266812073998153
512.0,0.0006190079147927463
576.0,0.000610420829616487
640.0,0.00018078030552715063
704.0,0.000316798803396523
768.0,0.00012125264765927568
832.0,-8.656909631099552e-05
896.0,-0.0002272637066198513
960.0,-0.00031718212994746864
1024.0,-0.0005002985126338899
1152.0,-0.00015223487571347505
1280.0,0.00031335389940068126
1408.0,5.101719216327183e-05
1536.0,-0.0007101901574060321
1664.0,-0.00017181997827719897
1792.0,-0.00037624643300659955
1920.0,3.104344068560749e-05
2048.0,-0.00019082367361988872
2304.0,-0.00017478234076406807
2560.0,9.3334965640679e-05
2816.0,-0.0004037143080495298
3072.0,-5.157282066647895e-05
3328.0,-0.00013390999811235815
3584.0,6.812092578911688e-06
3840.0,0.00023657066049054265
4096.0,-0.0003466330235823989
4608.0,-2.01204475160921e-05
5120.0,0.00024651343119330704
5632.0,6.52056114631705e-05
6144.0,0.0001403982168994844
6656.0,-0.00024456685059703887
7168.0,-0.0003360281989444047
7680.0,1.6893513020477258e-05
8192.0,-2.964599843835458e-05
end
