version,3.0
numOfCh,1
type,point
parent_name,fe81d_3dot0-0dot1
ch_type,1_1
kcount,1
numberNandB,1
brightnessNandB,1
carpet pos,0
pc,0
Time (ms),CH1 Auto-Correlation
1.0,0.01428667176514864
2.0,0.011483849957585335
3.0,0.009526762180030346
4.0,0.008006813935935497
5.0,0.006897930521517992
6.0,0.006059679668396711
7.0,0.0054227388463914394
8.0,0.0050435843877494335
9.0,0.004650898743420839
10.0,0.004332357086241245
11.0,0.004056212492287159
12.0,0.003772599156945944
13.0,0.003475265810266137
14.0,0.0031463103368878365
15.0,0.0029219998978078365
16.0,0.0027716520708054304
18.0,0.002321156905964017
20.0,0.002094080438837409
22.0,0.0020242570899426937
24.0,0.0019260946428403258
26.0,0.0017230220837518573
28.0,0.0015076345298439264
30.0,0.0013545802794396877
32.0,0.0013382945908233523
36.0,0.001317228889092803
40.0,0.0010440739570185542
44.0,0.0005525794695131481
48.0,0.00021478036069311202
52.0,0.0002697011223062873
56.0,0.000501986825838685
60.0,0.0006340620457194746
64.0,0.0006523798801936209
72.0,0.0010062129003927112
80.0,0.0007828054949641228
88.0,0.000616328907199204
96.0,0.0006127430824562907
104.0,0.0005073740030638874
112.0,0.00020585500169545412
120.0,5.50092663615942e-05
128.0,-4.035352685605176e-05
144.0,0.00010285746975569054
160.0,-0.00024210034462157637
176.0,-0.0001903898810269311
192.0,0.0001307611382799223
208.0,0.0002753429871518165
224.0,0.00010967095295200124
240.0,-0.00033521506702527404
256.0,-0.00014747354725841433
288.0,0.0006468020146712661
320.0,6.596823823201703e-06
352.0,0.00026808452093973756
384.0,0.0003541830228641629
416.0,0.00029842666117474437
448.0,0.0001473231241106987
480.0,0.00034264562418684363
512.0,3.6758465284947306e-05
576.0,-0.0003375433152541518
640.0,-0.000569875817745924
704.0,0.000297385617159307
768.0,0.0003775782242882997
832.0,0.00036207892117090523
896.0,3.18418606184423e-05
960.0,0.00024006987223401666
1024.0,0.000244924274738878
1152.0,0.00036090047797188163
1280.0,0.0002421620156383142
1408.0,7.599013042636216e-05
1536.0,0.00017985476006288081
1664.0,0.0004296418046578765
1792.0,-6.126862717792392e-05
1920.0,0.0001525802945252508
2048.0,9.064158803084865e-06
2304.0,3.390636629774235e-05
2560.0,0.00021369695605244488
2816.0,0.00016934955783654004
3072.0,-0.00021855295926798135
3328.0,6.55839394312352e-05
3584.0,0.00019999600772280246
3840.0,-0.0003014004323631525
4096.0,-0.00036543901660479605
4608.0,-0.0002890498435590416
5120.0,-0.00026970059843733907
5632.0,-0.00023053034965414554
6144.0,-0.00026803792570717633
6656.0,-9.2848546046298e-05
7168.0,-0.0002677162119653076
7680.0,-0.0001889933628262952
8192.0,-0.00020582496654242277
end
