version,3.0
numOfCh,1
type,point
parent_name,fe81d_3dot0-0dot1
ch_type,1_1
kcount,1
numberNandB,1
brightnessNandB,1
carpet pos,0
pc,0
Time (ms),CH1 Auto-Correlation
1.0,0.015975844115018845
2.0,0.013082938268780708
3.0,0.011111251078546047
4.0,0.009632036089897156
5.0,0.008588728494942188
6.0,0.0077890921384096146
7.0,0.007057897746562958
8.0,0.0062637715600430965
9.0,0.0057108174078166485
10.0,0.005219342652708292
11.0,0.004839166533201933
12.0,0.004589810501784086
13.0,0.00438688974827528
14.0,0.0042051090858876705
15.0,0.003991450648754835
16.0,0.0038681025616824627
18.0,0.0035912918392568827
20.0,0.00328155979514122
22.0,0.0029489751905202866
24.0,0.0025714836083352566
26.0,0.0022925809025764465
28.0,0.0020892522297799587
30.0,0.0018992203986272216
32.0,0.0016340450383722782
36.0,0.0014393491437658668
40.0,0.001204531523399055
44.0,0.0011284785578027368
48.0,0.001263404730707407
52.0,0.0013372671091929078
56.0,0.0013532545417547226
60.0,0.001243713079020381
64.0,0.0012369230389595032
72.0,0.0015231672441586852
80.0,0.0012021682923659682
88.0,0.0005403285031206906
96.0,0.00022662297124043107
104.0,-0.00041974178748205304
112.0,-0.00021687957632821053
120.0,-9.116008732235059e-05
128.0,-0.0001347340439679101
144.0,-6.593394937226549e-05
160.0,-3.042183925572317e-05
176.0,0.0003335727087687701
192.0,0.0003342072886880487
208.0,0.0002884574350900948
224.0,0.0005071318591944873
240.0,0.0007456271559931338
256.0,0.0008055937360040843
288.0,0.0003073907573707402
320.0,0.0003181648498866707
352.0,0.00020620139548555017
384.0,0.00010936219041468576
416.0,0.00034051292459480464
448.0,6.008827040204778e-05
480.0,-9.6629693871364e-05
512.0,-0.00015399919357150793
576.0,-0.0006934874691069126
640.0,-0.00017149093037005514
704.0,-0.00012604703078977764
768.0,0.00018410054326523095
832.0,0.0002677692100405693
896.0,-0.0006846884498372674
960.0,-0.00056058494374156
1024.0,0.0003392450453247875
1152.0,0.00035562520497478545
1280.0,-1.2869332977061276e-06
1408.0,0.000118624659080524
1536.0,-0.0002979495911858976
1664.0,0.00014371573342941701
1792.0,0.0003318235103506595
1920.0,-0.00018834426009561867
2048.0,-4.454317604540847e-05
2304.0,-0.00010903155634878203
2560.0,-9.405678611074109e-06
2816.0,-0.00015347966109402478
3072.0,-0.00033830892061814666
3328.0,-0.00038807830424048007
3584.0,-0.00019795478146988899
3840.0,-5.994274943077471e-06
4096.0,-4.442221325007267e-05
4608.0,-0.00010188823944190517
5120.0,0.0001577293296577409
5632.0,-0.0003458677965682
6144.0,0.0005077016539871693
6656.0,1.5705138139310293e-05
7168.0,-0.0003194970195181668
7680.0,4.958831414114684e-05
8192.0,0.000318411533953622
end
