version,3.0
numOfCh,1
type,point
parent_name,fe81d_3dot0-0dot1
ch_type,1_1
kcount,1
numberNandB,1
brightnessNandB,1
carpet pos,0
pc,0
Time (ms),CH1 Auto-Correlation
1.0,0.0152636943385005
2.0,0.01246662624180317
3.0,0.010547067038714886
4.0,0.009187514893710613
5.0,0.008131829090416431
6.0,0.007283107843250036
7.0,0.0066233472898602486
8.0,0.006074895150959492
9.0,0.0055384449660778046
10.0,0.0050949594005942345
11.0,0.0047841123305261135
12.0,0.004531846381723881
13.0,0.004324925132095814
14.0,0.004074413795024157
15.0,0.003865955164656043
16.0,0.003829768393188715
18.0,0.0035749608650803566
20.0,0.003283532103523612
22.0,0.0030542013701051474
24.0,0.0027898617554455996
26.0,0.0025307133328169584
28.0,0.0021709955763071775
30.0,0.0019615001510828733
32.0,0.0019138172501698136
36.0,0.0015234890161082149
40.0,0.0014346279203891754
44.0,0.0014000325463712215
48.0,0.001213413430377841
52.0,0.0010902488138526678
56.0,0.0011856701457872987
60.0,0.0009260997176170349
64.0,0.000765214441344142
72.0,0.000530615565367043
80.0,0.0006016978877596557
88.0,0.0005541474674828351
96.0,0.0003046139026992023
104.0,0.00022929701663088053
112.0,0.0005363586824387312
120.0,0.0005423222319222987
128.0,0.0005256906151771545
144.0,0.000697745883371681
160.0,0.00021716207265853882
176.0,0.0005727246170863509
192.0,0.00082823121920228
208.0,0.0003374519001226872
224.0,-0.0001363945339107886
240.0,-5.795744073111564e-06
256.0,0.0003822924627456814
288.0,0.00024380878312513232
320.0,0.00036652295966632664
352.0,7.09685409674421e-05
384.0,0.00011212370736757293
416.0,9.280211816076189e-05
448.0,0.00026302062906324863
480.0,0.0002620792365632951
512.0,-0.0002078828983940184
576.0,-7.535586337326095e-05
640.0,-0.00030895136296749115
704.0,0.0001684143499005586
768.0,-0.00016369455261155963
832.0,-7.847855158615857e-06
896.0,-0.0003503731277305633
960.0,-0.0004634786455426365
1024.0,-0.0005375488544814289
1152.0,9.487994248047471e-05
1280.0,0.00017354688316117972
1408.0,0.0004458920157048851
1536.0,0.0004993314505554736
1664.0,0.00044073196477256715
1792.0,0.00027304852847009897
1920.0,0.00023136285017244518
2048.0,0.00021792555344291031
2304.0,-8.290040568681434e-05
2560.0,-0.00013698336260858923
2816.0,0.00022392539540305734
3072.0,4.14287251260248e-06
3328.0,1.8155871657654643e-05
3584.0,-2.0795974705833942e-05
3840.0,-0.00048561778385192156
4096.0,9.498875442659482e-05
4608.0,0.00010801370081026107
5120.0,-0.00014036115317139775
5632.0,-6.12970870861318e-06
6144.0,-0.0002750252897385508
6656.0,-0.0003554661525413394
7168.0,0.00016399922606069595
7680.0,-4.69648621219676e-05
8192.0,-0.000887236266862601
end
