version,3.0
numOfCh,1
type,point
parent_name,fe81d_3dot0-0dot1
ch_type,1_1
kcount,1
numberNandB,1
brightnessNandB,1
carpet pos,0
pc,0
Time (ms),CH1 Auto-Correlation
1.0,0.01670505478978157
2.0,0.013902134262025356
3.0,0.01186375878751278
4.0,0.010314357466995716
5.0,0.009125815704464912
6.0,0.008152230642735958
7.0,0.007367124781012535
8.0,0.0066945552825927734
9.0,0.006218878086656332
10.0,0.005807170178741217
11.0,0.005312405992299318
12.0,0.004924916662275791
13.0,0.004609168507158756
14.0,0.004313139244914055
15.0,0.004046429414302111
16.0,0.003702105488628149
18.0,0.0031361286528408527
20.0,0.002789014484733343
22.0,0.002458808710798621
24.0,0.002355691511183977
26.0,0.0022087590768933296
28.0,0.0021519779693335295
30.0,0.0022286169696599245
32.0,0.002181797754019499
36.0,0.0017677086871117353
40.0,0.0015503934118896723
44.0,0.0012591078411787748
48.0,0.0010477629257366061
52.0,0.000829733966384083
56.0,0.0007938129128888249
60.0,0.0008032865007407963
64.0,0.0009728894801810384
72.0,0.0009730075835250318
80.0,0.00057603680761531
88.0,0.0006464836769737303
96.0,0.0006541447946801782
104.0,0.000698721909429878
112.0,0.000716326932888478
120.0,0.0005531542119570076
128.0,0.0004281652218196541
144.0,0.0010197027586400509
160.0,0.0010244081495329738
176.0,0.000602087820880115
192.0,0.000755117682274431
208.0,0.00048169083311222494
224.0,-4.4283024180913344e-05
240.0,0.0004634640645235777
256.0,0.00036148473736830056
288.0,0.0002552035148255527
320.0,0.0003066037024836987
352.0,-4.442142017069273e-05
384.0,0.00042067779577337205
416.0,0.000370920606656
448.0,-0.0004694705130532384
480.0,0.00027437612880021334
512.0,1.1408112186472863e-05
576.0,-2.6041479941341095e-05
640.0,-0.0005198892904445529
704.0,0.00021472065418493003
768.0,-0.0003082398616243154
832.0,0.000266773538896814
896.0,0.0007990631274878979
960.0,0.00034977938048541546
1024.0,0.0005745120579376817
1152.0,0.00013393924746196717
1280.0,-9.142211638391018e-05
1408.0,-0.0002798819914460182
1536.0,-0.0007889473927207291
1664.0,-0.0004255697422195226
1792.0,-0.00016675490769557655
1920.0,-0.0002781035436782986
2048.0,-0.0002987254993058741
2304.0,-0.0002448087034281343
2560.0,-0.00015951685782056302
2816.0,3.713587284437381e-05
3072.0,-0.00048650382086634636
3328.0,-0.0003456886042840779
3584.0,-2.920094266301021e-05
3840.0,0.00028696024673990905
4096.0,-0.000576511025428772
4608.0,0.0001352080435026437
5120.0,0.00019594498735386878
5632.0,0.0004365328059066087
6144.0,0.00048153899842873216
6656.0,0.00037270376924425364
7168.0,-0.0003461857559159398
7680.0,-0.00021220270718913525
8192.0,-0.0005889098974876106
end
