version,3.0
numOfCh,1
type,point
parent_name,fe81d_3dot0-0dot1
ch_type,1_1
kcount,1
numberNandB,1
brightnessNandB,1
carpet pos,0
pc,0
Time (ms),CH1 Auto-Correlation
1.0,0.01609216257929802
2.0,0.013283368200063705
3.0,0.011444048024713993
4.0,0.0101024080067873
5.0,0.009052156470716
6.0,0.008042443543672562
7.0,0.0071484544314444065
8.0,0.0063832649029791355
9.0,0.0059170108288526535
10.0,0.005434430204331875
11.0,0.004795593209564686
12.0,0.004374024458229542
13.0,0.004095160402357578
14.0,0.003916787449270487
15.0,0.003721640445291996
16.0,0.0034833094105124474
18.0,0.003129118587821722
20.0,0.0029257028363645077
22.0,0.002778764348477125
24.0,0.0027872161008417606
26.0,0.0025890676770359278
28.0,0.0024268594570457935
30.0,0.002123394049704075
32.0,0.002026567468419671
36.0,0.0017650504596531391
40.0,0.0014294572174549103
44.0,0.0013434647116810083
48.0,0.0015322401886805892
52.0,0.0014653969556093216
56.0,0.0012365600559860468
60.0,0.0007845906657166779
64.0,0.0004612876509781927
72.0,0.000940746976993978
80.0,0.0013807684881612659
88.0,0.0012206616811454296
96.0,0.0008412591414526105
104.0,0.0011179933790117502
112.0,0.0014958346728235483
120.0,0.0010407314402982593
128.0,0.0007754505495540798
144.0,0.0006397453835234046
160.0,0.0005971528589725494
176.0,0.00038245314499363303
192.0,0.00036844037822447717
208.0,0.0010141216916963458
224.0,0.0009488471550866961
240.0,0.0008463790873065591
256.0,0.0005585850449278951
288.0,0.0007575384224765003
320.0,0.0005585513426922262
352.0,0.0010985893895849586
384.0,0.0006933159893378615
416.0,0.00022175190679263324
448.0,3.047870450245682e-05
480.0,3.5218832636019215e-05
512.0,0.0007130015874281526
576.0,0.0004937845515087247
640.0,0.00018975319107994437
704.0,-0.0005019974196329713
768.0,-0.0004447471583262086
832.0,-0.00016116227197926491
896.0,0.00011044360144296661
960.0,-4.8581568989902735e-05
1024.0,-0.00011003227700712159
1152.0,-0.0003228182322345674
1280.0,-0.00043928754166699946
1408.0,-0.00023883582616690546
1536.0,-0.0003548138774931431
1664.0,-0.0005438372609205544
1792.0,-0.0002546009491197765
1920.0,-3.668996941996738e-05
2048.0,-0.000163226795848459
2304.0,0.0005700525362044573
2560.0,0.0006456721457652748
2816.0,0.0005658179288730025
3072.0,-0.00024031380598898977
3328.0,-9.601689816918224e-05
3584.0,-0.0003587398387026042
3840.0,-0.0006717333453707397
4096.0,-0.0004376413708087057
4608.0,-0.00027795921778306365
5120.0,4.302521119825542e-05
5632.0,-0.00020920942188240588
6144.0,-0.0005170900840312243
6656.0,0.00033048124168999493
7168.0,8.675923891132697e-05
7680.0,0.000369840970961377
8192.0,-0.000422214186983183
end
