version,3.0
numOfCh,1
type,point
parent_name,fe81d_3dot0-0dot1
ch_type,1_1
kcount,1
numberNandB,1
brightnessNandB,1
carpet pos,0
pc,0
Time (ms),CH1 Auto-Correlation
1.0,0.016886519268155098
2.0,0.01401597261428833
3.0,0.012000425718724728
4.0,0.010490171611309052
5.0,0.00925382412970066
6.0,0.008440426550805569
7.0,0.007831358350813389
8.0,0.007272249553352594
9.0,0.006690684240311384
10.0,0.006209315732121468
11.0,0.005703303962945938
12.0,0.005336552392691374
13.0,0.004993876907974482
14.0,0.004754934925585985
15.0,0.004458751063793898
16.0,0.004224961157888174
18.0,0.0037257380317896605
20.0,0.003435772843658924
22.0,0.0031640101224184036
24.0,0.002825082978233695
26.0,0.0026681076269596815
28.0,0.002420080127194524
30.0,0.002155797556042671
32.0,0.0019927851390093565
36.0,0.0018335644854232669
40.0,0.001620376599021256
44.0,0.0014562266878783703
48.0,0.001249993802048266
52.0,0.0009134961292147636
56.0,0.0010478467447683215
60.0,0.0013582621468231082
64.0,0.0013553444296121597
72.0,0.0006878957501612604
80.0,0.0002583742025308311
88.0,0.00045226499787531793
96.0,0.0006947346264496446
104.0,0.0006930166855454445
112.0,0.0003646473051048815
120.0,0.0003745770372916013
128.0,0.00027436157688498497
144.0,0.00022044403885956854
160.0,0.00024377868976444006
176.0,0.0006151084671728313
192.0,-0.00017263316840399057
208.0,-0.0003287963627371937
224.0,-0.0003107893280684948
240.0,-0.000523050781339407
256.0,-0.0001085997064365074
288.0,0.0009367590537294745
320.0,0.0007186020957306027
352.0,0.0013551369775086641
384.0,0.0013230056501924992
416.0,0.0003285757265985012
448.0,0.0008852551109157503
480.0,0.00042101278086192906
512.0,-3.761954576475546e-05
576.0,0.00039500018465332687
640.0,0.0008077407255768776
704.0,0.00032979025854729116
768.0,0.0007815492572262883
832.0,0.00035681651206687093
896.0,0.0003932913823518902
960.0,0.0006722526741214097
1024.0,0.0005134689854457974
1152.0,0.00017429726722184569
1280.0,0.0002694373542908579
1408.0,-0.00032893993193283677
1536.0,-0.0002616082492750138
1664.0,-4.7925157559802756e-05
1792.0,0.0008523193537257612
1920.0,5.955978122074157e-05
2048.0,-0.00039292502333410084
2304.0,0.00017397009651176631
2560.0,0.00024522875901311636
2816.0,0.0003098646702710539
3072.0,0.00026463097310625017
3328.0,-0.0002008339943131432
3584.0,0.000478993053548038
3840.0,-0.0007709746714681387
4096.0,-0.0005051991320215166
4608.0,-0.0007546907290816307
5120.0,-0.00037223836989142
5632.0,-0.0005595076363533735
6144.0,-3.580867996788584e-05
6656.0,-0.00043370251660235226
7168.0,-0.00018784984422381967
7680.0,-0.0006928755901753902
8192.0,-7.496064063161612e-05
end
