version,3.0
numOfCh,1
type,point
parent_name,fe81d_3dot0-0dot1
ch_type,1_1
kcount,1
numberNandB,1
brightnessNandB,1
carpet pos,0
pc,0
Time (ms),CH1 Auto-Correlation
1.0,0.014264599420130253
2.0,0.011552797630429268
3.0,0.009708705358207226
4.0,0.008270631544291973
5.0,0.007140508387237787
6.0,0.006310657132416964
7.0,0.005656105000525713
8.0,0.0050053377635777
9.0,0.0044989497400820255
10.0,0.004093974828720093
11.0,0.003791229333728552
12.0,0.0033821226097643375
13.0,0.0030934589449316263
14.0,0.0027934147510677576
15.0,0.0024493620730936527
16.0,0.002139700809493661
18.0,0.0017482918919995427
20.0,0.00156501738820225
22.0,0.0015284799737855792
24.0,0.0015004747547209263
26.0,0.0015339376404881477
28.0,0.001379702240228653
30.0,0.001224344247020781
32.0,0.001028117025271058
36.0,0.0006833160296082497
40.0,0.0004184787394478917
44.0,0.00020550291810650378
48.0,0.00012005375901935622
52.0,0.0001353833358734846
56.0,9.332712943432853e-05
60.0,-0.00027357673388905823
64.0,-0.00032517575891688466
72.0,-0.00016356876585632563
80.0,0.00038418511394411325
88.0,0.0005062627024017274
96.0,0.00045061021228320897
104.0,0.0004709973291028291
112.0,0.0003968481032643467
120.0,-1.2822748431062791e-05
128.0,-0.00010801032476592809
144.0,0.0006645165849477053
160.0,0.00031572626903653145
176.0,-2.3308246454689652e-05
192.0,-0.00010894067963818088
208.0,-0.00014018606452737004
224.0,-7.521173392888159e-05
240.0,-4.488233753363602e-05
256.0,1.4286046280176379e-05
288.0,3.8607948226854205e-05
320.0,0.00015842204447835684
352.0,0.00026580478879623115
384.0,-3.3620119211263955e-05
416.0,-0.0004149232408963144
448.0,-6.953329284442589e-05
480.0,-5.9081168728880584e-05
512.0,0.00029987687594257295
576.0,-0.00031888761441223323
640.0,-1.3162563163859886e-06
704.0,8.4800245531369e-05
768.0,0.00011508659372339025
832.0,0.00014209598884917796
896.0,0.0002578846178948879
960.0,0.00028815114637836814
1024.0,0.00039672828279435635
1152.0,-0.00012725056149065495
1280.0,-0.00013550017320085317
1408.0,-0.0001880206837086007
1536.0,-0.0003475161793176085
1664.0,-0.00012425496242940426
1792.0,0.00020827823027502745
1920.0,9.014146053232253e-05
2048.0,-0.00018412710051052272
2304.0,-0.00011619859287748113
2560.0,-4.563710172078572e-05
2816.0,4.7874473239062354e-05
3072.0,3.503450352582149e-05
3328.0,-5.251029506325722e-05
3584.0,-7.914527668617666e-05
3840.0,0.00018723441462498158
4096.0,-4.884901863988489e-05
4608.0,0.00016125738329719752
5120.0,1.1900638128281571e-05
5632.0,2.2079462723922916e-05
6144.0,9.959416638594121e-05
6656.0,-4.4360640458762646e-05
7168.0,-0.00019606290152296424
7680.0,-0.00018539333541411906
8192.0,-0.00013909857079852372
end
