version,3.0
numOfCh,1
type,point
parent_name,fe81d_3dot0-0dot1
ch_type,1_1
kcount,1
numberNandB,1
brightnessNandB,1
carpet pos,0
pc,0
Time (ms),CH1 Auto-Correlation
1.0,0.01560793537646532
2.0,0.012734548188745975
3.0,0.010740985162556171
4.0,0.009358661249279976
5.0,0.008313487283885479
6.0,0.007553258910775185
7.0,0.006878931075334549
8.0,0.006207881961017847
9.0,0.005724284797906876
10.0,0.005359326023608446
11.0,0.005092214327305555
12.0,0.004750341176986694
13.0,0.004347609356045723
14.0,0.004043270833790302
15.0,0.003716063452884555
16.0,0.0034717698581516743
18.0,0.0029790380503982306
20.0,0.0027447815518826246
22.0,0.0026747374795377254
24.0,0.0024353775661438704
26.0,0.0023092490155249834
28.0,0.0022073679137974977
30.0,0.0021115948911756277
32.0,0.0019684969447553158
36.0,0.0018901493167504668
40.0,0.0017374652670696378
44.0,0.001639863708987832
48.0,0.001538717420771718
52.0,0.001395685481838882
56.0,0.0012967896182090044
60.0,0.0011065370636060834
64.0,0.0011123762233182788
72.0,0.0007697319961152971
80.0,0.0005487723392434418
88.0,0.0003918597649317235
96.0,0.00034915219293907285
104.0,0.0009075742564164102
112.0,0.0011295818258076906
120.0,0.0010555790504440665
128.0,0.0011355715105310082
144.0,0.0009998006280511618
160.0,0.0009143180213868618
176.0,0.0006682864623144269
192.0,0.0007697566761635244
208.0,0.0004001418419647962
224.0,0.000379991892259568
240.0,0.0007873349240981042
256.0,0.0008218730217777193
288.0,0.0002499783004168421
320.0,1.487304598413175e-05
352.0,-0.00020087309530936182
384.0,-0.0004943794338032603
416.0,-0.00035164394648745656
448.0,0.00010562624811427668
480.0,-0.0003668096615001559
512.0,-0.00032880299841053784
576.0,-0.00015565889771096408
640.0,0.00017165807366836816
704.0,-0.00014341730275191367
768.0,0.000158278489834629
832.0,-0.00019053976575378329
896.0,-2.8109470804338343e-05
960.0,-0.00034570397110655904
1024.0,-0.0007570970919914544
1152.0,-0.00062174181221053
1280.0,-0.0007353951223194599
1408.0,0.0001299012074014172
1536.0,-3.559624747140333e-05
1664.0,0.00036224661744199693
1792.0,0.0003154910809826106
1920.0,3.2521526009077206e-05
2048.0,0.0003922372998204082
2304.0,0.00020044126722496003
2560.0,6.919083534739912e-05
2816.0,1.633014835533686e-05
3072.0,0.00014151682262308896
3328.0,-0.00019276012608315796
3584.0,-9.678137575974688e-05
3840.0,-5.392800449044444e-05
4096.0,0.00010860271140700206
4608.0,0.0003808613691944629
5120.0,-5.341885844245553e-05
5632.0,-0.0005997493281029165
6144.0,0.0003525989013724029
6656.0,0.00011361963697709143
7168.0,-8.354214514838532e-05
7680.0,3.1196999771054834e-05
8192.0,-0.00026676568086259067
end
