version,3.0
numOfCh,1
type,point
parent_name,fe81d_3dot0-0dot1
ch_type,1_1
kcount,1
numberNandB,1
brightnessNandB,1
carpet pos,0
pc,0
Time (ms),CH1 Auto-Correlation
1.0,0.015251650474965572
2.0,0.012414850294589996
3.0,0.01028048899024725
4.0,0.008775652386248112
5.0,0.007540272083133459
6.0,0.006606969982385635
7.0,0.00583649892359972
8.0,0.005098418332636356
9.0,0.00460013234987855
10.0,0.004136939067393541
11.0,0.003955062944442034
12.0,0.0037886810023337603
13.0,0.0035258405841886997
14.0,0.0033110359217971563
15.0,0.0030992506071925163
16.0,0.002872183220461011
18.0,0.002634892938658595
20.0,0.0025389494840055704
22.0,0.002314997371286154
24.0,0.002144479425624013
26.0,0.0019991216249763966
28.0,0.0019026447553187609
30.0,0.0017445649718865752
32.0,0.001465454581193626
36.0,0.0011232635006308556
40.0,0.0011592498049139977
44.0,0.0009263380197808146
48.0,0.001126635354012251
52.0,0.0008952725329436362
56.0,0.000943821098189801
60.0,0.0009898338466882706
64.0,0.0011563572334125638
72.0,0.0010530877625569701
80.0,0.000655211741104722
88.0,0.00043164988164789975
96.0,0.00012571344268508255
104.0,-0.00015917239943519235
112.0,-0.00043964615906588733
120.0,-0.0005484523717314005
128.0,-0.0004556921194307506
144.0,-0.00020380396745167673
160.0,-6.111158290877938e-05
176.0,0.0001637498353375122
192.0,-2.5362317046528915e-06
208.0,-0.00019168092694599181
224.0,-0.0003043641336262226
240.0,-0.0003548409149516374
256.0,-0.00023128450266085565
288.0,-0.00043264837586320937
320.0,-0.0006604075315408409
352.0,-0.0008658314472995698
384.0,-0.0006402276339940727
416.0,0.0002132115769200027
448.0,6.043280882295221e-05
480.0,0.0006745057180523872
512.0,0.00039011097396723926
576.0,0.00025708103203214705
640.0,-0.00017974039656110108
704.0,6.0761089116567746e-05
768.0,-0.00013844584464095533
832.0,-0.0002722938952501863
896.0,-0.00010556876804912463
960.0,5.5160242482088506e-05
1024.0,2.1544976334553212e-05
1152.0,0.00012174362927908078
1280.0,0.00011905980500159785
1408.0,-2.6710593374446034e-05
1536.0,-0.0003537629672791809
1664.0,0.00019748399790842086
1792.0,-0.0001005213416647166
1920.0,-0.00045837831567041576
2048.0,-5.629017687169835e-05
2304.0,-0.0002611398231238127
2560.0,-0.0002457276568748057
2816.0,6.010413562762551e-05
3072.0,0.00011438244109740481
3328.0,0.00015665919636376202
3584.0,0.0001653791987337172
3840.0,0.0001757097925292328
4096.0,0.0003366858290974051
4608.0,-0.00013927719555795193
5120.0,-7.1131507866084576e-06
5632.0,-0.00028671149630099535
6144.0,-4.1715462430147454e-05
6656.0,-0.00010926768300123513
7168.0,0.00028986562392674387
7680.0,0.0002456617366988212
8192.0,5.6814962590578943e-05
end
