version,3.0
numOfCh,1
type,point
parent_name,fe81d_3dot0-0dot1
ch_type,1_1
kcount,1
numberNandB,1
brightnessNandB,1
carpet pos,0
pc,0
Time (ms),CH1 Auto-Correlation
1.0,0.01475847139954567
2.0,0.012014650739729404
3.0,0.010127582587301731
4.0,0.008755656890571117
5.0,0.007555368822067976
6.0,0.006627457216382027
7.0,0.005822478327900171
8.0,0.005246457178145647
9.0,0.004710237495601177
10.0,0.004343193955719471
11.0,0.004128587432205677
12.0,0.00389794260263443
13.0,0.0036086963955312967
14.0,0.0033644784707576036
15.0,0.003116411156952381
16.0,0.0028950858395546675
18.0,0.0023924619890749454
20.0,0.0020555993542075157
22.0,0.0018283802783116698
24.0,0.001805973006412387
26.0,0.0018355788197368383
28.0,0.0018337154760956764
30.0,0.0017571855569258332
32.0,0.0017143054865300655
36.0,0.0016093743033707142
40.0,0.001231896341778338
44.0,0.001120740664191544
48.0,0.000953167153056711
52.0,0.0007815986755304039
56.0,0.0007092352607287467
60.0,0.000680477125570178
64.0,0.00036184772034175694
72.0,9.190666605718434e-05
80.0,-1.0157669748878106e-05
88.0,-0.0002441499091219157
96.0,-0.00021565145289059728
104.0,-6.16141187492758e-05
112.0,0.00011988016922259703
120.0,-5.648328806273639e-05
128.0,-0.0006376507226377726
144.0,-0.0003286368155386299
160.0,-6.479586772911716e-06
176.0,-9.675636829342693e-05
192.0,-0.0005990297067910433
208.0,-0.00012443626474123448
224.0,-0.00019155547488480806
240.0,-0.0007331764791160822
256.0,-0.000712659559212625
288.0,3.236471820855513e-05
320.0,-0.0003703836991917342
352.0,-0.00021920040308032185
384.0,0.00020971681806258857
416.0,0.00037705368595197797
448.0,0.0006125649670138955
480.0,0.0004724992031697184
512.0,0.00022895184520166367
576.0,3.190596908098087e-05
640.0,-0.0003712354809977114
704.0,-0.00028155773179605603
768.0,0.0003009024076163769
832.0,-0.00016187959408853203
896.0,0.0003583643992897123
960.0,0.00010753129026852548
1024.0,0.00040903958142735064
1152.0,-0.0005715988809242845
1280.0,5.808213245472871e-06
1408.0,0.0002958935801871121
1536.0,-0.0001625898148631677
1664.0,-0.00015940591401886195
1792.0,0.00013206989387981594
1920.0,-0.00014853777247481048
2048.0,-0.0003201400104444474
2304.0,-0.00022736945538781583
2560.0,-0.0001778504956746474
2816.0,-0.0003172334691043943
3072.0,0.00011106505553470924
3328.0,1.3958707313577179e-05
3584.0,-4.451997665455565e-05
3840.0,0.00033514012466184795
4096.0,-0.0004055195313412696
4608.0,0.00012028292258037254
5120.0,0.0001758261932991445
5632.0,4.1003371734404936e-05
6144.0,3.599741103244014e-05
6656.0,1.4399656720343046e-05
7168.0,-4.588125375448726e-05
7680.0,-0.00010703489533625543
8192.0,-0.00032338977325707674
end
