version,3.0
numOfCh,1
type,point
parent_name,fe81d_3dot0-0dot1
ch_type,1_1
kcount,1
numberNandB,1
brightnessNandB,1
carpet pos,0
pc,0
Time (ms),CH1 Auto-Correlation
1.0,0.014420729130506516
2.0,0.01159891951829195
3.0,0.009573008865118027
4.0,0.008162369020283222
5.0,0.007208732422441244
6.0,0.006276252213865519
7.0,0.005500319413840771
8.0,0.005005525890737772
9.0,0.004509881138801575
10.0,0.004100431688129902
11.0,0.003718100255355239
12.0,0.0033388002775609493
13.0,0.003035802161321044
14.0,0.0027293029706925154
15.0,0.002404937520623207
16.0,0.0021401362027972937
18.0,0.0019027515081688762
20.0,0.0016524861566722393
22.0,0.001401868648827076
24.0,0.0012590753613039851
26.0,0.001025406294502318
28.0,0.000904540007468313
30.0,0.0007068172562867403
32.0,0.0004509446443989873
36.0,0.00037665004492737353
40.0,0.0006789275212213397
44.0,0.0006255617481656373
48.0,0.00015369616448879242
52.0,0.0002157666749553755
56.0,0.00021688081324100494
60.0,-7.095246928656707e-06
64.0,6.992733688093722e-06
72.0,-6.135293369879946e-05
80.0,3.299357194919139e-05
88.0,-0.00012184541265014559
96.0,-0.0006498962757177651
104.0,-0.00014706880028825253
112.0,0.00047883728984743357
120.0,0.00080905418144539
128.0,0.00030769684235565364
144.0,-0.0003756962832994759
160.0,-6.196077447384596e-05
176.0,4.081770748598501e-05
192.0,-1.5564293789793737e-05
208.0,-0.0006660119397565722
224.0,-0.0005811949376948178
240.0,-0.0006621228531002998
256.0,-0.000617450859863311
288.0,0.0001676506653893739
320.0,-0.00012836407404392958
352.0,-5.253358540358022e-05
384.0,-2.3384827727568336e-05
416.0,-0.0002417716896161437
448.0,-0.0002485858858563006
480.0,-0.00020030816085636616
512.0,-4.866951712756418e-05
576.0,0.00035537718213163316
640.0,-0.00019426000653766096
704.0,0.00013801858585793525
768.0,-3.189560447935946e-05
832.0,-4.341304156696424e-05
896.0,-1.3383043551584706e-05
960.0,-0.00020057980145793408
1024.0,-0.0006783489370718598
1152.0,1.9980609067715704e-05
1280.0,0.000226385731366463
1408.0,3.074693086091429e-05
1536.0,0.00013291188224684447
1664.0,-0.00015657518815714866
1792.0,-0.00021094779367558658
1920.0,0.00016880055773071945
2048.0,-0.00018483074381947517
2304.0,-0.0001471559953643009
2560.0,0.00017014396144077182
2816.0,6.689838482998312e-05
3072.0,-0.0001496125478297472
3328.0,6.998692697379738e-05
3584.0,-7.209513569250703e-05
3840.0,0.00020181864965707064
4096.0,0.00019374034309294075
4608.0,-7.415215077344328e-05
5120.0,0.00016473678988404572
5632.0,-9.291526112065185e-06
6144.0,-0.0002737367758527398
6656.0,4.589349191519432e-05
7168.0,2.4187484086724e-06
7680.0,-7.69142498029396e-05
8192.0,0.0001412743586115539
end
