version,3.0
numOfCh,1
type,point
parent_name,fe81d_3dot0-0dot1
ch_type,1_1
kcount,1
numberNandB,1
brightnessNandB,1
carpet pos,0
pc,0
Time (ms),CH1 Auto-Correlation
1.0,0.01690002717077732
2.0,0.013997411355376244
3.0,0.011968367733061314
4.0,0.010516675189137459
5.0,0.009396757930517197
6.0,0.008556146174669266
7.0,0.007781236432492733
8.0,0.007059743162244558
9.0,0.006378323305398226
10.0,0.005892443936318159
11.0,0.0054700495675206184
12.0,0.005134962033480406
13.0,0.004809206817299128
14.0,0.004524065647274256
15.0,0.004149302374571562
16.0,0.00389729137532413
18.0,0.0035637631081044674
20.0,0.003347190096974373
22.0,0.0030874782241880894
24.0,0.0028123091906309128
26.0,0.0026982801500707865
28.0,0.0026595050003379583
30.0,0.002488470170646906
32.0,0.0023917839862406254
36.0,0.0019463509088382125
40.0,0.0016978004714474082
44.0,0.0014533636858686805
48.0,0.001145673799328506
52.0,0.0008988804765976965
56.0,0.0009470822406001389
60.0,0.0009033553651534021
64.0,0.0007144878036342561
72.0,0.0006410315399989486
80.0,0.0005874101188965142
88.0,0.00040482249460183084
96.0,0.00023610553762409836
104.0,0.0004563761467579752
112.0,0.00041692660306580365
120.0,0.00042121551814489067
128.0,0.0007929803687147796
144.0,-5.9235830121906474e-05
160.0,-0.0006033171666786075
176.0,-0.0006936984718777239
192.0,-0.0004811121616512537
208.0,-0.00020745594520121813
224.0,-0.00015076552517712116
240.0,-0.00040095255826599896
256.0,-0.0007543475367128849
288.0,-0.0003593412693589926
320.0,-0.0004728895437438041
352.0,-0.0006719165248796344
384.0,-0.0007317747222259641
416.0,1.4436119272431824e-05
448.0,-0.0004455179732758552
480.0,-0.0008171308436430991
512.0,-9.83643694780767e-05
576.0,-4.995833296561614e-05
640.0,-0.0001650636113481596
704.0,-7.829030801076442e-05
768.0,8.526261080987751e-05
832.0,0.0002585195761639625
896.0,0.0005018616793677211
960.0,0.0003739995590876788
1024.0,-0.0005773622542619705
1152.0,7.657022069906816e-05
1280.0,0.0003029302752111107
1408.0,-0.0002979766868520528
1536.0,-0.00019057057215832174
1664.0,-5.078916728962213e-05
1792.0,-0.00030219429754652083
1920.0,-0.0001746367779560387
2048.0,0.00011527369497343898
2304.0,0.0005272976704873145
2560.0,-0.00045257664169184864
2816.0,0.00022443941270466894
3072.0,4.2967727495124564e-05
3328.0,0.00022643238480668515
3584.0,-6.349765317281708e-05
3840.0,-0.00015683937817811966
4096.0,0.0006469871150329709
4608.0,-0.0003036787093151361
5120.0,-0.00010583611583570018
5632.0,-7.62597264838405e-05
6144.0,-2.7132369723403826e-05
6656.0,0.00019845306815113872
7168.0,-0.0002665805513970554
7680.0,-4.216126762912609e-05
8192.0,9.826396853895858e-05
end
