version,3.0
numOfCh,1
type,point
parent_name,fe81d_3dot0-0dot1
ch_type,1_1
kcount,1
numberNandB,1
brightnessNandB,1
carpet pos,0
pc,0
Time (ms),CH1 Auto-Correlation
1.0,0.016715284436941147
2.0,0.01380559429526329
3.0,0.011704690754413605
4.0,0.010208594612777233
5.0,0.008965376764535904
6.0,0.007917294278740883
7.0,0.007137754932045937
8.0,0.006400484126061201
9.0,0.005989337805658579
10.0,0.005544992629438639
11.0,0.005145412404090166
12.0,0.004676694516092539
13.0,0.004310802556574345
14.0,0.003998403903096914
15.0,0.0037564279045909643
16.0,0.0034607781562954187
18.0,0.00297175208106637
20.0,0.002554703736677766
22.0,0.002142426325008273
24.0,0.002082181628793478
26.0,0.002066307468339801
28.0,0.001978131476789713
30.0,0.0017685570055618882
32.0,0.0016549205174669623
36.0,0.0013262489810585976
40.0,0.001068171113729477
44.0,0.001239162520505488
48.0,0.001263622660189867
52.0,0.001272434601560235
56.0,0.0011175303952768445
60.0,0.0011446400312706828
64.0,0.0009733698680065572
72.0,0.0010890240082517266
80.0,0.0009617661708034575
88.0,0.0006817376706749201
96.0,0.0009968442609533668
104.0,0.0007269493071362376
112.0,0.0006144115468487144
120.0,0.00040493751293979585
128.0,0.00039162224857136607
144.0,0.00015614058065693825
160.0,-0.0004317946149967611
176.0,0.0004112514725420624
192.0,0.000565895636100322
208.0,2.2839183657197282e-05
224.0,3.6622681363951415e-05
240.0,0.0005088737816549838
256.0,7.140326488297433e-05
288.0,0.000699204218108207
320.0,0.0006539129535667598
352.0,0.000897661957424134
384.0,2.9622486181324348e-05
416.0,-0.00018089718651026487
448.0,-6.869947537779808e-05
480.0,-0.00021778661175630987
512.0,0.00021189691324252635
576.0,0.00034115969901904464
640.0,-0.0003274478076491505
704.0,-0.0005614775000140071
768.0,-0.00041229763883166015
832.0,-5.735556442232337e-06
896.0,0.000694812391884625
960.0,8.515233275829814e-06
1024.0,-4.752415350139927e-07
1152.0,0.00035350763937458396
1280.0,0.0004975400515832007
1408.0,0.0001707783667370677
1536.0,0.00010902848589466885
1664.0,-7.476654718630016e-05
1792.0,9.040089207701385e-05
1920.0,0.00024544401094317436
2048.0,-0.0003358537214808166
2304.0,-0.0003763333661481738
2560.0,-0.00022370759688783437
2816.0,2.457767550367862e-05
3072.0,0.0002631908282637596
3328.0,-0.00011908529995707795
3584.0,-0.0003423434682190418
3840.0,-0.00045236831647343934
4096.0,-0.00040745094884186983
4608.0,-0.00010992013267241418
5120.0,-0.0002062640560325235
5632.0,-9.776272054295987e-05
6144.0,1.342514133284567e-05
6656.0,-0.0005199105944484472
7168.0,-8.463318954454735e-05
7680.0,0.00023100509133655578
8192.0,-0.00012200698256492615
end
