version,3.0
numOfCh,1
type,point
parent_name,fe81d_3dot0-0dot1
ch_type,1_1
kcount,1
numberNandB,1
brightnessNandB,1
carpet pos,0
pc,0
Time (ms),CH1 Auto-Correlation
1.0,0.017031842842698097
2.0,0.01432196144014597
3.0,0.012411559000611305
4.0,0.010956072248518467
5.0,0.009841637685894966
6.0,0.008885242976248264
7.0,0.008175073191523552
8.0,0.007559970486909151
9.0,0.007204750087112188
10.0,0.006654428783804178
11.0,0.006268796045333147
12.0,0.005952993407845497
13.0,0.00569405872374773
14.0,0.005350810941308737
15.0,0.005000983364880085
16.0,0.004741515964269638
18.0,0.004230468068271875
20.0,0.003964352887123823
22.0,0.003893973072990775
24.0,0.0037014770787209272
26.0,0.003572434186935425
28.0,0.003368251258507371
30.0,0.003155756974592805
32.0,0.0028924259822815657
36.0,0.002317811129614711
40.0,0.0021467816550284624
44.0,0.0020437154453247786
48.0,0.0017176878172904253
52.0,0.0015596491284668446
56.0,0.0014942203415557742
60.0,0.001213341485708952
64.0,0.0012830402702093124
72.0,0.0009265299304388463
80.0,0.0005628490471281111
88.0,-2.668775778147392e-05
96.0,0.00015025561151560396
104.0,-0.0006914514233358204
112.0,-0.0008171094814315438
120.0,-0.0010508621344342828
128.0,-0.0010569324949756265
144.0,-0.0012991889379918575
160.0,-0.001392731792293489
176.0,-0.001351775717921555
192.0,-0.0011825101682916284
208.0,-0.0008278365712612867
224.0,-0.0006176848546601832
240.0,-5.5588021496078e-05
256.0,0.00037195926415733993
288.0,0.0004857775929849595
320.0,0.0006423715385608375
352.0,0.0005405966658145189
384.0,-2.2837846699985676e-05
416.0,-0.0006411044741980731
448.0,-0.0013496173778548837
480.0,-0.001032547908835113
512.0,-0.0009993599960580468
576.0,-8.556052489439026e-05
640.0,-0.00024433559156022966
704.0,0.00017135331290774047
768.0,-0.0003199498460162431
832.0,0.00022347125923261046
896.0,-0.00026387712568975985
960.0,0.00021665218810085207
1024.0,0.0005780774517916143
1152.0,8.801624790066853e-05
1280.0,-0.00022337157861329615
1408.0,0.00020542644779197872
1536.0,5.062220952822827e-05
1664.0,-0.0001994381455006078
1792.0,0.00021001510322093964
1920.0,-0.00030098570277914405
2048.0,0.00016313073865603656
2304.0,-0.00012752157635986805
2560.0,0.00023102256818674505
2816.0,-0.0005934348446317017
3072.0,-5.339378185453825e-05
3328.0,0.00015617514145560563
3584.0,0.0004440444754436612
3840.0,-1.356634220428532e-05
4096.0,-0.00041108825826086104
4608.0,8.418223296757787e-05
5120.0,0.0001830031833378598
5632.0,2.27163836825639e-05
6144.0,-6.1021914007142186e-05
6656.0,-4.467549661058001e-05
7168.0,-6.882976595079526e-05
7680.0,-0.0005373171297833323
8192.0,0.0003744486311916262
end
