version,3.0
numOfCh,1
type,point
parent_name,fe81d_3dot0-0dot1
ch_type,1_1
kcount,1
numberNandB,1
brightnessNandB,1
carpet pos,0
pc,0
Time (ms),CH1 Auto-Correlation
1.0,0.016342738643288612
2.0,0.013417329639196396
3.0,0.011345532722771168
4.0,0.009732699953019619
5.0,0.008409948088228703
6.0,0.007414624094963074
7.0,0.006679619662463665
8.0,0.006039601285010576
9.0,0.005541165824979544
10.0,0.00505202217027545
11.0,0.0046952818520367146
12.0,0.004368945024907589
13.0,0.004107128828763962
14.0,0.0039220512844622135
15.0,0.0036675804294645786
16.0,0.003385301446542144
18.0,0.003060094080865383
20.0,0.0028544715605676174
22.0,0.002518365392461419
24.0,0.0023458534851670265
26.0,0.0022871503606438637
28.0,0.0022237361408770084
30.0,0.002263182308524847
32.0,0.0020897425711154938
36.0,0.0016637692460790277
40.0,0.001357703935354948
44.0,0.0012888757046312094
48.0,0.0010709138587117195
52.0,0.0008296547457575798
56.0,0.0006370492046698928
60.0,0.0011149354977533221
64.0,0.001111397403292358
72.0,0.0012213434092700481
80.0,0.0011421910021454096
88.0,0.0010515054455026984
96.0,0.0011165072210133076
104.0,0.0010647143935784698
112.0,0.0007125923875719309
120.0,0.00030060895369388163
128.0,0.00030824195710010827
144.0,0.0004373477422632277
160.0,0.0010988777503371239
176.0,0.0009239041828550398
192.0,0.0008672824478708208
208.0,0.00029498207732103765
224.0,-9.424768359167501e-05
240.0,-0.00011856191122205928
256.0,0.0003077948931604624
288.0,0.0005152351222932339
320.0,-0.00025540299247950315
352.0,0.00022982950031291693
384.0,0.0002170537773054093
416.0,0.0002242951450170949
448.0,0.0004294330719858408
480.0,0.0003199908242095262
512.0,-6.897999264765531e-05
576.0,0.0002924244909081608
640.0,0.00023384309315588325
704.0,0.00023577228421345353
768.0,5.3219184337649494e-05
832.0,-0.00039716725586913526
896.0,-0.0002269464748678729
960.0,-1.2073825494951507e-08
1024.0,-0.0009149416582658887
1152.0,-0.0002316548489034176
1280.0,0.0001137697763624601
1408.0,0.0002480317489244044
1536.0,0.00019722286378964782
1664.0,1.582074901307351e-06
1792.0,0.00024791155010461807
1920.0,0.0006276376661844552
2048.0,0.0003745189169421792
2304.0,-0.0001906425750348717
2560.0,0.00016298913396894932
2816.0,-0.00022860303579363972
3072.0,-0.0005394881009124219
3328.0,9.224731184076518e-05
3584.0,-0.0004139140946790576
3840.0,-0.0001355340937152505
4096.0,-1.0058806765300687e-05
4608.0,-0.00018304181867279112
5120.0,-0.00027751634479500353
5632.0,-0.00010839367314474657
6144.0,0.00010373129771323875
6656.0,-0.000291273754555732
7168.0,-0.000600148516241461
7680.0,-0.00010291402577422559
8192.0,8.947274909587577e-05
end
