version,3.0
numOfCh,1
type,point
parent_name,fe81d_3dot0-0dot1
ch_type,1_1
kcount,1
numberNandB,1
brightnessNandB,1
carpet pos,0
pc,0
Time (ms),CH1 Auto-Correlation
1.0,0.015449714846909046
2.0,0.012652644887566566
3.0,0.010607142932713032
4.0,0.009093482047319412
5.0,0.007889388129115105
6.0,0.0070434934459626675
7.0,0.00624855188652873
8.0,0.005548983812332153
9.0,0.005048415623605251
10.0,0.004438410047441721
11.0,0.004060003440827131
12.0,0.0036944858729839325
13.0,0.0033678968902677298
14.0,0.003057577181607485
15.0,0.0028239109087735415
16.0,0.0026402780786156654
18.0,0.002320599975064397
20.0,0.002090131165459752
22.0,0.0018580820178613067
24.0,0.001814196933992207
26.0,0.0017403915990144014
28.0,0.001634308136999607
30.0,0.0015329503221437335
32.0,0.0015666837571188807
36.0,0.0012323273112997413
40.0,0.0011358113260939717
44.0,0.0007722824811935425
48.0,0.00034441176103428006
52.0,0.0002197118737967685
56.0,0.00011171321966685355
60.0,0.0003306659928057343
64.0,0.0003493392141535878
72.0,5.347648766473867e-05
80.0,-0.00025027108495123684
88.0,-9.678026981418952e-05
96.0,-1.676391730143223e-05
104.0,0.00042259847396053374
112.0,0.0007916335598565638
120.0,0.0005401087692007422
128.0,0.0002358158671995625
144.0,0.000516579719260335
160.0,0.0005645006895065308
176.0,0.0005242754705250263
192.0,6.882376328576356e-05
208.0,-0.0002740157942753285
224.0,6.779468822060153e-05
240.0,8.634211553726345e-05
256.0,0.00014514868962578475
288.0,-0.00023476654314436018
320.0,-2.2829362933407538e-05
352.0,0.00037657658685930073
384.0,0.0004261602007318288
416.0,-5.913212226005271e-05
448.0,2.5034394639078528e-05
480.0,-2.1162615666980855e-05
512.0,1.1426999662944581e-05
576.0,0.00034466307261027396
640.0,0.00020336956367827952
704.0,-0.0006602794746868312
768.0,4.3142965296283364e-05
832.0,-0.0003395350940991193
896.0,-0.00027223999495618045
960.0,-7.273071969393641e-05
1024.0,-0.0003808570618275553
1152.0,-0.0006744223646819592
1280.0,0.0003184958768542856
1408.0,-8.817057823762298e-05
1536.0,-0.0004560088273137808
1664.0,-0.0004037705948576331
1792.0,-0.00020174116070847958
1920.0,0.0003004317113664001
2048.0,0.00021464571182150394
2304.0,-8.803746459307149e-05
2560.0,0.0005208070506341755
2816.0,-2.5044946596608497e-05
3072.0,-0.00014333643775898963
3328.0,3.9501166611444205e-05
3584.0,-0.0002962068247143179
3840.0,0.00031955752638168633
4096.0,0.0002308294060640037
4608.0,-0.00022374493710231036
5120.0,-2.4440223569399677e-05
5632.0,-0.00028308562468737364
6144.0,6.852731894468889e-05
6656.0,4.503248419496231e-05
7168.0,0.00017312423733528703
7680.0,-3.5927139379055006e-06
8192.0,-0.00037213691393844783
end
