version,3.0
numOfCh,1
type,point
parent_name,fe81d_3dot0-0dot1
ch_type,1_1
kcount,1
numberNandB,1
brightnessNandB,1
carpet pos,0
pc,0
Time (ms),CH1 Auto-Correlation
1.0,0.016619721427559853
2.0,0.013752792030572891
3.0,0.01177994441241026
4.0,0.010403633117675781
5.0,0.009274820797145367
6.0,0.008319983258843422
7.0,0.00756322406232357
8.0,0.00682436628267169
9.0,0.006210820749402046
10.0,0.0057060131803154945
11.0,0.005249757319688797
12.0,0.004855939652770758
13.0,0.004468290600925684
14.0,0.004165976773947477
15.0,0.0038879236672073603
16.0,0.003669633064419031
18.0,0.003330559702590108
20.0,0.0030341804958879948
22.0,0.0025979357305914164
24.0,0.0023253944236785173
26.0,0.002097265562042594
28.0,0.0019099374767392874
30.0,0.0016311282524839044
32.0,0.0014781624777242541
36.0,0.0010744960745796561
40.0,0.0010280644055455923
44.0,0.0008976038079708815
48.0,0.0007557356148026884
52.0,0.0008066191803663969
56.0,0.0007772735552862287
60.0,0.0006699736113660038
64.0,0.0009127386729232967
72.0,0.0009127401281148195
80.0,0.000545519171282649
88.0,0.0002394774928689003
96.0,-6.220898649189621e-05
104.0,-0.000491259852424264
112.0,-0.0002654312120284885
120.0,4.580222594086081e-06
128.0,-0.00031910112011246383
144.0,-0.0005811384180560708
160.0,-0.00042676442535594106
176.0,-4.7544210246996954e-05
192.0,-0.0004563134862110019
208.0,-6.578757893294096e-05
224.0,-4.847016680287197e-05
240.0,-2.5765706595848314e-05
256.0,6.345999281620607e-05
288.0,-0.0001356070424662903
320.0,-0.00022259342949837446
352.0,-0.0010362945031374693
384.0,-0.0007954626344144344
416.0,-0.0006579243927262723
448.0,-0.00020457305072341114
480.0,-0.0001580378448124975
512.0,0.00012980967585463077
576.0,0.0005709222750738263
640.0,-0.0001348807563772425
704.0,0.0001360521710012108
768.0,0.00024992867838591337
832.0,0.0004928045673295856
896.0,4.849271135753952e-05
960.0,-0.0007607322768308222
1024.0,-0.0004141956160310656
1152.0,-0.0003161015920341015
1280.0,7.881207420723513e-05
1408.0,0.00041755902930162847
1536.0,0.00027909837081097066
1664.0,-4.791863466380164e-05
1792.0,-0.0005215458222664893
1920.0,5.738560139434412e-05
2048.0,7.220496627269313e-05
2304.0,0.00030378313385881484
2560.0,-0.0002435720234643668
2816.0,4.467894905246794e-05
3072.0,4.422922938829288e-05
3328.0,-0.0001582807453814894
3584.0,0.00017359608318656683
3840.0,0.0003078881709370762
4096.0,-0.000505848613101989
4608.0,-0.000179477094206959
5120.0,-1.2202233847347088e-05
5632.0,7.942833326524124e-05
6144.0,6.875769031466916e-06
6656.0,-0.00015356246149167418
7168.0,0.00027541903546079993
7680.0,-0.0001968845317605883
8192.0,-0.00017350746202282608
end
