version,3.0
numOfCh,1
type,point
parent_name,19e3e_3dot0-1dot0
ch_type,1_1
kcount,1
numberNandB,1
brightnessNandB,1
carpet pos,0
pc,0
Time (ms),CH1 Auto-Correlation
1.0,0.016088761389255524
2.0,0.013070276007056236
3.0,0.010984313674271107
4.0,0.009431255050003529
5.0,0.008291401900351048
6.0,0.007397862151265144
7.0,0.00657538091763854
8.0,0.005890396423637867
9.0,0.005372724495828152
10.0,0.0048463353887200356
11.0,0.00446679862216115
12.0,0.004210919141769409
13.0,0.003915594890713692
14.0,0.003632947336882353
15.0,0.003615475259721279
16.0,0.003453829325735569
18.0,0.003150358097627759
20.0,0.002862261375412345
22.0,0.0027110918890684843
24.0,0.002502524759620428
26.0,0.0024319696240127087
28.0,0.002062523039057851
30.0,0.0017892223550006747
32.0,0.0015510530211031437
36.0,0.0013964255340397358
40.0,0.0011647226056084037
44.0,0.0010490629356354475
48.0,0.0010859057074412704
52.0,0.0007635753136128187
56.0,0.00031998023041523993
60.0,-8.063593668339308e-06
64.0,-7.535422355431365e-06
72.0,-5.774201054009609e-05
80.0,0.0002545154420658946
88.0,0.00038246045005507767
96.0,0.0005701307090930641
104.0,0.0007636743830516934
112.0,0.0009764423593878746
120.0,0.000623034022282809
128.0,0.00028745271265506744
144.0,0.0004963042447343469
160.0,0.0003072605177294463
176.0,-0.0003327318700030446
192.0,-0.00029628106858581305
208.0,-0.00029742016340605915
224.0,-6.8606277636718e-05
240.0,-4.132124377065338e-05
256.0,6.719066004734486e-05
288.0,-0.00034939442411996424
320.0,-0.0006431601359508932
352.0,0.00023460277589038014
384.0,0.0004428202228154987
416.0,0.00021255729370750487
448.0,-0.00013362773461267352
480.0,-5.646425506711239e-06
512.0,-1.3443273019220214e-05
576.0,0.00019942988001275808
640.0,0.00047092215390875936
704.0,-0.00039543089224025607
768.0,0.0001270685315830633
832.0,-0.00023615118698216975
896.0,0.00010169067536480725
960.0,-0.0009524074848741293
1024.0,0.0004135690105613321
1152.0,3.5951659356214805e-06
1280.0,0.00021887707407586277
1408.0,-0.00017617983394302428
1536.0,-0.00037691506440751255
1664.0,-5.0433252908987924e-05
1792.0,0.00023667296045459807
1920.0,0.00010087786358781159
2048.0,-0.00010144448606297374
2304.0,-0.00046314828796312213
2560.0,2.489386133674998e-06
2816.0,-0.00021147345250938088
3072.0,-0.00019692422938533127
3328.0,5.70881602470763e-05
3584.0,-0.0001417656458215788
3840.0,-3.973126149503514e-05
4096.0,-7.636154623469338e-05
4608.0,0.00031065999064594507
5120.0,1.3684871191799175e-05
5632.0,-3.159881816827692e-05
6144.0,0.000137444119900465
6656.0,-7.64734941185452e-05
7168.0,-0.00014418135106097907
7680.0,0.0001106003692257218
8192.0,-0.00017627830675337464
end
