version,3.0
numOfCh,1
type,point
parent_name,19e3e_3dot0-1dot0
ch_type,1_1
kcount,1
numberNandB,1
brightnessNandB,1
carpet pos,0
pc,0
Time (ms),CH1 Auto-Correlation
1.0,0.016077999025583267
2.0,0.013007107190787792
3.0,0.010887078009545803
4.0,0.009430613368749619
5.0,0.008322229608893394
6.0,0.007459526415914297
7.0,0.006738523952662945
8.0,0.00605230825021863
9.0,0.005502226762473583
10.0,0.005007709376513958
11.0,0.004636271391063929
12.0,0.004354849457740784
13.0,0.004081715364009142
14.0,0.0038842298090457916
15.0,0.003665718948468566
16.0,0.0034053802955895662
18.0,0.0028909870889037848
20.0,0.0023415826726704836
22.0,0.0020776535384356976
24.0,0.0018192847492173314
26.0,0.00168665184173733
28.0,0.0014883589465171099
30.0,0.0012622097274288535
32.0,0.0010084378300234675
36.0,0.0008855939959175885
40.0,0.0007264151354320347
44.0,0.0009664538665674627
48.0,0.0010108656715601683
52.0,0.0006686446140520275
56.0,0.0002884306013584137
60.0,0.0002049827016890049
64.0,-2.418246367597021e-06
72.0,-5.424506889539771e-05
80.0,-0.00021841941634193063
88.0,2.5561550501151942e-05
96.0,0.00037316340603865683
104.0,0.0004603175038937479
112.0,0.0003760744002647698
120.0,0.00024387928715441376
128.0,6.969820969970897e-05
144.0,3.5010369174415246e-05
160.0,-0.00013401998148765415
176.0,0.00021259995992295444
192.0,0.00011593339149840176
208.0,7.7436889114324e-06
224.0,0.00012798684474546462
240.0,1.5011454706836957e-05
256.0,-0.00046320815454237163
288.0,-0.0005319528863765299
320.0,-0.0001265046012122184
352.0,0.00014490043395198882
384.0,7.769485091557726e-05
416.0,-5.895812137168832e-05
448.0,-7.465995440725237e-05
480.0,0.0003386019670870155
512.0,0.00019392072863411158
576.0,-0.0003183661319781095
640.0,3.2287207432091236e-05
704.0,6.318380474112928e-05
768.0,-0.00026262877508997917
832.0,-0.00010211230255663395
896.0,3.7721358239650726e-05
960.0,-0.00018518659635446966
1024.0,-9.719959052745253e-05
1152.0,-0.00018350055324845016
1280.0,-0.00016565210535191
1408.0,0.0001094441904569976
1536.0,5.296355993777979e-06
1664.0,-0.0001703583839116618
1792.0,0.00013446935918182135
1920.0,0.00026287304353900254
2048.0,0.0002544152666814625
2304.0,4.303209425415844e-05
2560.0,2.3963004423421808e-05
2816.0,4.571148565446492e-06
3072.0,-0.00019288371549919248
3328.0,-0.00029798035393469036
3584.0,5.1956310926470906e-05
3840.0,8.972895739134401e-05
4096.0,-5.740730921388604e-05
4608.0,-0.00025283542345277965
5120.0,-0.00020757147285621613
5632.0,0.0003301926772110164
6144.0,0.00017517083324491978
6656.0,-0.000317413272568956
7168.0,-0.00017309957183897495
7680.0,0.0005141792935319245
8192.0,0.0002292762219440192
end
