version,3.0
numOfCh,1
type,point
parent_name,19e3e_3dot0-1dot0
ch_type,1_1
kcount,1
numberNandB,1
brightnessNandB,1
carpet pos,0
pc,0
Time (ms),CH1 Auto-Correlation
1.0,0.017358355224132538
2.0,0.014258350245654583
3.0,0.012066365219652653
4.0,0.01050405204296112
5.0,0.00925177801400423
6.0,0.00829781498759985
7.0,0.007582041900604963
8.0,0.00695984810590744
9.0,0.006371043156832457
10.0,0.005943514406681061
11.0,0.005422296468168497
12.0,0.004988271277397871
13.0,0.004650753457099199
14.0,0.004274319391697645
15.0,0.003872372442856431
16.0,0.0035434605088084936
18.0,0.0029767125379294157
20.0,0.0024414770305156708
22.0,0.0019146859413012862
24.0,0.0016984250396490097
26.0,0.0017043305560946465
28.0,0.001798026729375124
30.0,0.0017027839785441756
32.0,0.001545277307741344
36.0,0.0015531473327428102
40.0,0.00173957459628582
44.0,0.0017039197264239192
48.0,0.0017374353483319283
52.0,0.00164911022875458
56.0,0.0016582488315179944
60.0,0.0011806947877630591
64.0,0.000936793745495379
72.0,0.0008815637556836009
80.0,0.0010113796452060342
88.0,0.000736062997020781
96.0,0.0003465989138931036
104.0,0.00018101456225849688
112.0,0.0002651264949236065
120.0,0.0001108402939280495
128.0,-5.679083642462501e-06
144.0,0.00022814125986769795
160.0,0.0003215104225091636
176.0,0.0005504429573193192
192.0,0.0005611260421574116
208.0,0.0005479833926074207
224.0,0.0007664511795155704
240.0,0.0008018334046937525
256.0,0.0005962480208836496
288.0,0.00021212043066043407
320.0,-0.00039195813587866724
352.0,-0.00014346775424201041
384.0,-0.0004549272998701781
416.0,-0.00016690466145519167
448.0,0.0001665763120399788
480.0,0.00038518564542755485
512.0,0.00020215773838572204
576.0,-0.00038692986709065735
640.0,-0.00040811856160871685
704.0,-7.671350613236427e-05
768.0,0.00015406189777422696
832.0,-0.0002484707219991833
896.0,-0.000602917221840471
960.0,-4.28575549449306e-05
1024.0,-0.0004049104463774711
1152.0,-4.401855039759539e-05
1280.0,0.00040393765084445477
1408.0,0.00034479773603379726
1536.0,-4.4900403736392036e-05
1664.0,-0.0003198558697476983
1792.0,0.00012317537039052695
1920.0,0.00017095671501010656
2048.0,-0.00037443614564836025
2304.0,-3.126304363831878e-05
2560.0,0.00035847071558237076
2816.0,0.00043803013977594674
3072.0,-0.00011281377373961732
3328.0,-0.0002779682108666748
3584.0,-0.000130735119455494
3840.0,8.00206616986543e-05
4096.0,0.00016353717364836484
4608.0,-0.00021460761490743607
5120.0,6.511859828606248e-05
5632.0,-4.851374978898093e-05
6144.0,-0.00011944612924708053
6656.0,0.00021923979511484504
7168.0,0.00011451249883975834
7680.0,-0.0003005661419592798
8192.0,-1.309882827627007e-05
end
