version,3.0
numOfCh,1
type,point
parent_name,19e3e_3dot0-1dot0
ch_type,1_1
kcount,1
numberNandB,1
brightnessNandB,1
carpet pos,0
pc,0
Time (ms),CH1 Auto-Correlation
1.0,0.01626184768974781
2.0,0.01332506351172924
3.0,0.011335758492350578
4.0,0.009969854727387428
5.0,0.008938612416386604
6.0,0.00810251571238041
7.0,0.007488188333809376
8.0,0.0069985659793019295
9.0,0.006583000533282757
10.0,0.006109040696173906
11.0,0.005696045234799385
12.0,0.005375919863581657
13.0,0.005126764066517353
14.0,0.004888670518994331
15.0,0.004758595488965511
16.0,0.004536795895546675
18.0,0.004208497703075409
20.0,0.003830817760899663
22.0,0.003430426586419344
24.0,0.003145360853523016
26.0,0.0031051437836140394
28.0,0.0029456547927111387
30.0,0.002786569995805621
32.0,0.0027369880117475986
36.0,0.0026577392127364874
40.0,0.0023785375524312258
44.0,0.0022798427380621433
48.0,0.0020681151654571295
52.0,0.0019595096819102764
56.0,0.0020153799559921026
60.0,0.001741035026498139
64.0,0.001588143059052527
72.0,0.0012177098542451859
80.0,0.0007267714245244861
88.0,0.0005009501473978162
96.0,1.3455109183269087e-05
104.0,6.243483221624047e-05
112.0,0.00037652385071851313
120.0,0.0003988106327597052
128.0,0.0002622143947519362
144.0,7.297468255273998e-05
160.0,0.0002584575559012592
176.0,0.0001272212975891307
192.0,4.129933222429827e-05
208.0,0.00026793419965542853
224.0,1.695149694569409e-05
240.0,-0.0004232463543303311
256.0,-0.00014574243687093258
288.0,-0.0004440888878889382
320.0,-6.695400224998593e-05
352.0,0.0003687976277433336
384.0,-9.102684271056205e-05
416.0,-2.5483905119472183e-05
448.0,-0.000152168984641321
480.0,0.00029261273448355496
512.0,-0.000577857659664005
576.0,-0.000262580782873556
640.0,-0.0001120057058869861
704.0,0.00020846404368057847
768.0,-0.00010206704610027373
832.0,-0.00045046635204926133
896.0,-0.00045393945765681565
960.0,-7.101670780684799e-05
1024.0,-0.0006980702746659517
1152.0,-0.00023635951220057905
1280.0,-0.00043779335101135075
1408.0,-0.00031013909028843045
1536.0,0.00041751450044102967
1664.0,-0.000388945423765108
1792.0,-0.00038874195888638496
1920.0,0.00013949969434179366
2048.0,-3.150428528897464e-05
2304.0,-0.00041071989107877016
2560.0,0.0002775054599624127
2816.0,0.0001656322565395385
3072.0,-1.0256343557557557e-05
3328.0,-0.00010536172339925542
3584.0,0.00043232380994595587
3840.0,-0.0004026454407721758
4096.0,-0.0005713609280064702
4608.0,-0.0003111797559540719
5120.0,0.0002476205409038812
5632.0,0.0005721226916648448
6144.0,-0.0002983741578646004
6656.0,-0.00019909976981580257
7168.0,0.0001545627019368112
7680.0,-2.4187747840187512e-05
8192.0,2.2438964151660912e-05
end
