version,3.0
numOfCh,1
type,point
parent_name,19e3e_3dot0-1dot0
ch_type,1_1
kcount,1
numberNandB,1
brightnessNandB,1
carpet pos,0
pc,0
Time (ms),CH1 Auto-Correlation
1.0,0.016658175736665726
2.0,0.013631666079163551
3.0,0.011527872644364834
4.0,0.010056967847049236
5.0,0.008899441920220852
6.0,0.007950817234814167
7.0,0.007146311923861504
8.0,0.006496998947113752
9.0,0.005928524304181337
10.0,0.005359891336411238
11.0,0.004909152630716562
12.0,0.004561355337500572
13.0,0.004254571162164211
14.0,0.003999702632427216
15.0,0.0038518402725458145
16.0,0.0037821519654244184
18.0,0.0037145675159990788
20.0,0.0033266879618167877
22.0,0.0030424094293266535
24.0,0.0028676907531917095
26.0,0.0026322398334741592
28.0,0.002381611615419388
30.0,0.0022783977910876274
32.0,0.0021436146926134825
36.0,0.0016297869151458144
40.0,0.0010927713010460138
44.0,0.0010647850576788187
48.0,0.0011277567828074098
52.0,0.0009234030731022358
56.0,0.000794827938079834
60.0,0.000814595608972013
64.0,0.0008496740483678877
72.0,0.0011770798591896892
80.0,0.0011261410545557737
88.0,0.000713643676135689
96.0,0.0002867297444026917
104.0,0.00010588846635073423
112.0,0.00011918466771021485
120.0,0.00020396822947077453
128.0,0.00030995512497611344
144.0,0.0005901155527681112
160.0,0.00018251559231430292
176.0,-6.93315378157422e-05
192.0,0.00011045757855754346
208.0,-0.0004840653855353594
224.0,0.00038315646816045046
240.0,0.00024802389089018106
256.0,0.0002410632441751659
288.0,0.0004411275440361351
320.0,0.00016766176850069314
352.0,-6.838468107162043e-05
384.0,0.0002118062402587384
416.0,-0.0004443599027581513
448.0,-0.0006272437749430537
480.0,-0.0005303889629431069
512.0,-0.0003355530498083681
576.0,-0.00042863874114118516
640.0,0.000492817023769021
704.0,7.062768418109044e-05
768.0,0.00024169195967260748
832.0,0.00023995059018488973
896.0,0.00034700121614150703
960.0,0.0009394802036695182
1024.0,0.0003821166174020618
1152.0,0.00012876925757154822
1280.0,-3.0440884074778296e-05
1408.0,-2.1444169760798104e-05
1536.0,-0.0004013585567008704
1664.0,-0.00015138428716454655
1792.0,-0.00032896679476834834
1920.0,-1.1880663805641234e-05
2048.0,1.7320446204394102e-05
2304.0,-0.0004206793091725558
2560.0,-0.0005684394855052233
2816.0,-0.00015428854385390878
3072.0,1.319419334322447e-05
3328.0,-0.000534858088940382
3584.0,-0.0005153968813829124
3840.0,2.5861907488433644e-05
4096.0,-9.765839786268771e-05
4608.0,0.0002421243116259575
5120.0,-0.0001192391719087027
5632.0,0.00040464740595780313
6144.0,7.890931010479107e-05
6656.0,0.0001887730904854834
7168.0,0.0002479778486303985
7680.0,0.00029565280419774354
8192.0,-0.0002147019113181159
end
