version,3.0
numOfCh,1
type,point
parent_name,19e3e_3dot0-1dot0
ch_type,1_1
kcount,1
numberNandB,1
brightnessNandB,1
carpet pos,0
pc,0
Time (ms),CH1 Auto-Correlation
1.0,0.015969790518283844
2.0,0.01310771331191063
3.0,0.011163975112140179
4.0,0.009564853273332119
5.0,0.00835772417485714
6.0,0.0074448552913963795
7.0,0.006748682353645563
8.0,0.006087024696171284
9.0,0.005581032484769821
10.0,0.005065052304416895
11.0,0.004658516030758619
12.0,0.004225056618452072
13.0,0.003915464971214533
14.0,0.003729351796209812
15.0,0.0036054335068911314
16.0,0.0033391565084457397
18.0,0.0029449474532157183
20.0,0.002541400957852602
22.0,0.0023805000819265842
24.0,0.0021466240286827087
26.0,0.00194300408475101
28.0,0.0016979030333459377
30.0,0.0014608281198889017
32.0,0.0013586839195340872
36.0,0.001551983063109219
40.0,0.0016427177470177412
44.0,0.0015350072644650936
48.0,0.0012749048182740808
52.0,0.00120242137927562
56.0,0.0008106732275336981
60.0,0.0005115593085065484
64.0,0.0004993694019503891
72.0,0.00048653798876330256
80.0,0.0002472028136253357
88.0,0.00010297406697645783
96.0,-3.82224861823488e-05
104.0,-0.00029958129744045436
112.0,-0.00018360561807639897
120.0,-0.00016941921785473824
128.0,-0.0003753254422917962
144.0,-0.0011958347167819738
160.0,-0.0008346574613824487
176.0,-0.00035169697366654873
192.0,-0.0001753041724441573
208.0,-0.0005244251224212348
224.0,-0.00036418356467038393
240.0,0.0005605793558061123
256.0,0.0008411676972173154
288.0,-0.00011641580204013735
320.0,-0.00012669515854213387
352.0,-0.00019136561604682356
384.0,-0.00022828778310213238
416.0,5.575533941737376e-05
448.0,7.835686119506136e-05
480.0,0.0005236555589362979
512.0,0.0006044461624696851
576.0,0.0003179436316713691
640.0,-0.00015352027548942715
704.0,0.0003788947651628405
768.0,0.00044351283577270806
832.0,0.00012269828584976494
896.0,-2.282808236486744e-05
960.0,-0.0005613204557448626
1024.0,-0.00025462883058935404
1152.0,-0.00020763117936439812
1280.0,0.0005019269301556051
1408.0,0.0002629341324791312
1536.0,-0.0003205494722351432
1664.0,-2.28557619266212e-05
1792.0,1.4923756680218503e-05
1920.0,9.125833457801491e-05
2048.0,0.0002530714264139533
2304.0,-0.00021219059999566525
2560.0,0.00010172901238547638
2816.0,-0.0001006679522106424
3072.0,0.00023180327843874693
3328.0,4.951378650730476e-05
3584.0,-1.2631526260520332e-05
3840.0,-2.8756598112522624e-05
4096.0,-5.202886677579954e-05
4608.0,-1.5205644558591302e-05
5120.0,-3.126173032796942e-05
5632.0,-6.02907057327684e-05
6144.0,-0.00019177437934558839
6656.0,-0.00033971984521485865
7168.0,-8.398021600442007e-05
7680.0,-1.6610096281510778e-05
8192.0,-0.0002002054825425148
end
