version,3.0
numOfCh,1
type,point
parent_name,19e3e_3dot0-1dot0
ch_type,1_1
kcount,1
numberNandB,1
brightnessNandB,1
carpet pos,0
pc,0
Time (ms),CH1 Auto-Correlation
1.0,0.015850180760025978
2.0,0.012964588589966297
3.0,0.010871561244130135
4.0,0.00945037230849266
5.0,0.008406338281929493
6.0,0.007676792796701193
7.0,0.007070491556078196
8.0,0.006602873094379902
9.0,0.006084488704800606
10.0,0.00560661219060421
11.0,0.005235995166003704
12.0,0.004895463585853577
13.0,0.0046514347195625305
14.0,0.004328181501477957
15.0,0.00406500743702054
16.0,0.003793775336816907
18.0,0.0034367358312010765
20.0,0.003103207563981414
22.0,0.0028081906493753195
24.0,0.0025821304880082607
26.0,0.0023682457394897938
28.0,0.0021631920244544744
30.0,0.002028175862506032
32.0,0.001926634693518281
36.0,0.0017605917528271675
40.0,0.002054736251011491
44.0,0.0021186673548072577
48.0,0.0020368739496916533
52.0,0.002012613695114851
56.0,0.0019172909669578075
60.0,0.0018803887069225311
64.0,0.0013899727491661906
72.0,0.001448033843189478
80.0,0.001663095667026937
88.0,0.0015498156426474452
96.0,0.0012121174950152636
104.0,0.0012497626012191176
112.0,0.0010292587103322148
120.0,0.0009327834704890847
128.0,0.0009097958100028336
144.0,0.0006350573385134339
160.0,0.00026765678194351494
176.0,3.866546830977313e-05
192.0,5.604260877589695e-05
208.0,-0.00012574612628668547
224.0,-5.429321026895195e-05
240.0,0.0007015261799097061
256.0,0.0006864133756607771
288.0,0.0003371206403244287
320.0,-5.129897181177512e-05
352.0,-3.8189395127119496e-05
384.0,-6.957255391171202e-05
416.0,-0.00041767253424040973
448.0,-0.0006442510639317334
480.0,-0.00028683440177701414
512.0,3.702789399540052e-05
576.0,-0.0003073611587751657
640.0,-0.0001306045742239803
704.0,-5.031019554735394e-06
768.0,0.000395737006329
832.0,0.0004791099636349827
896.0,3.457046648946971e-09
960.0,-0.0006408073822967708
1024.0,-0.0007751543307676911
1152.0,-0.0007283786544576287
1280.0,-0.0006219755741767585
1408.0,0.0002616200363263488
1536.0,0.0005200494197197258
1664.0,0.0003112788836006075
1792.0,0.00016296296962536871
1920.0,-0.0006567551172338426
2048.0,-0.0008465776918455958
2304.0,-2.81552074739011e-05
2560.0,-0.0005227381479926407
2816.0,-0.00047583316336385906
3072.0,2.1489704522537068e-05
3328.0,-0.000107662781374529
3584.0,0.00020174664678052068
3840.0,0.0002449863823130727
4096.0,0.00028339592972770333
4608.0,-8.624431939097121e-05
5120.0,-6.82852987665683e-05
5632.0,0.0006194794550538063
6144.0,0.00022148442803882062
6656.0,-0.00028953596483916044
7168.0,-0.00022386024647857994
7680.0,3.605020174290985e-05
8192.0,-0.0005657886504195631
end
