version,3.0
numOfCh,1
type,point
parent_name,19e3e_3dot0-1dot0
ch_type,1_1
kcount,1
numberNandB,1
brightnessNandB,1
carpet pos,0
pc,0
Time (ms),CH1 Auto-Correlation
1.0,0.016410816460847855
2.0,0.013417014852166176
3.0,0.011277412064373493
4.0,0.0097251171246171
5.0,0.008511295542120934
6.0,0.007589063607156277
7.0,0.006941243540495634
8.0,0.006444775965064764
9.0,0.005920709110796452
10.0,0.005417675245553255
11.0,0.0050063063390553
12.0,0.004691401030868292
13.0,0.004432665649801493
14.0,0.00427479762583971
15.0,0.00409831665456295
16.0,0.0038659358397126198
18.0,0.0035940431989729404
20.0,0.0033472850918769836
22.0,0.00313409767113626
24.0,0.00295994128100574
26.0,0.0028172906022518873
28.0,0.002542045433074236
30.0,0.002328667091205716
32.0,0.002052916679531336
36.0,0.0017363247461616993
40.0,0.0014233917463570833
44.0,0.0013854786520823836
48.0,0.0014044722774997354
52.0,0.0011242697946727276
56.0,0.0010549764847382903
60.0,0.000990664237178862
64.0,0.0006446342449635267
72.0,0.000743179814890027
80.0,0.0007316803676076233
88.0,0.0006132519920356572
96.0,0.0007221707492135465
104.0,0.001052351319231093
112.0,0.0008929813047870994
120.0,0.0005595694528892636
128.0,-0.00017843763635028154
144.0,-9.671685984358191e-05
160.0,-0.0001293511304538697
176.0,9.901829616865143e-05
192.0,0.0004909469862468541
208.0,0.0002679958415683359
224.0,0.0002911663905251771
240.0,-0.00010821401519933715
256.0,-0.00010922628280241042
288.0,-0.00029933350742794573
320.0,-7.73150532040745e-05
352.0,0.00011187107156729326
384.0,-0.0001843128411564976
416.0,0.0003181475040037185
448.0,0.0008163478341884911
480.0,0.0002515673404559493
512.0,3.141763954772614e-05
576.0,3.448439747444354e-05
640.0,0.00028855132404714823
704.0,0.0005857726209796965
768.0,0.0003598824259825051
832.0,-5.1801886002067477e-05
896.0,-0.0003336618246976286
960.0,-0.00042686302913352847
1024.0,-0.000595743244048208
1152.0,-0.00021629394905176014
1280.0,-0.0004154031921643764
1408.0,-0.0003254626935813576
1536.0,0.0001051573854056187
1664.0,4.654597069020383e-05
1792.0,-0.00011203301255591214
1920.0,-0.000224637464270927
2048.0,-3.8273396057775244e-05
2304.0,0.0002255953586427495
2560.0,5.7956494856625795e-05
2816.0,-8.83009415701963e-05
3072.0,-0.00022617906506638974
3328.0,-0.00013589106674771756
3584.0,4.722224184661172e-05
3840.0,-6.241996743483469e-05
4096.0,0.00018890462524723262
4608.0,-8.574595267418772e-05
5120.0,2.71969420282403e-05
5632.0,-0.00016949992277659476
6144.0,-0.0004456424794625491
6656.0,0.00019061063358094543
7168.0,-0.0001456027093809098
7680.0,-0.00046906594070605934
8192.0,1.0497431503608823e-05
end
