version,3.0
numOfCh,1
type,point
parent_name,19e3e_3dot0-1dot0
ch_type,1_1
kcount,1
numberNandB,1
brightnessNandB,1
carpet pos,0
pc,0
Time (ms),CH1 Auto-Correlation
1.0,0.01622229628264904
2.0,0.013190452009439468
3.0,0.011099646799266338
4.0,0.009688668884336948
5.0,0.008662186563014984
6.0,0.007748435251414776
7.0,0.007034956011921167
8.0,0.006425489205867052
9.0,0.005811668001115322
10.0,0.005266343709081411
11.0,0.004824227653443813
12.0,0.004523396957665682
13.0,0.00411884905770421
14.0,0.0037139221094548702
15.0,0.003438288578763604
16.0,0.0031409692019224167
18.0,0.0027433072682470083
20.0,0.0023705291096121073
22.0,0.0021040679421275854
24.0,0.001778346486389637
26.0,0.0015666482504457235
28.0,0.0014264449710026383
30.0,0.001087827142328024
32.0,0.000870024785399437
36.0,0.0007706587202847004
40.0,0.0007541061495430768
44.0,0.0005331432330422103
48.0,0.0007316761766560376
52.0,0.000761142058763653
56.0,0.0005859739612787962
60.0,0.0005093796062283218
64.0,0.0005823815008625388
72.0,0.00015244906535372138
80.0,-4.891076241619885e-05
88.0,-0.0002318813349120319
96.0,-0.00037717988016083837
104.0,3.352328349137679e-05
112.0,0.00018122665642295033
120.0,0.00012017842527711764
128.0,6.129914982011542e-05
144.0,-8.071291085798293e-05
160.0,-9.36088472371921e-05
176.0,-0.00010270359052810818
192.0,0.0003914438420906663
208.0,0.000543351168744266
224.0,0.0010426926892250776
240.0,0.0007675733650103211
256.0,0.0004148927400819957
288.0,-0.00022403958428185433
320.0,-0.00018293863104190677
352.0,0.00016143248649314046
384.0,-0.0003362750867381692
416.0,-0.0007047058315947652
448.0,7.591844769194722e-05
480.0,6.478353316197172e-05
512.0,7.96768563304795e-06
576.0,0.00026280630845576525
640.0,0.0002415502240182832
704.0,7.826637738617137e-05
768.0,-6.27219196758233e-05
832.0,-0.00032075881608761847
896.0,0.00027593335835263133
960.0,0.00021839716646354645
1024.0,0.0001712961820885539
1152.0,0.00012192261783638969
1280.0,-0.00026264472398906946
1408.0,-0.00015571339463349432
1536.0,-0.00011779577471315861
1664.0,-0.0005154420505277812
1792.0,-0.0002348007110413164
1920.0,-9.363539902551565e-06
2048.0,-2.1243482478894293e-05
2304.0,-1.8943512259284034e-05
2560.0,-2.450714964652434e-05
2816.0,-7.515176548622549e-05
3072.0,6.998317257966846e-05
3328.0,9.054377005668357e-05
3584.0,-0.0001304979668930173
3840.0,0.00023863221576903015
4096.0,0.00015625958621967584
4608.0,-0.0003104661009274423
5120.0,4.8996116674970835e-05
5632.0,-0.0002797764609567821
6144.0,-7.620847100042738e-06
6656.0,-8.365977555513382e-05
7168.0,0.00036088417982682586
7680.0,8.598531167081092e-07
8192.0,0.0003960493777412921
end
