version,3.0
numOfCh,1
type,point
parent_name,19e3e_3dot0-1dot0
ch_type,1_1
kcount,1
numberNandB,1
brightnessNandB,1
carpet pos,0
pc,0
Time (ms),CH1 Auto-Correlation
1.0,0.016691043972969055
2.0,0.013759708032011986
3.0,0.01169818639755249
4.0,0.010110210627317429
5.0,0.008925885893404484
6.0,0.007992583326995373
7.0,0.00720494519919157
8.0,0.0067529683001339436
9.0,0.006354772485792637
10.0,0.005872918292880058
11.0,0.00544127868488431
12.0,0.005005475599318743
13.0,0.004661777522414923
14.0,0.00437144935131073
15.0,0.004036447033286095
16.0,0.003714073682203889
18.0,0.003284775884822011
20.0,0.0029973306227475405
22.0,0.0028077096212655306
24.0,0.0026362088974565268
26.0,0.002539403038099408
28.0,0.002343362895771861
30.0,0.0022354256361722946
32.0,0.002036196878179908
36.0,0.0016429874813184142
40.0,0.0014553756918758154
44.0,0.0013430030085146427
48.0,0.001157777733169496
52.0,0.001204359927214682
56.0,0.0010995825286954641
60.0,0.0009614969021640718
64.0,0.000642528641037643
72.0,0.0008583159651607275
80.0,0.0006629203562624753
88.0,0.0007666021701879799
96.0,0.0008065460715442896
104.0,0.0007490005809813738
112.0,0.0005811470909975469
120.0,0.00029838684713467956
128.0,5.172116289031692e-05
144.0,0.00024360138922929764
160.0,0.00023783835058566183
176.0,-0.0003252222086302936
192.0,-0.00045283837243914604
208.0,-0.0003283666737843305
224.0,4.1261871956521645e-05
240.0,0.0003939160378649831
256.0,0.0004908626433461905
288.0,0.00010657182428985834
320.0,0.0002915106888394803
352.0,0.0005555071984417737
384.0,0.0003563739010132849
416.0,-2.6721781978267245e-05
448.0,-0.000327848392771557
480.0,3.929108061129227e-05
512.0,-0.00011481575347715989
576.0,1.67323014466092e-05
640.0,0.0002502134011592716
704.0,5.111498830956407e-05
768.0,-0.00021855480736121535
832.0,-0.00029459019424393773
896.0,-0.00015741921379230917
960.0,0.000358903082087636
1024.0,8.27931216917932e-05
1152.0,-0.0003199039201717824
1280.0,-6.714468327118084e-05
1408.0,-0.0001685222814558074
1536.0,-1.8892133084591478e-05
1664.0,-0.00030821363907307386
1792.0,-0.0005178772262297571
1920.0,-0.0003552671696525067
2048.0,0.00018519080185797065
2304.0,-0.00020722528279293329
2560.0,0.00027327408315613866
2816.0,0.0003473709220997989
3072.0,-0.0001443793880753219
3328.0,6.10323331784457e-06
3584.0,-0.00016626510478090495
3840.0,-0.0002585006586741656
4096.0,-0.00011122299474664032
4608.0,-0.0003037795831914991
5120.0,-0.00012372698984108865
5632.0,0.0002042696432908997
6144.0,-0.00023896479979157448
6656.0,8.86127891135402e-05
7168.0,-7.117146014934406e-05
7680.0,0.00025492068380117416
8192.0,0.0006256740889512002
end
