version,3.0
numOfCh,1
type,point
parent_name,19e3e_3dot0-1dot0
ch_type,1_1
kcount,1
numberNandB,1
brightnessNandB,1
carpet pos,0
pc,0
Time (ms),CH1 Auto-Correlation
1.0,0.016553325578570366
2.0,0.013508041389286518
3.0,0.011391033418476582
4.0,0.009885771200060844
5.0,0.008747642859816551
6.0,0.00782501045614481
7.0,0.007016552146524191
8.0,0.006358897779136896
9.0,0.005882500670850277
10.0,0.005452532786875963
11.0,0.005037399474531412
12.0,0.004736616276204586
13.0,0.004502331372350454
14.0,0.004249710589647293
15.0,0.0039592222310602665
16.0,0.00366614549420774
18.0,0.003298079129308462
20.0,0.0030815275385975838
22.0,0.0030863734427839518
24.0,0.003057650988921523
26.0,0.0029957520309835672
28.0,0.0028075752779841423
30.0,0.002618982922285795
32.0,0.0024440994020551443
36.0,0.002039443701505661
40.0,0.0016046148957684636
44.0,0.001562303164973855
48.0,0.0016426249640062451
52.0,0.0013893849682062864
56.0,0.001088273711502552
60.0,0.0008841393282637
64.0,0.0007841931073926389
72.0,0.0006289784796535969
80.0,0.0008488388266414404
88.0,0.00044777742004953325
96.0,0.00023069344752002507
104.0,0.0004140285309404135
112.0,0.00047811836702749133
120.0,0.000351230293745175
128.0,0.0005326811224222183
144.0,0.0001790118549251929
160.0,0.0002559843414928764
176.0,5.168309508007951e-05
192.0,-0.00042842121911235154
208.0,-0.00028275264776311815
224.0,-0.0002381714730290696
240.0,-9.013135422719643e-05
256.0,-0.0003379955014679581
288.0,-0.00033240619814023376
320.0,-0.0005287748062983155
352.0,-0.0009882821468636394
384.0,-0.0007865148945711553
416.0,-0.0008168784552253783
448.0,-0.0007966794073581696
480.0,-0.0007283433806151152
512.0,-0.0002865235728677362
576.0,-1.974797669390682e-05
640.0,0.0002652734983712435
704.0,0.00026995237567462027
768.0,0.00015106465434655547
832.0,-8.599049760960042e-05
896.0,9.146708907792345e-05
960.0,0.0001756577257765457
1024.0,0.00041770547977648675
1152.0,0.00016014750872272998
1280.0,-0.00019329291535541415
1408.0,-0.0007063164375722408
1536.0,-0.00021321071835700423
1664.0,0.0004629027971532196
1792.0,0.000425949867349118
1920.0,8.84333421709016e-05
2048.0,-0.0002291357086505741
2304.0,-0.00019637618970591575
2560.0,1.1399724826333113e-05
2816.0,0.0002773119485937059
3072.0,-5.830065128975548e-05
3328.0,-0.00022304699814412743
3584.0,0.00020944456628058106
3840.0,-0.00020998105173930526
4096.0,-0.0003181170905008912
4608.0,-3.385151649126783e-05
5120.0,0.00020096643129363656
5632.0,-3.79041739506647e-05
6144.0,0.00020078575471416116
6656.0,-9.851325739873573e-05
7168.0,2.1731799279223196e-05
7680.0,5.467330265673809e-05
8192.0,-6.47476626909338e-05
end
