version,3.0
numOfCh,1
type,point
parent_name,19e3e_3dot0-1dot0
ch_type,1_1
kcount,1
numberNandB,1
brightnessNandB,1
carpet pos,0
pc,0
Time (ms),CH1 Auto-Correlation
1.0,0.01653420180082321
2.0,0.013517649844288826
3.0,0.011397021822631359
4.0,0.009849187918007374
5.0,0.00856231153011322
6.0,0.007667721249163151
7.0,0.006937599275261164
8.0,0.006210687570273876
9.0,0.005653058644384146
10.0,0.005235541146248579
11.0,0.004854367580264807
12.0,0.0044751521199941635
13.0,0.004265594761818647
14.0,0.0041680652648210526
15.0,0.0038951183669269085
16.0,0.0036209821701049805
18.0,0.003144007408991456
20.0,0.0027361020911484957
22.0,0.0024670837447047234
24.0,0.002189258113503456
26.0,0.0018933910178020597
28.0,0.0018454387318342924
30.0,0.0018906905315816402
32.0,0.001980417873710394
36.0,0.00186035200022161
40.0,0.0017449806910008192
44.0,0.0014928210293874145
48.0,0.001421747962012887
52.0,0.0013442224590107799
56.0,0.0014164707390591502
60.0,0.001378417480736971
64.0,0.0011949195759370923
72.0,0.0006286327843554318
80.0,0.0004879572079516947
88.0,0.00038787079392932355
96.0,0.00060939637478441
104.0,0.0009329603053629398
112.0,0.0008336517494171858
120.0,0.0005260980688035488
128.0,0.000264182745013386
144.0,7.568034925498068e-05
160.0,0.0008271739934571087
176.0,0.000800980138592422
192.0,6.295608181972057e-05
208.0,0.0003442045417614281
224.0,0.00024139275774359703
240.0,-9.756235522218049e-05
256.0,0.00043499679304659367
288.0,0.00031099520856514573
320.0,0.0008769188425503671
352.0,0.0005831272574141622
384.0,0.00037219966179691255
416.0,0.00013356906129047275
448.0,-7.038396233838284e-06
480.0,-9.222497465088964e-05
512.0,-0.00014223909238353372
576.0,2.8373435270623304e-05
640.0,0.0002266360097564757
704.0,-3.4422460885252804e-05
768.0,-0.0004304792091716081
832.0,-0.00023063515254762024
896.0,-0.00027202480123378336
960.0,9.091212268685922e-05
1024.0,-7.263349834829569e-05
1152.0,9.483875328442082e-05
1280.0,-0.00023486676218453795
1408.0,-0.0003357888199388981
1536.0,-0.0002950593188870698
1664.0,-0.00025416098651476204
1792.0,-1.8524824554333463e-05
1920.0,-0.00044962484389543533
2048.0,-0.00043908608495257795
2304.0,-7.78479952714406e-05
2560.0,0.00031711673364043236
2816.0,0.00022092569270171225
3072.0,0.00016968217096291482
3328.0,-4.649667243938893e-05
3584.0,0.00013176642823964357
3840.0,0.00011262049520155415
4096.0,0.00042052200296893716
4608.0,-0.00021868880139663815
5120.0,8.2640144682955e-06
5632.0,-0.0002274847647640854
6144.0,9.773632336873561e-05
6656.0,0.00017158692935481668
7168.0,-0.0006981099140830338
7680.0,-0.00016666602459736168
8192.0,0.00014369036944117397
end
