version,3.0
numOfCh,1
type,point
parent_name,19e3e_3dot0-1dot0
ch_type,1_1
kcount,1
numberNandB,1
brightnessNandB,1
carpet pos,0
pc,0
Time (ms),CH1 Auto-Correlation
1.0,0.01608157344162464
2.0,0.013129736296832561
3.0,0.011101809330284595
4.0,0.00955843273550272
5.0,0.008301260881125927
6.0,0.00744858430698514
7.0,0.006668005604296923
8.0,0.005962223745882511
9.0,0.005403461866080761
10.0,0.00496767507866025
11.0,0.004533796105533838
12.0,0.004302438348531723
13.0,0.004050750285387039
14.0,0.0036839216481894255
15.0,0.003461014712229371
16.0,0.00320478156208992
18.0,0.002865514485165477
20.0,0.002616280224174261
22.0,0.0024195509031414986
24.0,0.00231914222240448
26.0,0.0022240360267460346
28.0,0.002113102003931999
30.0,0.0018695755861699581
32.0,0.001712968572974205
36.0,0.0013674050569534302
40.0,0.0015246837865561247
44.0,0.001622629351913929
48.0,0.0016497998731210828
52.0,0.0015522284666076303
56.0,0.0012791866902261972
60.0,0.001356419175863266
64.0,0.0011623140890151262
72.0,0.0008570943027734756
80.0,0.0005757994949817657
88.0,0.0003049151855520904
96.0,0.00039025189471431077
104.0,0.0007064950186759233
112.0,0.0007913297740742564
120.0,0.0007879961631260812
128.0,0.0007473933510482311
144.0,0.0007691692444495857
160.0,0.0005205516354180872
176.0,0.00013095565373077989
192.0,-0.00033158366568386555
208.0,-0.0002685996296349913
224.0,-0.00044274464016780257
240.0,-0.0007169755990616977
256.0,-0.0001808709930628538
288.0,-0.00010707102046580985
320.0,-0.0001681541616562754
352.0,-0.0006611893768422306
384.0,-0.00047973738401196897
416.0,-0.00039781807572580874
448.0,-0.0002047728921752423
480.0,0.0002361040242249146
512.0,-0.00017879017104860395
576.0,-0.00039445629226975143
640.0,-4.412337875692174e-05
704.0,-0.00046083502820692956
768.0,-0.00020382138609420508
832.0,-0.00024383382697124034
896.0,-5.651438914355822e-05
960.0,-4.68849884782685e-06
1024.0,-0.000251801626291126
1152.0,-8.15119783510454e-05
1280.0,-0.00012532260734587908
1408.0,-7.835589349269867e-05
1536.0,0.00012787488230969757
1664.0,0.0001538608194096014
1792.0,8.603453352407087e-06
1920.0,-7.555839692940935e-05
2048.0,-0.0002974150120280683
2304.0,-0.0002410123561276123
2560.0,0.00024931898224167526
2816.0,-5.397155473474413e-05
3072.0,-0.00024938525166362524
3328.0,-1.1671098945953418e-05
3584.0,0.00034804968163371086
3840.0,-0.0001257712865481153
4096.0,5.6407068768749014e-05
4608.0,-0.00032857965561561286
5120.0,0.00012567454541567713
5632.0,-3.2900902624533046e-06
6144.0,8.480215910822153e-05
6656.0,-0.00015903970052022487
7168.0,0.00032362117781303823
7680.0,-0.00020156515529379249
8192.0,6.797934474889189e-05
end
