version,3.0
numOfCh,1
type,point
parent_name,19e3e_3dot0-1dot0
ch_type,1_1
kcount,1
numberNandB,1
brightnessNandB,1
carpet pos,0
pc,0
Time (ms),CH1 Auto-Correlation
1.0,0.016564587131142616
2.0,0.013667099177837372
3.0,0.011539971455931664
4.0,0.01007987093180418
5.0,0.008973290212452412
6.0,0.0079948790371418
7.0,0.007221486885100603
8.0,0.006449689157307148
9.0,0.005947884637862444
10.0,0.005500901956111193
11.0,0.005108601879328489
12.0,0.004723620135337114
13.0,0.004437786992639303
14.0,0.00415400555357337
15.0,0.003975040279328823
16.0,0.0037777044344693422
18.0,0.003484788117930293
20.0,0.003076746826991439
22.0,0.0027008792385458946
24.0,0.00237731053493917
26.0,0.002280857414007187
28.0,0.0021195565350353718
30.0,0.0019927232060581446
32.0,0.0018590370891615748
36.0,0.0017731558764353395
40.0,0.0017437961651012301
44.0,0.0015470028156414628
48.0,0.0015241352375596762
52.0,0.0015005551977083087
56.0,0.001598508795723319
60.0,0.0015255594626069069
64.0,0.0012396641541272402
72.0,0.0008147222688421607
80.0,0.0006271771853789687
88.0,0.0007554283365607262
96.0,0.0007138355867937207
104.0,0.0005207369686104357
112.0,0.00041834780131466687
120.0,8.311264537042007e-05
128.0,0.00027433561626821756
144.0,0.0002605275949463248
160.0,0.00012670121213886887
176.0,-0.0003226367989555001
192.0,-0.00041197959217242897
208.0,-0.0005064020515419543
224.0,-0.0003769469622056931
240.0,-0.00047785212518647313
256.0,-0.000907146546524018
288.0,8.240688475780189e-05
320.0,-0.0003964686766266823
352.0,0.0003197655314579606
384.0,0.0005568328779190779
416.0,4.912086296826601e-05
448.0,0.00029057549545541406
480.0,0.00041908008279278874
512.0,0.00012155171134509146
576.0,6.359525286825374e-05
640.0,-0.0003778663813136518
704.0,-0.0007255254313349724
768.0,-0.00045024638529866934
832.0,6.326823495328426e-05
896.0,4.344018088886514e-05
960.0,0.000367996544810012
1024.0,0.0004956113989464939
1152.0,-0.00017466382996644825
1280.0,-0.00034062605118378997
1408.0,0.0001489081041654572
1536.0,-4.119604636798613e-05
1664.0,-0.00036241632187739015
1792.0,0.0003300212265457958
1920.0,0.00035492994356900454
2048.0,-0.0003643089148681611
2304.0,-0.00018018386617768556
2560.0,-0.0002985713945236057
2816.0,-0.00040269288001582026
3072.0,4.965101106790826e-05
3328.0,-2.8625519917113706e-05
3584.0,9.207118273479864e-05
3840.0,-3.676510459627025e-05
4096.0,0.00031402535387314856
4608.0,-0.00012690576841123402
5120.0,-4.5658700400963426e-05
5632.0,-5.6737691920716316e-05
6144.0,3.9137379644671455e-05
6656.0,-0.00025186760467477143
7168.0,0.00011045571591239423
7680.0,0.00015430289204232395
8192.0,0.0004100881633348763
end
