version,3.0
numOfCh,1
type,point
parent_name,19e3e_3dot0-1dot0
ch_type,1_1
kcount,1
numberNandB,1
brightnessNandB,1
carpet pos,0
pc,0
Time (ms),CH1 Auto-Correlation
1.0,0.01841011643409729
2.0,0.015497717075049877
3.0,0.01336628571152687
4.0,0.011668050661683083
5.0,0.010421527549624443
6.0,0.009429233148694038
7.0,0.008676848374307156
8.0,0.008043655194342136
9.0,0.00756237655878067
10.0,0.007077615708112717
11.0,0.006723881233483553
12.0,0.006412106566131115
13.0,0.006153925321996212
14.0,0.005831312388181686
15.0,0.005448915529996157
16.0,0.0052143787033855915
18.0,0.004815311171114445
20.0,0.004661600571125746
22.0,0.004455443937331438
24.0,0.004318558145314455
26.0,0.00404408248141408
28.0,0.0038044098764657974
30.0,0.003499759826809168
32.0,0.0031516607850790024
36.0,0.0027403798885643482
40.0,0.002744376426562667
44.0,0.0025971808936446905
48.0,0.0022316533140838146
52.0,0.0022266951855272055
56.0,0.0020292382687330246
60.0,0.0019494319567456841
64.0,0.0021014418452978134
72.0,0.0023003520909696817
80.0,0.0024420288391411304
88.0,0.0024146391078829765
96.0,0.002315764781087637
104.0,0.001978223444893956
112.0,0.002175890142098069
120.0,0.0017045395215973258
128.0,0.0014804403763264418
144.0,0.0011733341962099075
160.0,0.0013760688016191125
176.0,0.0015713304746896029
192.0,0.0014254538109526038
208.0,0.001038754591718316
224.0,0.0009918517898768187
240.0,0.0008249454549513757
256.0,0.0008377699996344745
288.0,6.0674126871163025e-05
320.0,-0.0005439013475552201
352.0,-8.87454953044653e-05
384.0,-0.0004158808442298323
416.0,-0.000197510133148171
448.0,-0.000516759988386184
480.0,-0.0005480137187987566
512.0,-0.0005818051868118346
576.0,-0.00030872522620484233
640.0,-0.0007430374971590936
704.0,-0.00039355678018182516
768.0,-0.0004950531874783337
832.0,-0.00016940264322329313
896.0,0.00019294202502351254
960.0,0.0005552496877498925
1024.0,0.0006018613930791616
1152.0,0.00028189338627271354
1280.0,-0.00016221885744016618
1408.0,-0.00026879768120124936
1536.0,-0.000510520301759243
1664.0,-0.0008422467508353293
1792.0,-0.0013053705915808678
1920.0,-0.001195581629872322
2048.0,-0.0008120178245007992
2304.0,0.00016435718862339854
2560.0,0.00084969203453511
2816.0,0.0001107890420826152
3072.0,-0.000414205773267895
3328.0,0.0004843900096602738
3584.0,0.0003320448158774525
3840.0,0.00032076542265713215
4096.0,1.4495170944428537e-05
4608.0,-0.0004759131697937846
5120.0,-0.0003104333009105176
5632.0,-0.00022604026889894158
6144.0,0.0005191112868487835
6656.0,0.00042583642061799765
7168.0,-4.347387221059762e-05
7680.0,0.00026014738250523806
8192.0,-0.0005284619401209056
end
