version,3.0
numOfCh,1
type,point
parent_name,19e3e_3dot0-1dot0
ch_type,1_1
kcount,1
numberNandB,1
brightnessNandB,1
carpet pos,0
pc,0
Time (ms),CH1 Auto-Correlation
1.0,0.016362573951482773
2.0,0.013323662802577019
3.0,0.01121376734226942
4.0,0.009653760120272636
5.0,0.008405772969126701
6.0,0.007440734189003706
7.0,0.00662272097542882
8.0,0.005883142817765474
9.0,0.005260469391942024
10.0,0.00476155336946249
11.0,0.004396908450871706
12.0,0.004031950607895851
13.0,0.003764163935557008
14.0,0.0035825048107653856
15.0,0.00335307908244431
16.0,0.0032935841009020805
18.0,0.0029810944106429815
20.0,0.0026369821280241013
22.0,0.0025493947323411703
24.0,0.002364395884796977
26.0,0.0021473641972988844
28.0,0.0019156059715896845
30.0,0.0018942212918773293
32.0,0.0018858183175325394
36.0,0.0014475845964625478
40.0,0.0013005017535760999
44.0,0.0010811206884682178
48.0,0.0007584288250654936
52.0,0.0004939243081025779
56.0,0.0002370911097386852
60.0,0.00019738130504265428
64.0,0.00019750589854083955
72.0,0.00010686524183256552
80.0,-9.542165935272351e-05
88.0,-0.00021544774062931538
96.0,-0.0002070232731057331
104.0,-0.0003069774538744241
112.0,2.8093949367757887e-05
120.0,-4.2433664930285886e-05
128.0,9.421091817785054e-05
144.0,-0.0001636726810829714
160.0,9.727499127620831e-05
176.0,-4.178767267148942e-05
192.0,0.0002870735770557076
208.0,-0.0001904547243611887
224.0,-0.00019800123118329793
240.0,0.0005531823844648898
256.0,0.0007892246940173209
288.0,0.00044994757627137005
320.0,-8.638194231025409e-06
352.0,0.00022238331439439207
384.0,-0.00019041770428884774
416.0,-0.0002192432584706694
448.0,-0.000330532988300547
480.0,-8.84078981471248e-05
512.0,0.00014084709982853383
576.0,-0.00029413661104626954
640.0,-0.0005792619776912034
704.0,-8.141360012814403e-05
768.0,-7.356613787123933e-05
832.0,-0.0003796438977587968
896.0,-0.00042199844028800726
960.0,-0.00045214311103336513
1024.0,-4.2866115109063685e-05
1152.0,-5.352181688067503e-06
1280.0,-0.0006594410515390337
1408.0,-0.00017500596004538238
1536.0,5.5304422858171165e-05
1664.0,-0.0002954987285193056
1792.0,-3.918535730917938e-05
1920.0,0.0003565178776625544
2048.0,-2.6348505343776196e-05
2304.0,0.0003743933339137584
2560.0,9.864861203823239e-05
2816.0,-0.0002344451058888808
3072.0,0.00019752045045606792
3328.0,-0.00011665477359201759
3584.0,-0.00010290113277733326
3840.0,0.00023197158589027822
4096.0,-0.0001190158145618625
4608.0,0.000265811599092558
5120.0,-0.0002540087734814733
5632.0,8.060615073191002e-05
6144.0,0.00017939733515959233
6656.0,-0.0001707748742774129
7168.0,-0.000309784896671772
7680.0,0.00042471513734199107
8192.0,0.00012380849511828274
end
