version,3.0
numOfCh,1
type,point
parent_name,19e3e_3dot0-1dot0
ch_type,1_1
kcount,1
numberNandB,1
brightnessNandB,1
carpet pos,0
pc,0
Time (ms),CH1 Auto-Correlation
1.0,0.01689791865646839
2.0,0.013907530345022678
3.0,0.011790398508310318
4.0,0.010226408950984478
5.0,0.00911240465939045
6.0,0.008130929432809353
7.0,0.007314734160900116
8.0,0.006692772265523672
9.0,0.006225586868822575
10.0,0.0058044856414198875
11.0,0.005516048055142164
12.0,0.005321234930306673
13.0,0.005106641910970211
14.0,0.004908133298158646
15.0,0.004555790685117245
16.0,0.004207956604659557
18.0,0.0037256935611367226
20.0,0.0033966032788157463
22.0,0.003091253573074937
24.0,0.0030032231006771326
26.0,0.0030114161781966686
28.0,0.0028701801784336567
30.0,0.002641271101310849
32.0,0.0025607836432754993
36.0,0.0022522632498294115
40.0,0.0021070092916488647
44.0,0.002128236461430788
48.0,0.0019048358080908656
52.0,0.0017831727163866162
56.0,0.0016889286926016212
60.0,0.0019487268291413784
64.0,0.0019705200102180243
72.0,0.0017401049844920635
80.0,0.0015713192988187075
88.0,0.0011559283593669534
96.0,0.0010468395194038749
104.0,0.0011286372318863869
112.0,0.0010204201098531485
120.0,0.0006271863239817321
128.0,0.000622608873527497
144.0,0.000908748188521713
160.0,0.0005944273434579372
176.0,-0.0003062758769374341
192.0,0.00012646378309000283
208.0,-0.00024858067627064884
224.0,-0.00014611570804845542
240.0,-0.0003243375977035612
256.0,0.00017221347661688924
288.0,-0.0004152286855969578
320.0,-0.00045737012987956405
352.0,-0.00018796340737026185
384.0,-0.0001697356055956334
416.0,0.00033725309185683727
448.0,0.00022443044872488827
480.0,0.0004293209931347519
512.0,0.00027685504755936563
576.0,0.00017215992556884885
640.0,-0.0004064819950144738
704.0,-5.592661182163283e-05
768.0,-0.000677481759339571
832.0,-0.0005511993076652288
896.0,-0.0002359819336561486
960.0,0.00041298926225863397
1024.0,0.0002811502490658313
1152.0,0.00020623909949790686
1280.0,0.00034496746957302094
1408.0,-0.00016734725795686245
1536.0,-8.050033648032695e-05
1664.0,-0.0007318175630643964
1792.0,-0.0005800597718916833
1920.0,0.00014489413297269493
2048.0,0.0003755429061129689
2304.0,-0.00029839001945219934
2560.0,-0.0003026396152563393
2816.0,-0.00035802758065983653
3072.0,9.109879465540871e-05
3328.0,0.0004700476420111954
3584.0,0.00037925460492260754
3840.0,9.759835666045547e-05
4096.0,-0.0002298548206454143
4608.0,-0.0005240124301053584
5120.0,5.2574894652934745e-05
5632.0,0.00015930818335618824
6144.0,-2.6283607439836487e-05
6656.0,-2.8184282200527377e-05
7168.0,0.0002339929051231593
7680.0,-0.0012178919278085232
8192.0,9.458938438910991e-05
end
