version,3.0
numOfCh,1
type,point
parent_name,19e3e_3dot0-1dot0
ch_type,1_1
kcount,1
numberNandB,1
brightnessNandB,1
carpet pos,0
pc,0
Time (ms),CH1 Auto-Correlation
1.0,0.016713887453079224
2.0,0.013703456148505211
3.0,0.011694270186126232
4.0,0.010190608911216259
5.0,0.009132489562034607
6.0,0.008295781910419464
7.0,0.007576062809675932
8.0,0.006881736684590578
9.0,0.0061532557010650635
10.0,0.005635787732899189
11.0,0.005322803743183613
12.0,0.005032283719629049
13.0,0.0048362924717366695
14.0,0.004542872309684753
15.0,0.004260042682290077
16.0,0.004102000035345554
18.0,0.003692277939990163
20.0,0.003396775107830763
22.0,0.003261063015088439
24.0,0.003048615762963891
26.0,0.002804015763103962
28.0,0.002384586026892066
30.0,0.0020080567337572575
32.0,0.0018140735337510705
36.0,0.0017098996322602034
40.0,0.0017116800881922245
44.0,0.0017458421643823385
48.0,0.0014275016728788614
52.0,0.0011016965145245194
56.0,0.001190561568364501
60.0,0.0010540970833972096
64.0,0.0008269874379038811
72.0,0.0008520057890564203
80.0,0.0006785342120565474
88.0,0.0005301116616465151
96.0,0.000541245099157095
104.0,0.00046844498137943447
112.0,0.0007070904830470681
120.0,0.00042740185745060444
128.0,0.0004388369561638683
144.0,0.00012469822831917554
160.0,-0.00010314178507542238
176.0,-7.404164352919906e-05
192.0,0.00013749682693742216
208.0,-0.0005886225844733417
224.0,-0.0007764486945234239
240.0,-0.0004114743787795305
256.0,-0.00029968051239848137
288.0,-0.0006982206832617521
320.0,-0.0008736799354664981
352.0,-0.0009573843562975526
384.0,-0.000273317244136706
416.0,2.3132875867304392e-05
448.0,0.0003785599546972662
480.0,0.00027958847931586206
512.0,0.0003181961947120726
576.0,-0.00037666907883249223
640.0,-0.00019198156951460987
704.0,0.0003523924096953124
768.0,-4.9062789912568405e-05
832.0,9.141727787209675e-05
896.0,3.7494784919545054e-05
960.0,-4.161946890235413e-06
1024.0,-0.00036795533378608525
1152.0,0.00021656481840182096
1280.0,0.0001597029040567577
1408.0,-8.901977707864717e-05
1536.0,0.00024721657973714173
1664.0,0.0001457684556953609
1792.0,0.00010244233999401331
1920.0,0.00012926044291816652
2048.0,0.00033528570202179253
2304.0,1.6669113165335148e-06
2560.0,-3.5779612517217174e-05
2816.0,-0.00012965653149876744
3072.0,0.00015779733075760305
3328.0,0.00022293021902441978
3584.0,-2.3443904865416698e-05
3840.0,-0.0005560778081417084
4096.0,0.00035220314748585224
4608.0,-0.000252079771598801
5120.0,5.742986832046881e-05
5632.0,-0.00013176450738683343
6144.0,-8.508764585712925e-05
6656.0,-0.00010011615813709795
7168.0,-0.00010720316640799865
7680.0,-0.00018948878278024495
8192.0,0.00011156013351865113
end
