version,3.0
numOfCh,1
type,point
parent_name,19e3e_3dot0-1dot0
ch_type,1_1
kcount,1
numberNandB,1
brightnessNandB,1
carpet pos,0
pc,0
Time (ms),CH1 Auto-Correlation
1.0,0.017857428640127182
2.0,0.014834538102149963
3.0,0.012650247663259506
4.0,0.010924710892140865
5.0,0.009585011750459671
6.0,0.008587582968175411
7.0,0.0076856957748532295
8.0,0.006895322818309069
9.0,0.006196966394782066
10.0,0.005559643730521202
11.0,0.005062276031821966
12.0,0.0046014245599508286
13.0,0.004199114628136158
14.0,0.003879313822835684
15.0,0.0036428426392376423
16.0,0.0034402019809931517
18.0,0.003077755682170391
20.0,0.002925535198301077
22.0,0.002845741342753172
24.0,0.002732449909672141
26.0,0.0027194174472242594
28.0,0.002814137376844883
30.0,0.0027808616869151592
32.0,0.002545615890994668
36.0,0.0020468488801270723
40.0,0.0016764425672590733
44.0,0.001531988033093512
48.0,0.0014409456634894013
52.0,0.0011413738830015063
56.0,0.0008455630159005523
60.0,0.001091617508791387
64.0,0.0011760323541238904
72.0,0.000879380211699754
80.0,0.0006895883707329631
88.0,0.0009388955077156425
96.0,0.0009833064395934343
104.0,0.0007661627023480833
112.0,0.0002999455900862813
120.0,0.00014556696987710893
128.0,0.00020798335026483983
144.0,-0.00032760229078121483
160.0,-0.00031527929240837693
176.0,-0.00031128444243222475
192.0,-0.0005246874643489718
208.0,-0.001137755112722516
224.0,-0.0006050382507964969
240.0,-0.0005630716914311051
256.0,-0.0006016717525199056
288.0,-0.0006894150283187628
320.0,-0.00037930154940113425
352.0,0.0001933441817527637
384.0,0.0006291491445153952
416.0,0.0002700770564842969
448.0,-0.000480237154988572
480.0,-0.00019073628936894238
512.0,-0.00010854230640688911
576.0,-0.0003209114947821945
640.0,-0.0003376888344064355
704.0,-0.00023035812773741782
768.0,-0.0005092868232168257
832.0,-0.00011666325735859573
896.0,0.0004112072929274291
960.0,0.0004874948936048895
1024.0,0.00010342797031626105
1152.0,-3.869695319735911e-06
1280.0,0.0006093538249842823
1408.0,0.0004282093432266265
1536.0,-0.00019152555614709854
1664.0,-0.00024097462301142514
1792.0,-0.0007465250673703849
1920.0,-0.0002703673089854419
2048.0,-5.306599268806167e-05
2304.0,-0.00018063765310216695
2560.0,2.027869595622178e-05
2816.0,0.00020375761960167438
3072.0,-0.0003320910327602178
3328.0,-8.132455695886165e-05
3584.0,-0.00016508936823811382
3840.0,-4.0525115764467046e-05
4096.0,0.0003225884574931115
4608.0,-0.00013272088835947216
5120.0,0.00012053007230861112
5632.0,-5.826828783028759e-05
6144.0,2.5586776246200316e-05
6656.0,0.00029999439720995724
7168.0,-0.0001317399728577584
7680.0,-0.00014554891095031053
8192.0,6.998533353907987e-05
end
