version,3.0
numOfCh,1
type,point
parent_name,19e3e_3dot0-1dot0
ch_type,1_1
kcount,1
numberNandB,1
brightnessNandB,1
carpet pos,0
pc,0
Time (ms),CH1 Auto-Correlation
1.0,0.016692953184247017
2.0,0.013842194341123104
3.0,0.01178153045475483
4.0,0.01025298610329628
5.0,0.009114526212215424
6.0,0.008093904703855515
7.0,0.007388153113424778
8.0,0.0068731349892914295
9.0,0.006363105960190296
10.0,0.005806555040180683
11.0,0.005342775955796242
12.0,0.004977742210030556
13.0,0.00465110968798399
14.0,0.004405923653393984
15.0,0.004214789718389511
16.0,0.003980083856731653
18.0,0.0036173081025481224
20.0,0.0033154364209622145
22.0,0.0030176374129951
24.0,0.002775826957076788
26.0,0.002663940191268921
28.0,0.0024078642018139362
30.0,0.0021336227655410767
32.0,0.0018276447663083673
36.0,0.0015680210199207067
40.0,0.0015464129392057657
44.0,0.001535634626634419
48.0,0.001266246079467237
52.0,0.001119190827012062
56.0,0.0010414867429062724
60.0,0.0009624169324524701
64.0,0.0008123943698592484
72.0,0.0006881429580971599
80.0,0.0004740088770631701
88.0,0.00010247274622088298
96.0,0.00024074577959254384
104.0,0.0001630893093533814
112.0,0.0003605382808018476
120.0,0.0008658056030981243
128.0,0.0008850941085256636
144.0,0.0006104166386649013
160.0,0.0004532318271230906
176.0,0.0007709128549322486
192.0,0.0005723526701331139
208.0,0.0006043652538210154
224.0,0.00036962871672585607
240.0,0.0003720731765497476
256.0,0.00020257459254935384
288.0,-0.0004635196237359196
320.0,-0.0001962003152584657
352.0,-0.00017352316353935748
384.0,-0.00045964514720253646
416.0,0.00011462860857136548
448.0,-0.00024200775078497827
480.0,-0.00013267924077808857
512.0,-4.6296609070850536e-05
576.0,-4.649424954550341e-05
640.0,0.00016497104661539197
704.0,0.00013051301357336342
768.0,0.0004619443498086184
832.0,0.0005399638321250677
896.0,0.00044836982851848006
960.0,-1.7764847143553197e-05
1024.0,0.00032109100720845163
1152.0,0.00017760628543328494
1280.0,1.7628688510740176e-05
1408.0,2.7626097107713576e-06
1536.0,0.0002753864973783493
1664.0,6.337273953249678e-05
1792.0,-0.00020617754489649087
1920.0,0.0001824608916649595
2048.0,0.00014651732635684311
2304.0,0.00011161391739733517
2560.0,-1.2314894775045104e-05
2816.0,0.0003132867277599871
3072.0,0.0003386160242371261
3328.0,-1.838308344304096e-05
3584.0,-0.00035666540497913957
3840.0,0.0003308970481157303
4096.0,-3.9303911762544885e-05
4608.0,-0.00014102403656579554
5120.0,-9.30851383600384e-05
5632.0,-0.00028574810130521655
6144.0,2.1358209778554738e-05
6656.0,-0.0006677632918581367
7168.0,-0.00021248478151392192
7680.0,-0.0001708596828393638
8192.0,-0.0005321911303326488
end
