version,3.0
numOfCh,1
type,point
parent_name,19e3e_3dot0-1dot0
ch_type,1_1
kcount,1
numberNandB,1
brightnessNandB,1
carpet pos,0
pc,0
Time (ms),CH1 Auto-Correlation
1.0,0.016001366078853607
2.0,0.013060599565505981
3.0,0.010993327014148235
4.0,0.009334510192275047
5.0,0.008101480081677437
6.0,0.00717539107427001
7.0,0.006381650920957327
8.0,0.00574060995131731
9.0,0.005277535412460566
10.0,0.0048667062073946
11.0,0.00466704647988081
12.0,0.004450181033462286
13.0,0.004240772686898708
14.0,0.003982216585427523
15.0,0.0037549403496086597
16.0,0.003564307000488043
18.0,0.003094568382948637
20.0,0.0027970250230282545
22.0,0.0025526813697069883
24.0,0.002219639951363206
26.0,0.001960223773494363
28.0,0.0017908872105181217
30.0,0.0015428492333739996
32.0,0.0011896255891770124
36.0,0.0010115181794390082
40.0,0.001049504498951137
44.0,0.0011200945591554046
48.0,0.0009321675752289593
52.0,0.0006251316517591476
56.0,0.0005536552635021508
60.0,0.0004718850541394204
64.0,0.0005189339863136411
72.0,0.000838820356875658
80.0,0.000629728427156806
88.0,5.961101851426065e-05
96.0,-0.0003849925706163049
104.0,-7.200420805020258e-05
112.0,0.00018422500579617918
120.0,0.00014277019363362342
128.0,9.849883645074442e-05
144.0,-0.00025424332125112414
160.0,-5.988407428958453e-05
176.0,6.126124208094552e-05
192.0,0.0001398081221850589
208.0,-0.00043932333937846124
224.0,-0.0001590191968716681
240.0,0.00036317631020210683
256.0,6.399724952643737e-05
288.0,-0.00015669075946789235
320.0,0.00023113009228836745
352.0,4.8061679990496486e-05
384.0,0.0002145431935787201
416.0,-0.0002707444364205003
448.0,-0.0005574372480623424
480.0,-0.0006683793035335839
512.0,-0.0008174410904757679
576.0,-8.348785195266828e-05
640.0,0.0005765876267105341
704.0,0.0003421333385631442
768.0,-0.0004117267671972513
832.0,-0.0001125824055634439
896.0,0.0004082928062416613
960.0,0.0001061537695932202
1024.0,-0.0002176890120608732
1152.0,0.00023645709734410048
1280.0,0.0005560439894907176
1408.0,-0.00016715600213501602
1536.0,0.00020479860540945083
1664.0,-6.451806984841824e-05
1792.0,-0.0003308989107608795
1920.0,0.00047897579497657716
2048.0,0.00026432363665662706
2304.0,0.0002834616170730442
2560.0,-0.0001350883539998904
2816.0,3.304773417767137e-05
3072.0,-0.0002427281579002738
3328.0,-0.0004644830187316984
3584.0,0.00040854461258277297
3840.0,0.00016694801161065698
4096.0,-0.0004177757364232093
4608.0,-0.00021155890135560185
5120.0,8.892318874131888e-05
5632.0,-0.00015190563863143325
6144.0,-9.79755786829628e-05
6656.0,5.585150938713923e-05
7168.0,0.00037949313991703093
7680.0,-0.00014050274330656976
8192.0,-0.00013249623589217663
end
