version,3.0
numOfCh,1
type,point
parent_name,19e3e_3dot0-1dot0
ch_type,1_1
kcount,1
numberNandB,1
brightnessNandB,1
carpet pos,0
pc,0
Time (ms),CH1 Auto-Correlation
1.0,0.016342464834451675
2.0,0.01344153843820095
3.0,0.011351712048053741
4.0,0.009756886400282383
5.0,0.00846952199935913
6.0,0.0074167693965137005
7.0,0.006552454084157944
8.0,0.00577385863289237
9.0,0.005237386096268892
10.0,0.0048493011854588985
11.0,0.004498407244682312
12.0,0.00420664856210351
13.0,0.003992551937699318
14.0,0.003797233570367098
15.0,0.0034846102353185415
16.0,0.0032670123036950827
18.0,0.002928974339738488
20.0,0.002766169374808669
22.0,0.002609938383102417
24.0,0.0026593534275889397
26.0,0.00267775752581656
28.0,0.002504081930965185
30.0,0.0022631746251136065
32.0,0.0020757883321493864
36.0,0.0017848748248070478
40.0,0.0015110245440155268
44.0,0.0013182633556425571
48.0,0.0013318517012521625
52.0,0.001240839366801083
56.0,0.0010491566499695182
60.0,0.0011308003449812531
64.0,0.0010440695332363248
72.0,0.0005624521290883422
80.0,0.0004787013167515397
88.0,0.0005301486235111952
96.0,0.0005802652449347079
104.0,0.0001524133695056662
112.0,-0.00011044037819374353
120.0,-1.4302731869975105e-05
128.0,0.00017817877233028412
144.0,5.232562034507282e-05
160.0,-0.00011149828787893057
176.0,0.0002714581205509603
192.0,0.00034592763404361904
208.0,-3.057156573049724e-05
224.0,-0.00020624407625291497
240.0,0.00019308099581394345
256.0,0.0003525429347064346
288.0,0.00034177853376604617
320.0,0.0001144488705904223
352.0,-0.0003122451307717711
384.0,0.0003090795362368226
416.0,0.00021916900004725903
448.0,-0.00014997832477092743
480.0,-0.00013013443094678223
512.0,-0.00017461212701164186
576.0,-0.00026647423510439694
640.0,-0.000342736195307225
704.0,0.0002375101757934317
768.0,0.0004377292934805155
832.0,0.00029680944862775505
896.0,0.0001759071892593056
960.0,-0.00016842602053657174
1024.0,-0.0003432954254094511
1152.0,-0.00015285304107237607
1280.0,-0.0003848786000162363
1408.0,2.5320201530121267e-05
1536.0,-0.00048817889182828367
1664.0,-0.00019864393107127398
1792.0,-0.0007824401254765689
1920.0,0.00015907653141766787
2048.0,-0.00032235009712167084
2304.0,3.729991294676438e-05
2560.0,-0.0002987641782965511
2816.0,0.000552381738089025
3072.0,0.0001268655323656276
3328.0,-3.887902494170703e-05
3584.0,0.0005522401770576835
3840.0,-0.0002268965181428939
4096.0,5.956373206572607e-05
4608.0,-0.00031884471536614
5120.0,-0.00020795376622118056
5632.0,2.2429394448408857e-05
6144.0,8.488895400660113e-05
6656.0,0.00024221943749580532
7168.0,-0.0002549056662246585
7680.0,0.00016709711053408682
8192.0,-0.0003637012850958854
end
