version,3.0
numOfCh,1
type,point
parent_name,19e3e_3dot0-1dot0
ch_type,1_1
kcount,1
numberNandB,1
brightnessNandB,1
carpet pos,0
pc,0
Time (ms),CH1 Auto-Correlation
1.0,0.015571405179798603
2.0,0.012560506351292133
3.0,0.01040506362915039
4.0,0.008811506442725658
5.0,0.00754399923607707
6.0,0.006572709418833256
7.0,0.005838594865053892
8.0,0.005213129334151745
9.0,0.004914846736937761
10.0,0.004569377284497023
11.0,0.004223812837153673
12.0,0.003908125683665276
13.0,0.0036662884522229433
14.0,0.003468753769993782
15.0,0.0032905428670346737
16.0,0.0029984754510223866
18.0,0.002705517690628767
20.0,0.002496643690392375
22.0,0.00240262970328331
24.0,0.00237344391644001
26.0,0.002277368912473321
28.0,0.002149413339793682
30.0,0.001999311149120331
32.0,0.001961932284757495
36.0,0.0016470521222800016
40.0,0.0014904506970196962
44.0,0.0013490597484633327
48.0,0.0013280947459861636
52.0,0.001349800731986761
56.0,0.001140977256000042
60.0,0.0009425299358554184
64.0,0.0008823233074508607
72.0,0.0008885046700015664
80.0,0.0006507840007543564
88.0,0.00017160644347313792
96.0,-0.0003911057428922504
104.0,-0.00022583152167499065
112.0,2.2567643100046553e-05
120.0,0.00017851409211289138
128.0,0.00013645109720528126
144.0,-0.00019570182485040277
160.0,-8.961324056144804e-06
176.0,-0.0004800630849786103
192.0,-0.00017861707601696253
208.0,-0.0003542418126016855
224.0,-0.00048740796046331525
240.0,-0.00013761967420578003
256.0,6.477596616605297e-05
288.0,-0.0003130957775283605
320.0,-0.0005844548577442765
352.0,-0.0004950191942043602
384.0,-0.0006219988572411239
416.0,-0.0002393805916653946
448.0,-5.6179265811806545e-05
480.0,0.00021256298350635916
512.0,0.0002921853738371283
576.0,-2.4404989744652994e-05
640.0,-8.133283699862659e-06
704.0,0.00034903010237030685
768.0,-3.798886245931499e-05
832.0,8.426788554061204e-06
896.0,2.1410647605080158e-05
960.0,-0.0003075994027312845
1024.0,-1.731198608467821e-05
1152.0,0.00013353450049180537
1280.0,0.00012314558262005448
1408.0,-4.146000264881877e-06
1536.0,-0.00011232472024857998
1664.0,6.448110070778057e-05
1792.0,0.000346957182046026
1920.0,0.0001818638847908005
2048.0,-0.0001626475714147091
2304.0,-6.741390279785264e-06
2560.0,-0.00015156992594711483
2816.0,-0.00015651331341359764
3072.0,0.00032733066473156214
3328.0,-7.052446744637564e-05
3584.0,-4.7835681471042335e-05
3840.0,0.0001742275053402409
4096.0,-0.0003315084322821349
4608.0,2.0698133084806614e-05
5120.0,6.3077454797166865e-06
5632.0,0.00011445088603068143
6144.0,9.795540245249867e-05
6656.0,-0.00015621053171344101
7168.0,9.651783329900354e-05
7680.0,-6.811685307184234e-05
8192.0,-0.00016554324247408658
end
