version,3.0
numOfCh,1
type,point
parent_name,19e3e_3dot0-1dot0
ch_type,1_1
kcount,1
numberNandB,1
brightnessNandB,1
carpet pos,0
pc,0
Time (ms),CH1 Auto-Correlation
1.0,0.01714385114610195
2.0,0.014134584926068783
3.0,0.012019462883472443
4.0,0.010503367520868778
5.0,0.009247555397450924
6.0,0.008317726664245129
7.0,0.007646738085895777
8.0,0.007027994375675917
9.0,0.006504902616143227
10.0,0.006064734887331724
11.0,0.005606760736554861
12.0,0.005148350726813078
13.0,0.004622975364327431
14.0,0.004241113550961018
15.0,0.003965594340115786
16.0,0.0037537929601967335
18.0,0.0034303159918636084
20.0,0.0031777294352650642
22.0,0.003072056919336319
24.0,0.0030029481276869774
26.0,0.002914255950599909
28.0,0.002834618790075183
30.0,0.0027223792858421803
32.0,0.0025122722145169973
36.0,0.0024058015551418066
40.0,0.0021571379620581865
44.0,0.0016950636636465788
48.0,0.0013907193206250668
52.0,0.0012986344518139958
56.0,0.0012225770624354482
60.0,0.0008622005116194487
64.0,0.0009890852961689234
72.0,0.0010339367436245084
80.0,0.0007934291497804224
88.0,0.0009849263587966561
96.0,0.0008081221603788435
104.0,0.001022861571982503
112.0,0.001069891033694148
120.0,0.0011631709057837725
128.0,0.0011710807448253036
144.0,0.0007624763529747725
160.0,0.0007031282875686884
176.0,0.0006176130846142769
192.0,0.0008192574605345726
208.0,0.0004501111397985369
224.0,0.00044520164374262094
240.0,0.00043309477041475475
256.0,0.0006323935813270509
288.0,8.457412332063541e-05
320.0,-0.0002822330279741436
352.0,1.3067506188235711e-05
384.0,-0.0006251944578252733
416.0,-4.456696115084924e-05
448.0,0.00010462307545822114
480.0,-0.00091356917982921
512.0,-0.000867183378431946
576.0,-0.0005367615958675742
640.0,-0.0003770912589970976
704.0,-4.0602648368803784e-05
768.0,9.881968435365707e-05
832.0,-0.00012113484262954444
896.0,-0.0008152513182722032
960.0,0.00010515587200643495
1024.0,-0.00017379611381329596
1152.0,0.00021575321443378925
1280.0,0.00012209831038489938
1408.0,0.00024107214994728565
1536.0,0.00032815535087138414
1664.0,-0.00043099047616124153
1792.0,-0.00044972900650464
1920.0,-0.0007695434032939374
2048.0,-0.0004629204631783068
2304.0,-0.0002590688527561724
2560.0,0.0007445600349456072
2816.0,0.0002529930497985333
3072.0,5.3034524171380326e-05
3328.0,6.010215656715445e-05
3584.0,-5.207119102124125e-05
3840.0,0.00012591638369485736
4096.0,0.00020508101442828774
4608.0,-0.0003695095656439662
5120.0,-0.0003396976098883897
5632.0,-0.0001616121589904651
6144.0,4.756242560688406e-05
6656.0,0.0005126522155478597
7168.0,1.0415189535706304e-05
7680.0,-0.0002996372350025922
8192.0,-0.00010765186743810773
end
