version,3.0
numOfCh,1
type,point
parent_name,19e3e_3dot0-1dot0
ch_type,1_1
kcount,1
numberNandB,1
brightnessNandB,1
carpet pos,0
pc,0
Time (ms),CH1 Auto-Correlation
1.0,0.01617380790412426
2.0,0.013181165792047977
3.0,0.01103140413761139
4.0,0.009282449260354042
5.0,0.007945061661303043
6.0,0.006966175977140665
7.0,0.006124456878751516
8.0,0.005442162975668907
9.0,0.004866290837526321
10.0,0.004514472559094429
11.0,0.0040418668650090694
12.0,0.003735883627086878
13.0,0.003519423073157668
14.0,0.0032235749531537294
15.0,0.0030226476956158876
16.0,0.002755041467025876
18.0,0.0022964011877775192
20.0,0.0019090746063739061
22.0,0.0015627766260877252
24.0,0.0012919051805511117
26.0,0.001259954646229744
28.0,0.0012689322466030717
30.0,0.0010190828470513225
32.0,0.0009269046713598073
36.0,0.0006042303866706789
40.0,0.0005012863548472524
44.0,0.00032685871701687574
48.0,0.00024376437067985535
52.0,0.00010466320964042097
56.0,0.0001907592813950032
60.0,0.000510607089381665
64.0,0.0007275586831383407
72.0,0.0004379031015560031
80.0,0.0002415997296338901
88.0,0.00037514473660849035
96.0,0.00023528054589405656
104.0,7.789171650074422e-05
112.0,0.0002636926365084946
120.0,0.0003810477792285383
128.0,0.00022003811318427324
144.0,0.0003514871350489557
160.0,0.0006525336066260934
176.0,0.0003191917494405061
192.0,-0.00028723839204758406
208.0,-0.00030319884535856545
224.0,-0.0002790861180983484
240.0,0.0003544880892150104
256.0,0.00018590014951769263
288.0,-0.00019450718536973
320.0,-0.00013130276056472212
352.0,-0.0003823114966508001
384.0,-9.214107558364049e-05
416.0,-8.170359069481492e-05
448.0,0.00012886077456641942
480.0,-0.0001821642799768597
512.0,0.00012059975415468216
576.0,-0.00020256638526916504
640.0,-1.45335752677056e-05
704.0,-6.139690958661959e-05
768.0,-0.00013791424862574786
832.0,-0.00037974785664118826
896.0,0.00017799055785872042
960.0,-0.00044900469947606325
1024.0,-0.00025702701532281935
1152.0,-0.0002569532080087811
1280.0,0.00011710679973475635
1408.0,-0.00020999940170440823
1536.0,-0.00030947255436331034
1664.0,5.6703916925471276e-05
1792.0,-1.7307756934314966e-05
1920.0,-1.9977783267677296e-06
2048.0,-2.898470120271668e-05
2304.0,2.8542362997541204e-05
2560.0,0.00010413163545308635
2816.0,-0.00019529952260199934
3072.0,0.00013618527736980468
3328.0,-0.0002646796347107738
3584.0,7.380395982181653e-05
3840.0,0.00013429539103526622
4096.0,-0.000155004279804416
4608.0,0.00016316218534484506
5120.0,-0.00012439425336197019
5632.0,0.00015660082863178104
6144.0,-0.00015870417701080441
6656.0,-0.0001580242969794199
7168.0,0.0002050563634838909
7680.0,8.37849875097163e-05
8192.0,0.0001758422440616414
end
