version,3.0
numOfCh,1
type,point
parent_name,484af_1dot0-0dot1
ch_type,1_1
kcount,1
numberNandB,1
brightnessNandB,1
carpet pos,0
pc,0
Time (ms),CH1 Auto-Correlation
1.0,0.08525015413761139
2.0,0.07826142758131027
3.0,0.07218900322914124
4.0,0.06684980541467667
5.0,0.06221482530236244
6.0,0.05825412645936012
7.0,0.05479440093040466
8.0,0.051715463399887085
9.0,0.048857543617486954
10.0,0.04641028866171837
11.0,0.04406876489520073
12.0,0.04191724210977554
13.0,0.03991458937525749
14.0,0.03804664686322212
15.0,0.036213479936122894
16.0,0.034638162702322006
18.0,0.031502582132816315
20.0,0.028701188042759895
22.0,0.026140740141272545
24.0,0.023754818364977837
26.0,0.021496392786502838
28.0,0.019622614607214928
30.0,0.017858251929283142
32.0,0.015931107103824615
36.0,0.01247432827949524
40.0,0.010299712419509888
44.0,0.00869204755872488
48.0,0.0069457595236599445
52.0,0.005836317781358957
56.0,0.004725627135485411
60.0,0.003973559010773897
64.0,0.004260592628270388
72.0,0.006050344090908766
80.0,0.004984628409147263
88.0,0.004660617094486952
96.0,0.004765644669532776
104.0,0.00343292485922575
112.0,0.001593784079886973
120.0,-0.00020027701975777745
128.0,-0.0010090472642332315
144.0,-0.0005649332306347787
160.0,0.0005333606968633831
176.0,0.0021712605375796556
192.0,0.0045993877574801445
208.0,0.00579155795276165
224.0,0.004093703348189592
240.0,0.0012703711399808526
256.0,0.0012618097243830562
288.0,0.005458936095237732
320.0,0.0037304346915334463
352.0,0.0019640489481389523
384.0,-0.00016846414655447006
416.0,0.00172923703212291
448.0,0.0049757580272853374
480.0,0.005645929370075464
512.0,0.0014552747597917914
576.0,0.002954123541712761
640.0,0.0024703158996999264
704.0,0.0008650178206153214
768.0,0.0035132511984556913
832.0,0.0019753288943320513
896.0,0.0035835697781294584
960.0,0.0017134558875113726
1024.0,0.0016989695141091943
1152.0,-0.001331177307292819
1280.0,0.0016002422198653221
1408.0,-0.0013036568416282535
1536.0,-0.003052809974178672
1664.0,-0.0004863137728534639
1792.0,-0.003060986055061221
1920.0,-0.0042196172289550304
2048.0,-0.0005457607912831008
2304.0,-0.0029813717119395733
2560.0,-0.0008445128332823515
2816.0,-0.0012258166680112481
3072.0,-0.002204030053690076
3328.0,0.0011702015763148665
3584.0,-0.0013651372864842415
3840.0,0.0008165508043020964
4096.0,-0.0014161252183839679
4608.0,0.002258453518152237
5120.0,0.0008169772918336093
5632.0,0.00195736694149673
6144.0,-0.0032411799766123295
6656.0,-0.00468520587310195
7168.0,-0.005492397118359804
7680.0,-0.0009578430326655507
8192.0,-0.0014817591290920973
end
