version,3.0
numOfCh,1
type,point
parent_name,484af_1dot0-0dot1
ch_type,1_1
kcount,1
numberNandB,1
brightnessNandB,1
carpet pos,0
pc,0
Time (ms),CH1 Auto-Correlation
1.0,0.09888921678066254
2.0,0.09181559085845947
3.0,0.08535411953926086
4.0,0.07995869964361191
5.0,0.0750640258193016
6.0,0.07047395408153534
7.0,0.06648798286914825
8.0,0.0628395825624466
9.0,0.0597476027905941
10.0,0.05710432678461075
11.0,0.054658181965351105
12.0,0.05236314237117767
13.0,0.05010522902011871
14.0,0.04803599417209625
15.0,0.04613060504198074
16.0,0.04428951442241669
18.0,0.04071418568491936
20.0,0.03732377663254738
22.0,0.03438372164964676
24.0,0.03195180371403694
26.0,0.029585719108581543
28.0,0.027120018377900124
30.0,0.025014400482177734
32.0,0.02312314137816429
36.0,0.020183853805065155
40.0,0.018121294677257538
44.0,0.01671120710670948
48.0,0.016343258321285248
52.0,0.015473631210625172
56.0,0.014211016707122326
60.0,0.012871908023953438
64.0,0.012154966592788696
72.0,0.011388537473976612
80.0,0.010548756457865238
88.0,0.009112393483519554
96.0,0.007308429107069969
104.0,0.006319394335150719
112.0,0.005956810433417559
120.0,0.007206229958683252
128.0,0.007144864648580551
144.0,0.004384208470582962
160.0,-0.000887312984559685
176.0,-0.0022912200074642897
192.0,-0.0006642231601290405
208.0,0.0024203225038945675
224.0,0.003265979001298547
240.0,0.0013569425791501999
256.0,0.0031657691579312086
288.0,0.00627100421115756
320.0,0.004428405314683914
352.0,0.0025482659693807364
384.0,0.0036666824016720057
416.0,0.0021111746318638325
448.0,-0.002208777703344822
480.0,-0.0018885426688939333
512.0,-0.0021707359701395035
576.0,-0.007874973118305206
640.0,-0.009111786261200905
704.0,-0.0012851472711190581
768.0,-0.004612689837813377
832.0,-0.0025485712103545666
896.0,-0.0034448199439793825
960.0,-0.002459992654621601
1024.0,-0.0009176644962280989
1152.0,0.002208088990300894
1280.0,0.0008510281913913786
1408.0,0.00645671458914876
1536.0,-3.736813960131258e-05
1664.0,0.00263995467685163
1792.0,5.9108413552166894e-05
1920.0,-0.0010470185661688447
2048.0,-0.0008237346773967147
2304.0,0.0004031277494505048
2560.0,0.00018048079800792038
2816.0,0.0013029200490564108
3072.0,-0.000446196470875293
3328.0,-0.0023974853102117777
3584.0,0.00045485151349566877
3840.0,0.003588380990549922
4096.0,0.003881502663716674
4608.0,-0.0009825117886066437
5120.0,9.749019955052063e-05
5632.0,-0.002440653508529067
6144.0,0.0005844347761012614
6656.0,0.0023189308121800423
7168.0,-0.0009783005807548761
7680.0,-0.0019741500727832317
8192.0,-0.00041558753582648933
end
