version,3.0
numOfCh,1
type,point
parent_name,484af_1dot0-0dot1
ch_type,1_1
kcount,1
numberNandB,1
brightnessNandB,1
carpet pos,0
pc,0
Time (ms),CH1 Auto-Correlation
1.0,0.09102211892604828
2.0,0.0843506008386612
3.0,0.07866454869508743
4.0,0.0738120898604393
5.0,0.06946978718042374
6.0,0.0654008612036705
7.0,0.06184859201312065
8.0,0.05898771062493324
9.0,0.05624663457274437
10.0,0.053645435720682144
11.0,0.05116085708141327
12.0,0.04866756498813629
13.0,0.046809859573841095
14.0,0.045109380036592484
15.0,0.043553248047828674
16.0,0.04189249500632286
18.0,0.039007917046546936
20.0,0.03658348694443703
22.0,0.03431956097483635
24.0,0.03223559632897377
26.0,0.030572863295674324
28.0,0.02897982858121395
30.0,0.027708889916539192
32.0,0.02630905620753765
36.0,0.02365974709391594
40.0,0.0214028712362051
44.0,0.01925062946975231
48.0,0.01735858991742134
52.0,0.01575859636068344
56.0,0.01396958064287901
60.0,0.01251965295523405
64.0,0.01159906666725874
72.0,0.010381448082625866
80.0,0.008367080241441727
88.0,0.006225415505468845
96.0,0.005233862902969122
104.0,0.003999089822173119
112.0,0.0022730701602995396
120.0,0.0014294686261564493
128.0,0.0013446176890283823
144.0,0.002058901824057102
160.0,0.0016140565276145935
176.0,0.0018680873326957226
192.0,0.0009607865358702838
208.0,0.0012503346661105752
224.0,0.0005032396293245256
240.0,-0.000959773373324424
256.0,-0.0021472065709531307
288.0,-0.007109987083822489
320.0,-0.007126179523766041
352.0,-0.006542630959302187
384.0,-0.007272439543157816
416.0,-0.004578312858939171
448.0,-0.0036839644890278578
480.0,-0.0022341448348015547
512.0,-0.0014592820079997182
576.0,-0.0006000568973831832
640.0,-0.0018455651588737965
704.0,-0.0017901263199746609
768.0,-0.0009489847579970956
832.0,-0.0016711648786440492
896.0,-0.0019591813907027245
960.0,-0.00023030689044389874
1024.0,-0.0016329872887581587
1152.0,-0.00043649133294820786
1280.0,-0.00038680233410559595
1408.0,0.003750825999304652
1536.0,0.0070103746838867664
1664.0,0.0060553597286343575
1792.0,0.0024190815165638924
1920.0,0.0012152815470471978
2048.0,-0.0026833030860871077
2304.0,-0.00315618677996099
2560.0,0.00012045274343108758
2816.0,-0.002150428481400013
3072.0,0.005738717038184404
3328.0,0.0008097790414467454
3584.0,0.00024966514320112765
3840.0,0.0006041823653504252
4096.0,-0.006039963569492102
4608.0,0.0018529694061726332
5120.0,-0.0030866102315485477
5632.0,0.001543460413813591
6144.0,-0.0012354131322354078
6656.0,0.00044044674723409116
7168.0,-0.0004432335845194757
7680.0,-0.0012858784757554531
8192.0,0.0016900767805054784
end
