version,3.0
numOfCh,1
type,point
parent_name,484af_1dot0-0dot1
ch_type,1_1
kcount,1
numberNandB,1
brightnessNandB,1
carpet pos,0
pc,0
Time (ms),CH1 Auto-Correlation
1.0,0.08782665431499481
2.0,0.08117195218801498
3.0,0.0755244567990303
4.0,0.07056888937950134
5.0,0.06630514562129974
6.0,0.062470704317092896
7.0,0.059031978249549866
8.0,0.05590115487575531
9.0,0.053034357726573944
10.0,0.05036613345146179
11.0,0.04802321270108223
12.0,0.04584420844912529
13.0,0.043821629136800766
14.0,0.04188552871346474
15.0,0.04005981236696243
16.0,0.038384921848773956
18.0,0.03572520986199379
20.0,0.03362784534692764
22.0,0.03192165866494179
24.0,0.03032916970551014
26.0,0.028694037348031998
28.0,0.027399055659770966
30.0,0.026379961520433426
32.0,0.02500435709953308
36.0,0.022507186979055405
40.0,0.02151908166706562
44.0,0.020257476717233658
48.0,0.019395722076296806
52.0,0.018701454624533653
56.0,0.018104689195752144
60.0,0.017430739477276802
64.0,0.016487983986735344
72.0,0.014730221591889858
80.0,0.01330609992146492
88.0,0.012263513170182705
96.0,0.00893067754805088
104.0,0.006716953124850988
112.0,0.005912584252655506
120.0,0.006660033483058214
128.0,0.008304302580654621
144.0,0.00616616103798151
160.0,0.006221333052963018
176.0,0.007914118468761444
192.0,0.007411344442516565
208.0,0.004473100882023573
224.0,0.0009367997408844531
240.0,-4.768807048094459e-05
256.0,-0.0004442289937287569
288.0,-0.0029531100299209356
320.0,-0.007763633970171213
352.0,-0.0036458144895732403
384.0,-0.0021874546073377132
416.0,-0.004615174140781164
448.0,-0.003049673279747367
480.0,-0.0033505272585898638
512.0,-0.004330663476139307
576.0,-0.0015565812354907393
640.0,0.0035678124986588955
704.0,0.002519854810088873
768.0,-0.0017790526617318392
832.0,0.004046224523335695
896.0,0.008205397054553032
960.0,0.004972113762050867
1024.0,-0.00016361645248252898
1152.0,-0.0013331297086551785
1280.0,0.00045823436812497675
1408.0,-0.001572518376633525
1536.0,-0.0013801563763990998
1664.0,0.0010352174285799265
1792.0,0.0004591067845467478
1920.0,-0.002059417776763439
2048.0,-0.0008650084491819143
2304.0,0.002278578467667103
2560.0,-0.002629017224535346
2816.0,-0.006481526885181665
3072.0,-0.0023109223693609238
3328.0,-0.0003854238602798432
3584.0,-0.003060184419155121
3840.0,-0.0018541959580034018
4096.0,0.0008662881446070969
4608.0,0.001596920657902956
5120.0,-0.0023226530756801367
5632.0,-0.0005337942275218666
6144.0,0.0033985842019319534
6656.0,-0.0037527275271713734
7168.0,0.0006962382467463613
7680.0,-0.00650917598977685
8192.0,0.0008467721054330468
end
