version,3.0
numOfCh,1
type,point
parent_name,484af_1dot0-0dot1
ch_type,1_1
kcount,1
numberNandB,1
brightnessNandB,1
carpet pos,0
pc,0
Time (ms),CH1 Auto-Correlation
1.0,0.08079525828361511
2.0,0.07431944459676743
3.0,0.06871016323566437
4.0,0.06388691067695618
5.0,0.059888504445552826
6.0,0.056656040251255035
7.0,0.05390332639217377
8.0,0.051309529691934586
9.0,0.04888061434030533
10.0,0.04660629481077194
11.0,0.04443676397204399
12.0,0.042446453124284744
13.0,0.0405484139919281
14.0,0.038620591163635254
15.0,0.037011366337537766
16.0,0.03560443967580795
18.0,0.033432576805353165
20.0,0.03134237602353096
22.0,0.02961062267422676
24.0,0.028224429115653038
26.0,0.026608455926179886
28.0,0.024814164265990257
30.0,0.023235008120536804
32.0,0.021642569452524185
36.0,0.018537722527980804
40.0,0.015921054407954216
44.0,0.013906949199736118
48.0,0.011939316056668758
52.0,0.010116800665855408
56.0,0.008809808641672134
60.0,0.007971246726810932
64.0,0.0063995192758738995
72.0,0.005561635363847017
80.0,0.0062468708492815495
88.0,0.007338253781199455
96.0,0.007975162006914616
104.0,0.007501605898141861
112.0,0.005991258658468723
120.0,0.004863743204623461
128.0,0.00419023958966136
144.0,0.0021064046304672956
160.0,-0.0004929929855279624
176.0,-0.002786368364468217
192.0,-0.0031512239947915077
208.0,-0.003909030929207802
224.0,-0.004114264622330666
240.0,-0.003711420577019453
256.0,-0.002629862865433097
288.0,-0.0002103195438394323
320.0,-0.0009750347817316651
352.0,-0.0019367127679288387
384.0,-0.004322855733335018
416.0,-0.003668008605018258
448.0,-0.0020196272525936365
480.0,-0.0048088254407048225
512.0,0.00036349447327665985
576.0,0.003675897838547826
640.0,0.000489148311316967
704.0,0.0007159478263929486
768.0,0.0030205105431377888
832.0,0.0024746109265834093
896.0,0.00117329356726259
960.0,0.0005636322894133627
1024.0,-0.0013198353117331862
1152.0,-0.0030384641140699387
1280.0,0.0011096063535660505
1408.0,0.007174335420131683
1536.0,0.005954531487077475
1664.0,0.001011812244541943
1792.0,-0.0031244149431586266
1920.0,-0.006933683529496193
2048.0,0.0003707265423145145
2304.0,0.0027091733645647764
2560.0,0.0010536094196140766
2816.0,0.001619458431378007
3072.0,0.000667467771563679
3328.0,-0.002887926297262311
3584.0,-0.0019156800117343664
3840.0,0.0031426188070327044
4096.0,-0.001006490085273981
4608.0,-0.002107675187289715
5120.0,-0.002793448744341731
5632.0,-0.0030296549666672945
6144.0,-0.00026014389004558325
6656.0,0.0010156265925616026
7168.0,-0.003260561730712652
7680.0,0.00030940753640607
8192.0,-0.0004306625633034855
end
