version,3.0
numOfCh,1
type,point
parent_name,484af_1dot0-0dot1
ch_type,1_1
kcount,1
numberNandB,1
brightnessNandB,1
carpet pos,0
pc,0
Time (ms),CH1 Auto-Correlation
1.0,0.0835840106010437
2.0,0.07691983878612518
3.0,0.07106025516986847
4.0,0.06609201431274414
5.0,0.06204202398657799
6.0,0.058431677520275116
7.0,0.055149488151073456
8.0,0.0521327443420887
9.0,0.04935050010681152
10.0,0.04690868780016899
11.0,0.04474455118179321
12.0,0.04271584376692772
13.0,0.04062487185001373
14.0,0.03870919346809387
15.0,0.03707874193787575
16.0,0.0354781411588192
18.0,0.03268451243638992
20.0,0.03052760660648346
22.0,0.028813889250159264
24.0,0.02743748016655445
26.0,0.026353156194090843
28.0,0.02544480189681053
30.0,0.024481745436787605
32.0,0.023795893415808678
36.0,0.02295025996863842
40.0,0.02173367328941822
44.0,0.02040325663983822
48.0,0.01881508156657219
52.0,0.017045872285962105
56.0,0.01567758247256279
60.0,0.015054331161081791
64.0,0.01488587073981762
72.0,0.014353238977491856
80.0,0.013238453306257725
88.0,0.010403650812804699
96.0,0.006594018079340458
104.0,0.003970145247876644
112.0,0.0039781806990504265
120.0,0.003303952282294631
128.0,0.00278446520678699
144.0,0.0028195022605359554
160.0,0.0027044236194342375
176.0,0.002786527620628476
192.0,0.004020174033939838
208.0,0.00372604513540864
224.0,0.0026992387138307095
240.0,0.0006523234769701958
256.0,0.00019230072211939842
288.0,0.001561734825372696
320.0,0.0012988819507882
352.0,0.001503709820099175
384.0,0.0025809011422097683
416.0,0.0013182982802391052
448.0,0.0025739807169884443
480.0,0.0030083435121923685
512.0,-0.0006622372311539948
576.0,0.0031706837471574545
640.0,0.002136552007868886
704.0,-0.0023779538460075855
768.0,-0.0040240827947855
832.0,-0.0017342811916023493
896.0,0.0005946519668214023
960.0,0.0016411524266004562
1024.0,0.0010261198040097952
1152.0,0.0012934004189446568
1280.0,0.0037248728331178427
1408.0,0.006103651598095894
1536.0,0.004481128416955471
1664.0,0.0005689146346412599
1792.0,-0.0017752588028088212
1920.0,0.0027289248537272215
2048.0,-0.0035628704354166985
2304.0,-0.0010428433306515217
2560.0,-0.0015350544126704335
2816.0,-0.0005447972216643393
3072.0,0.003402150934562087
3328.0,-0.00015401910059154034
3584.0,-0.0014195959083735943
3840.0,-0.0030550211668014526
4096.0,-0.0002715228474698961
4608.0,-0.0007444740040227771
5120.0,-0.002425162121653557
5632.0,0.0011458396911621094
6144.0,0.00011311186972307041
6656.0,-0.0023563771974295378
7168.0,0.0011098053073510528
7680.0,-0.0046391356736421585
8192.0,-0.006566130090504885
end
