version,3.0
numOfCh,1
type,point
parent_name,484af_1dot0-0dot1
ch_type,1_1
kcount,1
numberNandB,1
brightnessNandB,1
carpet pos,0
pc,0
Time (ms),CH1 Auto-Correlation
1.0,0.09924405068159103
2.0,0.09250947833061218
3.0,0.0864923894405365
4.0,0.08146070688962936
5.0,0.07707507908344269
6.0,0.07325249910354614
7.0,0.06992348283529282
8.0,0.06680962443351746
9.0,0.06377103924751282
10.0,0.060780636966228485
11.0,0.058249395340681076
12.0,0.05597630888223648
13.0,0.05374373868107796
14.0,0.0518098808825016
15.0,0.04985598474740982
16.0,0.04800083115696907
18.0,0.04498749226331711
20.0,0.042325470596551895
22.0,0.03999166563153267
24.0,0.03783072158694267
26.0,0.03578362613916397
28.0,0.033727750182151794
30.0,0.0319027379155159
32.0,0.030371902510523796
36.0,0.027333902195096016
40.0,0.025119028985500336
44.0,0.023040534928441048
48.0,0.020878687500953674
52.0,0.01905139721930027
56.0,0.01739845983684063
60.0,0.01561371237039566
64.0,0.014485817402601242
72.0,0.013126215897500515
80.0,0.012069630436599255
88.0,0.01022228691726923
96.0,0.009301763959228992
104.0,0.010230118408799171
112.0,0.01251964084804058
120.0,0.014315596781671047
128.0,0.01500377431511879
144.0,0.012376312166452408
160.0,0.010157885029911995
176.0,0.01051772478967905
192.0,0.009668667800724506
208.0,0.00799556728452444
224.0,0.007762311492115259
240.0,0.007715156767517328
256.0,0.006541521288454533
288.0,0.0011248585069552064
320.0,-0.0031361200381070375
352.0,-0.0015219937777146697
384.0,0.0036532024387270212
416.0,0.004264379385858774
448.0,0.004950962029397488
480.0,0.006727743893861771
512.0,0.008907800540328026
576.0,0.004623564891517162
640.0,0.003555075731128454
704.0,-0.000651228241622448
768.0,-0.0013925157254561782
832.0,-0.0011631048982962966
896.0,-8.889175660442561e-05
960.0,-0.00509079871699214
1024.0,-0.0005981582216918468
1152.0,0.0015075757401064038
1280.0,0.003295865608379245
1408.0,0.004417388699948788
1536.0,0.004084145650267601
1664.0,0.002610977739095688
1792.0,0.0038238726556301117
1920.0,-0.0022856725845485926
2048.0,0.0003282736288383603
2304.0,0.0004723340389318764
2560.0,0.0018873140215873718
2816.0,-0.002590395277366042
3072.0,-0.0034265548456460238
3328.0,-0.002120116027072072
3584.0,-0.002828633412718773
3840.0,0.0008748458349145949
4096.0,-0.004666133783757687
4608.0,-0.003962135408073664
5120.0,0.001314473571255803
5632.0,-0.0012775490758940578
6144.0,-0.0076785609126091
6656.0,-0.0047949375584721565
7168.0,0.0006855846731923521
7680.0,0.00398414209485054
8192.0,-9.534683158562984e-06
end
