version,3.0
numOfCh,1
type,point
parent_name,484af_1dot0-0dot1
ch_type,1_1
kcount,1
numberNandB,1
brightnessNandB,1
carpet pos,0
pc,0
Time (ms),CH1 Auto-Correlation
1.0,0.0852154791355133
2.0,0.07857730984687805
3.0,0.07304318249225616
4.0,0.06823596358299255
5.0,0.0641249567270279
6.0,0.06023503094911575
7.0,0.056708693504333496
8.0,0.0535132959485054
9.0,0.050766721367836
10.0,0.04818180575966835
11.0,0.045672837644815445
12.0,0.04348098859190941
13.0,0.04126603156328201
14.0,0.039227817207574844
15.0,0.0373334176838398
16.0,0.03567488491535187
18.0,0.03247804567217827
20.0,0.029466841369867325
22.0,0.02695438265800476
24.0,0.025073997676372528
26.0,0.023634405806660652
28.0,0.02241808921098709
30.0,0.021048305556178093
32.0,0.019934872165322304
36.0,0.01825849339365959
40.0,0.016972176730632782
44.0,0.015564661473035812
48.0,0.014102950692176819
52.0,0.013531642034649849
56.0,0.013626624830067158
60.0,0.013864955864846706
64.0,0.01393739040941
72.0,0.013937648385763168
80.0,0.011343203485012054
88.0,0.008558771573007107
96.0,0.007866253145039082
104.0,0.0078049288131296635
112.0,0.007564656436443329
120.0,0.007894965820014477
128.0,0.0074341571889817715
144.0,0.0037196953780949116
160.0,0.0020450595766305923
176.0,0.0004725776962004602
192.0,0.0004098640929441899
208.0,-0.0031357775442302227
224.0,-0.0038705128245055676
240.0,-0.0029307622462511063
256.0,-0.00301819178275764
288.0,-0.0028954772278666496
320.0,-0.006278587505221367
352.0,-0.006695940159261227
384.0,-0.0029134396463632584
416.0,-0.002489992883056402
448.0,-0.0021818538662046194
480.0,-0.004468407481908798
512.0,-0.001494562835432589
576.0,0.001954949228093028
640.0,-0.001310998573899269
704.0,-0.0013799493899568915
768.0,-0.004587412811815739
832.0,-0.0008834999753162265
896.0,-0.0028875109273940325
960.0,0.0008667096262797713
1024.0,0.0009448885102756321
1152.0,0.001836441457271576
1280.0,0.0035336678847670555
1408.0,-0.0020727578084915876
1536.0,-0.0010893840808421373
1664.0,-0.005068781320005655
1792.0,-0.0013877899618819356
1920.0,0.0024717317428439856
2048.0,0.00029216925031505525
2304.0,-0.0019026795634999871
2560.0,-0.0015027897898107767
2816.0,0.0008462403202429414
3072.0,-0.0020287404768168926
3328.0,-0.0025136591866612434
3584.0,0.0032857521437108517
3840.0,-0.0010222684359177947
4096.0,0.002533562947064638
4608.0,-0.002990181092172861
5120.0,0.000701811455655843
5632.0,0.00023723694903310388
6144.0,-0.0002504382864572108
6656.0,0.0015393783105537295
7168.0,0.0007135372143238783
7680.0,0.00033058488043025136
8192.0,0.0019465300720185041
end
