version,3.0
numOfCh,1
type,point
parent_name,484af_1dot0-0dot1
ch_type,1_1
kcount,1
numberNandB,1
brightnessNandB,1
carpet pos,0
pc,0
Time (ms),CH1 Auto-Correlation
1.0,0.0792921632528305
2.0,0.07274880260229111
3.0,0.0673845112323761
4.0,0.06251431256532669
5.0,0.058393679559230804
6.0,0.05467158183455467
7.0,0.05117835849523544
8.0,0.048094600439071655
9.0,0.04537959396839142
10.0,0.04319785535335541
11.0,0.041184961795806885
12.0,0.03921764716506004
13.0,0.037323758006095886
14.0,0.03563068062067032
15.0,0.03378843888640404
16.0,0.03209884092211723
18.0,0.029134050011634827
20.0,0.026685958728194237
22.0,0.02462732046842575
24.0,0.023183830082416534
26.0,0.02201312594115734
28.0,0.020880822092294693
30.0,0.020163876935839653
32.0,0.019767897203564644
36.0,0.018725218251347542
40.0,0.017419204115867615
44.0,0.01603897660970688
48.0,0.014920352026820183
52.0,0.014873379841446877
56.0,0.014706019312143326
60.0,0.014071274548768997
64.0,0.013149065896868706
72.0,0.010436530224978924
80.0,0.007022350560873747
88.0,0.00583705073222518
96.0,0.00652384152635932
104.0,0.008484755642712116
112.0,0.008633929304778576
120.0,0.007245970889925957
128.0,0.004981011617928743
144.0,0.0018636382883414626
160.0,0.0009988894453272223
176.0,0.000563799578230828
192.0,0.00010409061360405758
208.0,-0.001392469508573413
224.0,-0.001877482864074409
240.0,-0.003475469769909978
256.0,-0.0033798946533352137
288.0,-0.003999205306172371
320.0,-0.004077729303389788
352.0,-0.0038334080018103123
384.0,-0.002015763195231557
416.0,-0.003672744845971465
448.0,-0.0013944573001936078
480.0,0.0008134819800034165
512.0,0.005476671736687422
576.0,0.008100608363747597
640.0,0.007212876807898283
704.0,0.0038586128503084183
768.0,0.0014814368914812803
832.0,0.00101999391335994
896.0,-0.0005512426723726094
960.0,-0.002477334113791585
1024.0,-0.0060552265495061874
1152.0,0.0010205719154328108
1280.0,0.002829316770657897
1408.0,-0.0011014166520908475
1536.0,-0.003508452558889985
1664.0,-0.0032347305677831173
1792.0,0.0019345121691003442
1920.0,-0.00028671728796325624
2048.0,-0.002024349058046937
2304.0,-0.0016710920026525855
2560.0,0.0018604834331199527
2816.0,-0.0035103538539260626
3072.0,-0.0010529567953199148
3328.0,0.0012315312633290887
3584.0,-0.0026464916300028563
3840.0,0.00013567964197136462
4096.0,0.00017461925745010376
4608.0,-0.0008899804088287055
5120.0,-0.0008290900150313973
5632.0,0.001819922705180943
6144.0,0.0008407638524658978
6656.0,-0.0007558335200883448
7168.0,-0.00015150602848734707
7680.0,-0.00086074264254421
8192.0,8.290154073620215e-05
end
