version,3.0
numOfCh,1
type,point
parent_name,484af_1dot0-0dot1
ch_type,1_1
kcount,1
numberNandB,1
brightnessNandB,1
carpet pos,0
pc,0
Time (ms),CH1 Auto-Correlation
1.0,0.09021276980638504
2.0,0.08335516601800919
3.0,0.07757047563791275
4.0,0.0725560262799263
5.0,0.06809313595294952
6.0,0.06415345519781113
7.0,0.060622457414865494
8.0,0.05723924934864044
9.0,0.05424434691667557
10.0,0.05135694146156311
11.0,0.048707880079746246
12.0,0.04630932956933975
13.0,0.044070348143577576
14.0,0.04205111414194107
15.0,0.040388911962509155
16.0,0.03893868625164032
18.0,0.03618461266160011
20.0,0.03403677046298981
22.0,0.03209620714187622
24.0,0.030470173805952072
26.0,0.029293879866600037
28.0,0.028520485386252403
30.0,0.027628272771835327
32.0,0.026974434033036232
36.0,0.025874542072415352
40.0,0.024945128709077835
44.0,0.024455007165670395
48.0,0.023544052615761757
52.0,0.021954448893666267
56.0,0.020707491785287857
60.0,0.018700437620282173
64.0,0.01606857217848301
72.0,0.0130467489361763
80.0,0.013695224188268185
88.0,0.014167498797178268
96.0,0.01308855228126049
104.0,0.011277812533080578
112.0,0.009549145586788654
120.0,0.008655623532831669
128.0,0.0074329981580376625
144.0,0.007466850336641073
160.0,0.00620326166972518
176.0,0.007236724719405174
192.0,0.007950888946652412
208.0,0.00881815142929554
224.0,0.00772446533665061
240.0,0.0061327009461820126
256.0,0.0036338448990136385
288.0,0.004789387341588736
320.0,0.00357999955303967
352.0,0.00032288694637827575
384.0,0.0015986822545528412
416.0,0.002332579344511032
448.0,0.0036238261964172125
480.0,0.004227844998240471
512.0,0.0037923110648989677
576.0,0.003853642614558339
640.0,-0.001325144781731069
704.0,0.00038789003156125546
768.0,0.0028835602570325136
832.0,0.0012831961503252387
896.0,0.003344712546095252
960.0,0.005646440666168928
1024.0,0.0036239386536180973
1152.0,0.0029297885484993458
1280.0,0.004915094003081322
1408.0,-0.0021984914783388376
1536.0,-2.8902748454129323e-05
1664.0,0.004192873369902372
1792.0,0.007316789589822292
1920.0,0.004579452332109213
2048.0,0.00470144534483552
2304.0,0.002522421767935157
2560.0,-0.0010819510789588094
2816.0,0.0004125359992031008
3072.0,-0.0016199162928387523
3328.0,-0.005995665676891804
3584.0,-0.0045119524002075195
3840.0,-0.0002576817641966045
4096.0,-0.0011067939922213554
4608.0,-0.004162036348134279
5120.0,-0.0034228281583637
5632.0,-0.008132150396704674
6144.0,-0.004887153394520283
6656.0,-0.002207433106377721
7168.0,-0.004704591818153858
7680.0,-0.0076632630079984665
8192.0,0.0014552692882716656
end
