version,3.0
numOfCh,1
type,point
parent_name,484af_1dot0-0dot1
ch_type,1_1
kcount,1
numberNandB,1
brightnessNandB,1
carpet pos,0
pc,0
Time (ms),CH1 Auto-Correlation
1.0,0.08831202238798141
2.0,0.0814112052321434
3.0,0.07552656531333923
4.0,0.07035139948129654
5.0,0.06589508056640625
6.0,0.06193418800830841
7.0,0.058279287070035934
8.0,0.05493875965476036
9.0,0.05196981504559517
10.0,0.04912641644477844
11.0,0.04638593643903732
12.0,0.04408356174826622
13.0,0.042043644934892654
14.0,0.04053341597318649
15.0,0.03872194513678551
16.0,0.03672795370221138
18.0,0.03266867995262146
20.0,0.029711056500673294
22.0,0.027596624568104744
24.0,0.025895340368151665
26.0,0.024868659675121307
28.0,0.023702304810285568
30.0,0.02272179163992405
32.0,0.02173919416964054
36.0,0.019175635650753975
40.0,0.01696128025650978
44.0,0.014934368431568146
48.0,0.012729750014841557
52.0,0.01140914112329483
56.0,0.009587610140442848
60.0,0.008083357475697994
64.0,0.007023947779089212
72.0,0.00424556527286768
80.0,0.001008793362416327
88.0,-0.00021469665807671845
96.0,0.00029918993823230267
104.0,0.0012087333016097546
112.0,-0.00019131826411467046
120.0,-0.0003714070189744234
128.0,-0.00040269707096740603
144.0,-0.003811541246250272
160.0,-0.005129569210112095
176.0,-0.0036270744167268276
192.0,-0.004546076990664005
208.0,-0.003472267184406519
224.0,-0.002106001367792487
240.0,0.001024803495965898
256.0,-0.0013982600066810846
288.0,-0.0036720179487019777
320.0,-0.0013817207654938102
352.0,0.0005198519793339074
384.0,0.001776516204699874
416.0,-0.0021292720921337605
448.0,-0.002935487776994705
480.0,-0.006394355092197657
512.0,-0.007159251254051924
576.0,-0.0015077661955729127
640.0,2.661578946572263e-06
704.0,0.00019670603796839714
768.0,0.005691051948815584
832.0,0.0030965320765972137
896.0,0.0006099053425714374
960.0,0.00024151941761374474
1024.0,0.004585960879921913
1152.0,0.0030406031291931868
1280.0,-0.0019170549931004643
1408.0,-0.0006216086912900209
1536.0,-0.002125418744981289
1664.0,-0.00166624179109931
1792.0,0.002955283271148801
1920.0,0.0001706543262116611
2048.0,0.002529826248064637
2304.0,-0.002225358970463276
2560.0,-0.0006860950379632413
2816.0,0.0022459093015640974
3072.0,-0.00027511201915331185
3328.0,-0.0008971528150141239
3584.0,-0.0003751687763724476
3840.0,0.004386973567306995
4096.0,-0.0031085116788744926
4608.0,0.0024754812475293875
5120.0,-0.0018597982125356793
5632.0,0.0007454848382622004
6144.0,-0.0004800463211722672
6656.0,-0.0024210605770349503
7168.0,0.0005276001757010818
7680.0,-0.0026894311886280775
8192.0,-0.0005212575197219849
end
