version,3.0
numOfCh,1
type,point
parent_name,484af_1dot0-0dot1
ch_type,1_1
kcount,1
numberNandB,1
brightnessNandB,1
carpet pos,0
pc,0
Time (ms),CH1 Auto-Correlation
1.0,0.08086132258176804
2.0,0.07469100505113602
3.0,0.0693916380405426
4.0,0.064757339656353
5.0,0.06079256907105446
6.0,0.057415083050727844
7.0,0.054327674210071564
8.0,0.051372937858104706
9.0,0.04870646446943283
10.0,0.04625203460454941
11.0,0.04398267716169357
12.0,0.04188544303178787
13.0,0.03993484377861023
14.0,0.03802003338932991
15.0,0.03642044961452484
16.0,0.035116806626319885
18.0,0.03297887742519379
20.0,0.031060408800840378
22.0,0.02888852171599865
24.0,0.02711842767894268
26.0,0.02558736316859722
28.0,0.024300286546349525
30.0,0.023808227851986885
32.0,0.023285549134016037
36.0,0.021979505196213722
40.0,0.021093428134918213
44.0,0.02000381611287594
48.0,0.019038444384932518
52.0,0.018346920609474182
56.0,0.01729608327150345
60.0,0.016890913248062134
64.0,0.01664871536195278
72.0,0.016035431995987892
80.0,0.015678849071264267
88.0,0.014660581946372986
96.0,0.013367055915296078
104.0,0.011639168485999107
112.0,0.009917866438627243
120.0,0.010247020982205868
128.0,0.010129131376743317
144.0,0.007922353222966194
160.0,0.004252621904015541
176.0,0.0020900822710245848
192.0,0.0016918621258810163
208.0,0.003227137727662921
224.0,0.00595974363386631
240.0,0.0076751415617764
256.0,0.0066783917136490345
288.0,0.005670559126883745
320.0,0.009168047457933426
352.0,0.00793040543794632
384.0,0.006383281666785479
416.0,0.005556908901780844
448.0,0.0037786359898746014
480.0,0.0019848898518830538
512.0,-0.0011633215472102165
576.0,-0.001306945108808577
640.0,-0.000919531739782542
704.0,-0.001748539856635034
768.0,-0.003913517575711012
832.0,-0.007794110104441643
896.0,-0.0059608821757137775
960.0,-0.005734805949032307
1024.0,-0.002374038565903902
1152.0,-0.008043663576245308
1280.0,-0.006242718081921339
1408.0,-0.0024647070094943047
1536.0,-0.0014200567966327071
1664.0,-0.0002863303816411644
1792.0,-0.0023375186137855053
1920.0,-0.0008656965801492333
2048.0,-0.00013928386033512652
2304.0,-0.000358783669071272
2560.0,0.0018608900718390942
2816.0,-0.0014009269652888179
3072.0,0.00016647441952954978
3328.0,-0.0012915150728076696
3584.0,0.0021201095078140497
3840.0,-0.0013578635407611728
4096.0,-0.0042391009628772736
4608.0,-0.0005107655306346714
5120.0,0.007738550193607807
5632.0,-0.0006102360202930868
6144.0,-0.008310584351420403
6656.0,-0.004819883033633232
7168.0,0.005875127390027046
7680.0,0.0029338409658521414
8192.0,0.0008020445820875466
end
