version,3.0
numOfCh,1
type,point
parent_name,484af_1dot0-0dot1
ch_type,1_1
kcount,1
numberNandB,1
brightnessNandB,1
carpet pos,0
pc,0
Time (ms),CH1 Auto-Correlation
1.0,0.0829407274723053
2.0,0.07642152160406113
3.0,0.07100911438465118
4.0,0.0661473199725151
5.0,0.061751432716846466
6.0,0.057862136512994766
7.0,0.05429763346910477
8.0,0.051105599850416183
9.0,0.04798545688390732
10.0,0.04511237516999245
11.0,0.04251449182629585
12.0,0.04029335826635361
13.0,0.03849811479449272
14.0,0.036851219832897186
15.0,0.03570353239774704
16.0,0.034649115055799484
18.0,0.03278549015522003
20.0,0.030987126752734184
22.0,0.029405716806650162
24.0,0.028039652854204178
26.0,0.026759929955005646
28.0,0.0253110583871603
30.0,0.023477360606193542
32.0,0.021178852766752243
36.0,0.016939155757427216
40.0,0.014607125893235207
44.0,0.013645942322909832
48.0,0.012620941735804081
52.0,0.011632182635366917
56.0,0.011224272660911083
60.0,0.010280778631567955
64.0,0.008977078832685947
72.0,0.007714159786701202
80.0,0.006426040083169937
88.0,0.004389546811580658
96.0,0.003573774825781584
104.0,0.0032442656811326742
112.0,0.0020259718876332045
120.0,0.0024112530518323183
128.0,0.002312404103577137
144.0,0.0003633424639701843
160.0,-0.0006936732097528875
176.0,-0.0002494308864697814
192.0,0.0013522579101845622
208.0,0.002026436384767294
224.0,0.0012556503061205149
240.0,-0.00023692683316767216
256.0,-0.00031835446134209633
288.0,0.0019473677966743708
320.0,0.0007119575166143477
352.0,0.0006844470626674592
384.0,0.0012956924038007855
416.0,0.0003599656920414418
448.0,-0.0027679691556841135
480.0,-0.0009900000877678394
512.0,-0.0008585744071751833
576.0,-0.001203478779643774
640.0,0.002910411451011896
704.0,0.001345797791145742
768.0,-0.0024961631279438734
832.0,-0.0006136753945611417
896.0,-0.0009878856362774968
960.0,-0.0010999273508787155
1024.0,0.002086214255541563
1152.0,-0.0035906564444303513
1280.0,-0.0019260011613368988
1408.0,-0.0018801778787747025
1536.0,0.0019624168053269386
1664.0,0.002237725770100951
1792.0,0.00417040241882205
1920.0,-0.00023665474145673215
2048.0,-0.00015743874246254563
2304.0,0.00039244836079888046
2560.0,-0.002653008559718728
2816.0,-0.0025421034079045057
3072.0,-0.0015664586098864675
3328.0,0.0006107116350904107
3584.0,-4.415253715706058e-05
3840.0,-0.0013704475713893771
4096.0,-0.0005910894251428545
4608.0,-0.0036826941650360823
5120.0,0.0011196413543075323
5632.0,0.0010422274935990572
6144.0,0.0017574044177308679
6656.0,0.0009799761464819312
7168.0,0.0009744939161464572
7680.0,0.001406406401656568
8192.0,0.0008358282502740622
end
