version,3.0
numOfCh,1
type,point
parent_name,484af_1dot0-0dot1
ch_type,1_1
kcount,1
numberNandB,1
brightnessNandB,1
carpet pos,0
pc,0
Time (ms),CH1 Auto-Correlation
1.0,0.14573796093463898
2.0,0.1375982165336609
3.0,0.13081465661525726
4.0,0.12472847104072571
5.0,0.11946767568588257
6.0,0.11452331393957138
7.0,0.11031121760606766
8.0,0.10643209517002106
9.0,0.10357311367988586
10.0,0.10118342936038971
11.0,0.09884592890739441
12.0,0.09630255401134491
13.0,0.09352246671915054
14.0,0.09069555997848511
15.0,0.08823294937610626
16.0,0.08594801276922226
18.0,0.08079154789447784
20.0,0.07671646773815155
22.0,0.0734027624130249
24.0,0.07006905972957611
26.0,0.06652328372001648
28.0,0.06275361031293869
30.0,0.05913885310292244
32.0,0.056371353566646576
36.0,0.05210386961698532
40.0,0.04691644757986069
44.0,0.042274899780750275
48.0,0.04061954841017723
52.0,0.04077299311757088
56.0,0.04013191908597946
60.0,0.03861018270254135
64.0,0.03746432065963745
72.0,0.035090941935777664
80.0,0.03239259496331215
88.0,0.028820473700761795
96.0,0.023612577468156815
104.0,0.019715072587132454
112.0,0.015780923888087273
120.0,0.016290251165628433
128.0,0.014679072424769402
144.0,0.012648424133658409
160.0,0.010654016397893429
176.0,0.009650767780840397
192.0,0.012234724126756191
208.0,0.011278633028268814
224.0,0.009432122111320496
240.0,0.006241668947041035
256.0,0.004790809936821461
288.0,0.005337401758879423
320.0,0.0017850525910034776
352.0,0.001533279661089182
384.0,0.0047598183155059814
416.0,0.0022012803237885237
448.0,0.0056137582287192345
480.0,0.003403725568205118
512.0,0.0016413370613008738
576.0,0.0007094635511748493
640.0,-0.001560191041789949
704.0,0.005556299816817045
768.0,0.005855307448655367
832.0,0.005178046878427267
896.0,0.005432779435068369
960.0,0.0037030684761703014
1024.0,0.00640103779733181
1152.0,0.001990647753700614
1280.0,0.004180965945124626
1408.0,0.005061460193246603
1536.0,-0.0017386798281222582
1664.0,-0.0024987980723381042
1792.0,-0.0021661974024027586
1920.0,-0.005489035043865442
2048.0,-0.002763049677014351
2304.0,0.001982898684218526
2560.0,0.001455978723242879
2816.0,0.004653433337807655
3072.0,-0.0029852543957531452
3328.0,0.005073102656751871
3584.0,0.006600281223654747
3840.0,0.00905726756900549
4096.0,0.005605362355709076
4608.0,-0.000399861135520041
5120.0,0.0004645221633836627
5632.0,-0.010118640027940273
6144.0,-0.004087524022907019
6656.0,-0.003518561599776149
7168.0,-0.0011988880578428507
7680.0,0.00392687926068902
8192.0,-0.005307002924382687
end
