version,3.0
numOfCh,1
type,point
parent_name,484af_1dot0-0dot1
ch_type,1_1
kcount,1
numberNandB,1
brightnessNandB,1
carpet pos,0
pc,0
Time (ms),CH1 Auto-Correlation
1.0,0.08501441031694412
2.0,0.07828527688980103
3.0,0.07224148511886597
4.0,0.06692217290401459
5.0,0.062177278101444244
6.0,0.058015916496515274
7.0,0.05419643595814705
8.0,0.05081968009471893
9.0,0.047837939113378525
10.0,0.04517144709825516
11.0,0.04266238212585449
12.0,0.04048091545701027
13.0,0.03850923851132393
14.0,0.036551784723997116
15.0,0.03471042588353157
16.0,0.03322301432490349
18.0,0.030439162626862526
20.0,0.028608428314328194
22.0,0.027001826092600822
24.0,0.02571692131459713
26.0,0.02481689862906933
28.0,0.023992208763957024
30.0,0.023204965516924858
32.0,0.022079186514019966
36.0,0.020042160525918007
40.0,0.018678205087780952
44.0,0.017574815079569817
48.0,0.016970723867416382
52.0,0.016794515773653984
56.0,0.01592329889535904
60.0,0.014969532378017902
64.0,0.013789174146950245
72.0,0.01228372287005186
80.0,0.011167324148118496
88.0,0.010609078221023083
96.0,0.010210154578089714
104.0,0.0086421649903059
112.0,0.00836462527513504
120.0,0.00767110101878643
128.0,0.006180552765727043
144.0,0.005265709012746811
160.0,0.00359085900709033
176.0,0.004396242089569569
192.0,0.006400823127478361
208.0,0.005388732999563217
224.0,0.004462372045964003
240.0,0.0016441066982224584
256.0,3.8354730349965394e-05
288.0,-0.00048606423661112785
320.0,-0.00042097107507288456
352.0,0.0011223488254472613
384.0,-0.0006800656556151807
416.0,-0.0004965307889506221
448.0,-0.003874377580359578
480.0,-0.0035193043295294046
512.0,0.0008122515282593668
576.0,0.0016035125590860844
640.0,-0.0007915075402706861
704.0,0.0037828751374036074
768.0,0.008626283146440983
832.0,0.0060679251328110695
896.0,0.003082849085330963
960.0,0.0019091956783086061
1024.0,-0.0009545940556563437
1152.0,-0.0016790404915809631
1280.0,-0.00036299778730608523
1408.0,-0.0035831108689308167
1536.0,-0.0023635909892618656
1664.0,-0.0018757975194603205
1792.0,-0.00304311397485435
1920.0,-0.00032439164351671934
2048.0,0.0015944975893944502
2304.0,-0.004884101450443268
2560.0,-0.004605055786669254
2816.0,-0.0002047818707069382
3072.0,0.00048079618136398494
3328.0,-0.0055001345463097095
3584.0,0.00042869715252891183
3840.0,0.003147171577438712
4096.0,-0.0007738445419818163
4608.0,0.0016288005281239748
5120.0,0.00043317442759871483
5632.0,-0.0006479275762103498
6144.0,-0.0034345791209489107
6656.0,0.0005994802922941744
7168.0,-0.0018506088526919484
7680.0,0.0013102737721055746
8192.0,0.0030195163562893867
end
