version,3.0
numOfCh,1
type,point
parent_name,484af_1dot0-0dot1
ch_type,1_1
kcount,1
numberNandB,1
brightnessNandB,1
carpet pos,0
pc,0
Time (ms),CH1 Auto-Correlation
1.0,0.08882047981023788
2.0,0.08241657167673111
3.0,0.07650140672922134
4.0,0.07127943634986877
5.0,0.06673464924097061
6.0,0.06256382912397385
7.0,0.058802343904972076
8.0,0.05567244440317154
9.0,0.052990205585956573
10.0,0.05041097104549408
11.0,0.04793521389365196
12.0,0.045543357729911804
13.0,0.043482694774866104
14.0,0.041524894535541534
15.0,0.03960833698511124
16.0,0.037966322153806686
18.0,0.03456871584057808
20.0,0.032038092613220215
22.0,0.03016078658401966
24.0,0.028777843341231346
26.0,0.027476616203784943
28.0,0.02553725056350231
30.0,0.023499518632888794
32.0,0.02212170511484146
36.0,0.019600654020905495
40.0,0.017150675877928734
44.0,0.014452645555138588
48.0,0.012493091635406017
52.0,0.010814974084496498
56.0,0.009803906083106995
60.0,0.009328516200184822
64.0,0.008867413736879826
72.0,0.006930804345756769
80.0,0.003885821206495166
88.0,0.0031410197261720896
96.0,0.0033149863593280315
104.0,0.004078735131770372
112.0,0.004731070715934038
120.0,0.004820817615836859
128.0,0.006780367810279131
144.0,0.0062131015583872795
160.0,0.004763320088386536
176.0,0.00351764471270144
192.0,0.001265310333110392
208.0,-0.0004719232383649796
224.0,-0.0011663519544526935
240.0,0.0005294692236930132
256.0,0.0006802377174608409
288.0,-0.0006210988503880799
320.0,-8.443974365945905e-05
352.0,-0.0014497736701741815
384.0,-0.0030316056217998266
416.0,0.0013427857775241137
448.0,0.0030561962630599737
480.0,0.002175352768972516
512.0,0.0002895682118833065
576.0,0.0019841487519443035
640.0,0.002600271487608552
704.0,0.00431037088856101
768.0,0.00020803934603463858
832.0,-0.0012991550611332059
896.0,0.004978457931429148
960.0,0.006104921456426382
1024.0,0.0034095747396349907
1152.0,0.0018418689724057913
1280.0,0.004236272536218166
1408.0,0.005745552945882082
1536.0,-0.0005395626649260521
1664.0,-0.004190797917544842
1792.0,-0.004283725284039974
1920.0,0.002562699606642127
2048.0,0.00496350321918726
2304.0,0.002755178837105632
2560.0,-0.00195898930542171
2816.0,-0.0029884129762649536
3072.0,-0.0036280134227126837
3328.0,0.0021749783772975206
3584.0,-0.0012776689836755395
3840.0,-0.005626599304378033
4096.0,-0.005917567294090986
4608.0,-0.003190882969647646
5120.0,-0.0061367047019302845
5632.0,0.0009512569522485137
6144.0,-0.005531050264835358
6656.0,0.0029462145175784826
7168.0,-0.00017833836318459362
7680.0,0.001066268770955503
8192.0,0.0022130380384624004
end
