version,3.0
numOfCh,1
type,point
parent_name,484af_1dot0-0dot1
ch_type,1_1
kcount,1
numberNandB,1
brightnessNandB,1
carpet pos,0
pc,0
Time (ms),CH1 Auto-Correlation
1.0,0.07928937673568726
2.0,0.07249953597784042
3.0,0.06661748141050339
4.0,0.061762966215610504
5.0,0.05737541988492012
6.0,0.05351824313402176
7.0,0.05016176775097847
8.0,0.047126129269599915
9.0,0.044443078339099884
10.0,0.04235563427209854
11.0,0.04050055518746376
12.0,0.038705941289663315
13.0,0.03699265792965889
14.0,0.03545551002025604
15.0,0.03391905128955841
16.0,0.032502755522727966
18.0,0.029723159968852997
20.0,0.027116382494568825
22.0,0.02486605942249298
24.0,0.023098839446902275
26.0,0.021396484225988388
28.0,0.02012668177485466
30.0,0.018780453130602837
32.0,0.01772000640630722
36.0,0.016140567138791084
40.0,0.015239227563142776
44.0,0.013883190229535103
48.0,0.011914766393601894
52.0,0.010338537395000458
56.0,0.009798827581107616
60.0,0.010229494422674179
64.0,0.010394169017672539
72.0,0.00906346645206213
80.0,0.007989177480340004
88.0,0.00713103823363781
96.0,0.005885633639991283
104.0,0.003588584251701832
112.0,0.0014345030067488551
120.0,0.0011021082755178213
128.0,0.0033774294424802065
144.0,0.004542877431958914
160.0,0.0042771100997924805
176.0,0.0043305144645273685
192.0,0.006588774733245373
208.0,0.00894882157444954
224.0,0.009940467774868011
240.0,0.008340395987033844
256.0,0.006802350282669067
288.0,0.004521152935922146
320.0,-0.0007779448642395437
352.0,-0.0021960900630801916
384.0,-0.004297943785786629
416.0,-0.0026088920421898365
448.0,0.0007131293532438576
480.0,0.0027364694979041815
512.0,-0.000736144429538399
576.0,-0.004967323504388332
640.0,-0.007668020203709602
704.0,-0.0032044281251728535
768.0,-0.001612895168364048
832.0,-0.004637250676751137
896.0,-0.0028261907864362
960.0,-0.0017350380076095462
1024.0,-0.0017885772977024317
1152.0,-0.0009661318617872894
1280.0,-0.002276725834235549
1408.0,-0.0022913117427378893
1536.0,-0.002488519065082073
1664.0,-0.0007857485325075686
1792.0,0.002666445216163993
1920.0,0.0032119855750352144
2048.0,0.001760475686751306
2304.0,0.0015558116137981415
2560.0,-0.002834353130310774
2816.0,-0.004409296438097954
3072.0,-0.0019026997033506632
3328.0,0.003788088448345661
3584.0,0.0027905702590942383
3840.0,-0.0022351325023919344
4096.0,1.5051404261612333e-05
4608.0,0.0012829909101128578
5120.0,-0.0007187795708887279
5632.0,0.002610656898468733
6144.0,-0.003260473720729351
6656.0,-0.0018228968838229775
7168.0,0.0006500508752651513
7680.0,-0.0008723522769287229
8192.0,-0.0007577667711302638
end
