version,3.0
numOfCh,1
type,point
parent_name,484af_1dot0-0dot1
ch_type,1_1
kcount,1
numberNandB,1
brightnessNandB,1
carpet pos,0
pc,0
Time (ms),CH1 Auto-Correlation
1.0,0.08688943833112717
2.0,0.08034441620111465
3.0,0.07477596402168274
4.0,0.06997015327215195
5.0,0.0657409206032753
6.0,0.06213977187871933
7.0,0.05905633047223091
8.0,0.05611390992999077
9.0,0.05362413823604584
10.0,0.05136425793170929
11.0,0.04921500384807587
12.0,0.0474364310503006
13.0,0.04559975117444992
14.0,0.043871764093637466
15.0,0.04216974973678589
16.0,0.04074959084391594
18.0,0.038038548082113266
20.0,0.035717420279979706
22.0,0.033852554857730865
24.0,0.03233839571475983
26.0,0.03060729429125786
28.0,0.02856919728219509
30.0,0.027015572413802147
32.0,0.02617521956562996
36.0,0.025233250111341476
40.0,0.0236397385597229
44.0,0.022187260910868645
48.0,0.020831091329455376
52.0,0.01977263204753399
56.0,0.018606053665280342
60.0,0.017615897580981255
64.0,0.01614694483578205
72.0,0.01327783614397049
80.0,0.010208049789071083
88.0,0.008500898256897926
96.0,0.008169787004590034
104.0,0.008892268873751163
112.0,0.008605103939771652
120.0,0.0077788131311535835
128.0,0.00662071630358696
144.0,0.005445452872663736
160.0,0.0040742140263319016
176.0,0.003350954269990325
192.0,0.004777805879712105
208.0,0.003176693804562092
224.0,-0.0004487466940190643
240.0,-0.001734541729092598
256.0,0.0002586822083685547
288.0,0.001471992931328714
320.0,-0.0001285570178879425
352.0,-0.0006990746478550136
384.0,-2.2525829990627244e-05
416.0,-0.0019376575946807861
448.0,0.00017402776575181633
480.0,0.0007225512526929379
512.0,0.0023501464165747166
576.0,-0.00012131562107242644
640.0,-0.0019153592875227332
704.0,0.0025749090127646923
768.0,0.007031462155282497
832.0,0.002302055712789297
896.0,-0.0003642433730419725
960.0,-0.002906817477196455
1024.0,0.0013701304560527205
1152.0,0.001851534703746438
1280.0,0.0025489777326583862
1408.0,-0.0016829491360113025
1536.0,-0.0006209991406649351
1664.0,-0.0027568605728447437
1792.0,-0.001382471527904272
1920.0,-0.0006644134409725666
2048.0,0.000583004963118583
2304.0,-0.0017681686440482736
2560.0,-0.0017199976136907935
2816.0,0.000361891754437238
3072.0,0.0004220760893076658
3328.0,-0.0035085524432361126
3584.0,-6.524678610730916e-05
3840.0,-0.002048566471785307
4096.0,-0.0011240117019042373
4608.0,-0.007032256573438644
5120.0,0.0009732618345879018
5632.0,-0.0017527509480714798
6144.0,-0.0006994368741288781
6656.0,-0.0044060368090868
7168.0,0.001815490541048348
7680.0,0.003386351279914379
8192.0,0.006736173760145903
end
