version,3.0
numOfCh,1
type,point
parent_name,484af_1dot0-0dot1
ch_type,1_1
kcount,1
numberNandB,1
brightnessNandB,1
carpet pos,0
pc,0
Time (ms),CH1 Auto-Correlation
1.0,0.10152196884155273
2.0,0.09454936534166336
3.0,0.08838248997926712
4.0,0.08304126560688019
5.0,0.07836350053548813
6.0,0.07418791949748993
7.0,0.07029274851083755
8.0,0.0669611394405365
9.0,0.06389304250478745
10.0,0.06116802990436554
11.0,0.058780211955308914
12.0,0.05658670514822006
13.0,0.05480731278657913
14.0,0.05319972336292267
15.0,0.05138767510652542
16.0,0.04954171180725098
18.0,0.04631728306412697
20.0,0.043660324066877365
22.0,0.04137745872139931
24.0,0.038884662091732025
26.0,0.03645992651581764
28.0,0.03447224572300911
30.0,0.032176099717617035
32.0,0.030272608622908592
36.0,0.02756505459547043
40.0,0.025383077561855316
44.0,0.023676933720707893
48.0,0.0217361468821764
52.0,0.019994622096419334
56.0,0.0184007715433836
60.0,0.016905823722481728
64.0,0.015362177044153214
72.0,0.013110172934830189
80.0,0.011732878163456917
88.0,0.010912726633250713
96.0,0.009669284336268902
104.0,0.009103733114898205
112.0,0.008350108750164509
120.0,0.005356794688850641
128.0,0.0031535185407847166
144.0,0.0019287398317828774
160.0,0.00026532544870860875
176.0,0.0005517865065485239
192.0,0.001732697244733572
208.0,0.002883482724428177
224.0,0.005924659315496683
240.0,0.0068956343457102776
256.0,0.004677063785493374
288.0,-0.0012869044439867139
320.0,-0.0030841880943626165
352.0,-0.005771166179329157
384.0,-0.009008770808577538
416.0,-0.010929091833531857
448.0,-0.005646199453622103
480.0,-0.002036853227764368
512.0,-0.0004984717234037817
576.0,-0.0017457549693062901
640.0,-0.006237138994038105
704.0,-0.0026414382737129927
768.0,0.0007031797431409359
832.0,-0.003535066731274128
896.0,-0.005107455886900425
960.0,-0.002836149651557207
1024.0,0.004506778437644243
1152.0,0.003445971990004182
1280.0,-0.0014068973250687122
1408.0,-0.0010584471747279167
1536.0,-0.0023603395093232393
1664.0,4.5732955186394975e-05
1792.0,-0.0016473194118589163
1920.0,-0.00017058894445654005
2048.0,-0.004553111270070076
2304.0,0.00237987469881773
2560.0,0.004936280194669962
2816.0,-0.002669320907443762
3072.0,0.0011911224573850632
3328.0,0.0036730682477355003
3584.0,0.004631499759852886
3840.0,-0.004738396033644676
4096.0,-0.004591021686792374
4608.0,-0.0010219429386779666
5120.0,0.0009325611754320562
5632.0,-0.0031738290563225746
6144.0,0.0043795290403068066
6656.0,-0.0013079348718747497
7168.0,-0.003452544566243887
7680.0,-0.002777047222480178
8192.0,-0.0006142843631096184
end
