version,3.0
numOfCh,1
type,point
parent_name,484af_1dot0-0dot1
ch_type,1_1
kcount,1
numberNandB,1
brightnessNandB,1
carpet pos,0
pc,0
Time (ms),CH1 Auto-Correlation
1.0,0.08393045514822006
2.0,0.07735421508550644
3.0,0.07175527513027191
4.0,0.06663370132446289
5.0,0.06220099702477455
6.0,0.05835951864719391
7.0,0.05501282960176468
8.0,0.052036017179489136
9.0,0.048978596925735474
10.0,0.04606897756457329
11.0,0.043658237904310226
12.0,0.041492167860269547
13.0,0.039500489830970764
14.0,0.03751708194613457
15.0,0.03581938147544861
16.0,0.034110866487026215
18.0,0.03100348822772503
20.0,0.028265908360481262
22.0,0.02617695927619934
24.0,0.02432655729353428
26.0,0.022991735488176346
28.0,0.021877169609069824
30.0,0.02079715020954609
32.0,0.01957348734140396
36.0,0.017485130578279495
40.0,0.015295612625777721
44.0,0.013407515361905098
48.0,0.011484968475997448
52.0,0.0101355304941535
56.0,0.009559542872011662
60.0,0.009721046313643456
64.0,0.009274447336792946
72.0,0.009243754670023918
80.0,0.009786916896700859
88.0,0.009354660287499428
96.0,0.008861277252435684
104.0,0.009288452565670013
112.0,0.009544502012431622
120.0,0.010119002312421799
128.0,0.010231348685920238
144.0,0.01001824252307415
160.0,0.008037323132157326
176.0,0.005254336632788181
192.0,0.004864934366196394
208.0,0.005605311598628759
224.0,0.007010473869740963
240.0,0.002964709885418415
256.0,-0.0004031781281810254
288.0,-0.0004231594211887568
320.0,0.0008932253113016486
352.0,-1.8496273696655408e-05
384.0,0.0029258159920573235
416.0,0.00039256198215298355
448.0,0.001818859251216054
480.0,0.003789915470406413
512.0,-0.0010223935823887587
576.0,0.0019054991425946355
640.0,0.0018806682201102376
704.0,0.0025098538026213646
768.0,-0.0014983168803155422
832.0,0.0011261446634307504
896.0,-0.0035029228311032057
960.0,-0.0022454082500189543
1024.0,0.0031278510577976704
1152.0,0.0006419834098778665
1280.0,-0.0002668665547389537
1408.0,-0.0009524280903860927
1536.0,-0.0013420990435406566
1664.0,0.0010872334241867065
1792.0,0.0035544943530112505
1920.0,0.00729789724573493
2048.0,0.0025721199344843626
2304.0,-0.0004687290929723531
2560.0,-0.0030056224204599857
2816.0,-0.0025949468836188316
3072.0,0.0002528673503547907
3328.0,-0.00010312705853721127
3584.0,-0.0012220705393701792
3840.0,-0.003824150888249278
4096.0,-0.0028193749021738768
4608.0,-0.0024606280494481325
5120.0,-0.002905711065977812
5632.0,-0.0031214887276291847
6144.0,-0.0011522361310198903
6656.0,-0.0026589599438011646
7168.0,-0.0033033404033631086
7680.0,0.0023980920668691397
8192.0,0.006425090599805117
end
