version,3.0
numOfCh,1
type,point
parent_name,484af_1dot0-0dot1
ch_type,1_1
kcount,1
numberNandB,1
brightnessNandB,1
carpet pos,0
pc,0
Time (ms),CH1 Auto-Correlation
1.0,0.09384890645742416
2.0,0.0871698334813118
3.0,0.08183041960000992
4.0,0.07726901769638062
5.0,0.07353460788726807
6.0,0.0700489804148674
7.0,0.06711312383413315
8.0,0.06462544202804565
9.0,0.06251980364322662
10.0,0.06019139289855957
11.0,0.058011434972286224
12.0,0.05593487620353699
13.0,0.05407698452472687
14.0,0.052285898476839066
15.0,0.05064789205789566
16.0,0.04897309094667435
18.0,0.045499902218580246
20.0,0.04249446839094162
22.0,0.03982234373688698
24.0,0.03769049048423767
26.0,0.036088865250349045
28.0,0.03465196117758751
30.0,0.033340491354465485
32.0,0.03225454315543175
36.0,0.031024713069200516
40.0,0.03024701401591301
44.0,0.030053719878196716
48.0,0.02886979654431343
52.0,0.027650831267237663
56.0,0.027204152196645737
60.0,0.026410039514303207
64.0,0.025705944746732712
72.0,0.02334650605916977
80.0,0.02059968188405037
88.0,0.018228882923722267
96.0,0.016731075942516327
104.0,0.015437835827469826
112.0,0.015264402143657207
120.0,0.01563720591366291
128.0,0.014815797097980976
144.0,0.012403533793985844
160.0,0.011279829777777195
176.0,0.01211230456829071
192.0,0.012889563106000423
208.0,0.012652295641601086
224.0,0.011037246324121952
240.0,0.008512400090694427
256.0,0.007619089912623167
288.0,0.006825197953730822
320.0,0.005670344922691584
352.0,0.008715965785086155
384.0,0.009830890223383904
416.0,0.00709024490788579
448.0,0.004531361162662506
480.0,0.0013538452330976725
512.0,0.00375039572827518
576.0,0.008000546135008335
640.0,0.004039350897073746
704.0,0.0023105775471776724
768.0,0.004998518154025078
832.0,0.004139249213039875
896.0,0.006623313296586275
960.0,0.012934427708387375
1024.0,0.01000396627932787
1152.0,0.006058722268790007
1280.0,0.004416269715875387
1408.0,0.0044279927387833595
1536.0,0.0003880381118506193
1664.0,-0.0011840311344712973
1792.0,-0.006952905096113682
1920.0,-0.009205332025885582
2048.0,-0.007095826789736748
2304.0,-0.010013813152909279
2560.0,-0.004006790462881327
2816.0,-0.009805865585803986
3072.0,-0.012765794061124325
3328.0,-0.013516505248844624
3584.0,-0.010918617248535156
3840.0,-0.005613075103610754
4096.0,-0.004884553141891956
4608.0,-0.005305634345859289
5120.0,0.0014970272313803434
5632.0,0.004912173841148615
6144.0,0.009730339050292969
6656.0,0.01579204574227333
7168.0,0.009353556670248508
7680.0,0.011073275469243526
8192.0,4.9684662371873856e-05
end
