version,3.0
numOfCh,1
type,point
parent_name,484af_1dot0-0dot1
ch_type,1_1
kcount,1
numberNandB,1
brightnessNandB,1
carpet pos,0
pc,0
Time (ms),CH1 Auto-Correlation
1.0,0.11177770048379898
2.0,0.10437741130590439
3.0,0.09810579568147659
4.0,0.09269926697015762
5.0,0.0879686176776886
6.0,0.08360812813043594
7.0,0.07939191907644272
8.0,0.07561130076646805
9.0,0.07209562510251999
10.0,0.06925079226493835
11.0,0.06677824258804321
12.0,0.06468278169631958
13.0,0.0623478926718235
14.0,0.060297537595033646
15.0,0.05823442339897156
16.0,0.0566568449139595
18.0,0.053576450794935226
20.0,0.05081705003976822
22.0,0.048522960394620895
24.0,0.04627738893032074
26.0,0.04412173479795456
28.0,0.04221337288618088
30.0,0.040705736726522446
32.0,0.03923435136675835
36.0,0.036928825080394745
40.0,0.03589619696140289
44.0,0.035019997507333755
48.0,0.03420969471335411
52.0,0.034570954740047455
56.0,0.03506943956017494
60.0,0.03386540710926056
64.0,0.03239889815449715
72.0,0.028555292636156082
80.0,0.02693462371826172
88.0,0.02439131960272789
96.0,0.021544981747865677
104.0,0.019109021872282028
112.0,0.017976975068449974
120.0,0.019263077527284622
128.0,0.018966354429721832
144.0,0.014196781441569328
160.0,0.010966571047902107
176.0,0.008624738082289696
192.0,0.008312207646667957
208.0,0.007018567528575659
224.0,0.0039813281036913395
240.0,0.005933626554906368
256.0,0.00823544804006815
288.0,0.007880879566073418
320.0,0.00784564670175314
352.0,0.008974924683570862
384.0,0.006415143143385649
416.0,0.00978922937065363
448.0,0.007064972072839737
480.0,0.002393644070252776
512.0,-4.2769468564074486e-05
576.0,-0.0006521153845824301
640.0,0.0005303199286572635
704.0,-0.0009780736872926354
768.0,-0.0016959145432338119
832.0,-0.004013712517917156
896.0,-0.003952781204134226
960.0,-0.006419002544134855
1024.0,-0.004336029291152954
1152.0,-0.0032508389558643103
1280.0,0.0020153489895164967
1408.0,-0.002847621450200677
1536.0,-0.0029115912038832903
1664.0,-0.003458661725744605
1792.0,0.004419109784066677
1920.0,0.005541269667446613
2048.0,0.003313840366899967
2304.0,-0.006281465291976929
2560.0,-0.004492597188800573
2816.0,-0.005098313093185425
3072.0,-0.003644584910944104
3328.0,-0.00237979250960052
3584.0,-0.004018165171146393
3840.0,0.0014721257612109184
4096.0,0.003569470252841711
4608.0,0.011494126170873642
5120.0,0.007284291088581085
5632.0,-0.0060157799161970615
6144.0,-0.007571476977318525
6656.0,-0.0029838765040040016
7168.0,0.0007610767497681081
7680.0,-0.006514444015920162
8192.0,-0.009774398058652878
end
