version,3.0
numOfCh,1
type,point
parent_name,484af_1dot0-0dot1
ch_type,1_1
kcount,1
numberNandB,1
brightnessNandB,1
carpet pos,0
pc,0
Time (ms),CH1 Auto-Correlation
1.0,0.2991275489330292
2.0,0.28687334060668945
3.0,0.27540966868400574
4.0,0.2651781439781189
5.0,0.2564571499824524
6.0,0.24648714065551758
7.0,0.23505344986915588
8.0,0.2237437218427658
9.0,0.2130683809518814
10.0,0.20250335335731506
11.0,0.19187171757221222
12.0,0.1813252866268158
13.0,0.17042571306228638
14.0,0.16056489944458008
15.0,0.15085053443908691
16.0,0.14129261672496796
18.0,0.12311875820159912
20.0,0.10577695071697235
22.0,0.08722905069589615
24.0,0.07196792960166931
26.0,0.06143777072429657
28.0,0.05202677845954895
30.0,0.0463675782084465
32.0,0.04205211251974106
36.0,0.036780938506126404
40.0,0.03268824890255928
44.0,0.027195023372769356
48.0,0.021048787981271744
52.0,0.015618097968399525
56.0,0.012121717445552349
60.0,0.01005894411355257
64.0,0.007240111939609051
72.0,0.0072714416310191154
80.0,0.008446217514574528
88.0,0.009030917659401894
96.0,0.008918180130422115
104.0,0.0077118100598454475
112.0,0.005476515740156174
120.0,0.0026291380636394024
128.0,-0.0001037702095345594
144.0,0.0038748644292354584
160.0,0.006840505171567202
176.0,0.0045634424313902855
192.0,0.007768014911562204
208.0,0.0074301534332334995
224.0,0.001401012297719717
240.0,0.0013015971053391695
256.0,0.005843544378876686
288.0,0.0016466310480609536
320.0,0.003121176967397332
352.0,0.010353808291256428
384.0,0.008103730157017708
416.0,0.006924834102392197
448.0,0.007233866956084967
480.0,0.004296829458326101
512.0,0.0017398943891748786
576.0,-0.0025337461847811937
640.0,0.0016155896009877324
704.0,0.0009614493465051055
768.0,-5.668981611961499e-05
832.0,0.007336220238357782
896.0,0.004324677400290966
960.0,0.0031149901915341616
1024.0,0.0028910709079355
1152.0,-0.0011344908270984888
1280.0,-0.00016865249199327081
1408.0,-0.00024370149185415357
1536.0,-0.0017702950863167644
1664.0,-0.0009330767206847668
1792.0,-0.0007475574966520071
1920.0,-0.0037759754341095686
2048.0,-0.005542582832276821
2304.0,-0.0003734117199201137
2560.0,-0.0008396392804570496
2816.0,-1.0226163794868626e-05
3072.0,-0.000413692177971825
3328.0,-0.0006148379179649055
3584.0,0.0017722867196425796
3840.0,-0.0009567536180838943
4096.0,-0.0007323722820729017
4608.0,0.0012757148360833526
5120.0,0.0030077798292040825
5632.0,0.0017579621635377407
6144.0,0.002250073244795203
6656.0,-0.0007910210406407714
7168.0,-0.00284122908487916
7680.0,2.2314892703434452e-05
8192.0,-0.001397498301230371
end
