version,3.0
numOfCh,1
type,point
parent_name,484af_1dot0-0dot1
ch_type,1_1
kcount,1
numberNandB,1
brightnessNandB,1
carpet pos,0
pc,0
Time (ms),CH1 Auto-Correlation
1.0,0.08019077032804489
2.0,0.07315224409103394
3.0,0.06715987622737885
4.0,0.0619235523045063
5.0,0.057371411472558975
6.0,0.05354533717036247
7.0,0.050323307514190674
8.0,0.04756231606006622
9.0,0.04470278322696686
10.0,0.04227239638566971
11.0,0.03989040106534958
12.0,0.037714555859565735
13.0,0.035652466118335724
14.0,0.03388411924242973
15.0,0.03228440880775452
16.0,0.030775146558880806
18.0,0.028532912954688072
20.0,0.026759186759591103
22.0,0.024756167083978653
24.0,0.022426890209317207
26.0,0.02006991021335125
28.0,0.018066249787807465
30.0,0.016178058460354805
32.0,0.014350191690027714
36.0,0.011643389239907265
40.0,0.010893224738538265
44.0,0.010844983160495758
48.0,0.010211264714598656
52.0,0.009581852704286575
56.0,0.008762801997363567
60.0,0.008470677770674229
64.0,0.007874172180891037
72.0,0.006463842932134867
80.0,0.005014969501644373
88.0,0.0038636219687759876
96.0,0.0028208852745592594
104.0,0.004118458367884159
112.0,0.004178943112492561
120.0,0.003805509302765131
128.0,0.003414580598473549
144.0,0.0028525260277092457
160.0,0.004979901015758514
176.0,0.005155707243829966
192.0,0.006530852988362312
208.0,0.006605140864849091
224.0,0.009439405985176563
240.0,0.008473945781588554
256.0,0.00546500738710165
288.0,0.0024850047193467617
320.0,0.003587742568925023
352.0,0.0034996778704226017
384.0,0.003853981150314212
416.0,0.004687171895056963
448.0,0.0024066860787570477
480.0,-0.0010014056460931897
512.0,0.001000983756966889
576.0,0.006045874673873186
640.0,0.0012769493041560054
704.0,0.0006962257903069258
768.0,0.0011213632533326745
832.0,-6.76380077493377e-05
896.0,0.0005076595116406679
960.0,0.0016280190320685506
1024.0,0.00017477295477874577
1152.0,0.0005584625178016722
1280.0,0.0025991243310272694
1408.0,0.0033998447470366955
1536.0,0.00035050915903411806
1664.0,0.002394316019490361
1792.0,-0.0014336926396936178
1920.0,0.00032961470424197614
2048.0,-0.0020102064590901136
2304.0,-0.004941074177622795
2560.0,-0.003503558225929737
2816.0,-0.000934668758418411
3072.0,-0.002026634057983756
3328.0,-0.0036753735039383173
3584.0,-0.005975090898573399
3840.0,-0.0037898740265518427
4096.0,-0.0011124336160719395
4608.0,0.001105239149183035
5120.0,-0.0014958576066419482
5632.0,0.004890189040452242
6144.0,0.005080534145236015
6656.0,0.0007282632868736982
7168.0,0.0024767008144408464
7680.0,0.0007401264156214893
8192.0,-0.00440015597268939
end
