version,3.0
numOfCh,1
type,point
parent_name,484af_1dot0-0dot1
ch_type,1_1
kcount,1
numberNandB,1
brightnessNandB,1
carpet pos,0
pc,0
Time (ms),CH1 Auto-Correlation
1.0,0.09495832771062851
2.0,0.08782469481229782
3.0,0.081792913377285
4.0,0.07648590952157974
5.0,0.07192672044038773
6.0,0.06746829301118851
7.0,0.06334393471479416
8.0,0.0599193274974823
9.0,0.057160668075084686
10.0,0.05454879254102707
11.0,0.052430156618356705
12.0,0.05051223188638687
13.0,0.0486072339117527
14.0,0.046861469745635986
15.0,0.04514436796307564
16.0,0.0437445342540741
18.0,0.04126366227865219
20.0,0.03897456079721451
22.0,0.03675122931599617
24.0,0.03454381227493286
26.0,0.03258330374956131
28.0,0.03094775415956974
30.0,0.02970183454453945
32.0,0.028459925204515457
36.0,0.02706989273428917
40.0,0.025114892050623894
44.0,0.02298201620578766
48.0,0.021108409389853477
52.0,0.01945444941520691
56.0,0.018417708575725555
60.0,0.016838891431689262
64.0,0.015935635194182396
72.0,0.014178048819303513
80.0,0.013082989491522312
88.0,0.011611051857471466
96.0,0.009310436435043812
104.0,0.007527630310505629
112.0,0.006355034653097391
120.0,0.00393945025280118
128.0,0.0010916864266619086
144.0,-0.00010986685083480552
160.0,0.000552322540897876
176.0,-0.0003306464641354978
192.0,0.0023546479642391205
208.0,0.004649347625672817
224.0,0.0051724473014473915
240.0,0.00738613773137331
256.0,0.007891331799328327
288.0,0.00932516809552908
320.0,0.004778548609465361
352.0,0.004107077606022358
384.0,0.0033366067800670862
416.0,0.00144326186273247
448.0,0.0027065458707511425
480.0,0.0012002108851447701
512.0,0.00015732308384031057
576.0,-0.003821464255452156
640.0,0.0036294469609856606
704.0,0.00716033112257719
768.0,0.003216578857973218
832.0,-0.005868550855666399
896.0,-0.004025303293019533
960.0,0.0004867054522037506
1024.0,-0.0008458205848000944
1152.0,-0.0011824864195659757
1280.0,0.0003375325759407133
1408.0,0.0016562564997002482
1536.0,-0.000334276061039418
1664.0,0.0022301392164081335
1792.0,0.003492139047011733
1920.0,-0.0019205096177756786
2048.0,0.0012204308295622468
2304.0,-0.005272047594189644
2560.0,-0.005826797802001238
2816.0,-0.003750993637368083
3072.0,-0.004773885942995548
3328.0,0.0005396731430664659
3584.0,-0.0024587749503552914
3840.0,-0.003404526272788644
4096.0,-0.0020506458822637796
4608.0,3.175602978444658e-05
5120.0,0.0018732796888798475
5632.0,0.0006570206605829298
6144.0,0.0012394258519634604
6656.0,0.006338386330753565
7168.0,0.0012525167549028993
7680.0,0.0016888281097635627
8192.0,-0.0008950504707172513
end
