version,3.0
numOfCh,1
type,point
parent_name,484af_1dot0-0dot1
ch_type,1_1
kcount,1
numberNandB,1
brightnessNandB,1
carpet pos,0
pc,0
Time (ms),CH1 Auto-Correlation
1.0,0.08848399668931961
2.0,0.0815763920545578
3.0,0.07542013376951218
4.0,0.07005994766950607
5.0,0.06548815220594406
6.0,0.061458416283130646
7.0,0.05778909847140312
8.0,0.054429180920124054
9.0,0.0513230636715889
10.0,0.04864748567342758
11.0,0.04618023708462715
12.0,0.04385578632354736
13.0,0.04183465242385864
14.0,0.040027178823947906
15.0,0.03809946030378342
16.0,0.036295335739851
18.0,0.033488206565380096
20.0,0.03160367161035538
22.0,0.030293716117739677
24.0,0.028856515884399414
26.0,0.02728305011987686
28.0,0.02563680149614811
30.0,0.024183005094528198
32.0,0.023170964792370796
36.0,0.022655032575130463
40.0,0.022342564538121223
44.0,0.021342191845178604
48.0,0.020186806097626686
52.0,0.018888019025325775
56.0,0.017710451036691666
60.0,0.016620397567749023
64.0,0.015137757174670696
72.0,0.014245575293898582
80.0,0.01363238412886858
88.0,0.012133724987506866
96.0,0.012022397480905056
104.0,0.011776869185268879
112.0,0.011808665469288826
120.0,0.011739793233573437
128.0,0.009915927425026894
144.0,0.0066219959408044815
160.0,0.006303649395704269
176.0,0.00740990974009037
192.0,0.004817072302103043
208.0,0.003728365758433938
224.0,0.0014964614529162645
240.0,0.00010437094169901684
256.0,0.0009602857753634453
288.0,0.00166052405256778
320.0,0.0021980346646159887
352.0,0.000995649490505457
384.0,0.00017392994777765125
416.0,-0.0026430783327668905
448.0,-0.004269924480468035
480.0,-0.0036281368229538202
512.0,-0.0011071717599406838
576.0,5.99829108978156e-05
640.0,0.003160490421578288
704.0,0.0006427639746107161
768.0,-0.003152413060888648
832.0,-0.004293426871299744
896.0,-0.004017879255115986
960.0,-0.004363647196441889
1024.0,-0.003051070962101221
1152.0,-0.005281458608806133
1280.0,-0.0007408312521874905
1408.0,-0.0016509302658960223
1536.0,0.00279631232842803
1664.0,0.00032249296782538295
1792.0,0.0006720763631165028
1920.0,0.0028453185223042965
2048.0,-0.0005689362296834588
2304.0,0.0007173694903030992
2560.0,-0.0012720068916678429
2816.0,-0.0027908713091164827
3072.0,-0.0014799166237935424
3328.0,-0.00027654014411382377
3584.0,0.004694055765867233
3840.0,0.0007258361438289285
4096.0,0.0033171423710882664
4608.0,4.529336729319766e-05
5120.0,-0.0012457499979063869
5632.0,-0.0006474030669778585
6144.0,-0.0012744094710797071
6656.0,-0.00377280474640429
7168.0,-0.0025347135961055756
7680.0,0.0033885794691741467
8192.0,0.0025777011178433895
end
