version,3.0
numOfCh,1
type,point
parent_name,484af_1dot0-0dot1
ch_type,1_1
kcount,1
numberNandB,1
brightnessNandB,1
carpet pos,0
pc,0
Time (ms),CH1 Auto-Correlation
1.0,0.15866999328136444
2.0,0.1510230153799057
3.0,0.1435491293668747
4.0,0.13671985268592834
5.0,0.12982586026191711
6.0,0.12409841269254684
7.0,0.11860284954309464
8.0,0.11372411251068115
9.0,0.108674056828022
10.0,0.10413213819265366
11.0,0.09977886080741882
12.0,0.09582297503948212
13.0,0.09129923582077026
14.0,0.08666429668664932
15.0,0.08216897398233414
16.0,0.07715755701065063
18.0,0.06630287319421768
20.0,0.05896671116352081
22.0,0.052850205451250076
24.0,0.04824817180633545
26.0,0.04367687553167343
28.0,0.03847119212150574
30.0,0.03438904508948326
32.0,0.03187539801001549
36.0,0.03134583309292793
40.0,0.0320919007062912
44.0,0.032388489693403244
48.0,0.0325598381459713
52.0,0.03162205591797829
56.0,0.03038851171731949
60.0,0.027682945132255554
64.0,0.024297568947076797
72.0,0.014909555204212666
80.0,0.011178097687661648
88.0,0.009651712141931057
96.0,0.009891283698379993
104.0,0.00795265194028616
112.0,0.004694671835750341
120.0,0.0014375693863257766
128.0,-0.0007358587463386357
144.0,-0.000675894902087748
160.0,0.0011357833864167333
176.0,0.0007721209549345076
192.0,0.005830100271850824
208.0,0.011361186392605305
224.0,0.0025193486362695694
240.0,0.001413495047017932
256.0,0.002769121900200844
288.0,-0.0012796934461221099
320.0,-0.00212631793692708
352.0,-0.001467761816456914
384.0,0.001845104736275971
416.0,-0.00014818139607086778
448.0,0.0014094285434111953
480.0,-0.0030438026878982782
512.0,-0.004567875526845455
576.0,-0.0013004973297938704
640.0,0.0074798366986215115
704.0,0.006496680900454521
768.0,-0.001981911947950721
832.0,0.0006428971537388861
896.0,-0.0008474830538034439
960.0,-0.0051706102676689625
1024.0,-0.006663580425083637
1152.0,0.0018086556810885668
1280.0,0.0026126690208911896
1408.0,0.00041413345024921
1536.0,0.001793092698790133
1664.0,-0.007889489643275738
1792.0,-0.003632118459790945
1920.0,-0.0014943506103008986
2048.0,-0.0002544612798374146
2304.0,-0.003134684404358268
2560.0,0.0003249420551583171
2816.0,0.0002366651315242052
3072.0,-0.0031976995524019003
3328.0,0.0035685969050973654
3584.0,0.0005830769659951329
3840.0,-0.0013761093141511083
4096.0,0.005252240225672722
4608.0,-0.0010227786842733622
5120.0,0.002665059408172965
5632.0,0.0007191798649728298
6144.0,4.49041290266905e-05
6656.0,0.0024523851461708546
7168.0,-0.0037241484969854355
7680.0,-0.0009007299086079001
8192.0,-0.0008171626832336187
end
