version,3.0
numOfCh,1
type,point
parent_name,484af_1dot0-0dot1
ch_type,1_1
kcount,1
numberNandB,1
brightnessNandB,1
carpet pos,0
pc,0
Time (ms),CH1 Auto-Correlation
1.0,0.07746738195419312
2.0,0.07087663561105728
3.0,0.06520254164934158
4.0,0.060340628027915955
5.0,0.05599881708621979
6.0,0.052306078374385834
7.0,0.04883109778165817
8.0,0.04573056101799011
9.0,0.04316125065088272
10.0,0.04102925583720207
11.0,0.03912306949496269
12.0,0.03746403008699417
13.0,0.03596726059913635
14.0,0.034570466727018356
15.0,0.03337578848004341
16.0,0.03209259733557701
18.0,0.029694361612200737
20.0,0.027690567076206207
22.0,0.025852419435977936
24.0,0.023813845589756966
26.0,0.02195880189538002
28.0,0.02013685554265976
30.0,0.019069219008088112
32.0,0.018428780138492584
36.0,0.01770579256117344
40.0,0.017198866233229637
44.0,0.014938516542315483
48.0,0.012712612748146057
52.0,0.01127241924405098
56.0,0.010473597794771194
60.0,0.009304296225309372
64.0,0.0074814241379499435
72.0,0.005173016805201769
80.0,0.0030008521862328053
88.0,0.0010750327492132783
96.0,-0.0011521539418026805
104.0,-0.0022189572919160128
112.0,-0.0011478845262899995
120.0,0.00026736428844742477
128.0,0.0024262345395982265
144.0,0.0018964360933750868
160.0,0.0032977599184960127
176.0,0.005544094834476709
192.0,0.0059152645990252495
208.0,0.005909990053623915
224.0,0.0009637046023271978
240.0,-0.002293915022164583
256.0,-0.0014451572205871344
288.0,-0.0014636684209108353
320.0,0.00186192209366709
352.0,0.002868921961635351
384.0,1.7766742530511692e-05
416.0,-0.001412432175129652
448.0,-0.0027385433204472065
480.0,0.000567817420233041
512.0,0.0034949493128806353
576.0,-0.0036916586104780436
640.0,-0.0034097167663276196
704.0,-0.0034069677349179983
768.0,-0.005196114536374807
832.0,-0.0006089417147450149
896.0,0.0018663073424249887
960.0,0.004887731280177832
1024.0,-0.0005291617708280683
1152.0,0.0013644351856783032
1280.0,-0.0010949638672173023
1408.0,-0.0022827619686722755
1536.0,-0.0021049471106380224
1664.0,-0.0008195914560928941
1792.0,-0.00035908794961869717
1920.0,0.0007179971435107291
2048.0,0.0003546776424627751
2304.0,0.0013962469529360533
2560.0,-0.0020463254768401384
2816.0,-0.0009746109135448933
3072.0,0.0026878344360738993
3328.0,-0.0023327022790908813
3584.0,-0.00043360795825719833
3840.0,-0.0005557438125833869
4096.0,-0.00016424799105152488
4608.0,-0.0011426005512475967
5120.0,0.0025271358899772167
5632.0,-0.0038777885492891073
6144.0,0.0005064993165433407
6656.0,-0.0021433907095342875
7168.0,0.0034707568120211363
7680.0,-0.0020124379079788923
8192.0,-0.004246892873197794
end
