version,3.0
numOfCh,1
type,point
parent_name,484af_0dot08-0dot1
ch_type,1_1
kcount,1
numberNandB,1
brightnessNandB,1
carpet pos,0
pc,0
Time (ms),CH1 Auto-Correlation
1.0,0.09408550709486008
2.0,0.09330374002456665
3.0,0.09256656467914581
4.0,0.09189461171627045
5.0,0.09120582044124603
6.0,0.09053464233875275
7.0,0.08989877998828888
8.0,0.08928584307432175
9.0,0.08868884295225143
10.0,0.0881311297416687
11.0,0.08756938576698303
12.0,0.08701509982347488
13.0,0.08645154535770416
14.0,0.08590448647737503
15.0,0.08538264036178589
16.0,0.08486807346343994
18.0,0.0838407650589943
20.0,0.08290307223796844
22.0,0.08198795467615128
24.0,0.08107531070709229
26.0,0.08018402010202408
28.0,0.07924608141183853
30.0,0.07835467904806137
32.0,0.07752158492803574
36.0,0.07581255584955215
40.0,0.07411954551935196
44.0,0.07250567525625229
48.0,0.07100845873355865
52.0,0.06949246674776077
56.0,0.06793462485074997
60.0,0.06645608693361282
64.0,0.06504832953214645
72.0,0.0624331533908844
80.0,0.05991644784808159
88.0,0.05776267871260643
96.0,0.05525744706392288
104.0,0.05249813199043274
112.0,0.049935802817344666
120.0,0.04780866950750351
128.0,0.04592497646808624
144.0,0.04194106534123421
160.0,0.038104817271232605
176.0,0.03507440909743309
192.0,0.03278995305299759
208.0,0.03034413792192936
224.0,0.028006862848997116
240.0,0.025807946920394897
256.0,0.02351393736898899
288.0,0.019653337076306343
320.0,0.017154525965452194
352.0,0.014648232609033585
384.0,0.01208958774805069
416.0,0.011647980660200119
448.0,0.010647004470229149
480.0,0.010289991274476051
512.0,0.0115197217091918
576.0,0.01186711248010397
640.0,0.014460140839219093
704.0,0.017233889549970627
768.0,0.01933642104268074
832.0,0.018456146121025085
896.0,0.020080717280507088
960.0,0.020431244745850563
1024.0,0.017753956839442253
1152.0,0.01618296094238758
1280.0,0.0045171938836574554
1408.0,-0.0007276252144947648
1536.0,-0.00764917628839612
1664.0,-0.011950879357755184
1792.0,-0.011376542039215565
1920.0,-0.01441323570907116
2048.0,-0.012789258733391762
2304.0,-0.008378992788493633
2560.0,-0.021815724670886993
2816.0,-0.018007328733801842
3072.0,-0.01210133358836174
3328.0,-0.004769106395542622
3584.0,-0.009306946769356728
3840.0,0.009132824838161469
4096.0,0.01606949418783188
4608.0,0.016800401732325554
5120.0,0.01768248714506626
5632.0,-0.003823609324172139
6144.0,-0.012128956615924835
6656.0,-0.02504102513194084
7168.0,-0.023043718189001083
7680.0,-0.02333083562552929
8192.0,-0.009055592119693756
end
