version,3.0
numOfCh,1
type,point
parent_name,484af_0dot08-0dot1
ch_type,1_1
kcount,1
numberNandB,1
brightnessNandB,1
carpet pos,0
pc,0
Time (ms),CH1 Auto-Correlation
1.0,0.06911235302686691
2.0,0.06848585605621338
3.0,0.06790533661842346
4.0,0.06736911088228226
5.0,0.0668511688709259
6.0,0.06634446978569031
7.0,0.0658353641629219
8.0,0.06531573832035065
9.0,0.06479045003652573
10.0,0.06425125896930695
11.0,0.06373979896306992
12.0,0.06323517113924026
13.0,0.06273341923952103
14.0,0.062229957431554794
15.0,0.06171694025397301
16.0,0.06121173873543739
18.0,0.06020745262503624
20.0,0.05924313887953758
22.0,0.05826186016201973
24.0,0.05727890878915787
26.0,0.05632182955741882
28.0,0.05540987849235535
30.0,0.054552510380744934
32.0,0.053737133741378784
36.0,0.052135370671749115
40.0,0.05065758153796196
44.0,0.04923757165670395
48.0,0.047893159091472626
52.0,0.04659881070256233
56.0,0.0453919917345047
60.0,0.04417473450303078
64.0,0.04299387335777283
72.0,0.040711309760808945
80.0,0.038643788546323776
88.0,0.03661580756306648
96.0,0.03478965908288956
104.0,0.03302403911948204
112.0,0.03121352009475231
120.0,0.029452672228217125
128.0,0.027916569262742996
144.0,0.025383204221725464
160.0,0.022750061005353928
176.0,0.020473672077059746
192.0,0.01863778382539749
208.0,0.016751112416386604
224.0,0.014840474352240562
240.0,0.012858545407652855
256.0,0.01191036868840456
288.0,0.011643999256193638
320.0,0.01197339128702879
352.0,0.012254529632627964
384.0,0.010691313073039055
416.0,0.009213479235768318
448.0,0.0073036812245845795
480.0,0.004958201199769974
512.0,0.0035328147932887077
576.0,0.0058088782243430614
640.0,0.006008251570165157
704.0,0.005872916895896196
768.0,0.003768335795029998
832.0,0.0018787721637636423
896.0,-0.0003994475118815899
960.0,-0.002571702003479004
1024.0,-0.0028081948403269053
1152.0,-0.002656091470271349
1280.0,-0.0012193056754767895
1408.0,0.0019299550913274288
1536.0,0.0011385242687538266
1664.0,-0.002478898735716939
1792.0,-0.0033805614802986383
1920.0,-0.0017919723177328706
2048.0,-0.005967474076896906
2304.0,-0.0011987785110250115
2560.0,0.005201490130275488
2816.0,0.0027241173665970564
3072.0,0.0020460993982851505
3328.0,0.011856337077915668
3584.0,0.014826547354459763
3840.0,0.012497173622250557
4096.0,0.007763288449496031
4608.0,-0.0062104822136461735
5120.0,-0.0037315625231713057
5632.0,-0.012510583736002445
6144.0,-0.00799691304564476
6656.0,0.007963284850120544
7168.0,0.0022243678104132414
7680.0,0.00033363650436513126
8192.0,-0.015862323343753815
end
