version,3.0
numOfCh,1
type,point
parent_name,484af_0dot08-0dot1
ch_type,1_1
kcount,1
numberNandB,1
brightnessNandB,1
carpet pos,0
pc,0
Time (ms),CH1 Auto-Correlation
1.0,0.0713784471154213
2.0,0.07063796371221542
3.0,0.06990114599466324
4.0,0.06919404119253159
5.0,0.06849853694438934
6.0,0.06781880557537079
7.0,0.06715265661478043
8.0,0.06652019172906876
9.0,0.06588811427354813
10.0,0.06527780741453171
11.0,0.06470128148794174
12.0,0.06410403549671173
13.0,0.06349635124206543
14.0,0.06290040165185928
15.0,0.06227925047278404
16.0,0.06165358051657677
18.0,0.06048775464296341
20.0,0.05937819927930832
22.0,0.05839645117521286
24.0,0.05742945522069931
26.0,0.056483760476112366
28.0,0.055535025894641876
30.0,0.054597098380327225
32.0,0.053692083805799484
36.0,0.05186436325311661
40.0,0.05016714707016945
44.0,0.04840783029794693
48.0,0.04671714827418327
52.0,0.045266538858413696
56.0,0.04400549456477165
60.0,0.04288981109857559
64.0,0.041788794100284576
72.0,0.03948994353413582
80.0,0.03729895129799843
88.0,0.03551667183637619
96.0,0.034260351210832596
104.0,0.03310978040099144
112.0,0.03176223859190941
120.0,0.030652351677417755
128.0,0.029445065185427666
144.0,0.0262753963470459
160.0,0.02287791483104229
176.0,0.02020757831633091
192.0,0.018035827204585075
208.0,0.01611485332250595
224.0,0.014709467068314552
240.0,0.013803823851048946
256.0,0.012855847366154194
288.0,0.01161588728427887
320.0,0.009505802765488625
352.0,0.007597487419843674
384.0,0.007097809109836817
416.0,0.006512916646897793
448.0,0.00550928246229887
480.0,0.004066558089107275
512.0,0.0030553655233234167
576.0,0.00583692966029048
640.0,0.007841491140425205
704.0,0.010382281616330147
768.0,0.009484297595918179
832.0,0.009866323322057724
896.0,0.007249368354678154
960.0,0.004499728325754404
1024.0,0.0025034716818481684
1152.0,0.0009254641481675208
1280.0,-0.0021516133565455675
1408.0,-0.002751685446128249
1536.0,-0.0015107420040294528
1664.0,-0.0004136227071285248
1792.0,2.1316440324881114e-05
1920.0,0.0012249171268194914
2048.0,-5.8495847042649984e-05
2304.0,-0.00407813023775816
2560.0,-0.0018514090916141868
2816.0,0.0014672811375930905
3072.0,0.0050363908521831036
3328.0,-0.00311355572193861
3584.0,-0.0031022909097373486
3840.0,-0.009168911725282669
4096.0,0.0025197097565978765
4608.0,-0.009572481736540794
5120.0,-0.0019851995166391134
5632.0,-0.005221025552600622
6144.0,0.005893869791179895
6656.0,-0.004983359947800636
7168.0,-0.012146971188485622
7680.0,-0.011034687049686909
8192.0,-0.0014863712713122368
end
