version,3.0
numOfCh,1
type,point
parent_name,484af_0dot08-0dot1
ch_type,1_1
kcount,1
numberNandB,1
brightnessNandB,1
carpet pos,0
pc,0
Time (ms),CH1 Auto-Correlation
1.0,0.06502313166856766
2.0,0.06388827413320541
3.0,0.06282829493284225
4.0,0.0618717186152935
5.0,0.06090546399354935
6.0,0.06002389267086983
7.0,0.059171583503484726
8.0,0.05843533203005791
9.0,0.057640284299850464
10.0,0.05682915449142456
11.0,0.05604010075330734
12.0,0.0553368516266346
13.0,0.054663293063640594
14.0,0.053995292633771896
15.0,0.053329337388277054
16.0,0.052691247314214706
18.0,0.051403164863586426
20.0,0.050249673426151276
22.0,0.0493595264852047
24.0,0.04840632900595665
26.0,0.04751862213015556
28.0,0.04682911932468414
30.0,0.04617568477988243
32.0,0.045450203120708466
36.0,0.04426362365484238
40.0,0.04298042505979538
44.0,0.04177533835172653
48.0,0.04044580087065697
52.0,0.03920602425932884
56.0,0.03795331344008446
60.0,0.03656087443232536
64.0,0.03510088473558426
72.0,0.032586127519607544
80.0,0.030324429273605347
88.0,0.028481075540184975
96.0,0.027184315025806427
104.0,0.026300471276044846
112.0,0.0251932293176651
120.0,0.023773055523633957
128.0,0.022485626861453056
144.0,0.020607978105545044
160.0,0.01882094144821167
176.0,0.01868421956896782
192.0,0.01875465176999569
208.0,0.01845136657357216
224.0,0.017911218106746674
240.0,0.016764534637331963
256.0,0.01661878079175949
288.0,0.016110556200146675
320.0,0.01675301603972912
352.0,0.015887269750237465
384.0,0.013167734257876873
416.0,0.012286795303225517
448.0,0.010757790878415108
480.0,0.010226255282759666
512.0,0.010104136541485786
576.0,0.01052823942154646
640.0,0.007305555511265993
704.0,0.002217394532635808
768.0,-0.0017369508277624846
832.0,-0.001753627322614193
896.0,6.079151262383675e-06
960.0,-5.158237399882637e-05
1024.0,0.00039955839747563004
1152.0,0.001943996176123619
1280.0,-0.001883026328869164
1408.0,-0.01077760849148035
1536.0,-0.010645045898854733
1664.0,-0.007582046091556549
1792.0,-0.00333407218568027
1920.0,-0.008508270606398582
2048.0,-0.003089097561314702
2304.0,-0.0013844071654602885
2560.0,-0.0018384247086942196
2816.0,0.0017037903890013695
3072.0,0.000361874233931303
3328.0,-0.003957797307521105
3584.0,-0.00792756862938404
3840.0,-0.008486486971378326
4096.0,-0.010778415948152542
4608.0,-0.006656200625002384
5120.0,0.002761753275990486
5632.0,0.0010983055690303445
6144.0,-0.001989272888749838
6656.0,-0.010641507804393768
7168.0,0.006121156271547079
7680.0,0.003456361126154661
8192.0,0.011694059707224369
end
