version,3.0
numOfCh,1
type,point
parent_name,484af_0dot08-0dot1
ch_type,1_1
kcount,1
numberNandB,1
brightnessNandB,1
carpet pos,0
pc,0
Time (ms),CH1 Auto-Correlation
1.0,0.07051200419664383
2.0,0.06980138272047043
3.0,0.06909570097923279
4.0,0.06841260194778442
5.0,0.06780135631561279
6.0,0.06721295416355133
7.0,0.06666766107082367
8.0,0.06610563397407532
9.0,0.06560041010379791
10.0,0.06510455906391144
11.0,0.06460953503847122
12.0,0.06411181390285492
13.0,0.06361939013004303
14.0,0.06310586631298065
15.0,0.06260200589895248
16.0,0.062089432030916214
18.0,0.061184242367744446
20.0,0.06036470830440521
22.0,0.05958149582147598
24.0,0.058847732841968536
26.0,0.05813603848218918
28.0,0.05746680498123169
30.0,0.05685668811202049
32.0,0.05626211315393448
36.0,0.0550384446978569
40.0,0.0537896454334259
44.0,0.052578434348106384
48.0,0.05143239349126816
52.0,0.05037602782249451
56.0,0.04933864250779152
60.0,0.048283617943525314
64.0,0.04722452536225319
72.0,0.045180756598711014
80.0,0.04348060488700867
88.0,0.042189836502075195
96.0,0.04117384925484657
104.0,0.04009496793150902
112.0,0.03884047642350197
120.0,0.037592966109514236
128.0,0.03643593192100525
144.0,0.03445327281951904
160.0,0.03238491714000702
176.0,0.030351202934980392
192.0,0.02827441319823265
208.0,0.026534486562013626
224.0,0.025317182764410973
240.0,0.023694053292274475
256.0,0.022062698379158974
288.0,0.02097771316766739
320.0,0.021615073084831238
352.0,0.02144085057079792
384.0,0.019875982776284218
416.0,0.01864282228052616
448.0,0.017213406041264534
480.0,0.015357145108282566
512.0,0.013759194873273373
576.0,0.011088811792433262
640.0,0.008369937539100647
704.0,0.006691331509500742
768.0,0.005928313359618187
832.0,0.005673753097653389
896.0,0.003906646277755499
960.0,0.0008678915328346193
1024.0,-0.0009986357763409615
1152.0,-0.004622390028089285
1280.0,-0.0033139486331492662
1408.0,-0.008610640652477741
1536.0,-0.012586844153702259
1664.0,-0.013780694454908371
1792.0,-0.01622602343559265
1920.0,-0.015595486387610435
2048.0,-0.01186705194413662
2304.0,-0.01086058747023344
2560.0,-0.00892749521881342
2816.0,-0.008961498737335205
3072.0,-0.006778948940336704
3328.0,-0.006733851507306099
3584.0,-0.00046160974306985736
3840.0,0.006202351301908493
4096.0,0.012506031431257725
4608.0,0.012031618505716324
5120.0,0.010728225111961365
5632.0,0.004953345749527216
6144.0,0.0025180536322295666
6656.0,-0.009072109125554562
7168.0,-0.015275232493877411
7680.0,-0.011691192165017128
8192.0,-0.007736463099718094
end
