version,3.0
numOfCh,1
type,point
parent_name,484af_0dot08-0dot1
ch_type,1_1
kcount,1
numberNandB,1
brightnessNandB,1
carpet pos,0
pc,0
Time (ms),CH1 Auto-Correlation
1.0,0.05528475344181061
2.0,0.054647091776132584
3.0,0.054032061249017715
4.0,0.05345965549349785
5.0,0.05288443714380264
6.0,0.052320946007966995
7.0,0.05177909880876541
8.0,0.05124985799193382
9.0,0.05074669420719147
10.0,0.050264738500118256
11.0,0.049809087067842484
12.0,0.0493597574532032
13.0,0.04893149062991142
14.0,0.048528365790843964
15.0,0.04810411110520363
16.0,0.04767228290438652
18.0,0.04676855728030205
20.0,0.045914728194475174
22.0,0.045064885169267654
24.0,0.044226039201021194
26.0,0.0434015691280365
28.0,0.04259958490729332
30.0,0.04184185341000557
32.0,0.041103292256593704
36.0,0.03961649909615517
40.0,0.03818406164646149
44.0,0.036908913403749466
48.0,0.035693880170583725
52.0,0.03459527716040611
56.0,0.033580731600522995
60.0,0.03265106678009033
64.0,0.031729817390441895
72.0,0.029928524047136307
80.0,0.028423156589269638
88.0,0.02689352259039879
96.0,0.025420498102903366
104.0,0.02400257997214794
112.0,0.022665470838546753
120.0,0.02168290875852108
128.0,0.02087188884615898
144.0,0.019338024780154228
160.0,0.017344698309898376
176.0,0.015036054886877537
192.0,0.013029509223997593
208.0,0.011193329468369484
224.0,0.00953044556081295
240.0,0.008525772020220757
256.0,0.007485255599021912
288.0,0.005408059805631638
320.0,0.004183188080787659
352.0,0.003879615105688572
384.0,0.004006335977464914
416.0,0.003791644237935543
448.0,0.003704220987856388
480.0,0.0029498895164579153
512.0,0.0013683752622455359
576.0,7.23793200450018e-05
640.0,0.0009091782267205417
704.0,0.0017649219371378422
768.0,0.005003354977816343
832.0,0.0060257017612457275
896.0,0.006620836444199085
960.0,0.009391511790454388
1024.0,0.010990527458488941
1152.0,0.006579070817679167
1280.0,-0.0007536264602094889
1408.0,-0.0016015813453122973
1536.0,0.0012818783288821578
1664.0,-0.00036183942575007677
1792.0,-0.00040722161065787077
1920.0,0.006500549614429474
2048.0,0.006940355524420738
2304.0,0.0030877012759447098
2560.0,-0.0005943760625086725
2816.0,0.0030764301773160696
3072.0,0.007129528094083071
3328.0,0.004820834845304489
3584.0,-0.005857988726347685
3840.0,-0.008485563099384308
4096.0,-0.005797453224658966
4608.0,-0.008744345977902412
5120.0,0.0015926794148981571
5632.0,-0.00888749584555626
6144.0,-0.0038244787137955427
6656.0,-0.010277915745973587
7168.0,-0.007879309356212616
7680.0,-0.006561896298080683
8192.0,-0.002029667841270566
end
