version,3.0
numOfCh,1
type,point
parent_name,484af_0dot08-0dot1
ch_type,1_1
kcount,1
numberNandB,1
brightnessNandB,1
carpet pos,0
pc,0
Time (ms),CH1 Auto-Correlation
1.0,0.0669337809085846
2.0,0.06606635451316833
3.0,0.06512509286403656
4.0,0.06426262110471725
5.0,0.06337276846170425
6.0,0.06253024935722351
7.0,0.06163327395915985
8.0,0.06078305095434189
9.0,0.059963878244161606
10.0,0.059334348887205124
11.0,0.05872293934226036
12.0,0.058155812323093414
13.0,0.05758889019489288
14.0,0.05703452229499817
15.0,0.05651693418622017
16.0,0.05601431429386139
18.0,0.05503058061003685
20.0,0.05412730574607849
22.0,0.05323553830385208
24.0,0.05237732455134392
26.0,0.05159083381295204
28.0,0.050851013511419296
30.0,0.05009685829281807
32.0,0.04939379170536995
36.0,0.04800663888454437
40.0,0.046661969274282455
44.0,0.045032352209091187
48.0,0.04314476624131203
52.0,0.04132727533578873
56.0,0.03992177173495293
60.0,0.038799505680799484
64.0,0.03766448795795441
72.0,0.03572144731879234
80.0,0.033971723169088364
88.0,0.032301031053066254
96.0,0.0309157632291317
104.0,0.029741400852799416
112.0,0.028744861483573914
120.0,0.027929233387112617
128.0,0.026978781446814537
144.0,0.024933557957410812
160.0,0.023307373747229576
176.0,0.021593118086457253
192.0,0.020364530384540558
208.0,0.018653733655810356
224.0,0.016883982345461845
240.0,0.015057774260640144
256.0,0.013316134922206402
288.0,0.012263667769730091
320.0,0.011616580188274384
352.0,0.010008641518652439
384.0,0.007533997297286987
416.0,0.004746024496853352
448.0,0.002805105410516262
480.0,0.0007940990035422146
512.0,-0.0015765184070914984
576.0,-0.006825938820838928
640.0,-0.008150361478328705
704.0,-0.006043173372745514
768.0,-0.0036954351235181093
832.0,0.00022025824000593275
896.0,0.00026522440020926297
960.0,-0.0017669664230197668
1024.0,-0.003970423247665167
1152.0,-0.0050116898491978645
1280.0,-0.008467920124530792
1408.0,-0.014051555655896664
1536.0,-0.013875246979296207
1664.0,-0.01303626224398613
1792.0,-0.01113945059478283
1920.0,-0.012545878067612648
2048.0,-0.009799898602068424
2304.0,-0.00013851543189957738
2560.0,0.0057678185403347015
2816.0,0.006181947886943817
3072.0,0.002413299633190036
3328.0,-0.0034400757867842913
3584.0,0.0028665291611105204
3840.0,0.004555597901344299
4096.0,0.0005050739273428917
4608.0,-0.008338266052305698
5120.0,0.005893773399293423
5632.0,0.007806197740137577
6144.0,0.006475156173110008
6656.0,-0.004911825526505709
7168.0,-0.011836803518235683
7680.0,-0.006578727625310421
8192.0,-0.00596764637157321
end
