version,3.0
numOfCh,1
type,point
parent_name,484af_0dot08-0dot1
ch_type,1_1
kcount,1
numberNandB,1
brightnessNandB,1
carpet pos,0
pc,0
Time (ms),CH1 Auto-Correlation
1.0,0.06488752365112305
2.0,0.06419293582439423
3.0,0.0635422021150589
4.0,0.06297007948160172
5.0,0.06246066465973854
6.0,0.061972785741090775
7.0,0.06141732260584831
8.0,0.060815583914518356
9.0,0.06020161509513855
10.0,0.05961718410253525
11.0,0.05904093384742737
12.0,0.05847788602113724
13.0,0.057942867279052734
14.0,0.05734342709183693
15.0,0.05669524520635605
16.0,0.0561150386929512
18.0,0.05501604825258255
20.0,0.05388861522078514
22.0,0.052747298032045364
24.0,0.05170758441090584
26.0,0.05059807747602463
28.0,0.04955218732357025
30.0,0.048466917127370834
32.0,0.047424960881471634
36.0,0.04554617404937744
40.0,0.04382643848657608
44.0,0.042382191866636276
48.0,0.041182421147823334
52.0,0.04017920419573784
56.0,0.039353739470243454
60.0,0.038571860641241074
64.0,0.03779283165931702
72.0,0.03636873513460159
80.0,0.03468718007206917
88.0,0.032922036945819855
96.0,0.031040651723742485
104.0,0.029173174872994423
112.0,0.027412522584199905
120.0,0.025527438148856163
128.0,0.023707082495093346
144.0,0.020732617005705833
160.0,0.018288712948560715
176.0,0.016306376084685326
192.0,0.01432762574404478
208.0,0.013064276427030563
224.0,0.012155531905591488
240.0,0.010882766917347908
256.0,0.009077394381165504
288.0,0.005458081606775522
320.0,0.002481578616425395
352.0,-0.0021115578711032867
384.0,-0.006089482456445694
416.0,-0.006977979093790054
448.0,-0.0077865514904260635
480.0,-0.008297416381537914
512.0,-0.00788050051778555
576.0,-0.005301792640239
640.0,-0.003716465085744858
704.0,0.0003136270970571786
768.0,0.003201407380402088
832.0,0.005257932934910059
896.0,0.004202202428132296
960.0,0.0019647828303277493
1024.0,-0.0005413719336502254
1152.0,-0.003102103713899851
1280.0,-0.0022688384633511305
1408.0,0.002124401507899165
1536.0,0.010868417099118233
1664.0,0.011686151847243309
1792.0,0.0067348056472837925
1920.0,0.0008133953670039773
2048.0,-0.0013244801666587591
2304.0,-0.008787843398749828
2560.0,-0.00662898737937212
2816.0,-0.0011955795343965292
3072.0,0.006151516921818256
3328.0,0.009648032486438751
3584.0,0.005501264706254005
3840.0,-0.0019168182043358684
4096.0,-0.0007013832801021636
4608.0,-0.0061246720142662525
5120.0,0.0016560300718992949
5632.0,-0.00225081923417747
6144.0,-0.004694386851042509
6656.0,0.007529918570071459
7168.0,0.0019080274505540729
7680.0,-0.01001813169568777
8192.0,0.00916788075119257
end
