version,3.0
numOfCh,1
type,point
parent_name,484af_0dot08-0dot1
ch_type,1_1
kcount,1
numberNandB,1
brightnessNandB,1
carpet pos,0
pc,0
Time (ms),CH1 Auto-Correlation
1.0,0.05982832610607147
2.0,0.05922023206949234
3.0,0.05861445888876915
4.0,0.05802270770072937
5.0,0.057458482682704926
6.0,0.05691753327846527
7.0,0.056386932730674744
8.0,0.05586211755871773
9.0,0.055337436497211456
10.0,0.05483928322792053
11.0,0.05434449017047882
12.0,0.05383812263607979
13.0,0.05336354300379753
14.0,0.052901312708854675
15.0,0.052447594702243805
16.0,0.05200795456767082
18.0,0.05114320293068886
20.0,0.05035173147916794
22.0,0.04960949346423149
24.0,0.048911478370428085
26.0,0.0482807457447052
28.0,0.04768265411257744
30.0,0.047127168625593185
32.0,0.046615373343229294
36.0,0.04559551551938057
40.0,0.04457705095410347
44.0,0.04362865909934044
48.0,0.04267564043402672
52.0,0.04176311939954758
56.0,0.04090186581015587
60.0,0.04011092334985733
64.0,0.039395157247781754
72.0,0.03799273446202278
80.0,0.03655008599162102
88.0,0.03520960733294487
96.0,0.03400547429919243
104.0,0.032774653285741806
112.0,0.03136603534221649
120.0,0.029937442392110825
128.0,0.02880828082561493
144.0,0.026720277965068817
160.0,0.02478877082467079
176.0,0.02339324541389942
192.0,0.02249791845679283
208.0,0.021233128383755684
224.0,0.019995294511318207
240.0,0.018801841884851456
256.0,0.01760898530483246
288.0,0.015215030871331692
320.0,0.012997462414205074
352.0,0.011175389401614666
384.0,0.010318427346646786
416.0,0.009946508333086967
448.0,0.009643379598855972
480.0,0.007595995906740427
512.0,0.005021210759878159
576.0,0.0026005632244050503
640.0,0.0037867650389671326
704.0,0.005261010490357876
768.0,0.007182720582932234
832.0,0.008901375345885754
896.0,0.009355657733976841
960.0,0.00887596420943737
1024.0,0.009864091873168945
1152.0,0.012577096000313759
1280.0,0.008691089227795601
1408.0,-0.00013462190690916032
1536.0,-0.004630570765584707
1664.0,-0.006053620483726263
1792.0,-0.00805483665317297
1920.0,-0.008188270963728428
2048.0,-0.010142603889107704
2304.0,-0.008268575184047222
2560.0,-0.005177058279514313
2816.0,-0.004586996976286173
3072.0,-0.006002858281135559
3328.0,-0.0027371279429644346
3584.0,-0.0015292217722162604
3840.0,0.0004901632783003151
4096.0,0.0008368949056603014
4608.0,-0.006164312828332186
5120.0,0.006940534804016352
5632.0,-0.01613757200539112
6144.0,-0.004732965026050806
6656.0,-0.017110636457800865
7168.0,-0.013908163644373417
7680.0,-0.006548997480422258
8192.0,0.00022906588856130838
end
