version,3.0
numOfCh,1
type,point
parent_name,484af_0dot08-0dot1
ch_type,1_1
kcount,1
numberNandB,1
brightnessNandB,1
carpet pos,0
pc,0
Time (ms),CH1 Auto-Correlation
1.0,0.0711473599076271
2.0,0.07041480392217636
3.0,0.06972750276327133
4.0,0.0690281093120575
5.0,0.06835971772670746
6.0,0.06775275617837906
7.0,0.06715090572834015
8.0,0.06657548248767853
9.0,0.06597429513931274
10.0,0.06538575887680054
11.0,0.0648249015212059
12.0,0.06429135054349899
13.0,0.06372566521167755
14.0,0.06318026781082153
15.0,0.06265148520469666
16.0,0.06217210367321968
18.0,0.06121502071619034
20.0,0.0602402426302433
22.0,0.05919509008526802
24.0,0.05812060832977295
26.0,0.057115811854600906
28.0,0.05611597001552582
30.0,0.05520416051149368
32.0,0.05431968718767166
36.0,0.052700452506542206
40.0,0.05126205459237099
44.0,0.04988078027963638
48.0,0.048569194972515106
52.0,0.04723811149597168
56.0,0.04591454565525055
60.0,0.04466057941317558
64.0,0.043475646525621414
72.0,0.041413258761167526
80.0,0.039506763219833374
88.0,0.037592459470033646
96.0,0.035861577838659286
104.0,0.034425124526023865
112.0,0.03329649567604065
120.0,0.031965471804142
128.0,0.030473625287413597
144.0,0.027478111907839775
160.0,0.025247234851121902
176.0,0.02284128963947296
192.0,0.02063365839421749
208.0,0.01903780736029148
224.0,0.01742992363870144
240.0,0.016450505703687668
256.0,0.015150817111134529
288.0,0.0133717255666852
320.0,0.012359879910945892
352.0,0.011389908380806446
384.0,0.010686628520488739
416.0,0.0090992646291852
448.0,0.008724736981093884
480.0,0.009453625418245792
512.0,0.009023137390613556
576.0,0.0036562688183039427
640.0,0.0007591643370687962
704.0,-0.0020961714908480644
768.0,-0.004204326309263706
832.0,-0.00590856745839119
896.0,-0.008268000558018684
960.0,-0.007463501766324043
1024.0,-0.00532912602648139
1152.0,-0.0030490125063806772
1280.0,-0.001957099651917815
1408.0,0.0005479559185914695
1536.0,-0.0006566973170265555
1664.0,-0.0015541489701718092
1792.0,0.0009356472874060273
1920.0,-0.0028556559700518847
2048.0,-0.008520236238837242
2304.0,0.00011332640860928223
2560.0,0.0021695252507925034
2816.0,0.006231970153748989
3072.0,-0.0002455803332850337
3328.0,0.003897065529599786
3584.0,-0.0025656730867922306
3840.0,0.004143428988754749
4096.0,0.00517337117344141
4608.0,-0.007950556464493275
5120.0,-0.0045036375522613525
5632.0,0.006906477268785238
6144.0,-0.014784996397793293
6656.0,-0.012861398048698902
7168.0,0.0019791170489042997
7680.0,0.001248456654138863
8192.0,0.007035642862319946
end
