version,3.0
numOfCh,1
type,point
parent_name,484af_0dot08-0dot1
ch_type,1_1
kcount,1
numberNandB,1
brightnessNandB,1
carpet pos,0
pc,0
Time (ms),CH1 Auto-Correlation
1.0,0.05806882679462433
2.0,0.05756989121437073
3.0,0.05708424374461174
4.0,0.05660846084356308
5.0,0.05615884065628052
6.0,0.05572677403688431
7.0,0.05529673770070076
8.0,0.05487596243619919
9.0,0.05445146560668945
10.0,0.05404403805732727
11.0,0.05363663285970688
12.0,0.0532422699034214
13.0,0.05284495651721954
14.0,0.05244572088122368
15.0,0.05204486474394798
16.0,0.05165167152881622
18.0,0.05090472474694252
20.0,0.050180211663246155
22.0,0.04947688430547714
24.0,0.04880572482943535
26.0,0.048162791877985
28.0,0.04755936935544014
30.0,0.046978194266557693
32.0,0.04645171016454697
36.0,0.04557565227150917
40.0,0.044731754809617996
44.0,0.04386281594634056
48.0,0.04298985376954079
52.0,0.042106401175260544
56.0,0.04131046682596207
60.0,0.04049826040863991
64.0,0.03972817584872246
72.0,0.03813432157039642
80.0,0.03668875992298126
88.0,0.03542130067944527
96.0,0.03420369327068329
104.0,0.033052898943424225
112.0,0.032076455652713776
120.0,0.031036488711833954
128.0,0.029874559491872787
144.0,0.027657700702548027
160.0,0.025432197377085686
176.0,0.02338317781686783
192.0,0.021554598584771156
208.0,0.020147711038589478
224.0,0.01893489807844162
240.0,0.01749552972614765
256.0,0.016196247190237045
288.0,0.01348601933568716
320.0,0.010637340135872364
352.0,0.008769894018769264
384.0,0.0066243731416761875
416.0,0.004116945434361696
448.0,0.0014464239357039332
480.0,5.310499909683131e-05
512.0,-0.0008454497437924147
576.0,-0.002122466918081045
640.0,-0.001540457014925778
704.0,-0.00140323955565691
768.0,-0.002768517006188631
832.0,-0.004790774080902338
896.0,-0.005803029052913189
960.0,-0.006101047620177269
1024.0,-0.006390390917658806
1152.0,-0.004642924293875694
1280.0,-0.001673376653343439
1408.0,0.0018946973141282797
1536.0,0.00525860907509923
1664.0,0.00906071625649929
1792.0,0.010521494783461094
1920.0,0.010654127225279808
2048.0,0.010003462433815002
2304.0,0.0018173468997702003
2560.0,-0.0005965246236883104
2816.0,-0.002129429718479514
3072.0,0.00025838971487246454
3328.0,-0.0007642037817277014
3584.0,-0.0007963551324792206
3840.0,-0.002806378761306405
4096.0,-0.00044449043343774974
4608.0,-0.0010950607247650623
5120.0,-0.001516066025942564
5632.0,-0.010574102401733398
6144.0,-0.010739365592598915
6656.0,0.001717248815111816
7168.0,0.005696406587958336
7680.0,-0.005902350414544344
8192.0,-0.010116378776729107
end
