version,3.0
numOfCh,1
type,point
parent_name,484af_0dot08-0dot1
ch_type,1_1
kcount,1
numberNandB,1
brightnessNandB,1
carpet pos,0
pc,0
Time (ms),CH1 Auto-Correlation
1.0,0.08482476323843002
2.0,0.08406102657318115
3.0,0.08332429081201553
4.0,0.08261086046695709
5.0,0.08194327354431152
6.0,0.08129407465457916
7.0,0.08063722401857376
8.0,0.07998135685920715
9.0,0.07934977114200592
10.0,0.07876785099506378
11.0,0.0782000944018364
12.0,0.07765357941389084
13.0,0.07710021734237671
14.0,0.07656443864107132
15.0,0.076034314930439
16.0,0.07555054128170013
18.0,0.07461322844028473
20.0,0.0737164169549942
22.0,0.07281710207462311
24.0,0.07190020382404327
26.0,0.07102864235639572
28.0,0.0702376514673233
30.0,0.06949920207262039
32.0,0.06883414089679718
36.0,0.06767167150974274
40.0,0.06643329560756683
44.0,0.06510809063911438
48.0,0.06385544687509537
52.0,0.06256716698408127
56.0,0.061175066977739334
60.0,0.05986902117729187
64.0,0.05862610787153244
72.0,0.05650406330823898
80.0,0.054971519857645035
88.0,0.05369481444358826
96.0,0.05230749025940895
104.0,0.05055612325668335
112.0,0.048658233135938644
120.0,0.04673992097377777
128.0,0.045028649270534515
144.0,0.0415218211710453
160.0,0.03865409642457962
176.0,0.03634282946586609
192.0,0.034652531147003174
208.0,0.033289600163698196
224.0,0.032092899084091187
240.0,0.031000548973679543
256.0,0.02935473434627056
288.0,0.02607748471200466
320.0,0.023228319361805916
352.0,0.020603952929377556
384.0,0.01822998747229576
416.0,0.0161453690379858
448.0,0.013795552775263786
480.0,0.014097587205469608
512.0,0.014207002706825733
576.0,0.013062502257525921
640.0,0.015135479159653187
704.0,0.01436027605086565
768.0,0.00901266559958458
832.0,0.0026692417450249195
896.0,0.0024619000032544136
960.0,0.0026668161153793335
1024.0,-0.0004775237466674298
1152.0,-0.004627705551683903
1280.0,-0.005516820587217808
1408.0,-0.01013631746172905
1536.0,-0.01336236484348774
1664.0,-0.011493966914713383
1792.0,-0.011878157034516335
1920.0,-0.0004716671828646213
2048.0,0.010076808743178844
2304.0,0.0037186727859079838
2560.0,-0.004163181409239769
2816.0,-0.007987691089510918
3072.0,-0.011278771795332432
3328.0,-0.00798771996051073
3584.0,-0.0012775242794305086
3840.0,-0.002368392888456583
4096.0,0.01070366520434618
4608.0,0.013461722061038017
5120.0,-0.005064916331321001
5632.0,-0.019763166084885597
6144.0,-0.01815205253660679
6656.0,-0.016397424042224884
7168.0,-0.018622955307364464
7680.0,-0.008302358910441399
8192.0,0.0016159076476469636
end
