version,3.0
numOfCh,1
type,point
parent_name,484af_0dot08-0dot1
ch_type,1_1
kcount,1
numberNandB,1
brightnessNandB,1
carpet pos,0
pc,0
Time (ms),CH1 Auto-Correlation
1.0,0.06940601021051407
2.0,0.06880161166191101
3.0,0.06823008507490158
4.0,0.06765928119421005
5.0,0.06710860133171082
6.0,0.06657586246728897
7.0,0.06605648994445801
8.0,0.06556294858455658
9.0,0.06506340205669403
10.0,0.06457497179508209
11.0,0.06408454477787018
12.0,0.0635857954621315
13.0,0.0630854070186615
14.0,0.06258656084537506
15.0,0.06209859251976013
16.0,0.06160146743059158
18.0,0.060627419501543045
20.0,0.05973434075713158
22.0,0.0588526651263237
24.0,0.05796321853995323
26.0,0.057088833302259445
28.0,0.056249141693115234
30.0,0.0554647371172905
32.0,0.054685626178979874
36.0,0.05324698984622955
40.0,0.05193740501999855
44.0,0.05067190155386925
48.0,0.04941527545452118
52.0,0.04830113425850868
56.0,0.04727459326386452
60.0,0.046274587512016296
64.0,0.04538252204656601
72.0,0.04369579628109932
80.0,0.042193636298179626
88.0,0.04081138223409653
96.0,0.03950406238436699
104.0,0.03800850361585617
112.0,0.036514103412628174
120.0,0.0351419523358345
128.0,0.03390037268400192
144.0,0.032146893441677094
160.0,0.030665414407849312
176.0,0.02970932610332966
192.0,0.029162133112549782
208.0,0.028223905712366104
224.0,0.026417136192321777
240.0,0.02497895248234272
256.0,0.02397344447672367
288.0,0.021243730559945107
320.0,0.01962146908044815
352.0,0.019542694091796875
384.0,0.019325686618685722
416.0,0.017698433250188828
448.0,0.016637278720736504
480.0,0.013745621778070927
512.0,0.01054573617875576
576.0,0.006361375562846661
640.0,0.0039601875469088554
704.0,0.000766610901337117
768.0,1.0728303095675074e-05
832.0,0.0009668276179581881
896.0,-0.0006887828931212425
960.0,-0.00053929362911731
1024.0,-0.00019424517813604325
1152.0,0.0009239882929250598
1280.0,0.0050348928198218346
1408.0,0.002061879727989435
1536.0,0.0006945589557290077
1664.0,-0.0035960522945970297
1792.0,-0.013582239858806133
1920.0,-0.020158758386969566
2048.0,-0.02365511655807495
2304.0,-0.033395469188690186
2560.0,-0.02219977416098118
2816.0,-0.01617220975458622
3072.0,-0.0070610870607197285
3328.0,-0.009899313561618328
3584.0,-0.005004764534533024
3840.0,0.0059900907799601555
4096.0,0.015931447967886925
4608.0,0.018849413841962814
5120.0,0.019083626568317413
5632.0,0.003791441908106208
6144.0,-0.011837311089038849
6656.0,-0.008553667925298214
7168.0,-0.016093172132968903
7680.0,-0.010662546381354332
8192.0,-0.005630086176097393
end
