version,3.0
numOfCh,1
type,point
parent_name,484af_0dot08-0dot1
ch_type,1_1
kcount,1
numberNandB,1
brightnessNandB,1
carpet pos,0
pc,0
Time (ms),CH1 Auto-Correlation
1.0,0.06509924679994583
2.0,0.06454457342624664
3.0,0.06398223340511322
4.0,0.06344011425971985
5.0,0.06291284412145615
6.0,0.0623895563185215
7.0,0.06185738369822502
8.0,0.06133120134472847
9.0,0.06080144643783569
10.0,0.060270197689533234
11.0,0.05974292755126953
12.0,0.059207379817962646
13.0,0.058693841099739075
14.0,0.058191344141960144
15.0,0.05769047886133194
16.0,0.05717480182647705
18.0,0.05615224689245224
20.0,0.055167630314826965
22.0,0.05422617122530937
24.0,0.053324371576309204
26.0,0.052439816296100616
28.0,0.0515986792743206
30.0,0.0507994145154953
32.0,0.05001802742481232
36.0,0.04854738339781761
40.0,0.047113705426454544
44.0,0.04574982449412346
48.0,0.044478364288806915
52.0,0.04325754940509796
56.0,0.042106494307518005
60.0,0.041001345962285995
64.0,0.039893489331007004
72.0,0.03796876221895218
80.0,0.03622521460056305
88.0,0.034548334777355194
96.0,0.03282159939408302
104.0,0.031237181276082993
112.0,0.029978636652231216
120.0,0.02898714505136013
128.0,0.028126468881964684
144.0,0.026105569675564766
160.0,0.02353459969162941
176.0,0.021343396976590157
192.0,0.019708432257175446
208.0,0.017937282100319862
224.0,0.016811007633805275
240.0,0.016656553372740746
256.0,0.017231931909918785
288.0,0.01780249923467636
320.0,0.017334647476673126
352.0,0.016002006828784943
384.0,0.01440309640020132
416.0,0.013479751534759998
448.0,0.0123119642958045
480.0,0.010243656113743782
512.0,0.009446400217711926
576.0,0.008939050137996674
640.0,0.0052762748673558235
704.0,0.004089681897312403
768.0,0.002812235616147518
832.0,0.0006467665662057698
896.0,0.0010129701113328338
960.0,0.00014651176752522588
1024.0,-0.0013774408726021647
1152.0,-0.004680975805968046
1280.0,-0.002365421736612916
1408.0,-0.000453342217952013
1536.0,0.0005536361131817102
1664.0,0.0011157741537317634
1792.0,0.0016454823780804873
1920.0,-0.0019044007640331984
2048.0,-0.0005479324026964605
2304.0,-6.744022539351135e-05
2560.0,-0.00034167891135439277
2816.0,-0.0060758707113564014
3072.0,-0.0018567581428214908
3328.0,0.0019792220555245876
3584.0,0.0008658130536787212
3840.0,0.0015771538019180298
4096.0,0.0029593720100820065
4608.0,0.0025355780962854624
5120.0,0.006622796878218651
5632.0,0.0035111294128000736
6144.0,0.0012845917372033
6656.0,0.0029584018047899008
7168.0,-0.0014462039107456803
7680.0,-0.013667427003383636
8192.0,-0.014757093042135239
end
