version,3.0
numOfCh,1
type,point
parent_name,484af_0dot08-0dot1
ch_type,1_1
kcount,1
numberNandB,1
brightnessNandB,1
carpet pos,0
pc,0
Time (ms),CH1 Auto-Correlation
1.0,0.06228429451584816
2.0,0.061796125024557114
3.0,0.06131839007139206
4.0,0.06084383279085159
5.0,0.06039461866021156
6.0,0.05996546894311905
7.0,0.059535641223192215
8.0,0.05910780653357506
9.0,0.05868213251233101
10.0,0.05827198550105095
11.0,0.057859160006046295
12.0,0.057455822825431824
13.0,0.05704330652952194
14.0,0.056659817695617676
15.0,0.05626960098743439
16.0,0.05588645115494728
18.0,0.05512816831469536
20.0,0.054371196776628494
22.0,0.05363289639353752
24.0,0.05292897671461105
26.0,0.05227840319275856
28.0,0.05164654552936554
30.0,0.05103140324354172
32.0,0.05045337602496147
36.0,0.049363814294338226
40.0,0.048299577087163925
44.0,0.047308143228292465
48.0,0.046380847692489624
52.0,0.045477282255887985
56.0,0.044634703546762466
60.0,0.04386192187666893
64.0,0.04305253550410271
72.0,0.04138125479221344
80.0,0.039825692772865295
88.0,0.03821362555027008
96.0,0.03652014210820198
104.0,0.034856390208005905
112.0,0.03329017758369446
120.0,0.0320291705429554
128.0,0.030921241268515587
144.0,0.028536014258861542
160.0,0.026018189266324043
176.0,0.02368416078388691
192.0,0.021788356825709343
208.0,0.020379506051540375
224.0,0.01925513707101345
240.0,0.01797282136976719
256.0,0.016916219145059586
288.0,0.015989266335964203
320.0,0.01482577808201313
352.0,0.013789372518658638
384.0,0.012904017232358456
416.0,0.010991604998707771
448.0,0.00839298963546753
480.0,0.007151000201702118
512.0,0.006735486444085836
576.0,0.007720014080405235
640.0,0.009398783557116985
704.0,0.011268273927271366
768.0,0.01151469349861145
832.0,0.010695110075175762
896.0,0.010689928196370602
960.0,0.011000001803040504
1024.0,0.010083387605845928
1152.0,0.00924745574593544
1280.0,0.009068815968930721
1408.0,0.005702985916286707
1536.0,0.0035600143019109964
1664.0,0.0024184812791645527
1792.0,-0.0010366550413891673
1920.0,0.003252369351685047
2048.0,0.007966828532516956
2304.0,0.013090127147734165
2560.0,0.010177039541304111
2816.0,0.008093242533504963
3072.0,0.004735596943646669
3328.0,0.001266482868231833
3584.0,0.0007375382701866329
3840.0,-0.008028397336602211
4096.0,-0.0069923438131809235
4608.0,0.001898639602586627
5120.0,0.0019549191929399967
5632.0,-0.002900518709793687
6144.0,-0.00800835806876421
6656.0,-0.009123011492192745
7168.0,-0.003021448850631714
7680.0,-0.001219582511112094
8192.0,-0.0034311586059629917
end
