version,3.0
numOfCh,1
type,point
parent_name,484af_0dot08-0dot1
ch_type,1_1
kcount,1
numberNandB,1
brightnessNandB,1
carpet pos,0
pc,0
Time (ms),CH1 Auto-Correlation
1.0,0.07805661112070084
2.0,0.07723335921764374
3.0,0.07646059989929199
4.0,0.07575006783008575
5.0,0.0750630646944046
6.0,0.07436009496450424
7.0,0.07370195537805557
8.0,0.0730380117893219
9.0,0.07241668552160263
10.0,0.07182430475950241
11.0,0.07124654948711395
12.0,0.07066213339567184
13.0,0.07006251811981201
14.0,0.06949912756681442
15.0,0.06892550736665726
16.0,0.06841535121202469
18.0,0.06739749759435654
20.0,0.06642567366361618
22.0,0.06540995836257935
24.0,0.06438220292329788
26.0,0.06337276101112366
28.0,0.062316346913576126
30.0,0.061227865517139435
32.0,0.060222599655389786
36.0,0.05826900526881218
40.0,0.056352440267801285
44.0,0.054477814584970474
48.0,0.05259329825639725
52.0,0.05085381120443344
56.0,0.049185700714588165
60.0,0.047602519392967224
64.0,0.046019624918699265
72.0,0.04310761019587517
80.0,0.04081547632813454
88.0,0.03894735127687454
96.0,0.036965373903512955
104.0,0.035509489476680756
112.0,0.03433270752429962
120.0,0.032816361635923386
128.0,0.03116830252110958
144.0,0.027435844764113426
160.0,0.02339928038418293
176.0,0.019637808203697205
192.0,0.01658930443227291
208.0,0.014734690077602863
224.0,0.013780559413135052
240.0,0.013727818615734577
256.0,0.013686859980225563
288.0,0.012672732584178448
320.0,0.0119194146245718
352.0,0.009917782619595528
384.0,0.008645107038319111
416.0,0.008409116417169571
448.0,0.008115870878100395
480.0,0.007525094319134951
512.0,0.005850457586348057
576.0,0.0027623330242931843
640.0,0.00152349763084203
704.0,0.0007487025577574968
768.0,-0.00044662848813459277
832.0,-0.003598136594519019
896.0,-0.0037564034573733807
960.0,-0.006586910225450993
1024.0,-0.009038392454385757
1152.0,-0.008920508436858654
1280.0,-0.0010344599140807986
1408.0,0.002926827408373356
1536.0,0.0006189017440192401
1664.0,-0.0063435849733650684
1792.0,-0.009070475585758686
1920.0,-0.0009397630929015577
2048.0,0.002079125726595521
2304.0,-0.00485971849411726
2560.0,-0.0027051435317844152
2816.0,0.0035261197481304407
3072.0,0.005578996147960424
3328.0,0.0009845474269241095
3584.0,0.0006513050757348537
3840.0,-0.0006683131214231253
4096.0,-0.004035009071230888
4608.0,0.0022473547141999006
5120.0,-0.004461533389985561
5632.0,-0.01141293440014124
6144.0,-0.005427129101008177
6656.0,0.009223482571542263
7168.0,-0.0076569970697164536
7680.0,-0.0009490280062891543
8192.0,-0.008781843818724155
end
