version,3.0
numOfCh,1
type,point
parent_name,484af_0dot08-0dot1
ch_type,1_1
kcount,1
numberNandB,1
brightnessNandB,1
carpet pos,0
pc,0
Time (ms),CH1 Auto-Correlation
1.0,0.09553848952054977
2.0,0.09328331053256989
3.0,0.09108000248670578
4.0,0.08897291123867035
5.0,0.08670749515295029
6.0,0.08420109003782272
7.0,0.08191236108541489
8.0,0.07983506470918655
9.0,0.07771085202693939
10.0,0.07558955997228622
11.0,0.07362613081932068
12.0,0.0730929896235466
13.0,0.07258322834968567
14.0,0.07207966595888138
15.0,0.07155470550060272
16.0,0.0710243284702301
18.0,0.07003238797187805
20.0,0.06905249506235123
22.0,0.06818894296884537
24.0,0.0673733577132225
26.0,0.06689068675041199
28.0,0.06669659912586212
30.0,0.06656179577112198
32.0,0.06642390042543411
36.0,0.06541738659143448
40.0,0.06394869834184647
44.0,0.0628361701965332
48.0,0.0618894025683403
52.0,0.06082295626401901
56.0,0.059789229184389114
60.0,0.05899227783083916
64.0,0.05827188491821289
72.0,0.055623915046453476
80.0,0.054214708507061005
88.0,0.05275717005133629
96.0,0.051511090248823166
104.0,0.05038079991936684
112.0,0.04919266700744629
120.0,0.0479208268225193
128.0,0.04659076780080795
144.0,0.04492323473095894
160.0,0.04363691806793213
176.0,0.042761802673339844
192.0,0.041601523756980896
208.0,0.040025778114795685
224.0,0.03919137641787529
240.0,0.03928568959236145
256.0,0.039072614163160324
288.0,0.037286579608917236
320.0,0.03524694964289665
352.0,0.03379682078957558
384.0,0.033229321241378784
416.0,0.03398889675736427
448.0,0.03365633636713028
480.0,0.030998917296528816
512.0,0.027815114706754684
576.0,0.02497871406376362
640.0,0.025839947164058685
704.0,0.0251693744212389
768.0,0.02192922681570053
832.0,0.019478492438793182
896.0,0.020466580986976624
960.0,0.01911858841776848
1024.0,0.014952389523386955
1152.0,0.009436839260160923
1280.0,0.006691296584904194
1408.0,0.003895904403179884
1536.0,-0.0011318703182041645
1664.0,-0.005255858413875103
1792.0,-0.0044984170235693455
1920.0,-0.004908357746899128
2048.0,-0.0011674176203086972
2304.0,0.002380662364885211
2560.0,0.002003551460802555
2816.0,-0.0005582371377386153
3072.0,-0.0026452974416315556
3328.0,-0.002007788047194481
3584.0,-0.0036565379705280066
3840.0,-0.01351802609860897
4096.0,-0.0211220420897007
4608.0,-0.019542740657925606
5120.0,-0.01909819431602955
5632.0,-0.013349594548344612
6144.0,-0.014839040115475655
6656.0,-0.028775133192539215
7168.0,-0.03426927328109741
7680.0,-0.028896206989884377
8192.0,0.005729888565838337
end
