version,3.0
numOfCh,1
type,point
parent_name,484af_0dot08-0dot1
ch_type,1_1
kcount,1
numberNandB,1
brightnessNandB,1
carpet pos,0
pc,0
Time (ms),CH1 Auto-Correlation
1.0,0.04968797788023949
2.0,0.04892495274543762
3.0,0.048228293657302856
4.0,0.04755799472332001
5.0,0.04692805930972099
6.0,0.04630237817764282
7.0,0.0456785224378109
8.0,0.045102763921022415
9.0,0.04452233761548996
10.0,0.0439298115670681
11.0,0.04336325451731682
12.0,0.04279521852731705
13.0,0.042214181274175644
14.0,0.04165288433432579
15.0,0.04111877456307411
16.0,0.0405900739133358
18.0,0.03952542692422867
20.0,0.03852841630578041
22.0,0.03753548115491867
24.0,0.036523737013339996
26.0,0.03557213768362999
28.0,0.03466270864009857
30.0,0.0337723083794117
32.0,0.03282596543431282
36.0,0.030973585322499275
40.0,0.029238225892186165
44.0,0.027676310390233994
48.0,0.026198958978056908
52.0,0.02483545057475567
56.0,0.02356501668691635
60.0,0.02246558852493763
64.0,0.021371984854340553
72.0,0.01903507299721241
80.0,0.01687433384358883
88.0,0.015010696835815907
96.0,0.013460974209010601
104.0,0.011950298212468624
112.0,0.010445574298501015
120.0,0.009213851764798164
128.0,0.008083450607955456
144.0,0.0056386240758001804
160.0,0.00337152648717165
176.0,0.0014321106718853116
192.0,0.0003264049591962248
208.0,-0.00021470256615430117
224.0,-2.4080181901808828e-05
240.0,0.0007304779719561338
256.0,0.0016696632374078035
288.0,0.003264604602009058
320.0,0.001928539015352726
352.0,0.00019606495334301144
384.0,-0.0018039728747680783
416.0,-0.002584976376965642
448.0,-0.0033652549609541893
480.0,-0.005057785660028458
512.0,-0.005369612015783787
576.0,-0.0017428365536034107
640.0,0.00039401883259415627
704.0,-0.0009395400411449373
768.0,-0.0024379040114581585
832.0,-0.0019252747297286987
896.0,0.0021573894191533327
960.0,0.002358401892706752
1024.0,0.0011597747216001153
1152.0,0.005502613261342049
1280.0,0.0056062061339616776
1408.0,-0.0006233260501176119
1536.0,-0.002515292726457119
1664.0,-0.0027468078769743443
1792.0,-0.0027010729536414146
1920.0,-0.003343934193253517
2048.0,4.705294850282371e-05
2304.0,-0.0009743557893671095
2560.0,0.0010282241273671389
2816.0,-0.0023182539734989405
3072.0,-0.00215524947270751
3328.0,-0.0011094060027971864
3584.0,0.0003491518145892769
3840.0,0.002108764834702015
4096.0,-0.0019805431365966797
4608.0,0.0007118541398085654
5120.0,0.0014928930904716253
5632.0,-0.002345754997804761
6144.0,-0.002792903920635581
6656.0,0.000585765577852726
7168.0,-0.0025904139038175344
7680.0,-0.002416368806734681
8192.0,-0.004318169318139553
end
