version,3.0
numOfCh,1
type,point
parent_name,484af_0dot08-0dot1
ch_type,1_1
kcount,1
numberNandB,1
brightnessNandB,1
carpet pos,0
pc,0
Time (ms),CH1 Auto-Correlation
1.0,0.05851604789495468
2.0,0.05769502744078636
3.0,0.05691233649849892
4.0,0.05617888271808624
5.0,0.055493876338005066
6.0,0.054789114743471146
7.0,0.05409358814358711
8.0,0.05343923717737198
9.0,0.05274171009659767
10.0,0.05211875960230827
11.0,0.05151175335049629
12.0,0.050860702991485596
13.0,0.050297047942876816
14.0,0.04967377334833145
15.0,0.04912630096077919
16.0,0.04863768815994263
18.0,0.04771614447236061
20.0,0.04679255187511444
22.0,0.0459587387740612
24.0,0.0451451800763607
26.0,0.04433513060212135
28.0,0.04355256259441376
30.0,0.0428321473300457
32.0,0.04216273874044418
36.0,0.04096762090921402
40.0,0.039855338633060455
44.0,0.03880145773291588
48.0,0.037825360894203186
52.0,0.036822766065597534
56.0,0.03577332943677902
60.0,0.03488796576857567
64.0,0.03384885936975479
72.0,0.03204267844557762
80.0,0.030113110318779945
88.0,0.028223086148500443
96.0,0.026627518236637115
104.0,0.025355789810419083
112.0,0.024300849065184593
120.0,0.02348189987242222
128.0,0.022994840517640114
144.0,0.021877169609069824
160.0,0.021043948829174042
176.0,0.020442036911845207
192.0,0.019759399816393852
208.0,0.01890401542186737
224.0,0.017618266865611076
240.0,0.016251320019364357
256.0,0.015055538155138493
288.0,0.012180393561720848
320.0,0.010461542755365372
352.0,0.009321048855781555
384.0,0.00871636439114809
416.0,0.007252655457705259
448.0,0.006141792517155409
480.0,0.005834623239934444
512.0,0.004504544194787741
576.0,0.002592110773548484
640.0,0.002644358202815056
704.0,0.0023316885344684124
768.0,-0.00037284637801349163
832.0,-0.0010465285740792751
896.0,0.0002554998209234327
960.0,-0.0005354781751520932
1024.0,-0.0030702685471624136
1152.0,-0.0055114710703492165
1280.0,-0.007385178003460169
1408.0,-0.009623276069760323
1536.0,-0.007400051224976778
1664.0,-0.0006731969770044088
1792.0,0.002692436333745718
1920.0,-0.00010379754530731589
2048.0,0.0027991144452244043
2304.0,0.003676763968542218
2560.0,0.0018105553463101387
2816.0,-0.002258669352158904
3072.0,-0.006419443991035223
3328.0,-0.010392429307103157
3584.0,-0.013675820082426071
3840.0,-0.009192511439323425
4096.0,-0.004347661044448614
4608.0,0.008597420528531075
5120.0,0.0072173927910625935
5632.0,-0.001715244259685278
6144.0,0.0019984599202871323
6656.0,0.014223039150238037
7168.0,0.006183436140418053
7680.0,-0.01009280327707529
8192.0,-0.01057854387909174
end
