version,3.0
numOfCh,1
type,point
parent_name,484af_0dot08-0dot1
ch_type,1_1
kcount,1
numberNandB,1
brightnessNandB,1
carpet pos,0
pc,0
Time (ms),CH1 Auto-Correlation
1.0,0.09024012833833694
2.0,0.08960670232772827
3.0,0.08901769667863846
4.0,0.08846249431371689
5.0,0.08791186660528183
6.0,0.08737020939588547
7.0,0.08684779703617096
8.0,0.08631129562854767
9.0,0.08581661432981491
10.0,0.08532492071390152
11.0,0.08484912663698196
12.0,0.08438921719789505
13.0,0.0839473083615303
14.0,0.0834890678524971
15.0,0.08303912729024887
16.0,0.08260177820920944
18.0,0.08173326402902603
20.0,0.08085700124502182
22.0,0.08002936840057373
24.0,0.07922269403934479
26.0,0.07841266691684723
28.0,0.07758881151676178
30.0,0.07678322494029999
32.0,0.07598691433668137
36.0,0.07452051341533661
40.0,0.07309450954198837
44.0,0.071675144135952
48.0,0.07026185095310211
52.0,0.0688360184431076
56.0,0.06752820312976837
60.0,0.06633355468511581
64.0,0.06524749100208282
72.0,0.06306219100952148
80.0,0.06084370240569115
88.0,0.05861436575651169
96.0,0.05636522173881531
104.0,0.054166149348020554
112.0,0.05246465280652046
120.0,0.05116133764386177
128.0,0.05031544342637062
144.0,0.04835742712020874
160.0,0.046002063900232315
176.0,0.04363425448536873
192.0,0.0416867658495903
208.0,0.04074540361762047
224.0,0.039859287440776825
240.0,0.03876321762800217
256.0,0.03734614700078964
288.0,0.0356934517621994
320.0,0.032651498913764954
352.0,0.029721006751060486
384.0,0.028167275711894035
416.0,0.027913646772503853
448.0,0.028722940012812614
480.0,0.02896840311586857
512.0,0.028489064425230026
576.0,0.02471751533448696
640.0,0.021100139245390892
704.0,0.019540803506970406
768.0,0.018422534689307213
832.0,0.017107490450143814
896.0,0.013847887516021729
960.0,0.010725719854235649
1024.0,0.008734752424061298
1152.0,0.005752314813435078
1280.0,0.0024395762011408806
1408.0,0.0012022658484056592
1536.0,0.0032234294340014458
1664.0,0.011000912636518478
1792.0,0.01635320857167244
1920.0,0.01742372289299965
2048.0,0.01801009476184845
2304.0,0.02279837243258953
2560.0,0.020282501354813576
2816.0,0.01663156971335411
3072.0,0.012327441945672035
3328.0,0.009465551003813744
3584.0,0.010541584342718124
3840.0,-0.0016148471040651202
4096.0,-0.007846941240131855
4608.0,-0.006090533919632435
5120.0,-0.005143336020410061
5632.0,0.0018271441804245114
6144.0,-0.014499939046800137
6656.0,-0.03479123115539551
7168.0,-0.01902182586491108
7680.0,-0.02446659654378891
8192.0,-0.018048226833343506
end
