version,3.0
numOfCh,1
type,point
parent_name,484af_0dot08-0dot1
ch_type,1_1
kcount,1
numberNandB,1
brightnessNandB,1
carpet pos,0
pc,0
Time (ms),CH1 Auto-Correlation
1.0,0.05862961709499359
2.0,0.05809702351689339
3.0,0.057580526918172836
4.0,0.05708496272563934
5.0,0.05662546306848526
6.0,0.05616896227002144
7.0,0.05571514740586281
8.0,0.05526570975780487
9.0,0.054818861186504364
10.0,0.05437881499528885
11.0,0.05394841730594635
12.0,0.05353580042719841
13.0,0.05311458557844162
14.0,0.05269446223974228
15.0,0.052295248955488205
16.0,0.051913466304540634
18.0,0.05117656663060188
20.0,0.05045435577630997
22.0,0.049783941358327866
24.0,0.04916839301586151
26.0,0.04856997728347778
28.0,0.047977935522794724
30.0,0.04739636555314064
32.0,0.046823736280202866
36.0,0.04569552466273308
40.0,0.04467494785785675
44.0,0.043691281229257584
48.0,0.04270371422171593
52.0,0.041665900498628616
56.0,0.04061007872223854
60.0,0.039533499628305435
64.0,0.03845665603876114
72.0,0.03630276769399643
80.0,0.0343819297850132
88.0,0.03273070231080055
96.0,0.03129618987441063
104.0,0.03005821816623211
112.0,0.02889544703066349
120.0,0.02779276855289936
128.0,0.02663898840546608
144.0,0.02451496757566929
160.0,0.023052947595715523
176.0,0.021875493228435516
192.0,0.021522188559174538
208.0,0.02145933359861374
224.0,0.021337686106562614
240.0,0.021030299365520477
256.0,0.02021724544465542
288.0,0.018219156190752983
320.0,0.0157513078302145
352.0,0.013031216338276863
384.0,0.0103622330352664
416.0,0.0077621424570679665
448.0,0.006214448716491461
480.0,0.00495494669303298
512.0,0.004179003648459911
576.0,0.004334442783147097
640.0,0.0044148163869977
704.0,0.005255048628896475
768.0,0.005182898137718439
832.0,0.0039790417067706585
896.0,0.0031395922414958477
960.0,0.00459988322108984
1024.0,0.005656583234667778
1152.0,0.0026827624533325434
1280.0,0.0020385594107210636
1408.0,0.0011030512396246195
1536.0,-0.0013367726933211088
1664.0,-0.006672731600701809
1792.0,-0.006657554768025875
1920.0,-0.005406658630818129
2048.0,-0.007614092901349068
2304.0,-0.006562708877027035
2560.0,-0.008199816569685936
2816.0,-0.01047001127153635
3072.0,-0.008003643713891506
3328.0,-0.002923151245340705
3584.0,0.0003879719879478216
3840.0,0.0004339729202911258
4096.0,-0.0007639760733582079
4608.0,-0.002396270167082548
5120.0,-0.0015821541892364621
5632.0,-0.0026888344436883926
6144.0,-0.0019023764180019498
6656.0,-0.003144994145259261
7168.0,1.8596459995023906e-05
7680.0,-0.001082048169337213
8192.0,-0.0008387920097447932
end
