version,3.0
numOfCh,1
type,point
parent_name,484af_0dot08-0dot1
ch_type,1_1
kcount,1
numberNandB,1
brightnessNandB,1
carpet pos,0
pc,0
Time (ms),CH1 Auto-Correlation
1.0,0.0651792362332344
2.0,0.06440918892621994
3.0,0.0636921375989914
4.0,0.06298109889030457
5.0,0.06233658269047737
6.0,0.061695098876953125
7.0,0.06107280030846596
8.0,0.06048008054494858
9.0,0.05988842248916626
10.0,0.059308093041181564
11.0,0.05874726548790932
12.0,0.058193132281303406
13.0,0.0576617568731308
14.0,0.05717259272933006
15.0,0.056691136211156845
16.0,0.056199681013822556
18.0,0.055224910378456116
20.0,0.05427005887031555
22.0,0.05337086319923401
24.0,0.052515752613544464
26.0,0.05165938287973404
28.0,0.05075132101774216
30.0,0.04986388236284256
32.0,0.04900142550468445
36.0,0.047439828515052795
40.0,0.046001728624105453
44.0,0.044606342911720276
48.0,0.04328007251024246
52.0,0.042106203734874725
56.0,0.040985215455293655
60.0,0.03990554064512253
64.0,0.038853175938129425
72.0,0.03678729385137558
80.0,0.03453010320663452
88.0,0.0324217826128006
96.0,0.030608313158154488
104.0,0.028783267363905907
112.0,0.027078501880168915
120.0,0.025564009323716164
128.0,0.024414757266640663
144.0,0.02250598557293415
160.0,0.020387543365359306
176.0,0.01847155950963497
192.0,0.01722424104809761
208.0,0.015653204172849655
224.0,0.013891974464058876
240.0,0.012690318748354912
256.0,0.012311144731938839
288.0,0.01195323932915926
320.0,0.011396780610084534
352.0,0.0111192986369133
384.0,0.009948075748980045
416.0,0.007852031849324703
448.0,0.004463658668100834
480.0,0.0008034789934754372
512.0,-0.0004985012346878648
576.0,-0.0014120686100795865
640.0,-0.0022669010795652866
704.0,-0.0008686503861099482
768.0,0.0003339290851727128
832.0,0.00038197459070943296
896.0,-0.00029254500987008214
960.0,0.001777581637725234
1024.0,0.0010442881612107158
1152.0,-0.0005454688216559589
1280.0,0.0019411928951740265
1408.0,-0.0023232242092490196
1536.0,-0.007037212140858173
1664.0,-0.0029421718791127205
1792.0,-0.001435065409168601
1920.0,-0.0010212919441983104
2048.0,-0.0009597128955647349
2304.0,-0.005151773802936077
2560.0,-0.011712309904396534
2816.0,-0.0073317959904670715
3072.0,-0.0026087211444973946
3328.0,0.005213264841586351
3584.0,0.003019253723323345
3840.0,0.0010968451388180256
4096.0,-0.004487509373575449
4608.0,-0.00530615309253335
5120.0,0.005782422609627247
5632.0,0.00521447928622365
6144.0,-0.003299970645457506
6656.0,-0.004471946507692337
7168.0,-0.0019843652844429016
7680.0,-0.0035898026544600725
8192.0,-0.0074889869429171085
end
