version,3.0
numOfCh,1
type,point
parent_name,484af_0dot08-0dot1
ch_type,1_1
kcount,1
numberNandB,1
brightnessNandB,1
carpet pos,0
pc,0
Time (ms),CH1 Auto-Correlation
1.0,0.12518486380577087
2.0,0.12106979638338089
3.0,0.11668528616428375
4.0,0.11213035881519318
5.0,0.10746371001005173
6.0,0.10313402116298676
7.0,0.09893375635147095
8.0,0.09453156590461731
9.0,0.09026509523391724
10.0,0.08626117557287216
11.0,0.08261910080909729
12.0,0.07844186574220657
13.0,0.07784067839384079
14.0,0.077162966132164
15.0,0.07643652707338333
16.0,0.07576632499694824
18.0,0.07433411478996277
20.0,0.07327736914157867
22.0,0.07213037461042404
24.0,0.07127589732408524
26.0,0.0706605389714241
28.0,0.06980504840612411
30.0,0.06871187686920166
32.0,0.06780317425727844
36.0,0.06617668271064758
40.0,0.06488070636987686
44.0,0.06328452378511429
48.0,0.06170018017292023
52.0,0.06017434597015381
56.0,0.05869530141353607
60.0,0.05751096084713936
64.0,0.0569169744849205
72.0,0.055120497941970825
80.0,0.053901974111795425
88.0,0.051873475313186646
96.0,0.04990442842245102
104.0,0.0491059310734272
112.0,0.04798851162195206
120.0,0.04690521955490112
128.0,0.04527629166841507
144.0,0.0432833693921566
160.0,0.041574832051992416
176.0,0.0396791473031044
192.0,0.037699852138757706
208.0,0.03576202318072319
224.0,0.034246668219566345
240.0,0.03281021490693092
256.0,0.03134848177433014
288.0,0.03020566515624523
320.0,0.02902856096625328
352.0,0.029279662296175957
384.0,0.029377223923802376
416.0,0.029137058183550835
448.0,0.027982501313090324
480.0,0.025452768430113792
512.0,0.023700479418039322
576.0,0.021808210760354996
640.0,0.01932689920067787
704.0,0.019926663488149643
768.0,0.0193650983273983
832.0,0.016013404354453087
896.0,0.013123045675456524
960.0,0.012784022837877274
1024.0,0.01238571759313345
1152.0,0.011210760101675987
1280.0,0.010979410260915756
1408.0,0.014800588600337505
1536.0,0.015482820570468903
1664.0,0.006812522187829018
1792.0,0.0018866655882447958
1920.0,0.002564036985859275
2048.0,0.002003430388867855
2304.0,-0.013030470348894596
2560.0,-0.012792099267244339
2816.0,-0.02144511044025421
3072.0,-0.011768550612032413
3328.0,-0.008282497525215149
3584.0,-0.013570953160524368
3840.0,-0.0201594065874815
4096.0,-0.0209881030023098
4608.0,-0.01065748743712902
5120.0,0.004928823560476303
5632.0,0.012591329403221607
6144.0,0.019631996750831604
6656.0,0.024903137236833572
7168.0,0.022342046722769737
7680.0,0.013393082655966282
8192.0,-0.0057144626043736935
end
