version,3.0
numOfCh,1
type,point
parent_name,484af_0dot08-0dot1
ch_type,1_1
kcount,1
numberNandB,1
brightnessNandB,1
carpet pos,0
pc,0
Time (ms),CH1 Auto-Correlation
1.0,0.07103552669286728
2.0,0.07012879848480225
3.0,0.06927712261676788
4.0,0.06849140673875809
5.0,0.06774766743183136
6.0,0.06701801717281342
7.0,0.06630902737379074
8.0,0.06560967862606049
9.0,0.06494416296482086
10.0,0.06427878886461258
11.0,0.06363608688116074
12.0,0.06307251751422882
13.0,0.06250471621751785
14.0,0.061935052275657654
15.0,0.06140582263469696
16.0,0.06088454648852348
18.0,0.05989149212837219
20.0,0.05894894897937775
22.0,0.05813182145357132
24.0,0.05736564099788666
26.0,0.056532394140958786
28.0,0.055727045983076096
30.0,0.05488274618983269
32.0,0.05407806485891342
36.0,0.052378132939338684
40.0,0.05057760328054428
44.0,0.04883705452084541
48.0,0.04726579040288925
52.0,0.04578440263867378
56.0,0.04448091983795166
60.0,0.0431487113237381
64.0,0.041720520704984665
72.0,0.03882081061601639
80.0,0.03681144863367081
88.0,0.03528875485062599
96.0,0.03352760896086693
104.0,0.031495362520217896
112.0,0.02977849543094635
120.0,0.028375109657645226
128.0,0.027410592883825302
144.0,0.02645602636039257
160.0,0.0250330101698637
176.0,0.022725852206349373
192.0,0.02140558697283268
208.0,0.019309012219309807
224.0,0.016803989186882973
240.0,0.01503754686564207
256.0,0.013774026185274124
288.0,0.012831349857151508
320.0,0.011870766058564186
352.0,0.012357658706605434
384.0,0.010678794234991074
416.0,0.0075403135269880295
448.0,0.0033666519448161125
480.0,-0.0007722097216174006
512.0,-0.002159814815968275
576.0,-0.0011676615104079247
640.0,-0.002212870866060257
704.0,-0.00033687573159113526
768.0,0.0033875722438097
832.0,0.004042464774101973
896.0,0.004176855552941561
960.0,0.007606205530464649
1024.0,0.009179732762277126
1152.0,0.007695108652114868
1280.0,0.003918940667062998
1408.0,0.0029955380596220493
1536.0,0.0017790808342397213
1664.0,-0.0011472096666693687
1792.0,-0.00026670729857869446
1920.0,-0.0012608144897967577
2048.0,0.0032380453776568174
2304.0,0.0025299754925072193
2560.0,-0.007687350269407034
2816.0,-0.011207127012312412
3072.0,-0.00537757808342576
3328.0,-0.005339895375072956
3584.0,-0.0018584217177703977
3840.0,0.0033155905548483133
4096.0,0.0030145191121846437
4608.0,-0.0043930658139288425
5120.0,-9.567704546498135e-05
5632.0,-0.009099871851503849
6144.0,0.007561518810689449
6656.0,-0.010317949578166008
7168.0,-0.022251155227422714
7680.0,-0.016814352944493294
8192.0,-0.012026405893266201
end
