version,3.0
numOfCh,1
type,point
parent_name,484af_0dot08-0dot1
ch_type,1_1
kcount,1
numberNandB,1
brightnessNandB,1
carpet pos,0
pc,0
Time (ms),CH1 Auto-Correlation
1.0,0.0697445496916771
2.0,0.0691060796380043
3.0,0.0684712678194046
4.0,0.06785214692354202
5.0,0.06726644188165665
6.0,0.06670387834310532
7.0,0.06615356355905533
8.0,0.0655941367149353
9.0,0.06503722816705704
10.0,0.06447755545377731
11.0,0.06391969323158264
12.0,0.06336177885532379
13.0,0.06280647218227386
14.0,0.0622376911342144
15.0,0.06171727925539017
16.0,0.06116349250078201
18.0,0.06007726863026619
20.0,0.05903676152229309
22.0,0.05804422125220299
24.0,0.0571010485291481
26.0,0.056128159165382385
28.0,0.05516454949975014
30.0,0.05425838381052017
32.0,0.05341990292072296
36.0,0.05188123509287834
40.0,0.05041567236185074
44.0,0.04892260953783989
48.0,0.04758552089333534
52.0,0.046252816915512085
56.0,0.044927239418029785
60.0,0.0436096265912056
64.0,0.0423729382455349
72.0,0.039989858865737915
80.0,0.03789272531867027
88.0,0.03617514297366142
96.0,0.03489018976688385
104.0,0.033905040472745895
112.0,0.0328822024166584
120.0,0.03172188252210617
128.0,0.03046119585633278
144.0,0.027397843077778816
160.0,0.024536000564694405
176.0,0.02154265157878399
192.0,0.01900923252105713
208.0,0.016519727185368538
224.0,0.013637777417898178
240.0,0.011589959263801575
256.0,0.009858019649982452
288.0,0.005366393830627203
320.0,0.0032160072587430477
352.0,0.003043215721845627
384.0,0.003038333263248205
416.0,0.0026373625732958317
448.0,0.002050815150141716
480.0,0.0026607890613377094
512.0,0.003565808292478323
576.0,0.003651672974228859
640.0,0.00015313444600906223
704.0,-0.004955145996063948
768.0,-0.006380737759172916
832.0,-0.004610336851328611
896.0,-0.0027433624491095543
960.0,-0.0015267344424501061
1024.0,-0.00021378131350502372
1152.0,-0.0006639506318606436
1280.0,-0.006591218523681164
1408.0,-0.007691728416830301
1536.0,-0.008117000572383404
1664.0,-0.009471464902162552
1792.0,-0.010441947728395462
1920.0,-0.006717941723763943
2048.0,-0.0064051165245473385
2304.0,-0.015518232248723507
2560.0,-0.00281540397554636
2816.0,-0.0006822486175224185
3072.0,0.002053233329206705
3328.0,0.0030990000814199448
3584.0,0.010529839433729649
3840.0,0.012585414573550224
4096.0,0.006656245794147253
4608.0,-0.004941246006637812
5120.0,-0.00323567190207541
5632.0,-0.008493570610880852
6144.0,-0.0048496718518435955
6656.0,0.0019749056082218885
7168.0,0.005083854775875807
7680.0,0.0098620830103755
8192.0,0.002470168983563781
end
