version,3.0
numOfCh,1
type,point
parent_name,484af_0dot08-0dot1
ch_type,1_1
kcount,1
numberNandB,1
brightnessNandB,1
carpet pos,0
pc,0
Time (ms),CH1 Auto-Correlation
1.0,0.07185903936624527
2.0,0.07122208923101425
3.0,0.07058119773864746
4.0,0.06996385753154755
5.0,0.0693473070859909
6.0,0.06876122206449509
7.0,0.0681702122092247
8.0,0.06761341542005539
9.0,0.06705629080533981
10.0,0.06650096923112869
11.0,0.06592759490013123
12.0,0.0653659775853157
13.0,0.06482445448637009
14.0,0.06428464502096176
15.0,0.06375806778669357
16.0,0.06324814260005951
18.0,0.06220768392086029
20.0,0.061222996562719345
22.0,0.06025463342666626
24.0,0.05931781232357025
26.0,0.05838673561811447
28.0,0.057460758835077286
30.0,0.0565599761903286
32.0,0.05567734315991402
36.0,0.05404527857899666
40.0,0.05255954712629318
44.0,0.05118304118514061
48.0,0.04994434863328934
52.0,0.04893064871430397
56.0,0.0480792410671711
60.0,0.047298677265644073
64.0,0.046413980424404144
72.0,0.044325798749923706
80.0,0.042528823018074036
88.0,0.04108775407075882
96.0,0.03984476998448372
104.0,0.03885588049888611
112.0,0.03804877772927284
120.0,0.037402842193841934
128.0,0.0368758849799633
144.0,0.035687319934368134
160.0,0.034653425216674805
176.0,0.03348309546709061
192.0,0.03233809024095535
208.0,0.031544942408800125
224.0,0.030435703694820404
240.0,0.029184939339756966
256.0,0.027844185009598732
288.0,0.025343596935272217
320.0,0.02390396222472191
352.0,0.021552059799432755
384.0,0.0201015193015337
416.0,0.019175279885530472
448.0,0.01688922755420208
480.0,0.014646515250205994
512.0,0.013182244263589382
576.0,0.010319788940250874
640.0,0.006258731242269278
704.0,0.002265596529468894
768.0,0.0007255229284055531
832.0,0.0022358556743711233
896.0,4.378210724098608e-05
960.0,-0.000963780446909368
1024.0,8.257802983280271e-05
1152.0,-0.0001412740530213341
1280.0,-0.0011131176725029945
1408.0,-0.0026230316143482924
1536.0,0.00108044920489192
1664.0,0.0035225728061050177
1792.0,0.004317363724112511
1920.0,0.006927779410034418
2048.0,0.008095699362456799
2304.0,0.008015024475753307
2560.0,0.004744131583720446
2816.0,0.0044352225959300995
3072.0,0.0006489625666290522
3328.0,-0.003102205228060484
3584.0,-0.006681077182292938
3840.0,-0.006022177636623383
4096.0,-0.004357517696917057
4608.0,0.005574892740696669
5120.0,0.010566583834588528
5632.0,-0.0013146159471943974
6144.0,-0.008129443041980267
6656.0,-0.009886621497571468
7168.0,0.005514591932296753
7680.0,0.003091880353167653
8192.0,-0.011948516592383385
end
