version,3.0
numOfCh,1
type,point
parent_name,484af_0dot08-0dot1
ch_type,1_1
kcount,1
numberNandB,1
brightnessNandB,1
carpet pos,0
pc,0
Time (ms),CH1 Auto-Correlation
1.0,0.06729727983474731
2.0,0.06639683991670609
3.0,0.0654783695936203
4.0,0.06466314196586609
5.0,0.0638943612575531
6.0,0.06321864575147629
7.0,0.06255877763032913
8.0,0.06194804981350899
9.0,0.0613274946808815
10.0,0.06070912256836891
11.0,0.060084324330091476
12.0,0.05947693809866905
13.0,0.058891139924526215
14.0,0.058345191180706024
15.0,0.05785283446311951
16.0,0.05736222863197327
18.0,0.056426119059324265
20.0,0.055489420890808105
22.0,0.054549217224121094
24.0,0.05357139930129051
26.0,0.05256973206996918
28.0,0.051567159593105316
30.0,0.05060412734746933
32.0,0.049659378826618195
36.0,0.047866225242614746
40.0,0.04618745669722557
44.0,0.044646814465522766
48.0,0.043139636516571045
52.0,0.04173973947763443
56.0,0.04036294296383858
60.0,0.03900263458490372
64.0,0.03784502297639847
72.0,0.03564269840717316
80.0,0.0332978181540966
88.0,0.031444888561964035
96.0,0.02988792583346367
104.0,0.028581785038113594
112.0,0.027368716895580292
120.0,0.026511989533901215
128.0,0.02569335512816906
144.0,0.023773955181241035
160.0,0.022159850224852562
176.0,0.02027738280594349
192.0,0.019356779754161835
208.0,0.018827635794878006
224.0,0.01840999163687229
240.0,0.018689805641770363
256.0,0.01924062892794609
288.0,0.02031657285988331
320.0,0.021114397794008255
352.0,0.02115687169134617
384.0,0.020277483388781548
416.0,0.018199468031525612
448.0,0.017527544870972633
480.0,0.017604557797312737
512.0,0.017577238380908966
576.0,0.017140258103609085
640.0,0.01722596399486065
704.0,0.013924725353717804
768.0,0.011603841558098793
832.0,0.006443784572184086
896.0,0.003942530136555433
960.0,0.0043579209595918655
1024.0,0.0036148857325315475
1152.0,0.0030678040347993374
1280.0,0.004827502649277449
1408.0,0.003167815273627639
1536.0,-0.002698460128158331
1664.0,0.0030408853199332952
1792.0,0.004572310484945774
1920.0,0.0027728842105716467
2048.0,0.005160628352314234
2304.0,-8.705095387995243e-05
2560.0,-0.005901653319597244
2816.0,-0.012800810858607292
3072.0,-0.012054696679115295
3328.0,-0.010667053051292896
3584.0,-0.010000965557992458
3840.0,-0.007235318422317505
4096.0,-0.010836934670805931
4608.0,-0.01427768636494875
5120.0,-0.004364178515970707
5632.0,0.004808465018868446
6144.0,0.004359318409115076
6656.0,-0.01212823111563921
7168.0,-0.006900905631482601
7680.0,0.0010708450572565198
8192.0,0.004690360277891159
end
