version,3.0
numOfCh,1
type,point
parent_name,714af_3dot0-0dot01
ch_type,1_1
kcount,1
numberNandB,1
brightnessNandB,1
carpet pos,0
pc,0
Time (ms),CH1 Auto-Correlation
1.0,0.027638966217637062
2.0,0.023331280797719955
3.0,0.020373379811644554
4.0,0.018306903541088104
5.0,0.016486655920743942
6.0,0.014936716295778751
7.0,0.013490886427462101
8.0,0.012411114759743214
9.0,0.011574012227356434
10.0,0.010850461199879646
11.0,0.010042021982371807
12.0,0.009388982318341732
13.0,0.009025057777762413
14.0,0.008825396187603474
15.0,0.008558927103877068
16.0,0.008262227289378643
18.0,0.007853823713958263
20.0,0.007403108291327953
22.0,0.006940077058970928
24.0,0.006741381715983152
26.0,0.005813670344650745
28.0,0.0052856337279081345
30.0,0.005580104421824217
32.0,0.00537870405241847
36.0,0.005073214881122112
40.0,0.0044071488082408905
44.0,0.004279762972146273
48.0,0.004587432369589806
52.0,0.004432958550751209
56.0,0.004043503198772669
60.0,0.0035084213595837355
64.0,0.003291672095656395
72.0,0.0032745725475251675
80.0,0.0030991295352578163
88.0,0.0031975344754755497
96.0,0.002809545025229454
104.0,0.0024263944942504168
112.0,0.0030813917983323336
120.0,0.0026106727309525013
128.0,0.002274368889629841
144.0,0.001115152146667242
160.0,0.0017582268919795752
176.0,0.001961062429472804
192.0,0.0018578509334474802
208.0,0.001654112827964127
224.0,0.0013202606933191419
240.0,0.000805536808911711
256.0,0.00019213205086998641
288.0,2.9797556635458022e-05
320.0,0.001068915706127882
352.0,0.0004548625147435814
384.0,0.00031834232504479587
416.0,0.0010339068248867989
448.0,0.0017166722100228071
480.0,0.0012436553370207548
512.0,0.001556257950142026
576.0,0.0009068700019270182
640.0,0.00046140002086758614
704.0,0.00082542555173859
768.0,0.0005464691203087568
832.0,0.0011147380573675036
896.0,0.0013958633644506335
960.0,0.0016794591210782528
1024.0,0.00018135341815650463
1152.0,-0.0001725854817777872
1280.0,-1.3516292710846756e-05
1408.0,0.0005381722003221512
1536.0,6.227236008271575e-05
1664.0,-0.0006129287648946047
1792.0,-0.00031863435287959874
1920.0,-0.0014821530785411596
2048.0,-0.0004503532836679369
2304.0,-0.0015558871673420072
2560.0,-0.0017746291123330593
2816.0,-0.00031187920831143856
3072.0,-0.00038101666723378
3328.0,-0.0004227567696943879
3584.0,0.0010410671820864081
3840.0,0.00020696842693723738
4096.0,-0.0017171950312331319
4608.0,-0.00048294407315552235
5120.0,-0.0003641331859398633
5632.0,-0.0024986490607261658
6144.0,-0.0012719155056402087
6656.0,0.0008038750966079533
7168.0,-0.00010053008008981124
7680.0,0.00027836606022901833
8192.0,0.0014715997967869043
end
