version,3.0
numOfCh,1
type,point
parent_name,714af_3dot0-0dot01
ch_type,1_1
kcount,1
numberNandB,1
brightnessNandB,1
carpet pos,0
pc,0
Time (ms),CH1 Auto-Correlation
1.0,0.026864977553486824
2.0,0.022005967795848846
3.0,0.01869792304933071
4.0,0.01636074110865593
5.0,0.014499717392027378
6.0,0.012800796888768673
7.0,0.011243516579270363
8.0,0.010069815441966057
9.0,0.009374338202178478
10.0,0.008691891096532345
11.0,0.007905351929366589
12.0,0.007335436064749956
13.0,0.006953572388738394
14.0,0.006516659632325172
15.0,0.006156052462756634
16.0,0.005836986005306244
18.0,0.005381362978368998
20.0,0.005090179853141308
22.0,0.00478454539552331
24.0,0.004361447878181934
26.0,0.003866242477670312
28.0,0.003786305198445916
30.0,0.0038278738502413034
32.0,0.003753511467948556
36.0,0.003324402030557394
40.0,0.00292766815982759
44.0,0.0027450723573565483
48.0,0.0027975670527666807
52.0,0.0022259573452174664
56.0,0.002323027001693845
60.0,0.00236708321608603
64.0,0.002270372351631522
72.0,0.0019337920239195228
80.0,0.0017208238132297993
88.0,0.0008084414293989539
96.0,0.00020885425328742713
104.0,8.377324411412701e-05
112.0,0.0002989708154927939
120.0,-0.00024249416310340166
128.0,0.00020981823035981506
144.0,-0.00014312085113488138
160.0,-0.00021254993043839931
176.0,0.0006030373042449355
192.0,0.000825318566057831
208.0,0.0005462366971187294
224.0,3.3663851354504004e-05
240.0,0.0009299906087107956
256.0,-1.7198475688928738e-05
288.0,-0.0005464004352688789
320.0,0.0005681095062755048
352.0,0.0012471252121031284
384.0,0.0015364278806373477
416.0,0.0007955266628414392
448.0,0.00040408087079413235
480.0,0.000313962169457227
512.0,0.0001326755591435358
576.0,-0.00017221413145307451
640.0,-3.1455358111998066e-05
704.0,0.00011394049215596169
768.0,-0.0011799742933362722
832.0,-0.00015396327944472432
896.0,0.00022790754155721515
960.0,-0.00036609871312975883
1024.0,-0.00020844447135459632
1152.0,-0.0007097949855960906
1280.0,-0.0004025321686640382
1408.0,-0.0002449005260132253
1536.0,-2.9918413929408416e-05
1664.0,0.00038602802669629455
1792.0,0.0004578038351610303
1920.0,0.0002912403142545372
2048.0,0.0004920691717416048
2304.0,-0.00010599519737297669
2560.0,-0.0006325957947410643
2816.0,-0.00022078040638007224
3072.0,-0.0006093862466514111
3328.0,0.00015632898430339992
3584.0,0.00024509691866114736
3840.0,-0.00014092256606090814
4096.0,-0.0002198613656219095
4608.0,-0.00041890027932822704
5120.0,-0.0003314511268399656
5632.0,0.00020140197011642158
6144.0,-6.375444354489446e-05
6656.0,-1.1034429917344823e-05
7168.0,0.0006384570151567459
7680.0,0.0005267137894406915
8192.0,-0.0001428437390131876
end
