version,3.0
numOfCh,1
type,point
parent_name,714af_3dot0-0dot01
ch_type,1_1
kcount,1
numberNandB,1
brightnessNandB,1
carpet pos,0
pc,0
Time (ms),CH1 Auto-Correlation
1.0,0.028739534318447113
2.0,0.023958353325724602
3.0,0.020796168595552444
4.0,0.018311401829123497
5.0,0.01624995656311512
6.0,0.014572132378816605
7.0,0.013138456270098686
8.0,0.012071356177330017
9.0,0.011233222670853138
10.0,0.010345677845180035
11.0,0.009465488605201244
12.0,0.008760146796703339
13.0,0.00830418337136507
14.0,0.008043619804084301
15.0,0.007879147306084633
16.0,0.007742426358163357
18.0,0.007477934937924147
20.0,0.007101863157004118
22.0,0.0066069792956113815
24.0,0.006145326420664787
26.0,0.006120399106293917
28.0,0.005918801296502352
30.0,0.005697945598512888
32.0,0.005241860169917345
36.0,0.004768449813127518
40.0,0.004364947788417339
44.0,0.004099072422832251
48.0,0.003938985522836447
52.0,0.004122950602322817
56.0,0.003878404852002859
60.0,0.003893308574333787
64.0,0.004097574390470982
72.0,0.0033307296689599752
80.0,0.0030017441604286432
88.0,0.0026940132956951857
96.0,0.0025889165699481964
104.0,0.002149934647604823
112.0,0.0018770898459479213
120.0,0.0009433906525373459
128.0,0.0007348296931013465
144.0,0.00033819975215010345
160.0,-0.0002557495899964124
176.0,-0.00048407650319859385
192.0,-0.00014104846923146397
208.0,-0.00022251148766372353
224.0,-0.000593977456446737
240.0,0.00024033219960983843
256.0,-5.87597896810621e-05
288.0,-0.00018396793166175485
320.0,0.00021553381520789117
352.0,7.792239193804562e-05
384.0,0.00027530643274076283
416.0,0.0007341758464463055
448.0,0.00041751304524950683
480.0,0.0009155726293101907
512.0,0.0010787768987938762
576.0,0.0008349742856808007
640.0,-9.388764010509476e-05
704.0,-6.971419497858733e-05
768.0,-6.270656740525737e-05
832.0,0.00030048578628338873
896.0,0.00012613476428668946
960.0,0.0007418825989589095
1024.0,0.0008221342577598989
1152.0,-0.000399890064727515
1280.0,-0.0007022047066129744
1408.0,-0.00039571651723235846
1536.0,0.0003223362728022039
1664.0,0.0007607313455082476
1792.0,-0.0004078629135619849
1920.0,-0.0007047244580462575
2048.0,-0.0007128253928385675
2304.0,0.0005974536179564893
2560.0,-0.0005732112331315875
2816.0,0.000546118535567075
3072.0,-4.280255961930379e-05
3328.0,0.00014211333473213017
3584.0,-0.00043458613799884915
3840.0,-8.635222911834717e-05
4096.0,2.1581806777248858e-06
4608.0,3.542869308148511e-05
5120.0,-0.0001887642574729398
5632.0,3.8781159673817456e-05
6144.0,0.00046271010069176555
6656.0,0.00048733927542343736
7168.0,-0.00021842014393769205
7680.0,-0.0009196958271786571
8192.0,-0.0006997928721830249
end
