version,3.0
numOfCh,1
type,point
parent_name,714af_3dot0-0dot01
ch_type,1_1
kcount,1
numberNandB,1
brightnessNandB,1
carpet pos,0
pc,0
Time (ms),CH1 Auto-Correlation
1.0,0.026995094493031502
2.0,0.02218945510685444
3.0,0.018862301483750343
4.0,0.016323057934641838
5.0,0.014229443855583668
6.0,0.012563028372824192
7.0,0.01134240347892046
8.0,0.010300484485924244
9.0,0.009492327459156513
10.0,0.008964058011770248
11.0,0.008242319338023663
12.0,0.007856633514165878
13.0,0.007482853252440691
14.0,0.007114851381629705
15.0,0.006905770860612392
16.0,0.006689431611448526
18.0,0.005959112197160721
20.0,0.00529177300632
22.0,0.0051707555539906025
24.0,0.004913229960948229
26.0,0.004623010754585266
28.0,0.004192630760371685
30.0,0.0037104706279933453
32.0,0.0037436378188431263
36.0,0.003596574068069458
40.0,0.0034192048478871584
44.0,0.0035041230730712414
48.0,0.00333713018335402
52.0,0.0030792555771768093
56.0,0.0025397285353392363
60.0,0.00225482857786119
64.0,0.0021316688507795334
72.0,0.0019984589889645576
80.0,0.0015560021856799722
88.0,0.0021719797514379025
96.0,0.0022630509920418262
104.0,0.002645788947120309
112.0,0.002428232692182064
120.0,0.001940876361913979
128.0,0.0017946520820260048
144.0,0.000980963697656989
160.0,0.0006733506452292204
176.0,0.0007397967274300754
192.0,0.0005508839967660606
208.0,0.0005130026838742197
224.0,0.0014695206191390753
240.0,0.0011954765068367124
256.0,0.0015274030156433582
288.0,0.0009715963969938457
320.0,0.000670006382279098
352.0,0.00044156619696877897
384.0,0.0008284052601084113
416.0,0.0012297523207962513
448.0,0.0008609037613496184
480.0,0.0009185569360852242
512.0,0.0017700226744636893
576.0,0.0010242306161671877
640.0,0.0013001641491428018
704.0,0.0011115496745333076
768.0,0.0007725394098088145
832.0,0.001356439315713942
896.0,0.0014131874777376652
960.0,0.0005139693967066705
1024.0,-9.241823136107996e-05
1152.0,0.001121599692851305
1280.0,0.0008356351754628122
1408.0,0.00040451428503729403
1536.0,0.00040024385089054704
1664.0,0.00043071710388176143
1792.0,0.0003432011289987713
1920.0,0.00014251869288273156
2048.0,0.0001401079207425937
2304.0,0.00038823363138362765
2560.0,-0.000542015943210572
2816.0,-0.0006633141892962158
3072.0,-2.3302422050619498e-05
3328.0,-0.0012076077982783318
3584.0,-0.0007132794125936925
3840.0,-0.001061571529135108
4096.0,-0.0007788727525621653
4608.0,-0.0010756573174148798
5120.0,-0.0005124277668073773
5632.0,-0.0006260222289711237
6144.0,-0.00029272332903929055
6656.0,-0.0003303547855466604
7168.0,-0.00013844533532392234
7680.0,-0.0004480814386624843
8192.0,0.00032606543391011655
end
