version,3.0
numOfCh,1
type,point
parent_name,714af_3dot0-0dot01
ch_type,1_1
kcount,1
numberNandB,1
brightnessNandB,1
carpet pos,0
pc,0
Time (ms),CH1 Auto-Correlation
1.0,0.03458468243479729
2.0,0.03007940575480461
3.0,0.02706780843436718
4.0,0.024731675162911415
5.0,0.02277996577322483
6.0,0.02137245424091816
7.0,0.020406467840075493
8.0,0.019476190209388733
9.0,0.018546277657151222
10.0,0.01767919212579727
11.0,0.016780801117420197
12.0,0.015942739322781563
13.0,0.014996469020843506
14.0,0.014514421112835407
15.0,0.014037460088729858
16.0,0.013536646962165833
18.0,0.012594522908329964
20.0,0.011261585168540478
22.0,0.010111581534147263
24.0,0.00944508332759142
26.0,0.009136774577200413
28.0,0.008798692375421524
30.0,0.008594480343163013
32.0,0.0083429841324687
36.0,0.008221409283578396
40.0,0.007984221912920475
44.0,0.0074365148320794106
48.0,0.007347500883042812
52.0,0.007444438990205526
56.0,0.007124863564968109
60.0,0.0069894068874418736
64.0,0.0065048024989664555
72.0,0.006037096492946148
80.0,0.0054310038685798645
88.0,0.005027624778449535
96.0,0.004457937553524971
104.0,0.003954770043492317
112.0,0.0032745092175900936
120.0,0.0027347756549715996
128.0,0.0031883709598332644
144.0,0.004172647837549448
160.0,0.004217215348035097
176.0,0.0022045555524528027
192.0,0.0025761425495147705
208.0,0.005164596252143383
224.0,0.005198906175792217
240.0,0.005273038521409035
256.0,0.005550185684114695
288.0,0.0050452034920454025
320.0,0.003957971930503845
352.0,0.004527516197413206
384.0,0.00423181289806962
416.0,0.0035506130661815405
448.0,0.002546581206843257
480.0,0.0029575901571661234
512.0,0.004423046484589577
576.0,0.004283756949007511
640.0,0.0032175411470234394
704.0,0.0008742587524466217
768.0,0.0011931471526622772
832.0,0.0025716633535921574
896.0,0.0028873737901449203
960.0,0.0027149368543177843
1024.0,0.001908486825414002
1152.0,0.0008416445343755186
1280.0,0.0009022409212775528
1408.0,0.0005808915011584759
1536.0,0.00014631116937380284
1664.0,-0.0005380456568673253
1792.0,-0.00030368639272637665
1920.0,-4.550891389953904e-05
2048.0,-0.0010231826454401016
2304.0,-0.0025347452610731125
2560.0,-0.0026097565423697233
2816.0,-0.002445483347401023
3072.0,-0.002228550845757127
3328.0,-0.0019302914151921868
3584.0,-0.00066829175921157
3840.0,-0.00048282044008374214
4096.0,-0.0004557871143333614
4608.0,-0.0022953797597438097
5120.0,-0.00163666857406497
5632.0,-0.0027529026847332716
6144.0,-0.0015107388608157635
6656.0,-7.50668696127832e-05
7168.0,9.35494463192299e-05
7680.0,0.0013329893117770553
8192.0,0.0030366252176463604
end
