version,3.0
numOfCh,1
type,point
parent_name,714af_3dot0-0dot01
ch_type,1_1
kcount,1
numberNandB,1
brightnessNandB,1
carpet pos,0
pc,0
Time (ms),CH1 Auto-Correlation
1.0,0.13156980276107788
2.0,0.12760114669799805
3.0,0.12457599490880966
4.0,0.12219099700450897
5.0,0.12026061117649078
6.0,0.11844232678413391
7.0,0.11694356799125671
8.0,0.11573057621717453
9.0,0.11481472104787827
10.0,0.11385979503393173
11.0,0.11302794516086578
12.0,0.11227627843618393
13.0,0.11157418042421341
14.0,0.11090271174907684
15.0,0.11039654910564423
16.0,0.10968010872602463
18.0,0.10853622853755951
20.0,0.10742172598838806
22.0,0.10614054650068283
24.0,0.10507386922836304
26.0,0.10425994545221329
28.0,0.10349996387958527
30.0,0.10286521166563034
32.0,0.10239001363515854
36.0,0.1012793630361557
40.0,0.10009971261024475
44.0,0.09878912568092346
48.0,0.0976286381483078
52.0,0.09620263427495956
56.0,0.09494049847126007
60.0,0.09337767213582993
64.0,0.0922054722905159
72.0,0.09093336760997772
80.0,0.08980730175971985
88.0,0.08853068947792053
96.0,0.08687786757946014
104.0,0.08482113480567932
112.0,0.08385276049375534
120.0,0.0832471176981926
128.0,0.08236680924892426
144.0,0.08112187683582306
160.0,0.08003121614456177
176.0,0.07953427731990814
192.0,0.0782608836889267
208.0,0.0768752172589302
224.0,0.07618121802806854
240.0,0.07450438290834427
256.0,0.07435288280248642
288.0,0.07346390187740326
320.0,0.0709153562784195
352.0,0.06897891312837601
384.0,0.06817950308322906
416.0,0.06636030972003937
448.0,0.06506204605102539
480.0,0.0615670308470726
512.0,0.05850238353013992
576.0,0.05108639597892761
640.0,0.04860299080610275
704.0,0.04311949387192726
768.0,0.033132195472717285
832.0,0.02790040336549282
896.0,0.023068875074386597
960.0,0.022249916568398476
1024.0,0.018055308610200882
1152.0,0.003204807173460722
1280.0,-0.002296549268066883
1408.0,-0.004408559296280146
1536.0,-0.003586290404200554
1664.0,-0.0037258921656757593
1792.0,-0.0036553090903908014
1920.0,-0.004147729836404324
2048.0,-0.0037101430352777243
2304.0,-0.007265615276992321
2560.0,-0.009869654662907124
2816.0,-0.010764623992145061
3072.0,-0.008833052590489388
3328.0,-0.010895979590713978
3584.0,-0.008138403296470642
3840.0,-0.007056275382637978
4096.0,-0.006672976538538933
4608.0,-0.002160452539101243
5120.0,0.002067508175969124
5632.0,0.0004274567763786763
6144.0,-0.006931290030479431
6656.0,-0.006436870899051428
7168.0,-0.009315330535173416
7680.0,-0.026935650035738945
8192.0,-0.0406675823032856
end
