version,3.0
numOfCh,1
type,point
parent_name,714af_3dot0-0dot01
ch_type,1_1
kcount,1
numberNandB,1
brightnessNandB,1
carpet pos,0
pc,0
Time (ms),CH1 Auto-Correlation
1.0,0.02816685102880001
2.0,0.023338288068771362
3.0,0.01997469924390316
4.0,0.017417415976524353
5.0,0.01519017480313778
6.0,0.013624722138047218
7.0,0.012450185604393482
8.0,0.011442656628787518
9.0,0.010630876757204533
10.0,0.009869899600744247
11.0,0.009258804842829704
12.0,0.008879855275154114
13.0,0.008468663319945335
14.0,0.008170166984200478
15.0,0.007693631574511528
16.0,0.007406662683933973
18.0,0.006876952014863491
20.0,0.006261899601668119
22.0,0.005847658030688763
24.0,0.005502073559910059
26.0,0.005219837184995413
28.0,0.004833908285945654
30.0,0.004504687152802944
32.0,0.004436980001628399
36.0,0.004232351668179035
40.0,0.0033299699425697327
44.0,0.0027324554976075888
48.0,0.0020808130502700806
52.0,0.0017909974558278918
56.0,0.0017400092910975218
60.0,0.0023696019779890776
64.0,0.0025212238542735577
72.0,0.0012566312216222286
80.0,0.0012185747036710382
88.0,0.0018272551242262125
96.0,0.0015381351113319397
104.0,0.0012436495162546635
112.0,0.0015416848473250866
120.0,0.0009915762348100543
128.0,0.0010784611804410815
144.0,0.0006095627322793007
160.0,-0.00039245164953172207
176.0,-0.00016342784510925412
192.0,0.00017560164269525558
208.0,0.000648265122435987
224.0,0.00012926297495141625
240.0,0.00011346083920216188
256.0,0.00015361073019448668
288.0,0.00018078714492730796
320.0,-0.00025182400713674724
352.0,-0.00030376799986697733
384.0,0.0005352224106900394
416.0,0.0008260096656158566
448.0,-0.00012931406672578305
480.0,-0.0007435603765770793
512.0,-3.74918854504358e-05
576.0,-0.0005267029046081007
640.0,0.0002515970263630152
704.0,-0.000908838992472738
768.0,-0.001098290435038507
832.0,-0.00014999679115135223
896.0,0.00037053029518574476
960.0,-0.0003551075351424515
1024.0,-0.0006072520045563579
1152.0,0.0002723594370763749
1280.0,0.0007931820000521839
1408.0,-0.00024127676442731172
1536.0,0.00039886884042061865
1664.0,0.00016788420907687396
1792.0,-0.00047679574345238507
1920.0,-0.0003246903943363577
2048.0,4.677465767599642e-05
2304.0,-0.0006165969534777105
2560.0,-0.00010038938489742577
2816.0,9.907354979077354e-05
3072.0,-0.00029026283300481737
3328.0,0.0007760993321426213
3584.0,-0.000260383851127699
3840.0,-9.863365266937762e-05
4096.0,-0.0002246507501695305
4608.0,0.00012219684140291065
5120.0,0.00015920463192742318
5632.0,-0.0005661582108587027
6144.0,-6.361479609040543e-05
6656.0,-0.0004706457839347422
7168.0,0.00014778043259866536
7680.0,-6.338887033052742e-05
8192.0,-0.0002071384369628504
end
